
 $NMID
 id='ANONYMOUS ', fmtdat='(2E16.6)'
 volume=1.0
 tramp=1.0
 $END
   2.359235e+03  -3.198227e+01
   1.889585e+03   1.335349e+03
   1.641570e+02   1.914992e+03
  -1.027819e+03   1.393486e+03
  -9.278846e+02   4.250332e+02
  -1.877356e+02  -1.613821e+02
   2.599094e+02  -3.783790e+01
   6.809269e+01   3.651667e+02
  -2.867191e+02   5.665060e+02
  -5.307215e+02   2.565281e+02
  -3.956664e+02  -3.984544e+02
  -1.935836e+01  -6.290349e+02
   3.293765e+02  -1.799485e+02
   1.398064e+02   3.817393e+02
  -1.394795e+02   4.491323e+02
  -3.589083e+02   3.897867e+01
  -3.538940e+02  -4.534839e+02
   4.468824e+00  -6.154314e+02
   4.479225e+02  -2.583794e+02
   4.633772e+02   1.516594e+02
   1.943282e+02   2.717256e+02
  -8.842377e+01   2.014690e+02
  -1.354676e+02   5.695424e+01
   1.282151e+02   1.367992e+02
   2.335013e+02   3.803382e+02
  -7.451987e+01   3.375004e+02
  -4.615731e+02   1.294640e+02
  -5.778319e+02  -2.520972e+02
  -1.944533e+02  -3.568058e+02
   2.847768e+02  -1.475456e+02
   4.267121e+02   1.267244e+02
   1.583370e+02   3.262420e+02
  -2.088333e+02   2.677408e+02
  -4.196294e+02   1.185569e+02
  -2.705473e+02  -1.442589e+02
  -5.551092e+01  -2.411206e+02
  -5.480529e+01  -1.743578e+02
  -6.815814e+01   4.791353e+01
  -1.608065e+02   1.421453e+02
  -1.482228e+02  -1.393280e+02
   4.214572e+01  -4.075228e+02
   2.211564e+02  -3.493546e+02
   2.324109e+02  -1.992878e+00
   4.973518e+01   2.375954e+02
  -1.403457e+02   9.315687e+01
  -5.910911e+01  -2.338712e+02
   1.579967e+02  -3.065944e+02
   3.981746e+02  -7.459515e+01
   4.341972e+02   3.288758e+02
   1.666629e+02   4.435455e+02
  -2.722830e+02   2.841556e+02
  -4.438404e+02  -9.606955e+01
  -3.181697e+02  -2.214822e+02
   5.769467e+01  -2.158607e+02
   2.836040e+02  -9.321352e+01
   2.135827e+02   5.513349e+01
   2.285107e+01   4.534256e+01
  -4.222958e+01  -7.378214e+00
   8.871264e+01  -8.332838e+00
   1.781747e+02   8.541145e+00
   1.237073e+02   1.567034e+02
  -1.240736e+02   2.409527e+02
  -2.852285e+02   1.800000e+02
  -2.654667e+02  -7.596519e+01
   1.493094e+01  -3.770718e+02
   3.240524e+02  -3.855854e+02
   4.249806e+02  -9.191759e+01
   2.666867e+02   2.424443e+02
   3.405931e+01   3.511082e+02
  -5.166041e+01   2.555062e+02
  -1.828201e+01   1.562173e+02
  -5.236799e+01   1.252543e+02
  -1.792568e+02   1.313230e+02
  -2.685810e+02   1.980228e+01
  -1.945156e+02  -1.499045e+02
  -3.868143e+01  -2.835115e+02
   1.150816e+02  -1.866321e+02
   1.891172e+02   5.390853e+01
   1.323652e+02   2.521551e+02
  -2.790757e+01   2.481135e+02
  -2.094110e+02   7.434781e+01
  -2.963161e+02  -1.423247e+02
  -1.739004e+02  -2.301172e+02
   1.714941e+01  -2.223047e+02
   1.382845e+02  -1.582700e+02
   1.381331e+02  -1.186694e+02
   1.434954e+02  -1.039954e+02
   2.828659e+02  -6.297945e+01
   3.821732e+02   1.082435e+02
   3.321522e+02   3.113773e+02
  -2.187131e+01   4.114088e+02
  -3.354800e+02   3.306001e+02
  -4.581478e+02   1.257645e+02
  -2.775893e+02  -1.066481e+02
  -6.097423e+00  -2.115237e+02
   9.372815e+01  -1.422665e+02
  -7.533018e+00   6.904575e+00
  -1.292471e+02  -4.323166e+00
  -1.062568e+02  -7.198908e+01
   1.360640e+01  -1.289814e+02
   1.237880e+02  -5.904802e+01
   1.197837e+02   8.582303e+01
  -1.499376e+01   1.270402e+02
  -1.799425e+02   5.049390e+00
  -1.260406e+02  -2.159324e+02
   7.928651e+01  -3.281130e+02
   2.959572e+02  -1.951727e+02
   3.354851e+02   7.306612e+01
   2.433335e+02   2.595714e+02
   6.382691e+01   3.142289e+02
  -1.113807e+02   1.503810e+02
  -1.645182e+02   1.728284e+01
  -4.083249e+01  -2.106165e+01
   3.718313e+01   6.167371e+01
  -2.045955e+01   1.247251e+02
  -1.443854e+02   3.537291e+01
  -1.458251e+02  -7.463548e+01
  -1.176465e+01  -8.369278e+01
   8.228161e+01   1.734813e+01
   6.260936e+01   1.011243e+02
  -1.051228e+02   6.982657e+01
  -2.754472e+02  -3.972618e+01
  -2.532213e+02  -1.950479e+02
   1.018997e+01  -2.807257e+02
   2.263277e+02  -1.930863e+02
   2.386187e+02  -6.544501e+01
   1.139893e+02   7.629525e+01
  -4.552237e+01   8.346764e+01
  -4.566568e+01   1.858840e+01
   4.384523e+01  -7.264895e+01
   1.380659e+02  -6.004136e+01
   1.192585e+02   1.033297e+02
  -6.535789e+00   1.689167e+02
  -1.297542e+02   1.385181e+02
  -1.210496e+02   3.662255e+00
  -2.844374e+01  -8.337948e+01
   9.078653e+01  -1.066073e+00
   4.242783e+01   1.482494e+02
  -1.029141e+02   1.140103e+02
  -1.917212e+02   4.280669e+01
  -1.619985e+02  -1.406966e+02
  -1.765932e+01  -1.957785e+02
   1.261777e+02  -1.300851e+02
   1.345373e+02  -3.648811e+00
   6.759494e+01   2.639232e+01
  -2.426539e+01   5.590709e+01
  -1.389985e+01  -2.160676e+01
   3.080875e+01  -2.503373e+01
   1.522847e+01   1.656952e+01
  -2.070966e+01   1.114083e+02
  -9.471568e+01  -1.996955e+01
  -1.134083e+02  -1.005529e+02
  -2.056157e+01  -1.831117e+02
   1.741261e+02  -1.408423e+02
   2.343427e+02   3.724589e+01
   1.872777e+02   2.130748e+02
  -2.540783e+01   2.522295e+02
  -1.544502e+02   1.774333e+02
  -1.643735e+02  -1.137450e+01
  -7.323691e+01  -9.099150e+01
  -3.266547e+01  -1.964977e+01
  -4.890183e+01   2.670987e+01
  -1.223128e+02   2.060300e+01
  -9.590372e+01  -9.420065e+01
   6.684686e+01  -1.123691e+02
   1.401913e+02  -6.572806e+01
   1.027317e+02   6.600134e+01
  -2.723071e+01   1.378724e+02
  -2.002498e+02   5.755811e+01
  -2.120286e+02  -1.304849e+02
  -1.846112e+01  -2.446315e+02
   1.707162e+02  -1.839414e+02
   2.618969e+02  -5.278761e+01
   2.716374e+02   1.051589e+02
   1.096176e+02   1.487016e+02
  -2.608499e+01   1.596720e+02
  -6.390030e+01   4.472734e+01
  -6.199624e+01   1.050833e+01
  -4.321436e+01   7.524898e+01
  -1.148261e+02   9.193845e+01
  -1.544066e+02   6.768247e+00
  -1.080041e+02  -1.930624e+02
  -1.590242e+01  -2.664958e+02
   1.281687e+02  -1.627357e+02
   1.704719e+02   5.086712e+01
   1.126787e+02   1.543121e+02
  -1.659146e+01   1.714791e+02
  -1.095184e+02   8.734932e+01
  -7.269301e+01  -7.827474e+01
   9.833824e+00  -8.056598e+01
   8.493401e+01   1.979209e+00
   1.192741e+01   1.313376e+01
  -9.025869e+01   1.732122e+01
  -2.426777e-01  -5.224326e+01
   7.701752e+01  -3.247423e+01
   1.843570e+02   3.214444e+01
   1.476554e+02   1.405837e+02
  -2.566752e+01   1.072481e+02
  -1.495826e+02   6.245912e+01
  -1.720780e+02  -5.122159e+01
  -5.081368e+01  -7.527416e+01
   2.807358e+01  -8.547985e+01
   1.113174e+02   9.193063e+00
   7.197588e+01   8.786667e+01
  -9.801299e+00   1.006709e+02
  -2.663540e+01  -1.351192e+01
  -5.918407e+01  -5.122361e+01
  -4.160391e+01  -2.802145e+01
  -3.799981e+01   1.041355e+01
  -5.792560e+01   3.552741e+01
  -6.085549e+01  -8.003850e+01
   3.315750e+01  -1.341054e+02
   1.191288e+02  -1.204576e+02
   1.738770e+02   2.956832e+01
   1.473192e+02   1.092440e+02
   1.036922e+01   1.372848e+02
  -1.244950e+02   8.013785e+01
  -9.527536e+01  -1.387585e+01
   4.435870e+01  -1.155236e+01
   1.279217e+02   4.819080e+01
   8.793704e+01   1.031159e+02
  -1.018759e+02   9.224908e+01
  -1.748395e+02  -5.151038e+00
  -1.282174e+02  -5.655142e+01
  -4.905618e+01  -7.668922e+01
   5.711631e+01  -4.154351e+01
   7.062972e+01   2.829131e+01
  -3.329574e+01   1.434138e+01
  -5.624936e+01  -1.248003e+01
  -2.348138e+01  -9.517816e+01
   5.328328e+01  -1.251794e+02
   1.398188e+02  -2.347138e+01
   1.198919e+02   8.705822e+01
  -1.180806e+01   2.075063e+02
  -8.094862e+01   1.639565e+02
  -9.387028e+01   1.181379e+01
  -7.695614e+01  -1.360390e+02
   6.028925e+00  -1.099225e+02
   3.357513e+01   2.117638e+01
   4.565339e+00  -1.087904e+01
   2.017127e+01  -3.390114e+01
   3.828994e+01  -4.467112e+01
   5.205438e+01   1.898879e+01
   8.135821e+01   1.102730e+02
   3.915673e+00   1.056619e+02
  -8.578939e+01   6.848041e+01
  -7.932546e+01  -2.802076e+01
  -1.100878e+02  -4.250711e+01
  -6.931580e+00  -2.157167e+01
   3.974798e+01  -2.627341e+01
   1.017253e+02  -4.400370e+00
   2.268563e+01   5.640316e+01
  -5.089623e+01   2.431210e+01
  -3.430434e+01   1.312806e+01
   1.559915e+01  -2.064600e+01
  -1.358650e+01  -2.085930e+01
  -7.846024e+01  -1.086217e+01
  -6.817621e+01  -2.758319e+01
   1.858255e+01  -1.233330e+02
   7.151907e+01  -1.666193e+02
   1.855790e+02  -5.709793e+01
   1.311648e+02   6.046728e+01
  -8.518465e+00   2.062830e+02
  -1.084615e+02   1.745775e+02
  -1.643189e+02   4.093149e+01
  -9.708946e+01  -7.706324e+01
  -6.935239e+01  -6.419483e+01
  -4.567021e+01  -4.106219e+01
  -4.797773e+01  -6.950810e+00
  -1.314487e+00  -5.831792e+01
   3.896479e+01  -7.377673e+01
   2.776932e+01  -8.859592e+01
   9.388354e+01   1.816925e+01
   1.116346e+02   6.587660e+01
   3.006578e+01   8.614634e+01
  -1.221956e+01   3.304296e+01
  -9.314797e+01  -8.532688e+01
  -6.024287e+01  -9.994850e+01
   5.819255e+01  -5.307522e+01
   1.367752e+02  -1.101374e+01
   6.615335e+01   6.641817e+01
  -5.232314e+01   8.157577e+01
  -8.318271e+01   1.689870e+01
  -4.885231e+01  -3.978293e+01
   6.015551e+01  -2.302739e+01
   1.054977e+01   3.659498e+01
  -8.045627e+01   5.185062e+01
  -9.953859e+01   1.070213e+01
  -7.996946e+01  -3.533142e+01
   3.381402e+01  -7.253622e+01
   7.769860e+01  -7.894142e+01
   5.161744e+01   1.334358e+01
  -3.489885e+01   4.664463e+01
  -1.381261e+01   8.647584e+01
  -5.143602e+01  -6.068828e+00
   1.154129e+01  -4.463839e+01
  -6.082044e+01  -6.265200e+01
   4.112411e+00  -2.211543e+01
   2.234742e+01   4.069257e+01
   4.732199e+01  -3.762105e+00
  -5.039761e+00   1.174011e+01
   2.092651e+01  -1.295839e+01
   3.537360e+01   6.250157e+01
   3.158395e+00   6.092625e+01
  -4.573988e+01   3.386373e+01
  -3.319471e+01  -6.269592e+01
  -3.619345e+01  -8.559991e+01
   4.959894e+01  -4.551960e+01
   6.232798e+01   7.763850e+01
   4.815468e+00   7.237890e+01
  -1.036887e+02   4.327934e+01
  -1.264473e+02  -3.755364e+01
  -7.421637e+01  -7.836047e+01
   3.893170e+01  -5.762075e+01
   5.712409e+01  -5.739057e+01
   3.061950e+01  -1.382408e+01
  -5.538819e+01   2.016403e+01
  -4.092134e+01  -4.931739e+01
   1.539907e+00  -7.657002e+01
   9.093298e+01  -4.324005e+01
