
 $NMID
 id='ANONYMOUS ', fmtdat='(2E16.6)'
 volume=1.0
 tramp=1.0
 $END
  -1.139601e+03   2.638036e+01
  -8.492641e+02  -5.681472e+02
  -9.863103e+01  -7.509511e+02
   3.631723e+02  -6.541463e+02
   4.131356e+02  -2.859775e+02
   8.060830e+01   9.250272e+01
  -5.290010e+01   6.930076e+01
  -4.917595e+01  -4.952329e+01
   1.117842e+02  -2.420969e+02
   2.263608e+02  -6.474839e+01
   1.317099e+02   1.506140e+02
   8.933267e+01   2.379386e+02
  -1.401387e+02   1.040598e+02
  -1.022600e+02  -1.103231e+02
   4.414587e+01  -1.694668e+02
   1.505921e+02  -1.398160e+01
   1.242654e+02   1.731492e+02
  -5.689613e+01   3.086096e+02
  -2.432717e+02   1.556369e+02
  -2.301678e+02  -6.611360e+01
  -1.284717e+02  -1.260632e+02
   1.546310e+01  -1.220405e+02
  -5.522614e+01   8.398298e+00
  -5.358546e+01  -6.254483e+01
  -4.355072e+01  -1.899951e+02
   9.354964e+01  -1.701630e+02
   2.533517e+02  -1.038399e+01
   1.805470e+02   1.335118e+02
   4.653671e+01   8.711641e+01
  -1.264663e+02   1.957526e+01
  -2.140811e+02  -1.427731e+02
  -6.874547e+01  -1.457809e+02
   1.127035e+02  -1.063951e+02
   1.685707e+02  -5.018338e+01
   1.008201e+02   4.620602e+01
  -3.667868e+01   1.249541e+02
  -2.527531e+01   4.760272e+01
   6.055624e+01  -2.493582e+01
   7.257893e+01   1.539991e+00
   4.430303e+01   1.022143e+02
  -3.397120e+01   1.570884e+02
  -9.029291e+01   4.479433e+01
  -6.328888e+01  -4.540468e+01
   2.629807e+00  -9.828476e+01
   7.258599e+01   2.921077e+01
   1.771450e+01   1.425080e+02
  -9.204830e+01   1.643719e+02
  -2.084421e+02   1.973120e+01
  -1.898613e+02  -1.911517e+02
  -4.231825e+01  -2.538606e+02
   1.308609e+02  -1.273855e+02
   2.049063e+02   1.627232e+01
   1.483066e+02   1.092694e+02
  -8.813095e+00   1.004982e+02
  -8.583317e+01   6.896965e+01
  -1.016583e+02   1.818056e+01
  -3.403880e+01  -2.681306e+00
  -3.253056e+01  -9.978321e+00
  -5.224920e+01  -7.061232e+01
  -7.792001e+01  -7.558913e+01
  -6.044488e+01  -1.042814e+02
   9.973183e+01  -1.133299e+02
   1.987863e+02  -4.460144e+01
   1.306832e+02   8.010749e+01
  -2.718126e+01   1.608178e+02
  -1.733693e+02   1.643307e+02
  -1.821654e+02   6.027354e+01
  -1.001199e+02  -1.053943e+02
  -2.031655e+01  -1.534224e+02
  -1.525154e+01  -1.471508e+02
  -9.383592e+00  -1.225798e+02
   1.611899e+01  -9.852989e+01
   9.860933e+01  -5.881017e+01
   1.750254e+02   5.671288e+00
   1.131010e+02   1.016136e+02
  -1.957551e+01   1.399662e+02
  -1.369868e+02   9.287945e+01
  -9.185054e+01  -5.941024e+01
  -1.077727e+01  -1.450892e+02
   7.613730e+01  -1.431606e+02
   1.293041e+02   2.318318e+01
   1.186028e+02   1.496333e+02
   9.706701e+01   1.555558e+02
  -1.776323e+01   1.088388e+02
  -9.055165e+01   8.458726e+01
  -7.092371e+01   7.106709e+01
  -9.009496e+01   8.020850e+01
  -1.440144e+02  -2.251884e+01
  -1.951338e+02  -8.782324e+01
  -1.381221e+02  -1.665311e+02
   4.994773e+01  -1.834185e+02
   1.819822e+02  -1.733899e+02
   2.534405e+02  -6.584992e+01
   1.050377e+02   3.215109e+01
   1.114426e+00   1.168361e+02
  -6.572528e+01   9.372506e+01
  -9.930299e+00   1.978604e+00
   8.972286e+01  -5.491319e+00
   3.306269e+01  -1.421927e-01
   3.498864e-01   2.064051e+01
  -6.794460e+01   3.906254e+01
  -3.706884e+01  -2.812581e+01
   3.801871e+01  -3.282342e+01
   3.795467e+01   2.184729e+01
   8.479259e+01   1.145939e+02
  -5.498638e+01   1.635217e+02
  -1.177286e+02   7.921058e+01
  -1.781915e+02  -3.364306e+01
  -1.469967e+02  -1.312923e+02
   1.828964e+01  -1.167996e+02
   7.167670e+01  -3.335550e+01
   8.136497e+01  -8.247863e+00
   7.128355e+01   6.312596e+00
  -3.803514e+01  -1.695560e+01
   1.611018e+01  -5.118842e+01
   6.303117e+01   5.220011e+00
   6.996885e+01   6.751172e+01
  -2.267037e+01   3.080377e+01
  -5.934931e+01  -3.124343e+01
  -2.793279e+01  -4.450915e+01
   8.795565e+01  -1.062961e+01
   1.890496e+02   4.420131e+01
   1.184171e+02   1.262080e+02
  -4.154214e+01   1.275735e+02
  -1.230550e+02   1.004808e+02
  -1.192753e+02   2.713274e+01
  -1.471662e+01  -4.964895e+01
   3.071103e+01  -6.071735e+01
   3.336958e+01   3.472527e+01
  -1.653388e+01   6.395279e+01
  -9.251518e+01   1.170832e-01
  -9.433223e+01  -5.022008e+01
  -2.848371e+01  -1.281753e+02
   7.399917e+01  -7.275451e+01
   3.901704e+01   1.023011e+01
   7.239055e+00   5.553647e+01
  -5.112633e+01   3.256153e+01
  -2.255575e+01  -6.037878e+01
   5.673016e+01  -7.700289e+01
   1.111896e+02   2.722404e+01
   7.120496e+01   1.126023e+02
  -3.861398e+01   1.065834e+02
  -9.511212e+01   3.445126e+01
  -1.037721e+02  -3.733673e+01
  -4.468247e+01  -5.344469e+01
   2.229929e+01  -4.138121e+01
   9.802593e+00   3.214006e+01
   1.882515e+01   2.580599e+01
  -2.776685e+01   2.352003e+01
  -7.876056e+00  -5.055953e+01
   4.119446e+01  -2.728409e+01
   6.578742e+01   6.469216e+01
   3.117256e+01   9.684177e+01
  -2.397050e+01   8.071748e+01
  -8.432152e+01   3.301263e+01
  -6.747891e+01  -6.550886e+01
  -1.672219e+01  -9.679475e+01
   3.506375e+01  -7.889908e+01
   4.906542e+01  -1.096712e+01
   4.526137e+01   9.153919e+00
   3.050658e+01   3.054253e+01
   9.802164e+00  -2.636098e+01
   5.656657e+01   1.427803e+00
   2.811863e+01   8.976141e+01
  -6.731421e+01   2.487899e+01
  -6.915178e+01  -2.366119e+01
  -2.164106e+01  -1.773063e+01
   4.520816e+01  -3.314881e+01
   9.003222e+01   8.089352e+00
   8.720002e+01   4.508844e+01
  -8.831852e+00   7.657078e+01
  -1.035943e+02   4.379184e+01
  -1.140525e+02   7.915173e+00
  -9.447015e+01  -4.757214e+01
  -3.177073e+01  -6.596833e+01
   3.903896e+01  -4.756042e+01
  -1.085300e+01  -2.769618e+01
   1.823871e+01  -2.810156e+01
   1.952622e+01  -5.104692e+01
   2.931288e+01  -4.904338e+01
   1.003039e+02   1.893237e+01
   7.956669e+01   1.015814e+02
  -1.248436e+01   1.299244e+02
  -7.139973e+01   4.459277e+01
  -8.211600e+01  -2.374586e+01
  -3.383738e+01  -6.976167e+01
   1.727848e+01  -7.618345e+01
   3.617163e+01  -5.992420e+01
   5.096982e+01   1.625736e+01
  -3.087240e+01   4.347083e+01
  -2.931255e+01  -2.145415e+01
  -1.777506e+01  -9.047003e+00
   4.792152e+01  -1.156981e+01
   2.850618e+01   7.101781e+01
  -6.330106e+01   2.985985e+01
  -1.146756e+02  -3.064883e+01
  -1.021828e+02  -5.037267e+01
   1.547912e+01  -8.748391e+01
   9.507538e+01  -5.012527e+01
   6.173112e+01  -3.276553e+01
   7.015127e+01   2.928743e+01
  -2.045042e+01   3.178939e+01
  -4.643613e+01  -1.496045e+01
  -3.780183e+01  -2.423263e+01
   3.009027e+01  -6.870376e+00
   5.732087e+00   2.996489e+01
   2.913923e+00  -8.131197e+00
   3.617366e+01  -5.859545e+00
   4.071799e+01   2.771887e+00
   6.140705e+01  -1.442717e+01
   2.479741e+01   9.001157e+01
  -5.105040e+01   7.831437e+01
  -5.259587e+01   6.494862e+01
  -5.292930e+01   7.280725e+00
  -9.573930e+01  -5.361993e+01
   3.642353e+00  -5.658084e+01
   6.393993e+01  -1.893973e+01
   1.480735e+01   4.493922e+01
  -1.236601e+01  -2.840149e+00
  -6.518684e+01  -5.578659e+01
  -4.622750e+01  -5.306078e+01
   1.980309e+01  -7.829158e+01
   1.039762e+02  -1.084127e+01
   2.620837e+01   4.870245e+01
   1.012706e+01   3.386352e+01
  -2.243813e+00   4.823262e+01
  -3.860891e+01   4.148177e+00
   1.300071e+01  -1.982423e+01
   3.199858e+01   2.416536e+01
   1.102593e+01   3.479599e+01
   7.347109e-01   5.645713e+01
  -6.638683e+01   4.926173e+01
  -7.796533e+01  -4.286726e+01
  -1.132684e+01  -7.473240e+01
   6.998965e+01  -4.547846e+01
   7.047379e+01   3.035210e+00
   4.482987e+00   5.019240e+01
  -1.653120e+01   4.863117e+01
  -3.220859e+01   1.552957e+01
  -2.379100e+01  -3.374248e+01
   1.766118e+01  -1.975799e+01
   1.088375e+01  -6.546381e+00
   1.438731e+01   1.069048e+01
  -1.420291e+01  -4.397569e+00
  -4.509320e+01  -5.394823e+01
   7.081643e+01  -9.834570e+00
   6.937233e+01  -3.592356e+00
   4.877815e+01   1.308561e+01
   2.983298e+01   9.400679e+00
   1.118825e+00  -2.150077e+00
  -1.662245e+01   3.962584e+01
   1.299869e+01   2.400395e+01
  -2.685971e+01  -4.539408e-01
  -2.322508e+01  -1.532059e+01
   3.623846e+01  -2.214149e+01
  -2.451177e+01   3.484299e+01
   2.529905e+01  -1.064824e+01
   5.221540e+01   1.653352e+01
  -1.116051e+00  -1.451521e+01
  -6.846685e+01   3.886374e+01
  -5.600030e+01   2.907970e+01
  -8.501594e+01  -4.744927e+01
   2.001966e+01  -8.973520e+01
   4.974558e+01  -9.703157e+01
   5.441229e+01  -2.170492e+01
   2.622310e+01  -3.072285e+00
   5.210095e+01   1.264320e+01
   3.806194e+00   3.696045e+01
  -1.935173e+01   1.026105e+01
   1.459411e+01   1.262200e+00
   1.222833e+01   3.222929e+01
  -2.502772e+01   1.664175e+01
  -2.686758e+01  -1.846053e+01
  -1.463195e+01  -1.360352e+01
  -1.382887e+01  -2.250618e+01
   1.717461e+01  -8.724841e+00
   7.058435e+01   2.647852e+01
   2.960228e+01   4.419601e+01
  -6.076710e+01   5.770367e+01
  -5.370668e+01  -2.649216e+01
  -6.124396e+01  -5.253521e+01
   2.149615e+01  -8.511681e+01
   3.407925e+01   9.510968e+00
  -2.807985e+01   4.303833e+00
  -4.268239e+01  -2.378866e+01
  -3.408663e+01  -3.624439e+01
   3.666918e+01  -3.157654e+01
   2.832296e+01  -2.196838e+01
   9.859641e+00   1.071660e+01
   1.180878e+01   2.749112e+01
  -6.387878e+01   2.742713e+01
  -1.741480e+01   8.661695e+00
   6.166509e-01   2.100528e+01
   3.649015e+01  -2.081542e+01
   2.811811e+01   4.848209e+01
  -4.754642e+01   1.119280e+01
  -7.689597e-01   1.161122e+01
   2.518475e+01   1.399336e+01
  -1.998376e+01  -3.281084e+01
  -1.077082e+01   4.648060e+00
  -2.740830e+01   1.081453e+01
   9.145315e+00  -3.354969e+01
  -6.254460e+01  -3.334156e+01
  -1.707741e+00  -3.518992e+01
   2.905520e+01   4.469263e+00
   3.837137e+01   3.234219e+01
   2.466017e+01   5.932410e+01
  -2.951355e+01   4.781814e+01
  -2.580006e+01  -1.565677e+01
   2.847420e+01  -3.591645e+01
  -1.341564e+01  -4.050553e+01
   6.338807e+01  -1.883424e+01
   7.979433e+00   9.326438e+00
   6.859456e+00   2.545157e+01
  -3.436365e+01  -9.299475e-02
  -5.128846e+01  -2.246655e+01
   9.424850e+00  -2.704223e+01
  -5.489603e+00   1.081732e+01
  -2.965177e+01   1.043821e+01
  -2.063482e+01   4.696637e+00
