
 $NMID
 id='ANONYMOUS ', fmtdat='(2E16.6)'
 volume=1.0
 tramp=1.0
 $END
  -2.072452e+03  -6.349797e+01
  -1.638990e+03  -1.047059e+03
  -2.509403e+02  -1.613646e+03
   7.919960e+02  -1.178174e+03
   8.819614e+02  -4.238760e+02
   3.081282e+02   6.892096e+01
  -1.567583e+02   2.954354e+01
  -9.597675e+01  -3.948050e+02
   3.365644e+02  -4.712982e+02
   5.650932e+02  -1.822237e+02
   4.847372e+02   3.938285e+02
   1.600008e+02   5.291599e+02
  -2.171271e+02   2.564781e+02
  -1.685674e+02  -2.446037e+02
   6.163935e+01  -4.190739e+02
   3.562337e+02  -1.230270e+02
   2.421548e+02   3.461631e+02
  -7.211662e+01   5.506384e+02
  -3.645447e+02   2.630105e+02
  -4.433580e+02  -1.447670e+02
  -1.497122e+02  -2.776602e+02
   7.306642e+01  -2.413951e+02
  -5.631445e+00  -3.071892e+01
  -1.628009e+02  -9.982396e+01
  -2.100617e+02  -3.286073e+02
   6.616909e+01  -3.139950e+02
   4.011514e+02  -3.784213e+01
   4.273272e+02   1.794272e+02
   7.797365e+01   2.644017e+02
  -2.975252e+02   8.006624e+01
  -4.047569e+02  -1.558446e+02
  -1.483702e+02  -3.713306e+02
   2.163063e+02  -2.491329e+02
   3.612624e+02  -1.076002e+02
   2.387975e+02   9.094819e+01
   6.706682e+01   2.047271e+02
   4.747560e+01   1.068954e+02
   1.090778e+02  -2.961555e+01
   1.688998e+02  -1.432003e+01
   1.267283e+02   2.101482e+02
  -2.281306e+01   3.642466e+02
  -1.801948e+02   3.413578e+02
  -2.273684e+02   6.634086e+00
  -7.096695e+01  -1.743307e+02
   1.035117e+02  -4.646640e+01
   7.792611e+01   2.271262e+02
  -1.387462e+02   2.766072e+02
  -3.942432e+02   5.491547e+01
  -4.031542e+02  -2.884947e+02
  -1.814740e+02  -3.832860e+02
   1.736618e+02  -2.571129e+02
   4.126399e+02  -9.801860e+00
   2.824866e+02   1.429525e+02
  -1.237443e+01   1.374240e+02
  -2.213649e+02   8.864188e+01
  -1.873541e+02   5.039295e+00
  -6.455302e+01  -1.055911e+01
   5.074930e+01   4.858869e+01
   8.299003e+00   1.354295e+01
  -1.476680e+02  -2.563407e+01
  -1.182129e+02  -1.138438e+02
   8.388499e+01  -2.348071e+02
   3.027351e+02  -1.355354e+02
   2.647349e+02   7.297995e+01
   1.787305e+01   2.682106e+02
  -2.985232e+02   2.876610e+02
  -3.522928e+02   1.178121e+02
  -1.546671e+02  -1.377065e+02
   6.468818e+00  -2.426536e+02
   1.552466e+01  -2.011397e+02
   2.027496e+01  -1.466266e+02
   2.472138e+01  -1.528957e+02
   1.092544e+02  -1.042126e+02
   2.043975e+02  -3.420358e+01
   2.358994e+02   1.482128e+02
   9.543209e+01   1.992736e+02
  -6.721415e+01   1.516315e+02
  -1.521231e+02  -1.590740e+01
  -8.422001e+01  -2.129174e+02
   1.041215e+02  -2.209355e+02
   2.484563e+02  -3.701900e+01
   2.954059e+02   2.250740e+02
   1.357555e+02   2.888706e+02
  -9.651375e+01   2.406632e+02
  -1.904778e+02   1.302739e+02
  -1.620760e+02   2.812788e+01
  -1.237261e+02   4.728298e+01
  -2.368339e+02  -2.910673e+01
  -3.717453e+02  -1.072383e+02
  -2.577033e+02  -2.769274e+02
   2.062679e+01  -3.927595e+02
   3.406357e+02  -3.489565e+02
   4.540757e+02  -1.367524e+02
   2.789047e+02   8.165547e+01
   2.389631e+01   2.042474e+02
  -8.320107e+01   1.511198e+02
   1.742236e+01   3.488574e+01
   7.221823e+01   1.218232e+01
   9.921492e+01   1.148565e+02
   2.121337e+01   1.689796e+02
  -7.193022e+01   1.052071e+02
  -1.028833e+02  -5.124227e+01
  -3.211806e+01  -9.727450e+01
   1.266049e+02   3.408117e+01
   9.457864e+01   1.890814e+02
  -2.292741e+01   3.172865e+02
  -2.217711e+02   1.791056e+02
  -3.253536e+02  -4.937370e+01
  -2.446460e+02  -2.337182e+02
  -4.674622e+01  -2.382178e+02
   1.356379e+02  -1.321094e+02
   1.662953e+02   1.051541e+01
   3.863916e+01   2.114666e+01
  -6.157675e+01  -6.540235e+01
  -9.407504e+00  -4.329613e+01
   1.614215e+02  -8.398935e+01
   1.101128e+02   2.524488e+01
  -7.572025e+00   4.759832e+01
  -9.013175e+01   2.104672e+01
  -3.135961e+01  -9.894635e+01
   1.380998e+02  -1.404685e+02
   3.086425e+02  -2.076703e+01
   2.188642e+02   1.494950e+02
   1.911393e+01   2.647017e+02
  -1.484774e+02   1.598016e+02
  -2.701646e+02   4.223417e+01
  -1.576420e+02  -4.950805e+01
   1.394935e+01  -7.780298e+01
   5.332727e+01   1.416988e+01
  -7.945707e+01   6.633417e+01
  -1.902034e+02  -3.110295e+01
  -1.875146e+02  -1.027606e+02
  -6.286179e+01  -1.668123e+02
   9.896126e+01  -9.388813e+01
   1.570416e+02   3.611751e+01
   4.366683e+01   9.728678e+01
  -9.241310e+01   7.877628e+00
  -6.338237e+01  -1.068696e+02
   1.088769e+02  -1.410183e+02
   2.312862e+02   4.476136e+01
   2.142884e+02   1.543926e+02
   2.532399e+01   2.288413e+02
  -1.668567e+02   2.014669e+02
  -1.163153e+02   2.572766e+01
  -7.676743e+01  -6.704464e+01
   2.271107e+01  -6.315814e+01
   5.229947e+01  -2.654959e+01
   1.377566e+01   6.679450e+01
  -2.362754e+01   2.002652e+01
   3.826372e+01  -7.543375e+01
   1.184713e+02  -2.465041e+01
   1.054488e+02   9.502336e+01
   4.284075e+01   2.038670e+02
  -1.240128e+02   1.669414e+02
  -2.257337e+02  -1.570327e+01
  -1.958590e+02  -1.689567e+02
  -4.241646e+01  -1.267782e+02
   9.347621e+01  -1.235132e+02
   9.286087e+01  -1.098219e+01
   1.295017e+01   4.726712e+01
   1.916070e+01   1.480947e+01
   5.220400e+01  -4.252907e+01
   7.688762e+01  -1.557620e+01
   4.741952e+01   5.137965e+01
   6.467385e+00   9.258506e+01
  -1.229903e+02   3.148598e+01
  -1.123176e+02  -3.797553e+01
   2.788633e+01  -1.308193e+02
   1.655098e+02  -1.274932e+02
   2.377823e+02   2.461502e+01
   8.799388e+01   1.736233e+02
  -8.965559e+01   2.248386e+02
  -2.198053e+02   7.617743e+01
  -1.964556e+02  -7.137779e+01
  -1.059827e+02  -1.567312e+02
   1.446571e+01  -1.533167e+02
   5.744934e+01  -7.532807e+01
   6.736750e+01  -1.298390e+02
   3.454378e+01  -1.133229e+02
   5.984426e+01  -1.140678e+02
   1.519505e+02   3.085015e+01
   1.401367e+02   1.058182e+02
   3.526901e+01   2.117196e+02
  -9.344965e+01   1.305175e+02
  -1.828303e+02  -2.429093e+01
  -1.331217e+02  -1.520735e+02
   1.071135e+01  -1.821716e+02
   6.828288e+01  -6.873490e+01
   8.266523e+01   4.218759e+01
  -1.353318e+00   5.264603e+01
  -3.428261e+01   2.374812e+01
  -1.826142e+01   5.810781e+00
   5.938831e+01   2.616532e+01
   3.598374e+01   1.441466e+01
  -8.427437e+01   1.787384e+01
  -1.686217e+02  -8.496789e+00
  -1.368431e+02  -5.601906e+01
   4.458231e+01  -9.131548e+01
   1.612867e+02  -7.612940e+01
   1.585229e+02   3.447500e+01
   4.260175e+01   5.713077e+01
  -9.750902e+01   4.268364e+01
  -8.437742e+01  -1.173260e-01
  -1.375307e+01  -6.556077e+01
   6.520745e+01  -5.024789e+01
   5.203941e+01   2.970050e+01
   6.816214e+01   4.008423e+01
   3.444957e+00   5.049652e-01
   5.621567e+01  -1.671615e+00
   8.520287e+01  -2.794934e+01
  -2.661382e-01   6.228366e+01
  -7.550766e+01   1.673743e+02
  -1.641865e+02   1.617973e+02
  -1.844010e+02   3.021296e+01
  -1.204053e+02  -1.274509e+02
  -3.142226e+01  -1.258993e+02
   8.272197e+01  -8.402037e+01
   8.189229e+01  -3.784584e+01
  -6.732992e+00   5.568134e-01
  -8.627229e+01  -3.776651e+01
  -3.613390e+01  -6.820068e+01
   1.033626e+02  -1.345943e+02
   1.788190e+02  -4.880408e+01
   1.132725e+02   3.752096e+01
   2.584119e+01   8.035976e+01
  -4.272237e+01   4.125671e+01
  -3.977698e+01  -5.094852e+01
   2.161210e+01  -1.443288e+01
   7.815510e+01   2.225477e+01
   5.347885e+01   7.988166e+01
  -8.933665e+01   1.320270e+02
  -1.510056e+02   7.132718e+01
  -8.652918e+01  -7.142282e+01
  -2.052968e+01  -1.545761e+02
   5.589702e+01  -9.625485e+01
   6.813681e+01   4.158719e+01
   3.353056e+01   1.207981e+02
  -2.552958e+01   5.789170e+01
  -1.005747e+01  -7.235077e+01
   3.695762e+00  -4.416718e+01
   1.865974e+01   7.215864e+00
  -1.158640e+00   5.981752e+01
  -3.054401e+01   4.341300e+01
  -5.226549e+01  -9.633418e+01
  -1.699313e+01  -1.335181e+02
   1.055867e+02  -5.667631e+01
   1.505534e+02   6.520646e+00
   1.058685e+02   1.084330e+02
   2.197841e+01   7.710797e+01
  -1.352770e+02   3.321437e+01
  -8.745537e+01  -2.664780e+01
   1.121308e+01  -2.607697e+01
   3.846429e+01  -2.156468e+01
   4.400132e+01   1.758525e+01
  -1.343441e+01   1.508723e+01
  -1.388819e+01   1.286480e+01
   5.133962e+01  -1.544648e+01
   1.320368e+02  -1.099802e+01
   2.497142e+01   7.019694e+01
  -9.058279e+01   1.104131e+02
  -1.605389e+02   5.876917e+01
  -9.998005e+01   9.460490e+00
  -3.124483e+01  -1.101796e+02
   5.193291e+01  -1.488803e+02
   1.042968e+02  -3.442360e+01
   5.961977e+01   1.871948e+01
   1.504307e+01   5.204134e+01
   1.982078e+01   3.555946e+01
   1.475510e+01   2.083825e+01
   6.236207e+00   4.272778e+01
   2.298302e+01   3.268392e+01
  -5.693310e+01   3.207722e+01
  -8.095230e+01  -3.108613e+00
  -8.037585e+01  -3.832938e+01
  -3.650811e+01  -7.557200e+01
   3.496668e+01  -4.746655e+01
   1.022635e+02   6.349415e+01
   1.157531e+01   5.778098e+01
  -3.713905e+01  -2.566802e+01
  -7.681737e+01  -2.956286e+01
  -3.892881e+01  -4.123773e+01
   5.724375e+01  -4.575662e+01
   4.160217e+01  -4.970163e+00
  -3.996822e+01   8.446664e+00
  -5.916667e+01  -1.345653e+01
  -9.948146e+00  -3.502894e+01
   6.545640e+01  -7.133260e+01
   1.229655e+02  -5.612636e+01
   3.670456e+01   3.987217e+01
  -3.037964e+01   8.963830e+01
  -4.672666e+01   6.954073e+01
  -5.640628e+01   3.665747e+01
  -4.377676e+00  -2.871992e+01
   6.516898e+01  -5.380724e+01
   2.316330e+01   4.530670e+00
   9.286673e+00   5.328475e+01
  -6.403107e+00   5.833072e+01
  -2.338344e+01  -2.482840e+01
  -3.321928e+01  -4.770043e+01
  -5.487508e+01  -4.279019e+01
   1.819673e+00   2.305159e+01
   1.568763e+01  -1.172732e+01
  -7.671089e+00  -7.594199e+01
  -2.780418e+01  -7.642390e+01
   5.621096e+01   1.183289e+01
   7.957096e+01   1.582225e+01
   3.512495e+01   5.159593e+01
  -1.811706e+01   7.427287e+01
  -5.494614e+01   1.410671e+00
  -2.390776e+01  -5.612173e+01
   2.469537e+01  -3.443647e+01
   5.585613e+01  -7.641362e+00
   4.002189e+01   4.640249e+01
  -5.660427e+01   7.531172e+01
  -5.500927e+01   2.756767e+01
   4.643313e+00  -4.177710e+01
   2.114391e+01   8.466063e+00
   2.588220e+01  -1.389405e+00
   3.812596e+01   7.305877e+00
  -1.012950e+02   4.324061e+00
