
 $NMID
 id='ANONYMOUS ', fmtdat='(2E16.6)'
 volume=1.0
 tramp=1.0
 $END
   2.492685e+03  -3.302844e+01
   1.887355e+03   1.290192e+03
   2.107822e+02   1.850215e+03
  -9.142012e+02   1.404089e+03
  -1.048429e+03   4.898029e+02
  -2.746519e+02  -1.927775e+02
   2.272212e+02  -4.276464e+01
   4.656167e+01   3.711614e+02
  -3.445760e+02   4.288772e+02
  -5.639259e+02   1.696215e+02
  -3.839855e+02  -3.883764e+02
  -3.829098e+01  -4.927829e+02
   2.549945e+02  -2.225231e+02
   1.606760e+02   3.109839e+02
  -3.173456e+01   3.653105e+02
  -2.854679e+02   1.296538e+02
  -3.182377e+02  -3.825315e+02
   4.338975e+01  -5.645887e+02
   3.877925e+02  -2.616729e+02
   4.390865e+02   1.223532e+02
   1.653460e+02   3.036609e+02
   2.033388e+01   2.129781e+02
  -3.907923e+00   4.916874e+01
   2.004692e+02   2.069586e+02
   1.462273e+02   4.073011e+02
  -1.088304e+02   3.759785e+02
  -4.260972e+02   9.381960e+01
  -5.961542e+02  -2.659561e+02
  -1.683246e+02  -3.089604e+02
   2.641554e+02  -1.494606e+02
   3.772300e+02   1.677787e+02
   1.200490e+02   2.870067e+02
  -2.484454e+02   2.571044e+02
  -3.988728e+02   3.808978e+01
  -2.777937e+02  -1.630557e+02
  -5.728863e+01  -2.876331e+02
  -5.469307e+01  -1.577304e+02
  -6.633882e+01   1.336774e+01
  -1.402493e+02   4.613822e+01
  -1.385490e+02  -1.678121e+02
   6.468513e+01  -3.752813e+02
   2.383485e+02  -3.110873e+02
   2.735569e+02   7.375326e+01
   5.242198e+01   2.685725e+02
  -1.080894e+02   1.209403e+02
  -6.652771e+01  -2.313525e+02
   1.199977e+02  -3.384354e+02
   3.828144e+02  -3.008277e+01
   4.067835e+02   3.401558e+02
   7.631865e+01   4.908100e+02
  -3.003655e+02   2.516070e+02
  -4.901017e+02  -7.710661e+01
  -2.953690e+02  -2.260160e+02
   1.048219e+01  -2.294715e+02
   2.797217e+02  -8.572377e+01
   2.277921e+02   2.291704e+01
   3.861865e+01   4.557815e+01
  -3.366413e+01  -3.363118e+01
   6.860422e+01  -2.878726e+01
   1.735638e+02   1.036416e+01
   1.273975e+02   1.544575e+02
  -9.191102e+01   2.850234e+02
  -3.173396e+02   2.287589e+02
  -2.695291e+02  -8.111088e+01
  -8.720562e+00  -3.396823e+02
   3.020946e+02  -3.725829e+02
   3.931621e+02  -1.156749e+02
   2.652707e+02   1.924704e+02
   5.975791e+01   3.478913e+02
  -4.430202e+01   2.521416e+02
  -5.671844e+01   1.455847e+02
  -4.846977e+01   1.284755e+02
  -1.784359e+02   9.064100e+01
  -2.871175e+02   3.249597e+01
  -2.412238e+02  -1.596485e+02
  -9.637651e+01  -3.164864e+02
   1.210954e+02  -1.860955e+02
   2.208071e+02   8.420924e+00
   1.192647e+02   2.419953e+02
  -5.458901e+01   2.542693e+02
  -2.033455e+02   7.707008e+01
  -2.631824e+02  -2.115669e+02
  -1.848086e+02  -2.962423e+02
   5.235361e+00  -2.380697e+02
   1.306641e+02  -1.679716e+02
   1.639723e+02  -1.751172e+02
   1.728620e+02  -9.260140e+01
   3.128692e+02  -2.782407e+01
   4.095551e+02   1.131498e+02
   3.010966e+02   3.400839e+02
  -3.800915e+01   4.759827e+02
  -3.920889e+02   3.814871e+02
  -4.864613e+02   1.897476e+02
  -2.754590e+02  -1.332435e+02
  -2.486458e+01  -1.890183e+02
   3.839229e+01  -1.422591e+02
  -2.124206e+01  -2.653026e+01
  -1.014138e+02  -1.907979e+01
  -5.083940e+01  -8.405770e+01
   6.490113e+01  -1.428658e+02
   1.536287e+02  -7.018953e+01
   1.005222e+02   7.375588e+01
  -7.062104e+01   1.301190e+02
  -2.002155e+02   2.473488e+01
  -1.327079e+02  -2.458374e+02
   5.291373e+01  -3.542955e+02
   2.730148e+02  -2.386391e+02
   3.884355e+02   1.197220e+01
   2.740022e+02   3.207117e+02
   4.474069e+01   2.682221e+02
  -1.429028e+02   1.280731e+02
  -1.180667e+02   1.431387e+01
  -2.140604e+01   7.540744e+00
   3.741902e+01   6.677616e+01
  -4.062749e+01   1.409726e+02
  -8.728909e+01   6.509293e+01
  -1.290023e+02  -4.167769e+01
  -2.459117e-01  -5.291576e+01
   8.526608e+01   8.174599e+01
  -1.746514e+01   7.214542e+01
  -1.738287e+02   8.082023e+01
  -3.232099e+02  -3.286103e+01
  -2.148921e+02  -2.252847e+02
  -7.177486e+00  -3.281286e+02
   2.225622e+02  -2.456584e+02
   2.623685e+02  -6.232193e+01
   8.623858e+01   3.164657e+01
  -5.657590e+01   4.750959e+01
  -1.927960e+01  -2.616476e+01
   8.634531e+01  -7.755952e+01
   2.257573e+02  -3.716676e+01
   1.915567e+02   9.754868e+01
   5.010622e+01   1.992458e+02
  -1.146622e+02   1.228244e+02
  -1.402841e+02   8.571482e+01
  -5.767709e+01   1.664141e+01
  -1.725850e+01   3.707516e+01
   1.661334e+01   8.150528e+01
  -1.112691e+02   8.813736e+01
  -2.076978e+02  -1.263984e+01
  -1.630995e+02  -1.415228e+02
   8.680195e+00  -2.121087e+02
   1.491575e+02  -1.276632e+02
   1.005096e+02   4.010890e+01
   4.892107e+01   9.420504e+01
  -4.933648e+01   4.460960e+01
  -1.138682e+02   1.120773e+00
   2.211173e+01  -6.309063e+01
   7.973395e+01  -2.011708e+01
  -4.365886e+00  -7.465357e-01
  -8.889809e+01   3.335348e+01
  -1.159440e+02  -8.836057e+01
  -1.007243e+01  -1.660916e+02
   1.340106e+02  -1.255700e+02
   2.363038e+02  -1.610572e+01
   1.976631e+02   1.604287e+02
   1.420471e+01   2.034173e+02
  -7.740236e+01   1.339679e+02
  -1.492467e+02   6.025797e+01
  -1.047009e+02  -3.870600e+01
  -3.940485e+01  -2.012578e+01
  -5.538680e+01   3.173930e+01
  -6.540553e+01   2.359908e+01
  -4.696104e+01  -1.057379e+02
   8.309651e+00  -1.073041e+02
   1.126244e+02  -8.431114e+01
   1.357291e+02   5.557305e+01
  -3.579426e+01   1.375771e+02
  -1.495113e+02   4.573192e+01
  -1.897688e+02  -6.008253e+01
  -8.657474e+01  -2.578348e+02
   1.364704e+02  -2.083674e+02
   2.557063e+02  -4.188377e+01
   2.072833e+02   8.411829e+01
   6.048617e+01   1.396984e+02
  -4.542258e+01   1.086038e+02
  -7.073600e+01   5.126102e+01
  -8.069224e+01   5.747075e+01
  -6.304027e+01   1.170339e+02
  -1.019576e+02   1.031283e+02
  -1.501581e+02   6.639600e+00
  -1.059934e+02  -1.576828e+02
  -4.145646e+01  -1.974215e+02
   1.142920e+02  -1.914541e+02
   1.658267e+02  -4.816274e+00
   8.239885e+01   1.236736e+02
  -3.261687e+01   1.653888e+02
  -7.493926e+01   3.952540e+01
  -3.996091e+01  -1.082926e+01
  -5.341596e-01  -4.942311e+01
   1.821324e+01  -4.162311e+01
  -7.535390e+00  -5.238755e+00
  -1.084360e+02  -2.249713e+01
  -7.139627e+01  -5.758768e+01
   1.213147e+02  -7.734756e+01
   1.847481e+02  -5.701701e+00
   1.333822e+02   1.062102e+02
  -3.444389e+01   8.734999e+01
  -1.179634e+02   4.345986e+01
  -1.270964e+02   2.523429e+01
  -4.388094e+01  -4.189566e+01
   5.804148e+01  -3.772953e+01
   5.681663e+01   4.837440e+00
   1.274583e+01   5.134829e+01
  -7.288271e+01   5.816779e+01
  -5.402956e+01  -5.227829e+00
  -9.288958e+00  -2.889869e+01
  -2.749129e+01  -5.080641e+01
  -3.537652e+01  -3.666389e+00
  -6.401545e+01  -4.668767e+00
  -7.793614e+01  -7.649106e+01
   3.692053e+01  -1.322137e+02
   1.847600e+02  -1.535457e+02
   2.009350e+02   4.624279e+00
   9.407549e+01   1.282947e+02
   2.308271e+01   1.307643e+02
  -1.044416e+02   4.513180e+01
  -6.707674e+01  -7.042392e+01
   4.614131e+01  -1.108859e+01
   1.154321e+02   2.965367e+01
   8.038407e+01   9.031570e+01
  -5.944848e+01   1.126992e+02
  -1.782865e+02   4.790662e+01
  -1.738188e+02  -1.033006e+02
  -3.792685e+01  -1.224521e+02
   8.473238e+01  -5.592746e+01
   6.557289e+01   3.063981e+01
  -2.568882e+01   2.805473e+01
  -7.899988e+01  -1.359674e+01
  -5.058872e+01  -1.225370e+02
   5.239531e+01  -1.393087e+02
   1.659093e+02  -9.840891e+01
   1.492674e+02   9.772459e+01
   1.131546e+01   2.045767e+02
  -7.154965e+01   1.198155e+02
  -7.948422e+01  -2.425801e+01
  -3.651925e+01  -1.223529e+02
   3.017567e+01  -1.028028e+02
   8.774019e+01  -3.440733e+01
   7.811106e+01  -1.660336e+01
   5.233413e+00  -1.516535e+01
  -1.484704e+01  -3.170925e+01
   2.626557e+01   1.661774e+01
   7.385875e+01   8.987473e+01
   1.809454e+01   1.258897e+02
  -4.999331e+01   5.327786e+01
  -1.222089e+02  -1.147475e+01
  -1.594832e+02  -4.942487e+01
  -3.372616e+01  -5.301569e+01
   8.151291e+01  -1.603073e+01
   3.402059e+01  -1.451590e+00
   4.198761e+00   4.395939e+00
  -1.365498e+01   7.257023e+01
  -2.771183e+01  -5.520722e+00
  -1.032217e+01   1.826703e+01
  -2.090319e+01  -7.986560e+00
  -8.835697e+01  -4.930556e+01
  -7.395906e+01  -3.624949e+01
   1.216661e+00  -5.969640e+01
   1.462004e+02  -8.995574e+01
   1.978575e+02  -8.973532e+01
   1.386348e+02   3.383893e+01
   6.281369e+01   1.348734e+02
  -8.433860e+01   1.121472e+02
  -1.301016e+02   6.883328e+01
  -6.488090e+01  -9.021186e+00
   6.008792e+00  -2.179161e+01
  -1.718710e+01   2.653654e+01
  -1.503861e+01  -1.282645e+01
  -5.577449e+01  -5.155534e+01
  -2.952091e+01  -3.568999e+01
   4.946784e+01  -8.061655e+01
   8.839129e+01   3.509553e+01
   6.158452e+01   1.464496e+02
  -1.068319e+01   1.140047e+02
  -9.239695e+01  -8.833867e+00
  -1.109574e+02  -7.824529e+01
  -6.563699e+01  -9.680679e+01
   5.800295e+01  -1.006143e+02
   1.753691e+02   1.005730e+01
   3.665854e+01   4.324504e+01
  -4.912806e+01   3.458748e+01
  -5.333478e+01  -2.030379e+01
  -3.604326e+01  -5.311961e+00
   5.251434e+01  -1.415697e+01
   2.080978e+01   2.481674e+01
  -8.890747e+01   6.118999e+01
  -8.674507e+01   5.320027e+01
  -7.368384e+01  -2.667777e+01
  -1.778096e+01  -1.022573e+02
   7.043010e+01  -6.264928e+01
   8.294012e+01   6.817009e+00
   3.190520e+00   5.501129e+01
  -1.400855e+01   5.084003e+01
  -6.741801e+01  -3.514694e+00
  -2.109329e+01  -6.032020e+01
  -4.116797e+01  -6.805081e+01
  -1.324117e+00  -9.814692e+00
   1.695987e+01  -6.337976e+00
   4.979135e+01   2.645974e+01
  -3.293633e+01  -3.145068e+01
  -4.580787e+01  -3.778650e+01
   1.039720e+01   4.761234e+01
  -3.806720e+01   3.745144e+01
  -3.245941e+01  -3.202812e+01
  -4.996773e+01  -6.621177e+01
  -2.675323e+01  -4.174129e+01
   3.412226e+01  -4.951503e+01
   5.463884e+01   2.371933e+01
   8.017222e+01   3.767125e+01
  -4.052698e+01   5.894712e+01
  -8.723183e+01  -1.685408e+00
  -7.556066e+01  -6.094094e+01
   4.323194e+01  -7.452839e+00
   6.899191e+01  -7.366723e+01
   2.385208e+01  -4.055263e+01
  -7.978318e+00   7.926679e+00
  -4.717270e+01   2.443262e+01
  -3.761456e+00   1.740412e+01
   6.666465e+01  -2.100706e+01
