
 $NMID
 id='ANONYMOUS ', fmtdat='(2E16.6)'
 volume=1.0
 tramp=1.0
 $END
  -1.007922e+03   6.361039e+01
  -5.417091e+02  -3.120099e+02
   5.878733e+01  -4.727675e+02
   3.004997e+02  -2.827304e+02
   2.131351e+02  -8.729284e+01
  -7.733291e+00   2.973932e+01
  -9.324262e+01  -1.745550e+01
  -3.312727e+00  -4.594501e+01
   1.341793e+02  -8.372204e+01
   1.274858e+02  -6.915226e+00
   3.347306e+01   9.558810e+01
  -1.598674e+01   1.534044e+02
   1.581603e+01   4.038444e+01
  -1.311438e+01  -9.238124e+01
   6.251961e+01  -1.047510e+02
   1.003833e+02  -2.654090e+01
   1.118504e+01   8.316119e+01
   2.787053e+01   1.393448e+02
  -6.576661e+01   8.726164e+01
  -1.325522e+02  -1.306142e+01
  -9.896133e+01  -8.623505e+01
   3.467030e+00  -1.329210e+01
  -1.379502e+01  -4.742573e+01
  -3.097230e+01  -4.885337e+01
  -2.982047e+01  -1.193215e+02
   6.259264e+01  -5.856662e+01
   1.103276e+02  -1.706472e+01
   1.553734e+02   1.038226e+02
   6.724116e+01   3.710895e+01
  -6.437806e+01   2.551971e+01
  -1.720075e+02  -3.042789e+01
  -1.171503e+02  -9.114208e+01
   4.569769e+01  -8.926291e+01
   1.435838e+02  -6.287716e+01
   7.046491e+01   5.156500e+01
  -7.777283e+00   1.025061e+02
   7.278378e+00   2.823572e+01
   4.385752e+01  -1.755226e+01
   5.756107e+01  -6.749269e+01
   2.581702e+01   5.158258e+01
  -3.601842e+01   1.418602e+02
  -9.223079e+01   9.534787e+01
  -7.701942e+01  -6.832682e+01
  -3.026417e+01  -9.358208e+01
  -2.644912e+00  -2.911396e+01
   3.929471e+01   4.168942e+01
  -2.504320e+01   7.487381e+01
  -6.294111e+01  -3.419928e+01
  -1.153958e+02  -1.365297e+02
  -2.530953e+01  -1.367593e+02
   8.576479e+01  -3.436262e+01
   1.516470e+02   6.650757e+01
   1.049883e+02   9.044506e+01
  -3.673533e+01   4.453190e+01
  -1.636570e+02   1.645480e+01
  -6.526285e+01  -1.604133e+01
   3.512290e+01  -2.467445e+01
   3.078879e+01   2.212504e+01
  -2.506761e+01  -3.668294e+01
  -1.020856e+02  -3.209015e+00
  -1.817537e+01  -4.453638e+01
   5.647797e+01  -5.592284e+01
   9.244189e+01  -3.989316e+01
   8.131281e+01  -2.017084e+01
  -9.030867e+00   5.688052e+01
  -8.211297e+01   1.412251e+02
  -9.563769e+01   1.376769e+01
  -3.616822e+01  -8.550540e+01
   2.676756e+01  -1.084879e+02
  -1.146587e+01  -7.878922e+01
  -9.554004e+00  -7.136698e+01
   2.306604e+01  -1.785652e+01
   4.620094e+01  -5.530240e+01
   7.928785e+01  -1.324468e+01
   4.489650e+01   4.877660e+01
  -1.125872e+01   1.231715e+02
  -4.311272e+01   9.231621e+01
  -3.962393e+01  -2.395842e+01
  -7.197342e+01  -1.159502e+02
   1.163882e+01  -9.466115e+01
   7.233534e+01  -2.975523e+01
   8.951624e+01   6.330587e+01
   4.499193e+01   7.029621e+01
  -7.796777e-01   9.311748e+01
  -7.227607e+01   1.187497e+01
  -4.194207e+01  -1.409263e+01
  -4.015325e+01   3.036385e+01
  -5.716358e+01  -2.761888e+01
  -1.208494e+02  -3.579966e+01
  -6.983319e+01  -1.054349e+02
  -3.079783e+00  -1.075851e+02
   1.444220e+02  -1.093450e+02
   2.140675e+02  -2.558843e+01
   4.473051e+01   6.058914e+01
  -1.096344e+01   9.360700e+01
  -3.790397e+01   7.650416e+01
  -9.556636e+00   1.310840e+01
   1.100995e+01  -1.785190e+01
   4.161211e+01   1.160582e+01
  -3.100224e+01   7.864176e+01
  -3.499998e+01   4.782388e+01
  -2.722241e+01  -5.063861e+01
   1.640149e+01  -5.773604e+01
   4.030829e+01   2.094776e+01
   1.066196e+02   5.181678e+01
   6.560113e+00   1.460688e+02
  -5.474305e+01   9.145415e+01
  -9.615722e+01   4.425392e+00
  -9.712063e+01  -8.905945e+01
  -9.328411e+00  -9.795909e+01
   4.972817e+01  -4.448845e+01
   5.108077e+01   2.221930e+01
   1.219044e+01  -1.041922e+01
  -2.567587e+01  -6.566094e+01
   1.116128e+01  -2.647284e+01
   5.458384e+01   6.936105e+00
   2.331180e+01   4.163302e+01
   1.802541e+01   2.516092e+01
  -3.381537e+01  -1.217132e+00
  -3.237654e+01  -6.216286e+01
   3.565153e+01  -2.358185e+01
   9.132270e+01   1.512324e+01
   1.219474e+02   4.604971e+01
   1.057740e+01   8.541324e+01
  -1.005135e+02   6.885520e+01
  -1.190301e+02   1.497403e+01
  -1.703017e+01   6.626506e-01
   2.687884e+01  -1.295710e+01
   1.028275e+01   2.739501e+01
   5.292239e+00   2.576519e+01
  -4.747042e+01   1.524585e+01
  -3.465612e+01  -3.188065e+01
  -8.257658e+00  -7.483987e+01
   7.230934e+00  -1.865723e+01
   3.873012e+01   4.286000e+00
   1.061896e+01  -1.640462e+00
  -3.918768e+01   2.647279e+01
   1.449920e+00  -4.649820e+01
   2.765832e+01  -5.134966e+01
   2.433858e+01   3.687806e+01
   3.689072e+01   7.929323e+01
  -3.996421e+01   5.670248e+01
  -7.127344e+01   3.158153e+01
  -5.029454e+01  -1.347320e+01
   1.827717e+01  -1.607009e+01
   4.551565e+01  -4.416441e+01
   6.968688e+00   2.409106e+01
  -3.477733e+01   3.415177e+01
  -2.646266e+01   2.672930e+01
   6.122384e+01  -2.123000e+01
   1.487861e+01   4.115939e+00
   1.166735e+01  -1.150623e+01
   6.807840e+00   3.055807e+01
  -4.890884e+01   2.431856e+01
  -8.848340e+01  -1.984185e+01
  -1.043860e+02  -5.793677e+01
  -2.215654e+01  -5.692702e+01
   4.434098e+01  -2.233874e+01
   6.913107e+01   2.235262e+00
   1.038524e+01   3.575284e+01
  -5.067272e+00   3.879453e+01
  -5.144974e+00  -1.137708e+01
   2.556230e+01  -4.277992e+01
   3.372956e+01  -8.689759e-01
   4.255062e+00  -1.327015e+01
   2.225954e+01   9.506819e+00
  -1.522964e+01   3.604489e+01
   4.147609e+01  -4.122908e+01
   7.725095e+01  -2.472440e+01
   4.026950e+01  -1.762551e+01
   1.071531e+01   6.814738e+01
  -1.868983e+01   6.360470e+01
  -8.781864e+01  -7.948366e+00
  -5.819959e+01  -2.136294e+01
   7.437699e+00  -2.673126e+01
   2.840942e+01  -8.360854e+01
   1.234716e+01  -3.809797e+01
   5.972209e+01  -3.013551e+01
   1.064342e+01  -2.383770e+01
   5.464788e+01   1.617405e+00
   7.535117e+00  -3.232987e+01
   7.083260e+01   2.377957e+01
   5.420411e+01   7.930129e+01
  -1.196382e+01   2.629644e+01
  -4.859899e+01  -3.667889e+01
  -5.802364e+01  -7.795698e+01
  -4.270396e+01  -2.468198e+01
   8.517952e+00  -5.948408e+00
  -9.837007e+00   1.989767e+01
  -1.068292e+00   3.577733e+01
  -2.461938e+01   1.034052e+00
   4.153942e+01  -1.025665e+01
   6.821538e+00   1.620922e+01
   2.206079e+01   3.932208e+01
  -4.628866e+00   3.272230e+01
  -4.828348e+01   1.526478e+01
  -7.770618e+01   1.227496e+01
   1.251396e+01  -2.778372e+01
   3.756656e+01  -6.996263e+00
   4.584139e+01  -9.568086e-01
   2.795482e+01  -1.277261e+01
  -2.403309e+01   5.004845e+01
  -3.835885e+01   4.235034e-01
   1.645253e+01  -3.842404e+01
  -3.091323e+01  -4.631484e+01
   4.302658e+01   2.624418e+01
  -2.651873e+00   4.381562e+01
  -3.572930e+00   3.009456e+01
   1.643483e+01  -9.264680e+00
   2.746088e-01  -1.897259e+01
   5.142709e+01  -4.068170e+01
   2.077505e+01   6.264953e+01
  -4.492230e+00   5.832101e+01
  -2.734245e+01   1.562600e+01
  -2.875913e+01  -3.461808e+01
   1.061464e+01  -2.649062e+01
   3.042554e+01  -3.715356e+01
  -8.320706e+00   5.313315e-01
  -3.330241e+01  -3.083985e+01
  -3.224159e+01  -1.418945e+01
  -4.205752e+00  -5.253355e+01
   1.204717e+01  -5.116287e+01
   3.109592e+01  -2.755537e+01
   6.300261e+01   1.758508e+01
  -5.080541e+00   2.970809e+01
  -4.985029e+01   3.165386e+01
  -4.198091e+01   2.634907e+01
  -3.009283e+01   3.029614e+00
   2.355091e+01   3.433293e+01
   3.286164e+00   4.804574e+01
  -7.565193e+01   3.648001e+01
  -5.008036e+01   3.955768e+00
  -2.139904e+01  -1.319198e+01
   4.641245e+01  -6.127674e+01
   3.488519e+01  -6.046352e+01
   2.086277e+01  -5.192489e-01
   1.334447e+01   7.302052e+01
   2.488875e+01  -6.525624e-01
   8.848977e+00  -2.517938e-01
   2.443438e+01   4.203123e+01
  -1.238497e+01  -3.522993e+01
   7.382199e-01   2.826692e+01
  -5.342404e+00   2.168836e+01
  -1.817053e+01  -4.450799e+01
  -3.730502e+01  -5.026876e+01
  -5.354261e+01   4.966529e+00
   5.273536e+01   2.038811e+01
   1.168378e+01   2.245601e+01
  -5.118632e-01   3.102849e+00
  -4.869557e+01   5.815487e+00
  -4.706795e+01  -2.990518e+01
  -1.213914e+01  -6.578915e+00
   2.721401e+01   1.852420e+00
   4.557136e+01   1.687590e+01
  -1.408932e+01  -9.807352e+00
   1.862713e+00   1.186421e+01
   3.212297e+01   1.204399e+01
   4.225950e+01   9.177381e+00
   3.174656e+01   2.893537e+01
  -5.119803e+01   7.137841e+01
  -5.932836e+01  -1.299033e+01
  -6.276821e+01  -4.666121e+00
   3.120771e+01  -5.095145e+01
   2.376602e+01  -7.432282e+01
   3.078679e+01  -3.002913e+01
  -1.186716e+00  -1.046019e+01
   1.252186e+01   3.101580e+01
  -1.550171e-01   6.429316e+00
  -1.020406e+01  -3.773515e+01
   3.988095e-01   3.439816e+01
  -5.543995e+00   2.717500e+01
   1.064814e+01   4.847242e+01
  -6.792581e+00   3.124358e+01
  -2.934863e+01  -3.230336e+01
  -2.319973e+01  -3.485865e+01
  -3.438509e+01   2.786149e+00
   2.169867e+01   3.779002e+01
   2.328935e+00   2.299372e+01
  -2.382310e+01  -1.302163e+01
  -1.805469e+01  -1.657361e+00
  -3.939430e+00  -1.401585e+01
   9.846251e+00  -1.322851e+01
   1.958219e+01  -6.019350e-01
  -5.778865e+00   5.398828e-01
  -3.818409e+01   1.617548e+01
  -1.990397e+01  -4.150994e+01
   2.728057e+01  -1.264099e+01
   5.479152e+01   2.754241e+00
   2.383419e+01   1.109677e+01
   2.003041e+00   1.359189e+01
  -4.038034e+01   2.275438e+01
  -3.134183e+01   2.653150e+00
  -2.507734e+01  -3.108754e+01
   6.983386e+00  -6.039646e+01
   2.256510e+01   1.728937e+01
  -2.114617e+01  -6.913175e+00
  -1.983639e+01   5.909259e-01
  -5.747757e+01  -1.414730e+01
  -5.275602e-01   1.453023e+01
   5.483251e+00   2.578734e+01
  -4.557054e+01   1.443328e+01
   1.370079e+01   1.650086e+01
   5.844155e+00   6.648790e+00
  -9.004216e-01  -1.304926e+00
   1.896219e+01   2.199451e+01
   2.955324e+01   7.675699e+00
   2.099332e+01   2.110624e+01
  -3.957879e+00   2.957343e+01
  -5.897311e-01  -3.626788e+01
   1.407870e+01  -1.781471e+01
   2.422522e+01  -4.404292e+01
   2.182395e+01  -5.377648e-01
   3.695648e+01  -6.899769e+00
   2.778754e+00   6.981286e+00
   5.222820e+00   1.231483e+01
   1.280632e+01  -4.659002e+00
  -2.807390e+01  -4.745573e+00
  -7.029649e+00  -2.969196e+00
  -1.323837e+01   1.922588e+01
  -1.041559e+01   1.286753e+01
