
 $NMID
 id='ANONYMOUS ', fmtdat='(2E16.6)'
 volume=1.0
 tramp=1.0
 $END
   8.190790e+02   1.053564e+01
   3.520703e+02   2.320058e+02
  -3.562679e+01   2.781252e+02
  -1.395894e+02   1.463433e+02
  -1.316814e+02   3.965008e+01
  -1.421153e+01   1.762594e+01
   9.339181e+00   7.562466e+00
  -6.657660e+01  -5.830243e+00
  -5.232577e+01   8.608476e+01
  -2.219563e+01   3.128701e+01
  -6.375364e+01  -4.282788e+01
  -2.773274e+01  -8.114256e+01
  -3.369551e+01  -1.905561e+01
   2.582166e+01   2.998977e+01
  -2.757126e+01   5.256015e+01
  -5.778542e+01  -6.991982e+00
  -3.579575e+01  -6.606083e+01
  -3.734192e+01  -7.625532e+01
   2.477155e+01  -5.227604e+01
   9.058289e+01  -3.162311e+01
   9.173146e+01   3.986130e+01
  -2.686533e+01   9.640779e+01
  -2.722244e+01   7.654793e+01
  -1.061537e+01  -1.041464e+01
   5.220487e+01   3.933562e+01
   1.426832e+00   3.365515e+01
  -1.015284e+02  -1.064375e+01
  -1.270453e+02  -4.471311e+01
   2.751526e+01  -6.481000e+01
   5.888294e+01   1.788119e+01
   2.271150e+01   2.859008e+01
   3.266469e+01   2.525068e+01
  -1.460916e+01   2.296540e+01
  -1.180186e+02   1.959488e+01
   2.499520e+00  -6.241515e+01
  -5.640809e+00  -2.267143e+01
  -6.345989e+01  -5.218688e+01
  -3.606166e+01  -6.098950e+01
   1.226517e+01   2.839230e+01
   3.120882e+01  -4.896061e+01
   6.655921e+01  -1.887888e+01
   2.550241e+01  -2.156864e+01
  -4.747773e+00   1.090606e+01
  -6.668048e+00   5.361281e+01
   1.317232e+01  -3.384110e+01
   1.301665e+00  -6.511661e+01
   2.639538e+00  -5.354195e+01
   7.581094e+01   1.692015e+01
   8.114723e+01   8.050125e+01
   1.697688e+01   4.654029e+01
  -1.814403e+01   1.880654e+01
  -7.928785e+01  -1.571288e+01
  -6.348118e+01  -3.340407e+01
  -3.159597e+01  -8.865561e+00
   4.153312e+01   3.269283e+00
   3.688054e+01  -3.247545e+01
   7.467540e+00  -3.278499e+01
   1.118686e+01   5.960460e+00
   4.214733e+01   5.193986e+01
   4.063642e+01   4.955340e+01
  -4.491802e+00   4.296385e+01
  -8.761447e+00   7.527568e+01
  -7.202975e+01   2.130103e+01
  -4.048153e+01   2.981868e+01
   2.101704e+01  -5.157988e+01
   6.228675e+01  -4.354693e+01
   4.628300e+01  -1.456737e+01
   7.922776e+01   2.060968e+01
  -2.735471e+00   8.048089e+01
  -3.807980e+01   4.594988e+01
   3.199170e+00   2.494128e+01
  -7.172083e+00   8.941317e+00
  -4.960494e+01   7.878430e+00
  -9.264186e+00  -3.803084e+01
  -5.204130e+00  -4.769353e+01
   8.747522e+00  -2.893646e+01
   6.032496e+01  -3.296794e+00
   2.456882e+01   2.733447e+00
  -7.140088e+00   5.245169e+01
  -2.620846e+01   3.741125e+01
  -2.856067e+01  -3.493092e+01
  -5.103568e+01  -3.249701e+01
   4.359865e+00  -3.535833e+01
   2.489603e+00  -6.599359e+01
   1.734307e+01  -5.050711e+01
   1.477946e+01  -3.041335e+01
   6.093030e+01  -8.433810e-01
   6.537331e+01  -3.645398e+01
   1.058762e+02   4.673091e+01
   1.764400e+01   5.488997e+01
  -3.054811e+01   5.602352e+01
  -7.475941e+01   5.537186e+01
  -3.876960e+01  -3.949734e+00
  -1.399802e+01  -5.068970e+01
   1.623712e+01  -2.165151e+01
   1.615882e+01  -3.126290e+01
   2.893101e+01  -1.686595e+01
  -2.665831e+01   3.499880e+01
  -2.550873e+01   1.830678e+01
  -3.130220e+01   2.521453e-01
  -2.274176e+01  -1.080885e+01
   9.586054e+00   1.668255e+00
  -1.785010e+00   1.131435e+01
  -4.818532e+01  -5.639424e+01
   7.991013e+00  -4.168592e+01
   9.261593e+00  -1.631485e+01
   1.011735e+00  -2.555091e+01
   6.644763e+01  -1.746796e+00
   4.291624e+01   4.826451e+01
  -1.209695e+00   6.596733e+01
  -1.900583e+01   4.495771e+01
  -2.051139e+01   5.016200e+01
  -3.000665e+01   1.884066e+01
  -1.414120e+01   1.291593e+01
  -2.412649e+01   1.835449e+01
  -3.347705e+01  -5.637562e+00
  -2.580549e+00   9.183967e+00
   2.138490e+01  -7.979326e+00
  -1.546062e+01  -4.100888e-01
   2.250770e+01   1.361791e+01
  -3.943119e+01  -2.231650e+00
  -2.734348e+01  -2.164467e+01
  -3.003185e+01  -3.810487e+01
   2.341109e+01  -4.967658e+01
   2.111300e+01  -3.320224e+00
   6.030649e+01   1.509692e+01
   5.431802e+00   1.496613e+01
  -3.218726e+01   1.702085e+01
  -3.002917e+01  -3.244834e+00
  -1.099021e+01   2.423394e+01
   2.242452e+01   3.254436e+00
   3.844021e+01   2.922992e+01
  -1.630705e+00   4.303996e+01
  -5.068713e+01   7.964108e+00
   5.555496e+00  -1.680295e+01
  -6.729640e+00   2.481249e+00
  -1.993161e+01   5.709074e+01
  -4.376129e+01   2.273840e+01
  -8.531254e-01  -8.017149e+00
  -2.334192e+01   4.197797e+00
  -2.726014e+01  -2.539675e+00
   1.416146e+01  -1.437746e+01
   3.331051e+01  -4.524525e+01
  -5.320537e+00  -3.228782e+01
   5.125918e+01   4.563638e+00
  -2.001334e+01   9.926312e+00
  -3.359453e+01  -1.112171e+01
   5.646782e+00  -4.331181e+01
  -1.596023e+01  -2.053565e+01
   3.902751e-01   2.720750e+01
   3.415257e+01  -2.529938e+01
  -2.090454e+01  -2.261661e+01
   1.820658e+01  -2.082727e+01
   2.064351e+01  -2.677202e+01
   4.763857e+01   4.053024e+00
   7.038410e+00   5.757817e+01
   3.233537e+01   3.392164e+01
  -2.839532e+01   3.524893e+01
  -2.840650e+01   9.208883e+00
   1.888968e+00  -4.115769e+01
  -1.996771e+01  -5.190825e-01
  -2.609389e+01   1.803643e+01
   3.009747e+00  -2.207060e+01
  -6.141948e+00  -3.550833e+01
   7.578222e+00   1.449366e+01
   3.580352e+01  -4.058222e+01
   4.524965e+00   3.179207e+01
   1.176063e+01   2.553801e+01
  -2.889358e+01   1.484933e+01
  -4.225812e+01  -1.223747e+01
  -2.756458e+01  -1.861832e+01
   1.679729e+01  -4.098692e+01
   4.947660e+01   1.067550e+00
   2.433094e+01   2.755980e+01
   3.036420e+00   1.935590e+01
   2.308180e+01   1.668011e+01
   1.429399e+01   1.236261e+01
  -2.606569e+01   3.457738e+00
  -5.822356e+00   1.637664e+01
  -1.947823e+01   1.698807e+01
  -3.182565e+01   2.533651e-01
  -1.195358e+01  -3.823704e+01
   2.864600e+01  -3.451663e+01
   3.641305e+01  -1.075342e+01
   5.932198e+01   3.102976e+01
   5.308138e+00   2.720112e+01
   3.963324e+01   1.991107e+01
   1.292293e+01   1.438550e+01
   2.476317e+01  -5.195636e+00
  -3.112982e+01  -3.714532e+00
   1.098663e+01  -3.173519e+01
   1.924166e+01  -1.841144e+01
   4.362533e+00   2.948278e+01
  -1.528883e+01   4.487500e+01
   8.911642e+00   3.399121e+01
   2.075963e+01   6.470786e+01
   3.869261e+00   1.612073e+01
   1.628716e+00   1.074273e+01
  -2.880660e+01   2.998014e+00
  -6.896261e+01  -2.681867e+01
   3.806082e+00  -9.072910e+00
   1.220992e+01  -4.744330e+01
  -1.017230e+01   6.813581e+00
  -1.053775e+01   1.039129e+01
  -2.663707e+01   2.578037e+01
  -4.137321e+01  -5.787620e-01
  -9.002386e+00  -2.503413e+01
  -6.277411e+00  -2.687918e+01
  -1.705059e+01  -2.576731e+01
   8.946894e-01  -2.768146e+01
   4.768217e+00  -2.719704e+00
   4.182204e+01  -2.868145e+01
   6.310290e+00  -2.086826e+01
   3.112342e+01   2.358491e+00
   1.619220e+01   2.957031e+00
   4.587399e-01   3.480140e+01
  -3.418342e+01   2.066560e+01
  -8.807110e+00   2.781771e+01
   8.630182e-01  -1.470628e+01
   1.848979e+01  -2.928067e+00
   2.086586e+01   3.055808e+01
  -4.196141e+00   1.445961e+01
  -4.647072e+01   1.324825e+01
  -3.957682e+01   3.366990e+01
  -4.208305e+01   7.332757e+00
  -8.744760e+00   5.098326e+00
   1.699322e+01  -1.043220e+01
  -4.750007e+01  -1.364543e+01
  -3.218187e+01  -1.485550e+01
  -1.394450e+01  -3.882829e+01
   1.679483e+01  -4.255241e+01
   4.126027e+01  -9.892449e+00
   4.441016e+00   6.291611e+00
  -1.936760e+01   4.056383e+01
  -1.935367e+01  -3.725426e+00
  -2.842690e+01  -6.560674e+00
  -2.744062e+00  -5.968860e+01
   7.571023e+00  -3.317539e+00
   3.964989e+01  -3.585211e+00
   2.834190e+00   2.184874e+01
   8.251097e+00  -8.018302e+00
  -2.595744e+00  -2.097705e+01
   3.068751e+01  -3.205738e+00
   1.398480e+01   1.513387e+01
  -1.591733e+01   5.342952e+00
  -5.527750e+01   1.093106e+01
  -3.927375e+01   1.195180e+01
  -2.176466e+01  -1.087402e+01
   6.530532e+01  -3.723139e-03
   1.947974e+01  -2.830327e+01
   1.702238e+01   1.022356e+01
  -1.295399e+00  -5.729351e+00
  -1.322044e+00   2.043463e+01
  -4.801337e+00  -7.358618e+00
   1.649985e+01   2.746862e+01
  -2.401103e+01  -4.025418e+01
  -2.281355e+01   2.992036e+01
  -2.295686e+01  -3.287262e+01
   4.502745e+01  -3.222854e+01
   6.911277e+01  -2.290329e+01
   1.685262e+01   2.743670e+01
   5.754943e+01  -4.383657e+00
   1.119401e+00  -3.533626e+00
  -7.193642e+01   3.572299e+01
  -6.327282e+01   2.566113e+01
  -3.327784e+01   4.144636e+00
   3.563963e+01  -2.764016e+01
  -2.333207e+00  -1.791956e+01
   2.413329e+01  -5.362325e+00
   3.103770e+01   7.088099e+00
  -6.118222e+00  -3.796787e+01
   1.840229e+01   1.222699e+01
  -1.533114e+00   1.608690e+01
   4.282225e+00   4.188183e+00
   1.083079e+01   1.916623e+01
  -8.029048e+00   2.936491e+00
  -2.030613e+01  -1.045471e+00
   4.713501e+01  -2.510047e+01
   2.816390e+01  -1.452215e+01
   2.856074e+01   1.945431e+01
  -1.074792e+01   2.834193e+01
  -9.753179e+00   1.266620e+01
   2.098775e+01   4.553093e+01
  -1.569728e+01   1.452654e+01
   9.740664e+00   3.672416e+01
  -2.500543e+01   3.144027e+01
  -2.084943e+01   5.380148e+00
  -3.909368e+01   4.746053e+01
  -2.184084e+01   3.653682e+01
   2.026060e+01  -1.877580e+01
  -5.814503e+00  -8.968140e+00
  -3.731037e+01   2.160798e+01
  -3.905665e+01  -4.974897e+00
   5.661091e+00  -2.956893e+01
  -2.360765e+01  -1.822893e+01
   1.460995e+01  -3.389540e+01
  -1.301130e+01  -1.168352e+01
   2.414130e+00  -2.892895e+00
   1.616693e+01   5.615620e+00
  -5.595098e+00   3.700956e+01
   7.076010e+00   1.041031e+01
  -5.820649e+00   6.742186e+00
  -7.192377e-02  -8.480228e+00
   4.106373e+00  -3.372742e-01
   2.486761e+01   7.331451e-01
   5.931374e+00   1.130819e+01
  -6.708481e+00   3.339644e+01
  -1.106884e+00   6.458063e+01
   2.782683e+01   2.764720e+01
   1.471355e+01  -2.379824e+01
  -4.108397e+01   2.211746e+01
   1.030257e+01   9.787060e+00
  -5.894211e+01   3.853078e+01
   7.394888e+00   4.765130e+00
   1.190949e+01  -2.900716e+01
   3.100967e+01  -6.472413e+00
  -4.765510e+00  -3.160473e+01
  -8.312206e+00   1.008455e+01
  -1.489984e+01  -7.576667e-01
  -5.950161e-01   1.498624e+01
