
 $NMID
 id='ANONYMOUS ', fmtdat='(2E16.6)'
 volume=1.0
 tramp=1.0
 $END
   7.538814e+02  -7.452092e+01
   4.744212e+02   2.636137e+02
   4.622314e+01   3.651891e+02
  -2.450542e+02   2.683889e+02
  -1.595321e+02   4.800868e+01
  -1.416217e+01  -9.170953e+00
   8.120298e+01   3.839076e+00
   2.285876e+01   7.934693e+01
  -8.557306e+01   1.148276e+02
  -8.131337e+01   5.433150e+01
  -3.486147e+01  -1.118220e+02
  -2.014603e+01  -1.243171e+02
   2.270453e+01  -4.443056e+01
   2.269699e+01   6.545991e+01
   3.252750e+00   7.074963e+01
  -3.237705e+00   2.484984e+01
   4.314331e+00  -1.150957e+02
   2.033300e+01  -1.323515e+02
   3.908468e+01  -4.790713e+01
   6.801055e+01   3.266359e+01
   3.377305e+01   7.905320e+01
  -4.494582e+01   5.796387e+01
  -6.624872e+00   2.679531e+01
   5.046809e+01   1.577089e+01
   4.676881e+01   5.689147e+01
  -2.805717e+01   2.737331e+00
  -1.042398e+02  -4.507163e+01
  -1.075717e+02  -2.151684e+01
  -2.465426e-01  -2.060322e+01
   6.494075e+01  -2.127266e+01
   1.050111e+02   3.122439e+01
   4.947106e+01   5.404499e+01
  -1.861280e+01   6.157430e+01
  -5.834069e+01   5.222452e+01
  -8.675803e+01   1.963410e+01
  -4.236636e+01  -4.958697e+01
  -2.557253e+01  -7.210813e+01
  -3.424876e+01   2.171679e+00
  -2.904876e+01   1.692645e+01
  -4.392884e+00  -5.863138e+01
   2.149480e+01  -6.706311e+01
   5.430421e+01  -8.972589e+01
   5.062655e+01   3.213757e+01
   2.634639e+01   5.801259e+01
  -9.383753e-01   4.369646e+01
   2.386262e+01  -7.081219e+01
   3.026921e+01  -4.646309e+01
   6.448824e+01   3.235006e+01
   5.917596e+01   8.352029e+01
   3.484477e+01   1.095758e+02
  -4.563598e+01   3.359604e+01
  -8.811527e+01  -2.071955e+01
  -7.223375e+01  -3.595995e+01
  -9.154944e+00  -2.404703e+01
   6.698462e+01  -2.756782e+01
   3.874351e+01   1.716580e+01
   1.777542e+01   8.063826e+00
  -5.945304e+00  -3.936062e+00
   3.187523e+01  -3.342969e+00
   3.021231e+01  -9.213735e+00
   2.837316e+01   2.381653e+01
  -1.045504e+01   3.990860e+01
  -7.090786e+01   7.970419e+01
  -5.020282e+01   2.960502e+01
   9.898580e+00  -3.331833e+01
   9.458873e+01  -1.001896e+02
   8.747789e+01  -5.149100e+01
   5.428070e+01   3.339295e+01
  -8.761795e+00   8.605172e+01
  -1.227659e+01   1.318270e+02
  -1.096203e+01   6.976260e+01
  -5.059968e+00   4.821270e+01
  -2.543788e+01   2.420266e+01
  -4.362598e+01   2.685523e+01
  -7.352964e+01  -2.994030e+01
  -1.593730e+01  -6.036321e+01
  -1.323842e+01  -3.139836e+01
  -2.335133e-01   3.780781e+01
   1.022675e+01   4.847037e+01
  -1.670083e+01   2.198498e+01
  -5.421014e+00  -2.390434e+01
  -3.494194e+01  -7.395782e+01
  -3.738897e+01  -5.394468e+01
  -8.567068e+00  -4.020373e+01
   5.154445e+01  -4.074534e+01
   3.390429e+01  -7.091081e+00
   3.010657e+01   9.748015e+00
   7.167634e+01   2.179470e+00
   7.287478e+01   2.190480e+01
   8.929578e+01   8.378619e+01
  -3.251528e+01   6.309025e+01
  -8.086684e+01   8.398019e+01
  -7.810607e+01   4.476156e+01
  -4.998083e+01   2.333513e+01
   3.430674e+00  -6.083290e+01
   6.779418e-01  -1.456690e+01
   1.233601e+01   1.099229e+01
  -5.405440e+01  -6.182569e-01
  -1.666696e+01  -2.343096e+01
  -1.086268e+01  -6.598161e+01
   3.420930e+01  -4.607367e+01
   3.045085e+01  -1.467087e+00
   9.165505e+00   3.668063e+01
  -9.909294e+00  -8.686335e+00
  -1.905693e+01  -6.334317e+01
   4.511107e+01  -7.633899e+01
   4.199507e+01  -5.217551e+01
   5.033391e+01  -8.760132e-01
   6.074755e+01   1.782691e+01
   5.090307e+01   2.201015e+01
  -2.783556e+01   2.272808e+01
  -4.597008e+01   1.640158e+01
  -1.068910e+01  -3.320354e+01
   1.142440e+01   6.181128e+00
   1.496820e+01   2.454673e+01
  -3.228305e+01   1.276192e+01
  -3.396100e+01  -4.561662e+01
  -4.016558e+01  -3.967948e+01
  -1.508619e+01  -1.223029e+01
  -1.144695e+01   2.465253e+01
  -2.170308e+01  -1.970843e+00
  -7.587183e+01  -1.475197e+01
  -4.847934e+01  -4.198174e+01
  -7.012206e+00  -6.251832e+01
   2.644802e+01  -5.572640e+01
   5.250086e+01  -9.905429e+00
   1.967159e+01   1.368236e+01
   2.647372e+01   5.036513e+00
   2.633187e+01   9.560725e+00
   1.682547e+01  -1.763900e+01
   2.609643e+01   2.972784e+01
   1.332364e+01   5.387439e+01
   2.266360e+01   3.135984e+01
  -2.198062e+01   2.396211e+01
  -7.709321e+00   1.990111e+01
   5.975926e+00  -6.828667e+00
   2.191586e+01  -2.969014e-01
   3.212692e+01   1.635024e+01
  -2.449890e+01   2.149948e+01
  -3.378641e+01   1.788010e+00
  -6.374385e+01  -2.162724e+01
  -1.360090e+01  -5.676167e+01
   2.310590e+01  -3.137138e+01
   2.255850e+01  -3.600282e+01
   4.438433e+01  -7.927956e+00
   3.259128e+01  -1.331350e+01
  -2.072712e+01  -1.719691e+01
   3.019940e+01   9.898578e+00
   2.476325e+01  -3.893595e+01
   2.793623e+00   2.448943e+01
   5.788678e+00  -2.695099e+01
  -2.987524e+01  -4.279973e+01
  -5.002936e+00  -4.058192e+01
   2.565903e+01  -2.208508e+01
   6.392774e+01   1.904332e+00
   1.431462e+01   1.411555e+01
   1.089507e+01   5.689116e+01
  -2.605955e+01   3.077710e+01
  -4.633771e+01   3.690573e+01
  -4.042055e+01  -2.716780e+01
  -3.217480e+01   9.779921e+00
  -2.430587e+01   1.931588e+01
  -3.625711e+01   1.490057e+01
  -2.266815e+01  -7.843080e+01
  -1.257460e+01  -1.624820e+01
   3.601314e+01  -1.802044e+01
   2.659760e+01   2.163141e+00
   1.122944e+01   5.402509e+01
  -3.411673e+01   3.113300e+01
   1.633806e-02   1.169689e+00
   8.648432e+00  -5.254256e+01
   3.706707e+00  -2.019746e+01
   1.169359e+01  -2.634745e+01
   4.960526e+01  -1.806163e+01
   3.617540e+01   6.383559e+01
   1.962797e+01   4.826369e+01
  -6.052560e+00   4.721957e+01
  -3.179204e+01   1.653449e+01
  -4.900880e+01   4.024315e+00
  -4.090491e+01  -3.537366e+01
  -2.164324e+01   1.150892e+01
  -3.028846e+01  -4.562737e+01
  -1.479235e+01  -7.649731e+01
   2.410415e+01  -4.577041e+01
   5.278335e+01  -2.209123e+01
   2.471905e+01   2.454454e+01
   1.297833e+01   3.040124e+01
  -5.579807e+00   4.805839e+01
  -1.581770e+01  -5.096127e+01
  -2.439278e+00  -1.326058e+01
   2.824893e+01  -6.284684e+00
   6.266478e+00   2.609583e+01
   1.394476e+01  -7.219052e-01
  -1.878786e+01  -3.931898e+01
   1.306625e+01  -3.527332e+00
   5.660887e+01   3.744688e-02
  -1.246915e+00   2.214834e+01
  -1.422077e+01   4.528276e+01
  -4.356677e+01  -1.620860e+01
  -4.110696e+01   3.597692e+00
  -1.474086e+01   1.523448e+01
  -7.922600e+00  -1.197308e+00
  -1.955593e+01  -1.141905e+01
  -7.651823e+00   9.387913e+00
   2.631927e+00   6.112941e+00
  -3.791350e-01  -1.197643e+01
  -1.566934e+01  -1.453018e+01
  -2.299649e+01  -1.010285e+01
  -1.098301e+01  -2.450205e+01
   2.162698e+01   2.794093e+01
   9.460681e+00  -1.393968e+01
   1.232339e+01  -2.586428e+01
   4.543025e+01  -3.549522e+01
   3.744004e+01  -2.096693e+01
   5.066848e+01   3.485704e+01
  -2.545521e+01   3.356145e+01
  -6.040597e+01   1.904279e+01
   3.328857e-01  -2.993772e+01
  -3.082915e+00  -2.351419e+01
   1.827519e+01   4.104621e+01
  -1.090349e+01   6.702830e-01
  -5.658549e+01   1.727905e+01
  -4.973655e+01  -1.324744e+01
  -9.602381e+00  -2.028544e+01
  -1.141009e+01  -3.610480e+01
   2.463583e+01   7.340535e+00
   1.434674e+01  -1.316493e+01
  -3.739216e+00  -1.032046e+01
  -2.015716e+01  -1.246732e+01
   4.718180e+00  -1.479873e+01
   1.122100e+00  -2.015437e+01
   5.931980e+01  -7.529729e+00
   3.133117e+01   1.103898e+01
   1.378485e+01   5.309803e+01
  -2.971316e+00   1.191355e+01
   1.407708e+01  -8.852515e+00
  -2.238676e+00   2.172690e+00
  -5.189124e-01  -3.953458e+01
   3.322188e+00  -8.548048e+00
  -9.949827e+00   1.448533e+00
   3.461080e+01  -1.454598e+01
   2.338661e+01  -1.830598e+01
   2.822537e+01   3.439490e+01
  -1.671659e+01   4.551501e+01
  -2.537071e+01   2.925115e+01
  -2.105247e+01  -4.855650e+00
  -8.283893e+00  -6.853663e-01
  -1.490312e+01  -2.385387e+01
  -1.789172e+01  -6.356904e+00
  -8.147494e+00   2.644333e+00
   3.176394e+01   1.457868e+01
   1.666347e+01   1.844841e+00
   1.051263e+01   2.670689e+01
  -4.027490e+01   2.033963e+01
  -3.771173e+00   9.619433e+00
   2.440982e+01  -6.680844e+00
   1.954285e+01  -1.053678e+01
  -3.301855e+01  -1.259575e+01
   2.402410e+01  -8.202672e+00
   5.024697e+01  -1.637560e+01
   2.934203e+01  -3.556353e+01
   2.364935e+01   3.106272e+01
   1.338694e+01   4.098508e+01
  -5.030921e+01   4.476810e+01
  -3.979667e+01  -6.317069e+00
  -2.729136e+01  -2.787091e+01
  -9.485364e-01  -2.970100e+01
  -3.920791e+00  -9.418708e+00
   1.575985e+01  -1.693542e+01
   2.778804e+00   1.764722e+01
  -1.465887e+01  -1.864918e+01
  -6.205074e+00  -4.782485e+01
   1.883008e+01   6.547133e+00
   3.826118e+01   1.326302e+01
   2.075337e+01   1.909504e+01
   3.210495e+01  -2.711796e+01
  -9.541378e+00  -9.859235e+00
   2.736428e+01  -5.660044e+01
   3.288030e+01  -1.820437e+01
   3.946308e+01   2.132591e+01
   1.367537e+01   2.508281e+00
  -3.979447e+01   2.473980e+01
  -4.317130e+01   1.223995e+01
  -2.768792e+01  -1.649392e+01
   4.479715e+00  -2.562673e+01
   1.195918e+01  -3.202007e+00
  -1.182421e+01   9.573605e+00
  -4.614124e+01   4.311529e+00
  -1.968026e+01   1.698926e+01
   1.104553e+01  -2.120181e+01
   2.478538e+01  -2.820056e+01
   1.127975e+01   3.496928e+01
  -1.693096e+01   2.448277e+01
  -2.219117e+01  -1.128359e+01
  -2.047211e+01   2.523726e+01
   3.419385e+01  -1.860274e+01
  -1.470270e+01  -1.686534e+01
   1.149203e+01   1.886150e+00
   2.718976e+01   5.534759e+00
   2.092030e+01  -2.871170e+01
   4.810241e+01  -1.393113e+01
   7.515665e+00   2.436685e+01
   3.215596e+01  -1.327641e+01
  -6.750330e+00   6.471181e+00
   1.190354e+01  -4.475870e+00
  -1.654093e+01  -1.595885e+01
  -1.030809e+01  -3.263526e+01
   2.667823e+01  -2.121323e+01
   7.967430e+00   1.570305e+01
   1.261643e+01   3.169402e+01
  -1.587692e+01   1.020209e+01
   1.095348e+00  -5.125820e+00
  -2.218846e+01   5.628549e+00
   4.301577e+01  -1.716493e+01
   2.327765e+01   2.397004e+01
  -2.195247e+01  -3.993184e+00
  -1.469274e+01  -7.341473e+00
   4.169380e+01   6.910350e+00
   1.958025e+01  -2.252095e+01
   3.424852e+01  -2.728018e-01
