
 $NMID
 id='ANONYMOUS ', fmtdat='(2E16.6)'
 volume=1.0
 tramp=1.0
 $END
  -1.809949e+03   1.123202e+02
  -1.320586e+03  -8.010979e+02
  -9.276671e+01  -1.184366e+03
   5.734125e+02  -8.671614e+02
   6.010737e+02  -2.767202e+02
   1.557406e+02   6.875392e+01
  -1.203309e+02   8.930741e+01
  -1.196416e+02  -1.698985e+02
   1.559881e+02  -3.380498e+02
   3.923168e+02  -1.831511e+02
   2.121327e+02   2.668584e+02
   3.171075e+01   2.970964e+02
  -5.170857e+01   1.117712e+02
  -8.401664e+01  -1.131303e+02
   7.600931e+01  -3.141360e+02
   2.631830e+02  -4.728777e+01
   3.175362e+02   3.309245e+02
   4.884797e+00   4.609852e+02
  -2.210575e+02   2.554884e+02
  -2.166809e+02  -3.389616e+01
  -1.227709e+02  -1.545584e+02
   3.180478e+01  -1.122473e+02
   2.424644e+01  -1.013714e+01
  -1.398759e+02  -1.446530e+02
  -1.654146e+02  -1.895084e+02
   3.252277e+01  -2.175581e+02
   2.465530e+02  -9.699566e+01
   2.503207e+02   8.091257e+01
   1.018169e+02   1.622046e+02
  -1.857696e+02   1.045250e+02
  -2.984703e+02  -6.623020e+01
  -6.609379e+01  -2.114497e+02
   1.460397e+02  -1.431605e+02
   1.994804e+02  -1.218512e+02
   1.638489e+02   4.845189e+01
   3.843730e+01   1.350322e+02
   5.091873e+01   1.004239e+02
   6.029772e+01  -2.183113e+00
   1.212755e+02   1.255440e+01
   7.134200e+01   1.629831e+02
  -4.118599e+01   3.169430e+02
  -1.674301e+02   2.031307e+02
  -1.832473e+02  -3.458872e+01
  -7.103572e+01  -1.506729e+02
   2.416013e+01  -6.574997e+01
   5.257958e+01   1.365924e+02
  -3.733548e+01   1.685034e+02
  -2.022950e+02  -2.463621e+01
  -2.162228e+02  -2.199936e+02
  -5.652252e+01  -2.730000e+02
   1.778518e+02  -1.279149e+02
   2.899232e+02   5.293625e+01
   1.838381e+02   1.727686e+02
  -4.610686e+01   1.133174e+02
  -1.623100e+02   6.726522e+01
  -1.215006e+02   8.987613e+00
   1.173335e+01   1.512221e+01
   3.827540e+01   2.430745e+01
  -1.272090e+01   1.159559e+01
  -1.193349e+02  -5.545473e+01
  -1.115453e+02  -8.389850e+01
   8.849675e+01  -1.293546e+02
   2.321935e+02  -3.431079e+01
   1.702222e+02   7.343232e+01
  -7.028241e-01   2.018846e+02
  -2.225842e+02   2.293558e+02
  -2.755082e+02   6.724784e+01
  -1.391694e+02  -7.897117e+01
  -9.113442e+00  -2.057453e+02
   2.420611e+01  -1.461865e+02
  -1.195681e+01  -1.159768e+02
   3.881003e+01  -8.446306e+01
   1.480500e+02  -9.827044e+01
   1.565657e+02   1.343588e+01
   1.333633e+02   8.724719e+01
   9.729698e+00   1.731496e+02
  -9.198925e+01   1.373308e+02
  -1.124234e+02   1.809371e+01
  -5.983994e+01  -1.389718e+02
   1.223931e+01  -1.685410e+02
   1.389946e+02  -2.429669e+01
   1.926826e+02   8.105865e+01
   1.237995e+02   1.518434e+02
  -3.926259e+01   9.792036e+01
  -4.375988e+01   8.897197e+01
  -6.321979e+01   5.374323e+01
  -3.239919e+01   6.945524e+01
  -1.884271e+02   6.560868e+01
  -2.923863e+02  -7.135611e+01
  -1.870776e+02  -1.962364e+02
   4.832868e+01  -2.245936e+02
   2.280163e+02  -1.787708e+02
   2.952853e+02  -1.161844e+02
   1.541853e+02   4.440887e+01
  -2.925517e+01   1.217205e+02
  -6.451955e+01   9.635803e+01
  -1.365807e+01  -1.494132e+01
   3.614771e+01   6.369374e+00
   3.674144e+01   1.905486e+01
   7.708924e+00   6.155784e+01
  -5.137719e+01   7.374902e+00
  -5.239803e+01  -5.082586e+01
  -6.957658e-01  -1.113820e+02
   8.801608e+01  -8.930470e+00
   1.019644e+02   1.815301e+02
  -3.152050e+01   2.385033e+02
  -1.844505e+02   1.095469e+02
  -1.910998e+02  -5.316823e+01
  -1.212980e+02  -2.093373e+02
  -9.485714e+00  -1.319942e+02
   1.325050e+02  -6.344698e+01
   1.127791e+02   1.731480e+01
   2.975081e+01   5.009958e+01
  -3.033666e+01  -2.582302e+01
   1.241460e+00  -7.029265e+01
   3.281388e+01  -2.258715e+01
   1.795596e+01   3.723837e+01
  -1.182300e+01   4.276992e+01
  -2.838018e+01  -4.039496e+01
  -9.861482e+00  -8.111047e+01
   9.103806e+01  -3.810840e+01
   2.298345e+02   2.929227e+01
   1.725355e+02   1.305778e+02
  -8.825840e+00   1.535627e+02
  -1.452723e+02   7.821129e+01
  -1.304768e+02   3.459453e+01
  -7.369539e+01   1.367354e+00
   2.565133e+01  -1.046635e+01
   5.884567e+01  -4.038568e+01
   7.086836e+00   3.242485e+01
  -1.070817e+02   1.731565e+01
  -6.454341e+01  -6.379180e+01
  -2.438734e+00  -1.357707e+02
   5.696113e+01  -8.108702e+01
   6.410472e+01  -1.329402e+01
  -1.363512e+01   5.249505e+01
  -2.000774e+01  -3.020135e+01
  -5.227507e+01  -3.987261e+01
   7.394390e+01  -3.856611e+01
   1.091405e+02   1.253558e+01
   5.983583e+01   7.876085e+01
  -2.093328e-01   1.400955e+02
  -7.337087e+01   2.290242e+01
  -9.733483e+01  -1.705278e+01
  -7.809923e+00  -6.191222e+01
  -2.695063e+01  -4.018351e+00
  -4.281288e+00  -6.884811e+00
  -1.645442e+01   4.969905e+01
  -5.243681e+01  -2.456016e+00
   3.594327e+01   6.960331e+00
   5.849923e+01   9.487604e+00
   9.396520e+01   2.638227e+01
   1.116663e+01   8.447724e+01
  -7.034650e+01   1.040160e+02
  -1.239339e+02  -4.646131e+00
  -1.090283e+02  -1.008674e+02
  -4.832797e+01  -1.229106e+02
   4.807239e+01  -1.265043e+02
   1.055278e+02  -4.278349e+01
   4.126522e+01  -1.401421e+01
   7.391531e+01   1.060232e+01
   4.379599e+01   7.270526e+00
   2.248318e+01  -3.450203e+01
   2.709879e+01  -1.425171e+01
  -2.708805e+01   7.549799e+01
  -1.063889e+02   5.356424e+01
  -5.677814e+01  -3.295674e+01
  -2.724885e+00  -4.776824e+01
   8.282996e+01  -6.381033e-01
   8.776802e+01   4.343948e+01
   9.547845e+00   1.214359e+02
  -5.593771e+01   1.060556e+02
  -1.857497e+02   2.591448e+01
  -1.505765e+02  -7.446868e+01
  -8.047680e+01  -7.103722e+01
   3.137000e+01  -7.901540e+01
   4.274706e+01  -4.546090e+00
   4.663799e+01  -3.758426e+01
   3.321463e+01  -3.201677e+01
   6.546942e+01  -4.851845e+01
   6.754651e+01  -3.649257e+00
   7.833208e+01   9.957686e+01
   4.881652e+01   1.524854e+02
  -4.240997e+01   1.024488e+02
  -1.333940e+02   1.355706e+01
  -5.974520e+01  -9.720756e+01
   1.730775e+01  -1.000692e+02
   6.152572e+01  -1.205354e+01
   5.724337e+01  -6.609231e+00
   1.910236e+01   2.748149e+01
  -3.183066e+01   1.741188e+01
   1.308977e+01   3.963371e+01
   2.419660e+01   3.516246e+01
   4.546626e+01   2.328934e+01
  -4.653493e+01   2.242218e+01
  -8.959216e+01   1.026199e+01
  -4.525339e+01  -2.554630e+01
   2.853337e+01   1.642255e+00
   7.646119e+01  -6.254514e+01
   7.879535e+01  -1.355484e+01
   3.540826e+01   5.467306e+01
  -1.602869e+01   6.190952e+01
  -4.900976e+01   1.807951e+01
  -4.472522e+01  -3.187486e+01
  -3.593191e+00  -5.632801e+01
   8.336684e+00  -2.720352e+01
   9.216742e+01   1.935123e+01
   4.586721e+01   1.701010e+01
   7.659061e+01   9.654603e-01
   2.428086e+01  -1.704262e+00
   7.020544e+01   7.349609e+01
  -2.772509e+01   8.717942e+01
  -5.927690e+01   8.820278e+01
  -1.318423e+02   1.077340e+01
  -8.159391e+01  -5.452359e+01
  -6.754429e+00  -7.408258e+01
   5.140499e+01  -3.689303e+01
   2.825740e+01   1.799222e+00
  -1.123680e+01   5.118800e+01
  -6.779521e+01  -9.969759e+00
  -6.116195e+01  -5.296328e+01
   4.147426e+01  -7.238000e+01
   1.206488e+02  -6.531062e+01
   1.214438e+02  -1.288079e+01
   2.444358e+01   6.077058e+01
  -4.004553e+01  -3.488377e+00
  -7.427000e+01  -3.821674e+01
   5.347312e+01  -7.843138e+00
   4.577446e+01  -1.159366e+01
  -4.420497e+00   6.227246e+01
  -6.378302e+01   8.650874e+01
  -1.145980e+02  -1.008211e+00
  -5.923875e+01  -6.599821e+01
  -2.573798e+01  -1.562788e+02
   3.519285e+01  -1.017064e+02
   4.807084e+01   5.287404e+01
   4.518888e+00   1.205332e+02
   1.142652e+01   4.057950e+01
  -9.510471e+01  -3.852363e+00
  -7.225998e+01  -2.246915e+01
  -2.643645e+01   2.852870e+01
  -1.915501e+00   2.720341e+01
   1.404517e+01  -2.746251e+00
  -4.100111e+01  -2.238621e+01
  -3.073225e+01  -3.229309e+01
   3.260780e+01  -4.297357e+01
   6.175701e+01   3.070906e+01
   9.584696e+01   1.725532e+01
   1.502326e+01   1.657639e+00
  -3.695733e+01   3.594375e+01
  -2.784456e+01  -1.468952e+01
  -7.676624e+00   1.349783e+01
   4.920087e+00  -6.244662e+01
  -1.084605e+01   9.739765e+00
   1.891450e-01   1.074905e+01
   4.432106e+00  -1.185410e+01
   7.194695e+01  -5.001952e+00
   6.068252e+01   3.276315e+01
  -6.745886e-02   1.227867e+01
  -4.400852e+01   7.170044e+01
  -1.500838e+02   9.164574e+00
  -8.626927e+01  -3.286897e+01
   2.425261e+00  -1.009912e+02
   2.938220e+00  -5.888417e+01
   5.471142e+01   4.759284e+00
   2.557588e+01   5.611896e+01
  -3.028429e+00  -2.618753e+01
  -8.104840e+00  -2.473288e+01
  -1.068220e+01  -1.163515e+01
   1.121413e+01   2.128019e+01
   4.322827e+01   3.645627e+01
  -1.235852e+01   2.779313e+01
  -8.319914e+01  -1.817448e+01
  -7.492276e+01  -6.207935e+01
  -4.879374e-01  -1.035101e+02
   8.652728e+01  -3.528918e+01
   1.053393e+02   3.038880e+01
   5.438806e+01   7.859427e+01
  -5.340469e+01   6.327859e+01
  -8.858194e+01  -2.234597e+01
   1.762577e+01  -4.936284e+01
   5.581800e+01  -6.077208e+01
   6.758383e+01   2.044594e+01
   1.368112e+01   3.227806e+01
  -4.386263e+01  -1.744278e+01
  -4.035796e+00  -9.363107e+00
   4.147186e+01  -6.943302e+01
   5.824980e+01  -3.318711e+01
   7.968163e+01   8.831103e+00
  -3.294466e+01   3.137343e+01
  -5.911328e+01   6.648667e+01
   2.419429e+01  -1.063429e+01
   1.965411e+01  -2.841449e+01
   6.882383e+00   3.431101e+00
   4.002310e+01  -2.415098e+01
   2.288776e+00   7.684988e+01
  -2.904329e+01  -3.468474e-01
   1.895416e+00   3.398364e+01
  -3.018738e+01  -2.343475e+01
  -4.005432e+01   2.021183e+01
  -1.950954e+01   1.095335e+01
  -1.998092e+01  -3.486277e+01
  -3.090879e+01  -2.947864e+01
  -3.598232e+00  -3.580916e+00
   2.860259e+01  -7.199955e+01
   3.583383e+01   1.525279e+01
   1.347471e+01   3.192488e+01
   1.300561e+01   7.304323e+00
  -6.798430e+01   2.930426e+01
  -5.177608e+01  -5.991693e+01
   4.243691e+01  -4.588218e+01
   5.623050e+01   1.002114e+01
   5.296690e+01   7.238555e+01
   4.690677e+00   2.812268e+01
  -2.014240e+01   5.938452e+00
  -9.658413e+00  -3.806179e+00
   1.590950e+01   3.575223e+01
   6.407288e+00   9.180120e+00
   2.238267e+01   3.697675e+00
  -3.050152e+01   3.104760e+01
