
 $NMID
 id='ANONYMOUS ', fmtdat='(2E16.6)'
 volume=1.0
 tramp=1.0
 $END
  -2.527815e+03   1.662330e+02
  -1.901461e+03  -1.234934e+03
  -1.794390e+02  -1.794080e+03
   8.826820e+02  -1.102446e+03
   9.206634e+02  -3.861396e+02
   3.238211e+02   6.629033e+01
  -1.368125e+02   6.336202e+00
  -9.065776e+01  -3.232253e+02
   3.221071e+02  -4.221062e+02
   5.764308e+02  -3.750953e+01
   4.119353e+02   4.300371e+02
   1.971856e+01   4.807111e+02
  -1.923245e+02   1.944508e+02
  -1.481387e+02  -2.847996e+02
   3.870852e+01  -4.231280e+02
   2.983391e+02  -1.682325e+02
   3.259593e+02   3.541323e+02
  -8.591094e+01   5.831034e+02
  -4.372330e+02   3.151950e+02
  -3.707128e+02  -4.194009e+01
  -1.006514e+02  -3.176978e+02
   1.122990e+02  -2.894883e+02
  -1.866336e+01  -1.404119e+02
  -2.176153e+02  -1.299178e+02
  -2.205476e+02  -3.244097e+02
   1.165425e+02  -2.348654e+02
   3.777485e+02   2.039075e+00
   4.320762e+02   2.409855e+02
   1.011185e+02   3.156260e+02
  -2.109392e+02   6.199906e+01
  -3.553660e+02  -1.978156e+02
  -1.089951e+02  -2.723705e+02
   2.636526e+02  -2.818772e+02
   3.284390e+02  -4.231044e+01
   2.549920e+02   1.376766e+02
   6.713033e+01   1.641100e+02
   5.765023e+01   5.687761e+01
   9.558742e+01  -3.393119e+01
   1.514265e+02  -5.233480e+01
   9.094505e+01   1.732995e+02
  -5.880377e+01   4.021118e+02
  -1.912883e+02   2.982150e+02
  -1.963145e+02   5.672987e+01
  -6.395969e+01  -1.549494e+02
   5.439537e+01  -4.053710e+01
   3.434170e+01   1.972152e+02
  -1.510229e+02   2.604629e+02
  -3.953245e+02  -2.616014e+00
  -3.942322e+02  -3.332078e+02
  -9.523043e+01  -4.260697e+02
   2.495977e+02  -1.888125e+02
   4.129856e+02   4.690828e+01
   3.137964e+02   1.808267e+02
  -5.372689e+00   1.477370e+02
  -2.076343e+02   8.598159e+01
  -1.865460e+02   3.274540e+01
  -6.756452e+01   6.076972e+01
  -3.699791e+01   4.834260e+01
  -1.221492e+02   4.006922e+01
  -1.838744e+02  -8.910367e+01
  -1.180242e+02  -1.605604e+02
   4.372778e+01  -2.434210e+02
   3.398420e+02  -1.593994e+02
   2.845820e+02   9.103112e+01
  -3.549846e+01   3.103790e+02
  -3.366929e+02   3.401130e+02
  -3.819972e+02   1.184453e+02
  -1.641950e+02  -1.190109e+02
   2.865058e+01  -3.216409e+02
   1.878275e+01  -3.050110e+02
  -5.040411e+01  -1.541854e+02
   2.494843e+00  -1.756846e+02
   1.641482e+02  -1.343652e+02
   2.536458e+02  -2.236931e+01
   1.728873e+02   1.516088e+02
   2.330353e+01   2.444845e+02
  -8.194135e+01   1.048447e+02
  -1.291087e+02  -6.702940e+01
  -8.779926e+01  -2.069208e+02
   4.867129e+01  -2.096817e+02
   2.133196e+02  -4.367684e+01
   2.677417e+02   1.202474e+02
   1.356992e+02   1.934931e+02
  -6.821515e+00   1.677081e+02
  -9.326048e+01   1.419217e+02
  -1.124517e+02   9.739495e+01
  -1.432347e+02   9.692160e+01
  -2.392059e+02   5.309550e+01
  -4.013083e+02  -8.734247e+01
  -2.962424e+02  -3.060882e+02
   3.695170e+01  -3.867538e+02
   3.676032e+02  -3.043065e+02
   3.649602e+02  -1.330090e+02
   2.168668e+02   6.688969e+01
  -2.005161e+01   1.514525e+02
  -1.982762e+01   1.146617e+02
   5.326837e+01   4.967231e+00
   1.333848e+02  -2.249226e+00
   1.154595e+02   9.391331e+01
  -2.077089e+01   9.987730e+01
  -5.817167e+01   3.551745e+01
  -3.608807e-01  -4.241717e+01
   7.352422e+01  -9.975608e+01
   1.350150e+02  -8.154623e+00
   1.552319e+02   2.230691e+02
   1.287201e+01   3.289080e+02
  -2.085514e+02   2.351904e+02
  -3.062732e+02  -2.641853e+01
  -2.927832e+02  -2.898742e+02
  -1.559601e+01  -2.253307e+02
   1.075908e+02  -9.074087e+01
   9.108541e+01  -1.216791e+01
   4.589863e+00  -4.412047e+01
  -4.797006e+01  -9.308237e+01
   1.827378e-01  -6.986201e+01
   1.278038e+02  -3.109890e+01
   1.795939e+02   3.057041e+01
   6.639561e+01  -1.702339e+00
  -9.208842e+01  -9.081388e+01
  -6.639132e+01  -1.065576e+02
   1.423091e+02  -4.931089e+01
   2.645486e+02   7.334690e+01
   2.248073e+02   2.037028e+02
  -7.649406e+00   2.496134e+02
  -2.230352e+02   2.188700e+02
  -2.397815e+02   2.486603e+01
  -1.036529e+02  -5.424272e+01
   4.732450e+01  -7.983919e+01
   8.512587e+01  -2.045364e+01
  -4.953759e+01   7.926419e+01
  -1.476879e+02   2.888437e+01
  -1.220996e+02  -8.636905e+01
  -1.126264e+01  -9.754568e+01
   8.716320e+01  -9.980692e+01
   5.760743e+01   1.662056e+01
  -3.204971e+00   1.252377e+01
  -7.434047e+01  -6.194539e+01
  -2.557965e+01  -3.397251e+01
   1.194925e+02  -1.009075e+02
   1.785491e+02   1.362187e+01
   1.611780e+02   1.113714e+02
  -1.615093e+01   1.695052e+02
  -1.216779e+02   1.047265e+02
  -1.243117e+02  -3.286378e+01
  -1.173143e+01  -8.062769e+01
   5.470104e+01  -3.770151e+01
   7.793283e+01   3.292944e+01
  -1.424382e+01   9.937527e+00
  -5.702413e+01  -2.337916e+01
   9.297733e+00  -5.284584e+01
   1.304377e+02  -3.770540e+01
   1.451646e+02   8.669008e+01
  -4.700868e+01   1.934504e+02
  -1.341104e+02   1.983715e+02
  -2.205460e+02   2.362351e+01
  -1.632074e+02  -1.396680e+02
  -2.145314e+01  -2.355664e+02
   1.178534e+02  -1.244089e+02
   8.451225e+01  -6.626003e+01
   6.750981e+01   1.444290e+01
   8.190769e+01   5.572564e+00
   5.640146e+01  -8.756359e+00
   9.801235e+01   2.680120e+01
   5.668065e+01   6.038681e+01
  -5.660600e+01   1.121028e+02
  -1.772621e+02   7.840389e+01
  -1.299995e+02  -4.018637e+01
   1.907363e+00  -1.653361e+02
   1.373461e+02  -1.204495e+02
   1.224385e+02   9.242321e+01
   1.000767e+02   2.295236e+02
  -7.076599e+01   1.841025e+02
  -2.238045e+02   5.214449e+01
  -2.267031e+02  -1.007335e+02
  -7.870529e+01  -1.481606e+02
   4.245475e+01  -7.315136e+01
   1.081709e+02  -7.572229e+01
   9.303283e+01  -7.479388e+01
   9.538236e+01  -5.475304e+01
   6.675361e+01  -8.865221e+01
   1.171898e+02   2.797119e+01
   9.055544e+01   1.679948e+02
   5.966507e+01   2.092672e+02
  -8.905561e+01   1.400556e+02
  -1.613530e+02   1.597122e-01
  -9.621876e+01  -1.255168e+02
   1.238138e+01  -1.090092e+02
   7.182971e+01  -7.537721e+01
  -3.091397e+00   3.838322e+01
  -2.848824e+01   1.117301e+01
  -5.133377e+01   1.203087e+01
   1.199381e+01   1.051572e+01
   1.322278e+02   5.363059e+01
   5.714883e+01   2.653476e+01
  -7.811263e+01   4.401247e+01
  -1.986233e+02   3.817031e+00
  -1.393114e+02  -7.701873e+01
   1.449737e+01  -1.196560e+02
   1.212700e+02  -5.695221e+01
   1.000338e+02   4.207689e+01
   6.518686e+01   8.012866e+01
  -2.687405e+01   7.363749e+01
  -5.847270e+01  -3.601463e+01
  -3.261971e+01  -8.124102e+01
   4.236133e+01  -9.033453e+01
   2.374032e+01   5.201732e+00
   7.463157e+01   8.236765e+01
   6.577741e+01   6.601501e+01
   3.703721e+01  -4.649062e+00
   6.834596e+01   2.064249e+00
   1.143822e+02   7.228074e+01
   9.089784e+00   1.668440e+02
  -1.468491e+02   1.438060e+02
  -1.999560e+02   5.579069e+01
  -1.709682e+02  -7.827808e+01
   1.906494e+01  -9.787998e+01
   9.915288e+01  -4.981840e+01
   1.666448e+01   3.532902e+01
  -8.295534e+01   3.501501e+01
  -1.388206e+02  -5.105369e+01
  -2.330969e+01  -8.001737e+01
   1.067456e+02  -8.149331e+01
   1.720599e+02   2.375506e+00
   1.691620e+02   1.868034e+01
   1.002467e+01   9.377092e+01
  -4.590962e+01   5.779124e+01
  -3.191841e+01   1.352193e+01
   2.299966e+01  -3.750464e+01
   3.640535e+01   1.162909e+01
   4.232871e+01   9.817590e+01
  -6.088105e+01   1.311054e+02
  -1.570233e+02   7.656876e+01
  -9.857910e+01  -1.155301e+02
  -3.208343e+01  -1.803663e+02
   1.035427e+02  -1.343870e+02
   8.328397e+01  -1.242148e+01
   5.150026e+01   1.344174e+02
  -3.079962e+01   6.236529e+01
  -3.464297e+01  -2.738419e+01
  -2.761022e+01  -1.844601e+01
   1.284701e+01   7.299273e-01
  -2.674132e+01   2.532825e+01
  -8.022786e+01   2.200888e+01
  -3.581354e+01  -6.153256e+01
  -2.446094e+00  -5.463828e+01
   1.061666e+02  -1.992274e+01
   1.436761e+02   2.888218e+01
   1.371623e+02   4.169038e+01
   4.546013e+01   9.197208e+01
  -4.031158e+01   4.530813e+01
  -9.834476e+01   2.017448e+01
  -3.757932e+01  -2.164571e+01
  -2.973884e+01  -5.419062e+01
   9.385817e+00  -9.512604e+00
   7.787400e+00  -3.424532e+01
   1.769073e+01   2.577321e+01
   5.137081e+01  -3.378959e+01
   9.481812e+01   2.652379e+01
   3.182062e+01   4.347827e+01
  -1.053374e+02   1.211797e+02
  -2.096562e+02   6.472005e+01
  -1.499079e+02  -2.145614e+01
  -4.106443e+01  -9.002695e+01
   5.656868e+01  -1.526521e+02
   1.506905e+02  -4.798376e+01
   1.143923e+02   4.743592e+00
   5.179998e+01   3.272429e+01
   4.798172e+01  -1.386600e+01
  -8.749278e+00   2.282049e+01
   2.286410e+01   7.706944e+01
   1.148512e+00   8.590356e+01
  -5.069670e+01   3.012596e+01
  -6.677602e+01  -4.161865e+01
  -7.729424e+01  -1.076787e+02
  -3.436772e+01  -9.843994e+01
   3.719360e+01  -4.187463e+01
   9.193781e+01   2.729192e+01
   5.869363e+01   1.051131e+02
  -3.397901e+01   8.090858e+01
  -1.115736e+02  -3.809514e+01
  -6.502090e+01  -5.281371e+01
   5.102331e+01  -2.925578e+01
   4.698168e+01  -5.736536e+01
  -1.191008e+01  -1.382022e+01
  -4.473073e+01  -3.595299e+01
  -1.515251e-01  -1.184753e+01
   8.648147e+01  -4.195047e+01
   1.555832e+02  -3.232857e+01
   1.051659e+02   3.766250e+00
   7.085290e+00   6.868931e+01
  -2.340695e+01   1.309636e+02
  -6.632469e+01   5.224561e+01
  -4.638469e+01  -6.357249e+01
   8.903746e+00  -7.042768e+01
   2.219012e+00  -4.863151e+01
   2.824930e+00   2.204854e+01
   7.386125e+00  -1.304390e+01
   1.297844e+01  -2.175992e+01
  -3.288908e+01  -2.710747e+01
   1.709488e+01  -4.048228e+01
   1.613376e+01  -1.369353e+01
  -8.003128e+00   3.768357e+01
  -3.044550e+01   4.031725e+01
  -5.634616e+00  -8.007612e+01
   3.039852e+01  -3.382727e-02
   4.946710e+01   5.988805e+01
  -4.101914e+00   9.255133e+01
  -8.329791e+00   1.656153e+01
  -6.334864e+01  -5.378801e+01
  -6.610129e+01  -4.538544e+01
   7.561798e+01  -3.506518e+01
   5.535338e+01   6.105157e+00
   6.152398e+01   2.540746e+01
   2.323230e+01   3.600593e+01
  -4.103370e+01   3.126577e+01
  -8.622440e+01   3.061914e+01
  -3.164402e+00   5.702747e+00
  -1.388768e+01  -1.343227e+01
   7.839105e+00   7.108947e+00
  -9.100664e+01  -1.241262e+01
