
 $NMID
 id='ANONYMOUS ', fmtdat='(2E16.6)'
 volume=1.0
 tramp=1.0
 $END
   9.887665e+02   6.673863e+01
   4.972223e+02   4.561323e+02
  -9.398162e+00   4.948082e+02
  -2.689132e+02   4.026072e+02
  -1.821257e+02   1.313518e+02
   6.569865e+01  -6.003071e+01
   6.731585e+01   5.834403e+01
  -1.209931e+01   1.361916e+02
  -1.137242e+02   2.036245e+02
  -1.233963e+02   1.849253e+01
  -1.230414e+02  -1.092705e+02
  -6.828393e+01  -1.120725e+02
   1.917869e+01  -9.830649e+00
  -1.718662e+01   7.914829e+01
  -4.684265e+01   7.439814e+01
  -8.044301e+01   3.853635e+01
  -3.232452e+01  -8.685029e+01
  -1.948918e+00  -1.711015e+02
   3.443694e+01  -5.635480e+01
   1.307842e+02   4.039018e+01
   5.098785e+01   1.281578e+02
  -2.779319e+01   5.249703e+01
  -5.724885e+01   1.122931e+01
   1.337683e+01   1.643413e+01
   1.016707e+02   1.558364e+01
   7.738141e+00   8.407588e+01
  -9.321423e+01   1.334716e+01
  -1.193592e+02  -1.905002e+01
  -8.321746e+01  -6.800001e+01
   2.352730e+01  -6.083268e+01
   1.134899e+02   5.181397e+00
   3.678211e+01   6.455138e+01
  -2.511005e+01   6.647699e+01
  -9.593834e+01   7.322574e+01
  -8.890369e+01   1.807797e+01
  -2.773016e+01  -8.796669e+01
   2.481363e+01  -6.034845e+01
  -3.187142e+00   1.626319e+01
  -4.566513e+01   6.782114e+01
  -1.357190e+01   2.038768e+00
   2.675589e+01  -9.058676e+01
   7.072723e+00  -1.131221e+02
   5.874982e+01  -1.930749e+01
   2.619493e+01   6.694176e+01
  -3.120735e+01   1.432999e+01
  -8.714847e+01  -9.989483e+01
   2.008639e+01  -9.932446e+01
   1.056937e+02  -3.008144e+01
   1.387157e+02   9.141358e+01
   4.865684e+01   1.148118e+02
  -7.099996e+01   5.940170e+01
  -7.303378e+01  -3.666052e+01
  -7.343842e+01  -3.659913e+01
   2.302681e+01   3.819474e-01
   7.606223e+01   2.647415e+01
   1.691846e+01  -1.588905e+01
  -1.447534e+01   4.197440e+01
  -7.853977e+00  -2.368889e+01
   5.341925e+01  -1.988933e+01
   6.861870e+01   9.356447e+00
  -1.117362e+01   1.021340e+02
  -5.384002e+01   7.317711e+01
  -1.065897e+02  -2.074687e+01
  -5.514266e+01  -3.467929e+01
   3.357626e+01  -7.517320e+01
   8.862837e+01  -4.979793e+01
   7.285002e+01  -8.895546e+00
   6.168042e+01   5.544845e+01
   4.732944e+00   1.138635e+02
   2.642580e+01   7.015475e+01
  -7.477796e+00   2.778209e+01
  -1.554434e+01   6.355936e+01
  -3.379353e+01   4.176622e+01
  -2.504547e+01   1.515413e+00
  -3.073599e+01  -4.067895e+01
   1.472232e+01  -6.507192e+01
   1.566012e+01  -6.890078e+01
   4.171719e+01   3.241108e+01
   4.722410e+01   3.472045e+01
  -1.188580e+01   9.386670e+01
  -7.945036e+01   6.854936e+01
  -9.641079e+01  -1.005171e+01
  -6.141049e+01  -7.066827e+01
  -8.316046e+00  -5.438095e+01
   3.632648e+01  -3.370344e+01
   9.296606e+00  -3.185429e+01
   3.614074e+01   1.567208e+01
   5.271461e+01   4.200382e+01
   6.665195e+01   8.364184e+00
   4.769655e+01   6.517222e+01
  -7.637399e+00   8.002498e+01
  -1.105164e+02   9.679286e+01
  -1.148717e+02   3.221871e+01
  -7.003590e+01  -5.551269e+01
   1.859450e+00  -8.572798e+01
   3.164738e+01  -4.406333e+01
  -6.310228e+00  -5.491653e+00
  -1.632561e+01   2.369794e+01
   8.317857e-01  -1.754574e+01
   1.895169e+01  -2.669218e+01
   2.069170e+01  -2.801040e-01
   6.192668e+00   3.255254e+01
   1.304714e+01   3.213095e+01
  -4.241157e+01  -1.362631e+01
  -4.070881e+01  -4.076552e+01
   3.119305e+01  -1.019930e+02
   5.956782e+01  -7.722492e+01
   8.412595e+01   3.127450e+01
   8.392367e+01   6.497053e+01
   1.553582e+01   5.917768e+01
  -1.064755e+01   2.798683e+01
  -2.427491e+01   1.591070e+01
  -2.849115e+01  -2.248010e+01
  -2.164346e+01   4.693090e+01
  -1.085175e+01   5.221477e+01
  -2.511184e+01   3.516724e+01
  -3.393397e+01  -1.147311e+01
  -4.529805e+01  -1.816863e+01
   6.246972e+00  -1.507763e+01
   3.051107e+01   3.486555e+01
  -3.807887e+01   4.819610e+01
  -7.204958e+01   4.115485e+00
  -3.640861e+01  -3.960817e+01
   5.246422e+00  -7.613239e+01
   6.023817e+01  -4.339678e+01
   8.225441e+01  -3.715389e+01
   4.937658e+01   2.539462e+01
  -3.079454e+01   4.342372e+01
  -9.904814e+00   1.959383e+01
  -8.808903e-01   1.176171e+01
   7.317581e+01  -1.534225e+01
   3.111008e+00   1.906940e+01
   2.245796e+01   3.470535e+01
  -5.642783e+01   2.390808e+01
  -2.385427e+01   6.914085e+01
  -8.322908e+00  -7.663450e+00
  -8.285176e+00   1.315099e+00
   3.824987e+01   5.889205e+00
   2.221947e+00   2.853633e+01
  -3.312385e+01   1.761992e+01
  -6.949442e+01  -2.326105e+01
  -5.042058e+01  -1.414260e+01
   2.463835e+01  -1.932392e+01
   3.733307e+01  -7.799044e+00
   1.758064e+01   1.662872e+01
  -3.112300e+01   6.704898e-01
  -2.867089e+01   1.652123e+01
  -1.070573e+01  -2.415982e+01
  -7.200963e-01  -2.348726e+01
   2.508926e+01  -3.502351e+00
  -5.203482e-01   2.370285e-01
  -2.172892e+01  -1.324248e+01
   5.696684e+00  -2.688940e+01
   4.240796e+01  -5.020291e+01
   3.998792e+01  -1.437145e+01
   9.187420e+00   3.080960e+01
  -9.688162e+00   5.670361e+00
  -3.415368e+01   2.921378e+01
   2.927601e+01   2.311104e+01
  -1.484199e+01  -4.460869e+00
  -4.632478e+01  -3.724534e+01
  -1.986607e+01   2.742214e+01
  -3.579267e+01   2.053459e+01
   1.605030e+01  -2.208561e+01
   1.767392e+00  -1.014868e+01
   1.051607e+01   3.112507e+01
   6.351315e+00   1.860871e+01
   4.696056e+00   2.598639e+01
  -5.275489e+01   3.908087e+00
  -1.047214e+02  -4.009734e+01
  -5.021399e+01  -3.976032e+01
   2.496862e+00  -6.889724e+01
   5.271085e+01  -4.856031e+01
   9.465645e+01   7.021135e+00
   2.646938e+01   2.529472e+01
   2.186239e+00   2.017448e+01
  -9.244297e+00   2.458387e+01
   9.135458e+00  -1.501665e+00
  -1.595702e+01   2.539444e+01
  -2.433490e+01  -4.348264e+00
  -2.451614e+01  -8.439228e+00
   1.328642e+01   1.909296e+01
  -1.593602e+00  -4.642030e+01
   1.909232e+01  -4.211283e+01
   1.003866e+01   3.462952e+00
   2.523528e+01   4.709378e+01
  -1.727889e+00   9.428796e+00
  -1.171835e+01   2.599838e+01
  -1.643054e+01   2.178442e+01
  -2.211219e+01   5.117031e+00
   1.381051e+01  -2.761487e+01
  -1.990278e+01  -2.140720e+01
  -1.317773e+01   2.118837e+00
   1.388609e+01  -2.915001e+01
   7.566622e-01  -3.073953e+01
   4.922571e+01   2.547278e+01
   1.924263e+01   2.885621e+01
   3.485103e+01   4.903017e+00
  -4.493501e+01   9.683037e+00
  -4.132954e+01   1.153854e+01
  -2.126471e+01  -3.411999e+00
   7.520453e-01  -9.500695e+00
  -2.342102e+01   1.009651e+01
  -8.289758e+00  -1.238629e+01
   1.469341e+01  -1.627943e+01
   9.171584e-01   2.070183e+00
   2.969828e+01  -1.887317e+01
   3.069458e-01  -4.053667e+01
  -1.976156e+01   1.348377e+01
  -1.030671e+01   3.645189e+01
  -2.017209e+01   3.142493e+00
   3.444486e+01  -6.028717e+01
   2.638116e+01   9.208392e+00
   6.420941e+01  -1.675233e+01
   3.903687e+01   4.687028e+01
  -2.091551e+01   6.116192e+01
  -5.171286e+01   3.587590e+01
   4.572668e+00  -1.705373e+01
  -2.075528e+01  -2.828122e+01
  -3.022032e+00   2.987414e+01
   2.797369e+01   2.291906e+01
  -2.245402e+01   3.137330e+01
  -4.945265e+01   8.271065e+00
  -4.476023e+01  -1.930561e+01
  -2.976585e+01   1.582612e+01
   3.595593e+01  -1.503179e+01
   7.166269e+00   1.902416e+01
  -2.490580e+01   2.783765e+01
  -4.528185e+00  -2.150328e+01
   1.684810e+01  -1.062259e+01
   2.606292e+01  -5.627156e+01
   7.783191e+00  -1.415980e+01
   5.042552e+01   1.818624e+01
   1.453918e+01   2.500058e+01
  -3.110586e+01   3.536215e+01
   9.144363e+00  -3.716533e+01
   1.618035e+01  -6.130191e+01
   3.783335e+01  -2.082727e+01
   1.311944e+01   1.816734e+01
   6.133148e+00   2.420645e+01
   2.206584e+01   1.579980e+01
  -3.021956e+01  -3.691276e+01
   1.722134e-01  -2.384951e+01
   6.195894e+00   2.967677e+01
   3.232485e+01   1.567705e+01
   1.383365e+01  -8.337918e+00
  -3.160863e+01  -4.332969e+01
   8.788263e+00  -2.462299e+01
  -1.216676e+01  -3.191681e+00
   2.864131e+01  -1.440659e+01
   1.062606e+01   4.661503e+00
   5.219983e+00  -1.780856e+01
  -5.029523e+01   1.404099e+01
  -1.418461e+01  -2.246108e+01
   2.582607e+01  -2.550458e+01
  -1.728032e+01   1.364820e+01
  -2.328397e+01   2.351763e+01
   9.312982e+00  -4.092013e+00
  -3.158480e+01   5.128574e+00
   1.955363e+01  -2.638799e+01
   1.562409e+01  -4.090825e-01
   1.947213e+01  -8.946960e+00
  -1.978421e+01   1.857155e+01
  -5.524281e+01   2.738294e+01
  -2.423950e+01   5.932936e+00
  -3.832910e+01   1.412897e+01
  -2.316606e+01  -2.886175e+01
  -1.211098e-01   2.733513e+01
   2.101248e+01  -7.146489e+00
   2.111905e+01  -2.458389e+01
  -2.464134e+01  -1.853374e+01
   7.107522e+00   7.110495e+00
   7.968109e+00   3.678075e+01
   6.579917e+01   1.538539e+01
  -7.927880e+00   4.300099e+01
  -4.382865e+01  -5.013441e+00
  -6.538624e+01  -2.840414e+00
   2.089839e+01  -1.351674e+01
   4.960254e+01  -2.752907e+01
   8.217729e+00   1.725828e+01
  -5.394556e+00   1.178589e+01
  -2.326333e+01   2.453891e+01
  -9.241989e+00   1.754338e+01
   5.240500e+00  -3.393448e+01
   2.449289e+01  -4.879625e+00
   1.229368e+01   1.209552e+00
  -3.260640e+01   6.190577e+00
  -1.810389e+01  -4.202227e+00
   5.474695e+00  -1.452674e+01
   1.252878e+01  -5.305572e+01
   2.035729e+01  -2.036722e+01
  -5.591545e+00  -6.642333e+00
  -2.062454e+00   1.495546e+01
   3.042968e+01   2.403903e+01
  -1.406984e+01  -2.752337e+01
   2.906390e+00  -1.126959e+01
  -2.157305e+01   1.342796e+01
   4.951145e+00   2.947402e+01
   1.503519e+01  -1.751957e+01
  -5.178504e+00  -1.907401e+01
  -9.180106e+00   1.498639e+01
   1.171804e+01  -2.401559e+01
   1.011872e+01   9.566354e+00
   3.211906e+00  -2.804043e+00
  -2.913915e+01  -8.628287e-01
  -3.587849e+01  -3.142510e+00
  -4.675008e-01  -4.289149e+01
  -9.895465e+00  -9.331747e+00
   2.974390e+01  -1.960660e+00
   4.172353e+01   4.547247e+01
  -1.526719e+01   4.653490e+01
  -5.585520e+00   5.562583e+00
   3.906024e+00  -4.029705e+00
  -1.725679e+01   1.771640e+01
   6.195923e+00   2.713198e+01
   3.842384e+01  -3.921121e+00
  -1.577380e+01   9.194893e+00
  -8.396989e+00   5.164649e+01
   1.711870e+01  -4.918603e+01
   3.392142e+01   3.153782e+00
