
 $NMID
 id='ANONYMOUS ', fmtdat='(2E16.6)'
 volume=1.0
 tramp=1.0
 $END
  -7.212264e+02  -9.709327e+01
  -3.340426e+02  -3.556879e+02
  -4.152616e+01  -3.082198e+02
   1.152999e+02  -2.522450e+02
   1.456803e+02  -1.216454e+02
  -2.883265e+00  -3.259367e+01
  -3.646020e+01  -1.036973e+02
  -1.367815e+01  -7.213775e+01
   5.286453e+01  -9.008259e+01
   1.274235e+02  -5.196956e+01
   1.134698e+02   8.052443e+01
   1.464422e+01   5.260973e+01
   3.055743e+01   5.447998e-01
   1.390980e+01  -3.004010e+01
   2.537211e+01  -4.025692e+01
   6.064719e+01  -2.673886e+01
   5.943702e+01   5.606412e+01
  -1.916861e+00   8.300870e+01
  -5.816172e+01   7.785394e+01
  -5.637938e+01   1.539801e+01
   2.126689e+01  -6.656730e+01
   2.839907e+01  -3.124469e+01
  -4.057485e+01  -4.045357e+01
  -3.181271e+01  -5.285971e+01
  -1.347985e+01  -7.055681e+01
   1.351897e+01  -2.972188e+01
   8.602807e+01  -9.715452e+00
   9.251642e+01   6.531243e-01
   8.114151e+01   3.121823e+00
   1.089465e+01   5.705598e+01
  -3.414690e+01   2.136019e+01
  -2.109377e+01  -3.877703e+01
   2.573417e+01  -2.998588e+01
   3.555619e+01  -7.272972e+01
   7.125684e+01  -9.627047e+00
   4.578843e+01   9.154610e+00
   1.349068e-02   1.729078e+01
   2.104772e+01  -1.705010e+01
   2.118394e+01  -4.372315e+00
   2.305627e+00   6.679334e+01
  -1.108733e+01   7.948751e+01
  -6.726528e+01   3.768628e+01
   1.017565e+01  -2.016653e+01
   8.087293e+00  -5.734798e-01
   2.360266e+01   1.479551e+01
  -4.646333e+00   3.121518e+01
  -3.969250e+01   2.848847e+01
  -6.928049e+01  -3.347648e+00
  -8.693043e+01  -1.326833e+01
  -4.343769e+01  -6.051816e+01
   1.903881e+01  -4.807007e+01
   9.848059e+01   1.727462e+00
   5.798699e+01   2.706116e+01
  -1.587822e+00   1.445234e+01
  -6.151832e+01   1.281979e+01
  -1.241206e+01  -3.182841e+00
  -7.950149e+00  -2.717223e+01
   3.222163e+01  -1.999295e+01
  -4.877393e+00  -1.202664e+01
  -4.398354e+00  -7.138811e+00
  -2.416683e+00  -2.834042e+01
   9.947994e+00  -2.893764e+01
   3.176860e+01  -1.225187e-01
   3.354604e+01   5.941251e+00
  -7.566118e+00   5.885055e+01
  -3.952117e+01   7.660289e+01
  -7.154051e+01   3.359451e+01
  -6.737496e+01  -2.740482e+01
  -2.203577e+01  -5.528500e+01
  -6.086023e+00  -5.215203e+01
  -3.062567e+01  -7.087857e+01
   7.263621e+00  -6.644269e+01
   2.767473e+01  -3.157018e+01
   4.415030e+01  -1.342177e+01
   7.208331e+01  -1.175872e+01
   6.037807e+01   2.661499e+01
  -4.737648e+00   2.750354e+01
  -2.602872e+01  -4.518770e+00
  -1.521376e+01  -1.835120e+01
   1.013383e+01  -4.004971e+01
   4.627099e+01  -1.410259e+01
   5.987525e+01  -3.135432e+01
   5.319942e+01   5.393278e+01
   2.081442e+01   3.121244e+01
  -1.043846e+01   6.402819e+01
  -2.591699e+01   4.317997e+01
  -9.950200e+00   3.540032e+01
  -1.084919e+02  -2.669776e+01
  -7.417370e+01  -5.282876e+01
  -6.280237e+01  -5.019140e+01
   2.598679e+01  -7.154094e+01
   2.677521e+01  -8.031165e+01
   5.603392e+01  -3.746590e+01
   3.523717e+01   2.468667e+01
   1.759910e+01   2.683701e+01
   1.880395e+00   6.222425e+00
   4.377651e+01   3.799942e+01
   3.878892e+01   4.696416e+01
   4.049196e+01   3.584148e+01
   1.391711e+01   5.216787e+01
  -4.539478e+01   2.033218e+01
  -4.762124e+01  -2.941329e+00
   5.505294e+00  -3.692541e+01
  -1.066150e+01  -8.672189e-01
   2.692619e+01   2.057272e+01
  -1.535952e+01   7.908029e+01
  -5.541760e+01   5.350032e+01
  -6.994289e+01   4.066967e+00
  -8.808999e+01  -6.161160e+01
  -1.629923e+00  -8.483414e+01
   1.543514e+01  -3.982721e+01
  -9.513823e+00  -6.689369e+01
  -1.327908e+01  -3.411633e+01
  -1.207119e+01  -3.209242e+01
   3.389662e+01  -5.077466e+01
   3.504128e+01  -3.135657e+01
   3.974079e+01  -6.294317e+00
   1.361276e-01   1.398238e+01
  -1.600012e+01   1.693880e+01
   1.831681e+01  -1.945967e+01
   3.943096e+01  -6.277901e+00
   4.537430e+01   3.491341e+01
   1.706672e+01   2.458338e+01
   7.621661e+00   4.083445e+01
  -7.239806e+01   3.801883e+01
  -7.207229e+01   2.286225e+01
  -4.032607e+01  -1.424248e+01
   3.097806e+01   2.548814e+01
   2.439403e+01   2.867586e+01
   2.061378e+00   4.873933e+00
  -8.340415e+00  -3.078241e+01
  -1.081170e+01  -7.820551e+00
  -1.341071e+01   1.290271e+01
   2.779112e+01  -6.734712e+00
  -7.664852e+00  -1.978461e+01
   5.753456e+00  -3.275950e+01
  -1.127478e+01  -1.441443e+01
   1.016815e+01  -9.406960e+00
   2.038261e+01   1.792032e+00
   4.845228e+01   2.980340e+01
  -1.355157e+01   5.206044e+01
  -2.369898e+01   2.451226e+01
  -1.570357e+01   4.441899e+01
  -1.444399e+01   1.094366e+01
   7.146616e+00  -1.595909e+00
   1.759257e+01  -2.333823e+01
  -1.575795e+01   3.902756e+01
  -1.211553e+01  -2.004335e+01
  -2.500803e+01  -1.137835e+01
   3.939683e+01  -2.656310e+01
   9.438964e+00   5.685821e+00
   2.274069e+01   4.332492e+01
  -3.983782e+01   4.815726e+01
  -3.929720e+01   4.426901e+01
  -4.947793e+01   1.506629e+01
  -2.920462e+01  -2.917110e+01
   7.381776e+00  -2.906102e+01
   1.983128e+01  -4.219356e+01
   2.797934e+01  -5.605170e+00
   6.776899e+00   2.442749e+01
   2.517382e+01   3.124656e+01
  -7.954181e+00  -1.804088e+01
   8.432782e+00   5.664785e+00
  -2.710402e+01  -7.842293e-01
  -2.509289e+01   1.260933e+01
  -5.037343e+00  -3.050787e+01
   1.292154e+01  -3.380194e+01
  -4.863091e+00  -2.113395e+01
   4.155067e+01   1.359847e+01
   5.933724e+01   7.284434e+01
   2.158890e+01   3.364517e+01
   2.857031e+00   2.995439e+01
  -6.172238e+01   3.095013e+01
  -5.690804e+01   8.480066e+00
  -9.924884e+00  -1.835666e+01
   1.944564e+01  -2.796525e+01
   1.873075e+01  -2.043251e+01
   2.634748e+00  -6.395245e+00
   8.510295e+00  -2.459373e+01
   6.122342e+00  -1.692763e+01
   3.674567e+01   4.369281e+00
   1.584042e+01   3.762225e+01
   3.428443e+01   8.564924e+01
  -4.461594e+01   3.778669e+01
  -3.803285e+01  -8.019988e+00
  -5.895162e+01  -3.911297e+01
  -2.235473e+01  -1.358824e+01
  -1.519813e+01  -3.076722e+01
   2.207947e+01  -1.039421e+01
   1.839413e+01   4.687620e+00
   2.558630e+00   1.035159e+01
   2.794793e+01   2.217012e+01
  -6.283333e+00   1.588543e+01
   4.815130e+00   4.224249e+01
  -1.473578e+01   6.691972e+00
  -3.421122e+01   4.399182e+00
  -3.982287e+01  -4.730758e+01
   3.176967e+01  -2.328338e+01
   6.541279e+01  -1.201594e+01
   5.081503e+01  -6.929935e-01
   1.038867e+01   3.626692e+01
  -2.947007e+00  -4.077450e-01
  -2.681163e+01   6.486159e+00
  -9.315523e-01  -4.986444e+00
   1.007884e+00   6.496979e+00
   9.198954e+00   1.318514e+01
   6.043015e+00   2.498074e+01
  -2.231124e+01   9.531044e+00
  -2.447986e+00  -3.240394e+00
  -5.853961e+00   2.595655e+01
   3.372802e-01  -1.632296e+01
  -2.700470e+01   9.594881e-01
  -2.160836e+01   9.159206e+00
  -6.361163e+01   3.026437e+01
  -5.067733e+01   2.032923e+01
   6.420933e+00  -2.716980e+01
   1.525679e+01  -2.769760e+01
   1.594626e+01  -8.138153e+00
  -2.350857e+01  -2.969597e+00
  -1.348588e+00  -1.020988e+01
  -4.195852e+00  -2.142870e+01
   1.360391e+01  -4.671372e+01
   5.846098e+01  -1.411712e+01
   4.013227e+01   1.825412e+00
   3.793384e+01   1.886698e+01
  -1.690275e+01  -2.097833e+00
   6.038268e+00  -1.503329e+01
   4.342473e+01   8.087564e-01
   4.042116e+00   2.689734e+01
  -7.358858e-01   1.872732e+01
  -9.772697e+00   4.618556e+01
  -2.927759e+01   4.089093e+00
   1.017714e+01  -2.088292e+01
   2.053446e+01  -1.535642e+01
   1.975130e+01  -5.772702e+01
  -5.840523e+00  -1.658522e+01
  -8.036636e+00   1.221616e+01
  -1.527256e+01   2.312502e+01
  -4.685287e-01  -1.236878e+01
   2.431733e+01   2.972039e+01
  -3.100611e+01   2.113227e+01
  -1.372738e+01   5.476447e+00
  -8.890447e+00  -3.744819e+01
   1.469811e+01  -4.002637e+01
   1.658923e+01  -9.925837e+00
   5.056631e+01  -5.922984e+00
   3.466324e+01   2.417247e+01
   2.561634e+01   4.874559e+00
  -5.754738e-01  -4.364628e+00
  -4.673387e+01  -9.698131e+00
  -2.783268e+01   2.283922e+00
  -3.057183e+01   3.529181e+01
  -1.050548e+01  -1.264993e+01
  -2.003469e+00   3.359083e+01
  -4.949357e-01  -2.131740e+01
  -9.391642e+00  -1.981733e+01
   2.828876e+01   7.171081e+00
   1.745231e+01  -8.548010e+00
   1.208660e+01   2.564395e+01
  -2.961688e+01   3.596513e+01
  -4.929538e+01  -6.875312e-01
  -4.072882e+01  -5.472829e+01
   8.042737e+00  -5.055524e+01
  -1.743140e-01  -3.410666e+01
  -1.102758e+01  -4.944094e+01
   2.919832e+01  -1.243669e+01
   7.441560e+00  -2.551017e+01
   1.021178e+01   1.813670e+01
   1.709308e+01   3.255569e+01
   3.726178e+01   1.884840e+01
   1.656836e+01  -3.998511e-01
  -5.454014e+01  -2.627904e+01
  -2.744674e+01  -8.594729e+00
  -2.457795e+01  -1.986355e+01
   1.026814e+01  -3.237896e+01
   1.542748e+01  -2.616005e+01
   1.734601e+01   1.706598e+01
  -8.282684e+00   4.445485e+01
  -1.071927e+00   2.148137e+01
  -5.000284e+01   1.625105e+01
   4.210391e+00   1.292720e+01
   1.217151e+01  -1.627332e+01
   9.407953e+00   5.910675e+00
  -1.180932e+01  -1.545746e+01
  -2.142675e+01   2.768765e+01
  -1.328680e+01  -2.100833e+01
   7.783309e+00   4.023628e+00
   2.676649e+01   9.596215e+00
   1.424223e+01  -8.378802e+00
  -2.936836e+01   1.779890e+01
  -2.911670e+01   1.633689e+01
   2.093174e+01   1.162199e+01
   2.363026e+01  -1.877159e+01
   9.139182e+00  -7.695840e+00
   4.490347e+01  -1.150351e+01
  -8.731960e+00  -2.658908e+01
  -1.853726e+01  -2.520636e+00
   3.412590e+00  -2.447135e+01
  -1.701245e+01  -9.627161e+00
  -6.550402e+00   1.025986e+01
   2.127954e+01   2.370854e+01
   1.729333e+01   2.585653e+01
  -3.988930e+00  -2.127219e+01
  -1.832159e+01  -1.512111e+01
  -9.472117e+00   4.073558e+00
   3.285779e+01   2.012800e+00
  -1.139782e+00   2.149007e+01
  -2.387396e+01  -2.322187e+01
  -2.528412e+01   6.343507e+00
  -2.691890e+00  -1.915170e+01
  -1.085568e+01  -1.207498e+01
  -6.319566e+00  -1.095986e+01
   6.166229e+00   2.062911e+01
  -1.681119e+01   1.829834e+01
  -1.983315e+01  -7.673768e+00
   3.415268e+00  -1.279134e+00
   1.432289e+01   1.876964e+01
  -1.587521e+01   1.052282e+01
  -6.261140e+00   1.599635e+01
  -2.723971e+01  -2.478625e+01
