
 $NMID
 id='ANONYMOUS ', fmtdat='(2E16.6)'
 volume=1.0
 tramp=1.0
 $END
   5.217824e+02   1.888810e+01
   1.892148e+02   1.567720e+02
  -2.470264e+01   1.020111e+02
  -6.570049e+01   1.084250e+02
  -3.030055e+01   3.437374e+00
   4.666883e+01   1.727482e+01
   6.785426e+01   2.226257e+01
   1.665219e+01   2.623957e+01
   5.521362e+01  -3.432860e+00
  -8.116839e+00   9.655440e+00
  -5.932289e+01  -4.788139e+01
  -6.597823e+01  -2.822429e+01
   8.153565e+00  -9.474557e+00
   3.132616e+01   3.205487e+01
   2.058395e+01   5.365064e+01
   6.228723e+01   1.089393e+01
   1.917889e+01  -2.427070e+00
   4.132157e+01  -3.817797e+01
  -2.926156e+00  -6.249882e+01
   1.631943e+01  -2.168392e+01
  -5.587138e+00   3.916587e+01
   4.082310e+01   1.863205e+01
  -3.863682e+01   2.613368e+01
  -2.949132e+01   3.267654e+00
  -9.449316e+00  -2.643571e+01
  -1.812018e+01   4.400899e+00
  -1.657172e+01   5.489915e+00
   2.698456e+00   1.722216e+01
  -2.832162e+01  -5.500677e+00
   1.648125e+01   2.914990e+01
  -1.211915e+00   7.295234e+00
   3.741172e+01  -5.812147e-01
  -4.003683e-01  -3.057982e+01
  -5.363941e+00   1.165278e+01
   3.655498e+01  -1.038774e+01
  -4.350392e+00   1.496429e-02
  -2.715475e+01  -1.290111e+01
  -3.303158e+01  -2.352725e+01
   1.055568e+01  -1.300517e+01
  -1.158954e+01  -1.979227e+01
  -5.568757e+00  -3.479633e+01
   1.666695e+01  -5.561731e+01
   2.380008e+01  -3.478992e+01
  -7.314817e+00   1.218361e+01
  -1.480032e+01   6.356007e+00
  -2.357075e+01  -2.653441e+01
   1.294163e+01  -1.932626e+01
   5.985743e+00   1.695248e+01
   4.850000e+01   1.602158e+01
   2.631269e+01   3.392833e+01
   3.625345e+00  -1.732436e+00
  -6.500167e+01  -5.189703e+01
  -5.090729e+01  -2.639481e+01
  -1.471214e+01   9.809095e+00
   6.515733e-01  -7.760836e+00
   6.014104e+00   5.713453e+00
   7.776372e+00  -1.395477e+00
  -1.198982e+01  -1.232060e+00
  -9.022241e+00  -2.477910e+01
   7.921492e+00   1.497582e+01
   1.322886e+01   1.640788e+01
  -1.042455e+01   1.342502e+01
  -1.207761e+01   8.801960e+00
   3.248491e+01   3.883035e+01
  -2.236347e+01   1.480635e+01
   3.865391e+00  -2.177457e+01
  -4.855884e-02   3.775899e+00
   1.749909e+01   8.106233e-01
  -2.960037e+01   5.404082e+00
  -3.802489e+01   1.435172e+01
   1.095595e+01   3.718528e+01
  -9.606014e+00   2.170650e+01
   1.002482e+01  -1.965076e+01
  -8.691473e+00  -2.289847e+01
   2.236165e+00   9.505740e+00
  -1.664016e+01   1.407661e+01
  -3.228614e-02  -1.041294e+01
  -2.527352e+01   4.501550e+00
   2.859488e+01   2.104936e+01
  -4.423336e+00   1.144355e+01
   6.797262e+00  -2.176201e+01
  -4.490676e+00   2.237709e+01
   2.537035e+00  -4.769079e+01
  -1.052432e+01   1.460191e+01
   1.886626e+01   1.027360e+00
   2.966955e+01   1.803183e+01
   1.198548e+01   3.027693e+01
   4.293611e+01   1.246955e+01
   7.957834e+00  -8.716539e+00
   5.211677e+00   2.221019e+01
  -1.914256e+01  -9.514512e+00
  -3.093028e+01   2.994245e+01
  -1.134386e+01   2.057338e+01
   1.006861e+01   2.607042e+01
  -2.212933e+01   9.572744e-01
  -9.445094e-01  -9.775907e+00
  -1.504193e+01  -3.057850e+00
   1.152455e+00  -3.084325e+01
  -1.138223e+01  -3.392530e+01
  -4.205782e+00  -1.544771e+01
  -7.950786e+00   3.481966e-01
  -6.819107e+00  -1.470567e+01
  -6.936557e+00  -1.716718e+01
   2.012115e+01  -2.110268e+01
  -8.753645e+00  -9.282358e+00
   6.715166e+00   5.161741e-02
  -6.438833e+00   1.166875e+01
   5.737934e+00   1.793995e+01
  -6.368900e+00  -2.277881e-02
  -1.407601e+01  -1.232996e+01
  -2.743052e+01  -8.013578e+00
  -2.704335e+01   2.171442e+01
  -2.560779e-02   1.025056e+01
  -1.525363e+01   1.202658e+01
  -3.559646e+00  -3.421475e+01
  -3.165217e+01  -1.626153e+01
   9.388881e-02  -3.871371e+01
  -1.115491e+01   4.421019e+00
   2.173161e+01  -1.075017e+01
  -3.745526e+01   2.159230e+01
  -4.698850e+00  -1.081352e+01
  -2.470997e+01   4.572108e+00
  -8.896432e+00  -4.305517e+00
   2.308537e+00   8.990690e-01
   4.853692e+00  -1.220168e+01
   4.703066e+00  -1.691707e+01
   1.251974e+01   7.744011e+00
  -8.786135e+00   1.595737e+01
   1.199158e+01   1.756042e+01
   3.716031e+01   3.298589e+01
   1.977562e+00  -6.614398e+00
   1.071570e+01   1.363582e+00
  -7.592693e+00   2.660575e+01
  -3.122134e+00   2.016415e+01
  -2.666989e+01   5.099803e+00
  -1.460366e+01  -1.467161e+01
  -4.978005e+00   6.089273e+00
   6.253607e+00  -2.170823e+01
  -1.198553e+01  -2.331800e+01
   1.422703e+01  -9.450439e+00
   1.238341e+01   2.393367e-01
  -4.563654e-01   4.338379e+00
  -5.235563e+00  -5.985371e-01
   3.286702e+01  -5.033517e+00
  -2.923367e+01   9.296579e+00
   3.132617e+01   9.438175e+00
  -2.980107e+01  -1.197820e+00
   7.988736e+00   3.135527e+01
   7.400945e+00  -2.075341e+01
  -1.221874e+01   1.686695e+01
  -1.620744e+00  -1.987480e+01
   2.185085e+01  -7.702689e-01
  -3.355877e+00  -8.594445e+00
   2.741101e+01   4.319687e+01
   3.231785e+01  -2.065097e+00
   1.734239e+01   7.801499e+00
   1.003293e+01   2.108038e+01
   7.695358e+00   3.569039e-01
   1.831874e+01  -7.918296e+00
  -1.009346e+01  -1.053103e+01
   2.926292e+00  -7.129759e+00
  -4.194641e+01   2.297818e+01
  -7.656327e+00  -1.093713e+01
  -7.880729e+00  -1.472208e+01
   1.817034e+01  -1.817877e+01
   2.654703e+01   3.134021e+00
  -2.369049e+01  -3.253067e+01
   2.488789e+00  -1.699929e+01
   2.135928e+00   1.678908e+01
   6.799110e+00  -5.076718e+00
   8.322173e+00  -6.763184e+00
   8.406579e+00   2.442448e+00
   2.805252e+01  -9.794171e+00
   3.027671e+01   5.060946e+01
   1.510313e+01   1.685945e+01
   2.834542e+01  -1.122316e+01
  -1.711206e+01   2.263015e+01
   9.932205e+00   1.616126e+01
  -5.535616e+01   2.278939e+01
  -2.842580e+01  -3.545347e+00
  -1.639289e+01   1.245761e+01
   1.087285e+01   2.623779e+00
  -3.114085e+01  -3.120472e+01
  -1.529093e+01  -2.832799e+00
  -3.415347e+01  -9.176998e-01
   8.135418e+00  -3.038542e+01
  -1.098763e+01  -5.387133e+00
   6.862539e+00   1.620519e+01
   1.000912e+01   2.208974e+01
   2.930699e+01   1.991425e+00
   1.066870e+01   2.897027e+01
  -9.310665e-02  -4.127379e+01
   1.108307e+01   2.947522e+01
  -1.197878e+01  -2.499852e+01
  -5.576309e+01   1.025489e+01
  -2.034534e+01   6.288592e+00
  -1.578386e+01   6.010299e+00
   9.642438e+00   3.767088e+00
  -1.002790e+01  -3.158935e+01
  -3.094814e+01  -2.327216e+01
   7.271944e+00  -6.615046e+00
  -2.433287e+01  -5.444175e+00
  -2.050628e+01   3.142519e+01
  -1.415900e+01   3.902396e+01
   2.755294e+01   4.551619e+00
  -6.944140e-01   2.143134e+01
   7.774926e+00  -2.000918e+01
  -1.329526e+00   2.259736e+00
  -3.613928e+01  -1.501152e+01
  -1.401570e+01   3.496109e+00
  -2.760311e+01   6.756587e+00
  -7.458358e-01  -1.013509e+01
  -1.338048e+01   6.214685e+00
   2.303251e+01  -2.916440e-01
   1.193821e+01   4.635685e+00
  -1.085876e+01  -3.330543e+01
  -3.514122e+01   1.364192e+01
   1.195979e+01   2.193117e+00
   2.467485e+01   6.160651e+00
   1.233554e+01  -2.824417e-01
   4.669222e+01   3.644433e+01
   2.092519e+01  -1.339620e+00
   3.518183e+00   4.290145e+00
  -3.807053e+01   2.335078e+00
  -2.361416e+01  -5.658461e+00
  -1.646575e+01  -8.269879e+00
  -1.182245e+01   4.329699e+01
  -4.519734e+01  -8.563435e+00
  -8.810977e+00   1.113190e+01
   1.205573e+01   2.872823e+00
  -1.120332e+01   1.291164e+01
  -8.036459e+00   4.757350e+00
   1.249371e+01  -4.788500e+01
   1.150184e+00   1.142130e+01
   1.788255e+01   1.054430e+01
   5.875437e+00   3.678048e+00
  -7.966769e+00   8.424249e+00
   2.782838e+00  -1.165325e+01
   1.592050e+01  -1.664630e+01
  -9.415183e+00  -9.578690e+00
   3.821878e+01   5.287847e+00
  -2.340557e+01  -1.093853e+01
  -3.257161e+01  -2.463144e+01
  -1.638697e+01  -1.756617e+01
   3.258949e+00  -8.821567e+00
   2.035338e+01  -3.538748e+00
  -6.144381e+00  -2.853444e+01
   2.653883e+01   8.235192e+00
   2.481478e+01   1.652318e+01
  -2.506968e+01  -1.388612e+01
  -3.598579e+01   8.235500e+00
   7.140370e+00   2.272166e+01
  -4.385370e+01  -1.920700e+01
  -7.161212e+00  -1.921336e+01
  -2.618788e+00   1.218185e+01
  -9.551876e+00  -2.179897e+01
  -6.963840e+00  -1.430858e+01
  -2.032516e+00  -2.370447e+01
  -2.547691e+01  -1.907576e+01
   2.138606e+01  -2.729325e+01
  -1.737408e+01  -2.953298e-01
   6.648043e+00  -8.055325e+00
   1.093524e+01   5.695284e+00
   6.670598e+00  -1.239525e+00
  -3.419068e+01   3.807025e+01
   7.180892e+00  -1.618618e+01
  -4.184038e+00   3.875826e+00
   6.617357e+00   2.766959e+01
   5.425567e+00   1.228268e+01
   1.147114e+01   2.163873e+01
  -2.770350e+01   1.099252e+01
   6.122071e+00  -6.885123e+00
   8.885679e+00   3.102254e+01
   3.985164e+00  -5.491245e-02
   3.179449e+01   5.724917e-02
  -2.296081e+01  -2.402894e+01
   1.359649e+01   1.680545e+01
   5.297799e+00  -2.679522e+01
  -9.253628e+00   1.868645e-01
  -2.712744e+01  -1.510846e+01
  -6.422451e+00  -2.007896e+01
  -2.296323e+01   2.155531e+01
   4.119896e+00  -1.330943e+01
  -4.226638e+00   1.134731e+00
   4.586957e-01   1.555047e+01
  -6.734192e+00   1.982848e+01
  -1.262423e+01  -2.454355e+01
  -1.239553e+01   4.989416e+00
  -7.299711e+00   1.767383e+01
   3.208148e+00  -5.352154e+00
   7.156221e+00  -4.286815e+01
  -5.054647e+00  -7.738307e+00
   1.368124e+01   3.359628e+00
   1.566709e+00   7.269093e+00
   2.681135e+00   2.936520e+01
  -3.110200e+00   3.590136e+01
  -2.847992e+01   4.104769e+01
  -1.251917e+01   2.898817e+01
   4.163053e+00   3.302113e+01
  -1.339426e+01  -3.702879e+00
   3.525492e+00   3.632319e+01
  -1.856182e+01  -1.396161e+01
   2.686985e+00  -1.412231e+00
  -1.325354e+00  -1.405358e+00
   2.157969e+01  -1.454448e+01
   2.593407e+01  -1.204635e+01
   2.857223e+01   1.302236e+01
  -1.606457e+01  -1.996456e+01
  -7.505586e+00  -1.836577e+01
  -1.859610e+01   2.049580e+00
   9.075214e+00   2.202212e+01
  -3.915078e+00   1.065916e+01
   3.370870e+00   1.867600e+00
   2.516267e+01  -2.991461e-01
   1.499894e+00   1.486249e+01
  -6.605785e+00   7.277125e+00
  -1.776490e+01   7.153698e-01
   6.430361e+00  -4.758384e+00
   2.078083e+01  -4.225771e+00
   4.421229e+00  -2.656422e+01
