
 $NMID
 id='ANONYMOUS ', fmtdat='(2E16.6)'
 volume=1.0
 tramp=1.0
 $END
  -3.204355e+07   1.300900e+04
  -2.049622e+07  -1.707932e+07
   1.811708e+06  -2.087842e+07
   1.460640e+07  -1.130851e+07
   1.067074e+07   8.874184e+05
  -3.618055e+05   5.573219e+06
  -6.111575e+06   1.409823e+06
  -3.530901e+06  -5.302553e+06
   2.324096e+06  -7.376393e+06
   5.788368e+06  -2.797854e+06
   4.721098e+06   3.891802e+06
   6.026260e+05   5.988379e+06
  -2.772392e+06   1.485003e+06
  -2.112391e+06  -4.555452e+06
   1.963899e+06  -5.412693e+06
   5.017501e+06  -6.112733e+04
   3.418284e+06   6.105291e+06
  -1.724205e+06   7.489886e+06
  -5.986174e+06   3.646381e+06
  -6.232112e+06  -1.570107e+06
  -3.128675e+06  -4.423665e+06
   1.199698e+05  -4.131097e+06
   7.901225e+05  -2.540829e+06
  -9.440892e+05  -2.020456e+06
  -2.006876e+06  -3.185269e+06
   4.056641e+05  -4.216968e+06
   5.098250e+06  -2.888430e+06
   7.411589e+06   5.688561e+05
   4.486083e+06   3.381202e+06
  -9.904121e+05   3.293422e+06
  -3.688176e+06   8.999459e+05
  -1.671228e+06  -1.385781e+06
   2.009055e+06  -1.757085e+06
   3.452042e+06  -4.342887e+04
   1.924006e+06   2.501550e+06
  -5.057761e+05   3.727607e+06
  -1.741401e+06   2.131827e+06
  -1.259290e+06  -1.019234e+06
   2.011763e+04  -2.233033e+06
   5.665245e+05   6.293528e+04
  -4.470561e+05   2.871408e+06
  -1.991523e+06   2.109892e+06
  -1.911259e+06  -1.713669e+06
   4.877028e+05  -3.713504e+06
   3.050943e+06  -9.751702e+05
   2.823902e+06   3.546670e+06
  -5.999154e+05   4.765585e+06
  -4.379219e+06   1.515267e+06
  -5.126424e+06  -2.740397e+06
  -2.065905e+06  -4.280670e+06
   2.292469e+06  -2.538338e+06
   4.337658e+06   4.217550e+05
   2.536098e+06   2.206513e+06
  -1.112481e+06   1.741238e+06
  -2.987594e+06  -1.626589e+05
  -1.583938e+06  -1.486359e+06
   9.658904e+05  -9.427310e+05
   1.548093e+06   5.894417e+05
  -2.059131e+05   1.127981e+06
  -1.703764e+06   2.509925e+04
  -7.687605e+05  -1.374564e+06
   1.764922e+06  -1.479919e+06
   3.168941e+06  -3.630762e+04
   1.816427e+06   2.066201e+06
  -1.400284e+06   3.591130e+06
  -4.142389e+06   3.336903e+06
  -4.615309e+06   8.415044e+05
  -2.827194e+06  -2.607184e+06
  -4.009648e+05  -4.528394e+06
   9.191202e+05  -3.729755e+06
   8.510005e+05  -1.716901e+06
   6.005642e+05  -7.685196e+05
   1.229716e+06  -1.070943e+06
   2.330134e+06  -8.489071e+05
   2.586628e+06   8.114817e+05
   1.361238e+06   2.495458e+06
  -6.292188e+05   2.246015e+06
  -1.989002e+06   1.528494e+04
  -1.689882e+06  -2.264821e+06
   2.211613e+05  -2.683924e+06
   2.452592e+06  -1.004064e+06
   3.237589e+06   1.397489e+06
   1.919390e+06   2.823418e+06
  -2.322783e+05   2.619570e+06
  -1.357492e+06   1.554885e+06
  -1.184397e+06   8.611111e+05
  -1.198353e+06   8.620124e+05
  -2.413158e+06   7.233671e+05
  -3.712504e+06  -4.020201e+05
  -3.084184e+06  -2.256527e+06
  -2.018439e+05  -3.636978e+06
   2.912194e+06  -3.462611e+06
   3.883749e+06  -1.645743e+06
   2.276594e+06   7.507774e+05
  -1.681254e+05   2.115321e+06
  -1.294728e+06   1.538177e+06
  -4.595967e+05  -1.723285e+05
   1.085169e+06  -1.100898e+06
   1.594797e+06  -3.104157e+05
   6.296745e+05   1.000973e+06
  -5.896248e+05   1.010098e+06
  -6.307855e+05  -2.975529e+05
   5.541949e+05  -1.013272e+06
   1.645329e+06   2.402460e+05
   1.371089e+06   2.477096e+06
  -3.358310e+05   3.425296e+06
  -2.398542e+06   2.017473e+06
  -3.436917e+06  -6.465008e+05
  -2.686127e+06  -2.568224e+06
  -6.184443e+05  -2.648246e+06
   1.226482e+06  -1.367153e+06
   1.504161e+06  -1.248581e+05
   4.462536e+05   4.002000e+04
  -3.382971e+05  -6.650626e+05
   2.667331e+05  -1.106557e+06
   1.519337e+06  -5.211060e+05
   1.744052e+06   6.070648e+05
   4.497433e+05   1.133142e+06
  -9.999113e+05   5.811915e+05
  -9.517250e+05  -3.794512e+05
   6.508561e+05  -7.193815e+05
   2.173932e+06  -3.534765e+04
   1.963237e+06   1.197554e+06
  -1.214660e+04   2.033719e+06
  -2.108686e+06   1.717348e+06
  -2.546692e+06   3.341052e+05
  -1.090148e+06  -1.043930e+06
   7.513303e+05  -1.218897e+06
   1.237220e+06  -1.468237e+05
   9.889904e+04   8.819932e+05
  -1.326615e+06   6.435620e+05
  -1.572493e+06  -6.078302e+05
  -4.732125e+05  -1.468835e+06
   8.474162e+05  -1.047829e+06
   1.184105e+06   7.881684e+04
   3.705722e+05   6.391563e+05
  -6.256589e+05   8.667492e+04
  -6.328570e+05  -9.178540e+05
   5.497401e+05  -1.260919e+06
   1.823447e+06  -4.482584e+05
   1.815812e+06   9.619233e+05
   3.605253e+05   1.844480e+06
  -1.227655e+06   1.492975e+06
  -1.532605e+06   2.662716e+05
  -5.261266e+05  -7.462392e+05
   5.523106e+05  -7.743828e+05
   6.614999e+05  -6.772286e+04
  -2.680393e+04   4.853901e+05
  -5.688985e+05   3.596708e+05
  -3.706702e+05  -9.902874e+04
   2.712641e+05  -1.573583e+05
   5.517932e+05   4.208530e+05
  -4.552983e+04   1.043883e+06
  -1.193988e+06   8.599234e+05
  -1.887427e+06  -3.303216e+05
  -1.335054e+06  -1.737577e+06
   1.791249e+05  -2.235080e+06
   1.476098e+06  -1.417440e+06
   1.657844e+06   5.942410e+03
   9.710599e+05   9.178867e+05
   3.542410e+05   8.639871e+05
   2.942321e+05   3.663162e+05
   4.000387e+05   2.170517e+05
   6.372057e+04   5.808621e+05
  -7.318021e+05   8.583933e+05
  -1.347468e+06   4.032573e+05
  -1.090512e+06  -6.776429e+05
   1.285018e+05  -1.475343e+06
   1.572716e+06  -1.098091e+06
   2.110984e+06   3.890387e+05
   1.137260e+06   1.872256e+06
  -7.646399e+05   2.151798e+06
  -2.203946e+06   1.057459e+06
  -2.213067e+06  -4.334831e+05
  -1.084567e+06  -1.202077e+06
   6.828569e+04  -1.034298e+06
   4.701396e+05  -6.280401e+05
   2.870449e+05  -6.688102e+05
   1.943581e+05  -1.054957e+06
   5.634338e+05  -1.074979e+06
   1.105675e+06  -2.654441e+05
   1.193340e+06   9.893762e+05
   5.024286e+05   1.732045e+06
  -5.772564e+05   1.314921e+06
  -1.186408e+06   3.614280e+04
  -7.889037e+05  -1.097591e+06
   2.384184e+05  -1.263480e+06
   9.315567e+05  -5.046050e+05
   7.279004e+05   4.340881e+05
   3.023549e+04   8.707606e+05
  -3.121202e+05   7.391526e+05
  -4.461521e+03   4.484447e+05
   3.655951e+05   3.410234e+05
   3.642367e+04   3.647597e+05
  -9.856008e+05   2.217897e+05
  -1.798915e+06  -2.528088e+05
  -1.479621e+06  -8.740591e+05
  -8.008557e+04  -1.227492e+06
   1.316691e+06  -1.014616e+06
   1.622190e+06  -3.430063e+05
   8.015924e+05   3.039036e+05
  -1.784958e+05   4.545652e+05
  -4.281362e+05   9.151169e+04
   1.275837e+04  -3.000984e+05
   4.477432e+05  -2.132812e+05
   4.243163e+05   3.123596e+05
   1.319672e+05   6.883916e+05
  -6.574896e+03   4.442186e+05
   1.361513e+05  -1.583795e+05
   3.320009e+05  -3.571068e+05
   2.724999e+05   1.985892e+05
  -1.739525e+05   9.366151e+05
  -8.096973e+05   9.586725e+05
  -1.122244e+06   9.879134e+04
  -6.626122e+05  -8.348417e+05
   3.737527e+05  -9.466021e+05
   1.078119e+06  -2.154767e+05
   6.571851e+05   5.530176e+05
  -6.117098e+05   6.172523e+05
  -1.498622e+06  -2.099217e+04
  -1.061431e+06  -7.565630e+05
   3.370634e+05  -9.929343e+05
   1.397203e+06  -5.913370e+05
   1.223324e+06   9.197889e+04
   1.788729e+05   4.946934e+05
  -5.818161e+05   2.993623e+05
  -3.213651e+05  -2.358406e+05
   5.810574e+05  -4.330175e+05
   1.075930e+06   1.439288e+05
   5.299256e+05   1.119920e+06
  -6.424518e+05   1.527399e+06
  -1.412399e+06   7.506448e+05
  -1.152877e+06  -7.323702e+05
  -1.767775e+05  -1.674959e+06
   6.825508e+05  -1.249238e+06
   8.739664e+05   9.939066e+04
   4.664568e+05   1.092285e+06
  -1.190733e+05   9.434415e+05
  -4.953511e+05   1.143304e+05
  -4.914079e+05  -3.619053e+05
  -2.169635e+05  -1.480571e+05
  -1.973164e+04   1.088338e+05
  -1.662562e+05  -2.269426e+05
  -4.391007e+05  -8.729597e+05
  -2.583208e+05  -1.012589e+06
   5.701703e+05  -3.824572e+05
   1.379529e+06   4.290299e+05
   1.261042e+06   7.714626e+05
   1.821576e+05   6.303494e+05
  -8.526138e+05   3.820713e+05
  -9.345658e+05   1.951444e+05
  -2.804102e+05  -9.957712e+03
   1.591536e+05  -2.020591e+05
  -4.160952e+04  -2.275338e+05
  -3.239159e+05  -1.304552e+05
  -1.589328e+04  -1.278219e+05
   6.959242e+05  -1.866669e+05
   9.565067e+05   3.679581e+04
   2.830275e+05   6.267119e+05
  -8.543232e+05   1.037402e+06
  -1.518496e+06   6.355605e+05
  -1.204950e+06  -4.466161e+05
  -2.181881e+05  -1.312050e+06
   6.923919e+05  -1.241005e+06
   9.687820e+05  -4.406225e+05
   6.147737e+05   2.594504e+05
   8.929184e+04   3.298292e+05
  -1.304480e+05   1.620018e+04
   5.075525e+04  -6.632656e+04
   3.109738e+05   3.178437e+05
   2.550344e+05   7.464383e+05
  -1.833951e+05   6.098893e+05
  -6.422779e+05  -1.643151e+05
  -6.337204e+05  -9.294822e+05
  -2.219956e+04  -9.438817e+05
   7.386208e+05  -1.563845e+05
   9.277769e+05   7.333579e+05
   2.697088e+05   1.002731e+06
  -6.724302e+05   5.694233e+05
  -9.966018e+05  -9.482077e+04
  -4.473545e+05  -5.200273e+05
   2.633185e+05  -5.607345e+05
   2.948862e+05  -3.224295e+05
  -2.902816e+05  -3.397912e+04
  -6.156219e+05   2.262710e+04
  -1.119831e+05  -2.726955e+05
   7.648511e+05  -6.303721e+05
   1.110953e+06  -5.385380e+05
   6.400244e+05   1.186073e+05
  -9.906844e+04   7.763180e+05
  -4.594917e+05   7.610876e+05
  -3.315706e+05   1.021982e+05
  -1.406767e+04  -4.675781e+05
   2.346905e+05  -3.666003e+05
   3.272564e+05   1.925348e+05
   2.221752e+05   5.359518e+05
  -6.596721e+04   3.433119e+05
  -3.578260e+05  -6.767847e+04
  -4.175689e+05  -2.231612e+05
  -2.224417e+05  -5.593617e+04
   2.987643e+03   9.543645e+04
   7.517722e+04  -4.889287e+04
   6.756311e+04  -3.613504e+05
   1.577375e+05  -4.464417e+05
   3.300975e+05  -9.917136e+04
   3.470626e+05   4.179489e+05
   4.295042e+04   6.068479e+05
  -4.063668e+05   2.601338e+05
  -5.740484e+05  -2.985417e+05
  -2.020591e+05  -5.525539e+05
   4.539002e+05  -3.254740e+05
   7.807297e+05   1.002549e+05
   4.227940e+05   3.528364e+05
  -2.736159e+05   3.259999e+05
  -5.760399e+05   1.555715e+05
  -1.882501e+05   6.414585e+03
   3.795069e+05  -1.669451e+04
   3.988680e+05   1.224899e+05
  -2.059316e+05   3.037084e+05
  -7.674842e+05   2.428819e+05
