
 $NMID
 id='ANONYMOUS ', fmtdat='(2E16.6)'
 volume=1.0
 tramp=1.0
 $END
   4.559901e+07  -1.796361e+06
   2.925829e+07   2.574097e+07
  -3.514764e+06   3.074097e+07
  -2.138160e+07   1.433601e+07
  -1.433750e+07  -3.553378e+06
   1.586641e+06  -7.843231e+06
   8.331032e+06  -4.201882e+05
   3.597385e+06   7.741608e+06
  -4.145653e+06   8.881407e+06
  -7.953766e+06   2.792665e+06
  -6.241125e+06  -5.010367e+06
  -9.773333e+05  -7.519359e+06
   3.406169e+06  -2.295437e+06
   2.587262e+06   5.107600e+06
  -2.793998e+06   6.315763e+06
  -6.723724e+06  -4.138116e+05
  -4.382840e+06  -8.303803e+06
   2.482822e+06  -1.009368e+07
   8.125338e+06  -5.248281e+06
   8.848449e+06   1.529563e+06
   5.260597e+06   5.917094e+06
   5.912254e+05   6.549633e+06
  -1.680644e+06   4.545114e+06
  -3.765624e+05   2.556918e+06
   1.633910e+06   2.782455e+06
  -2.304497e+03   4.326530e+06
  -5.310191e+06   3.879108e+06
  -8.791139e+06   2.103339e+05
  -6.060083e+06  -3.673108e+06
   2.412650e+05  -4.276399e+06
   3.740708e+06  -1.861470e+06
   2.102646e+06   6.505975e+05
  -1.373480e+06   1.378197e+06
  -2.961278e+06   2.855358e+05
  -2.132856e+06  -1.998719e+06
  -1.712172e+05  -3.922796e+06
   1.711073e+06  -3.126422e+06
   2.287305e+06   4.698903e+05
   9.736848e+05   2.946694e+06
  -5.987764e+05   9.679577e+05
   2.424098e+04  -2.739019e+06
   2.253496e+06  -2.350459e+06
   2.361981e+06   2.467611e+06
  -1.301885e+06   5.187679e+06
  -5.126572e+06   1.281252e+06
  -4.330570e+06  -5.231595e+06
   1.013546e+06  -6.932826e+06
   6.020063e+06  -2.264743e+06
   6.384501e+06   3.524701e+06
   2.200758e+06   5.304595e+06
  -2.924333e+06   2.825654e+06
  -5.034479e+06  -8.709579e+05
  -2.682133e+06  -2.899460e+06
   1.761779e+06  -2.125184e+06
   3.924714e+06   4.224805e+05
   1.919894e+06   2.122230e+06
  -1.345638e+06   1.251702e+06
  -1.738277e+06  -7.953718e+05
   7.687676e+05  -1.124318e+06
   2.249009e+06   8.054481e+05
   2.244251e+05   2.528745e+06
  -3.235316e+06   1.925808e+06
  -4.440495e+06  -5.026461e+05
  -2.274137e+06  -3.055411e+06
   1.507620e+06  -4.626057e+06
   4.603962e+06  -4.353314e+06
   5.534776e+06  -1.500592e+06
   3.905525e+06   2.846821e+06
   8.610647e+05   5.504771e+06
  -1.310462e+06   4.467820e+06
  -1.339275e+06   1.593952e+06
  -4.383943e+05   2.705571e+05
  -6.224819e+05   1.029018e+06
  -1.990196e+06   1.371243e+06
  -2.769914e+06  -2.463727e+05
  -1.777854e+06  -2.248716e+06
   2.809941e+05  -2.266782e+06
   1.838872e+06  -1.316621e+05
   1.789171e+06   2.228075e+06
  -4.996162e+04   2.914613e+06
  -2.659561e+06   1.440197e+06
  -4.013004e+06  -1.223397e+06
  -2.760640e+06  -3.310585e+06
   1.121754e+04  -3.537622e+06
   1.791630e+06  -2.281055e+06
   1.735483e+06  -1.111488e+06
   1.563016e+06  -8.603461e+05
   2.780539e+06  -7.011282e+05
   4.216193e+06   4.995571e+05
   3.485728e+06   2.532003e+06
   2.672397e+05   4.039352e+06
  -3.096727e+06   3.901949e+06
  -4.139743e+06   2.047533e+06
  -2.565353e+06  -5.498011e+05
  -1.000563e+05  -2.246871e+06
   1.199742e+06  -1.822169e+06
   5.292650e+05   9.506928e+04
  -1.100944e+06   1.276156e+06
  -1.813110e+06   4.154344e+05
  -8.366413e+05  -1.122091e+06
   5.528159e+05  -1.114663e+06
   5.632148e+05   3.558239e+05
  -8.389813e+05   9.288018e+05
  -1.880588e+06  -7.500847e+05
  -1.150297e+06  -3.113130e+06
   9.361069e+05  -3.630084e+06
   2.890238e+06  -1.715037e+06
   3.565717e+06   1.029668e+06
   2.642261e+06   2.746157e+06
   6.058581e+05   2.736350e+06
  -1.255316e+06   1.498974e+06
  -1.598869e+06   2.158729e+05
  -4.907079e+05  -3.414483e+04
   3.799575e+05   7.318661e+05
  -3.228865e+05   1.289460e+06
  -1.775821e+06   6.214601e+05
  -1.996592e+06  -7.339433e+05
  -4.701830e+05  -1.326212e+06
   1.123409e+06  -6.278504e+05
   9.698655e+05   4.217185e+05
  -7.806824e+05   6.661698e+05
  -2.287031e+06  -1.120810e+05
  -1.959818e+06  -1.308321e+06
   1.046983e+05  -2.098616e+06
   2.276047e+06  -1.804871e+06
   2.772328e+06  -3.740048e+05
   1.234497e+06   1.179766e+06
  -8.356764e+05   1.443871e+06
  -1.456895e+06   2.152685e+05
  -1.840931e+05  -1.018341e+06
   1.467984e+06  -7.549196e+05
   1.737410e+06   6.907227e+05
   4.564224e+05   1.628101e+06
  -9.994638e+05   1.081919e+06
  -1.287069e+06  -1.825256e+05
  -3.378982e+05  -7.427049e+05
   7.442633e+05  -9.338158e+04
   7.394758e+05   1.012828e+06
  -5.553886e+05   1.413907e+06
  -1.986920e+06   5.614821e+05
  -2.033728e+06  -1.005325e+06
  -4.341910e+05  -2.039184e+06
   1.359460e+06  -1.670629e+06
   1.700384e+06  -2.849855e+05
   5.552880e+05   8.359230e+05
  -6.177659e+05   8.383461e+05
  -6.725894e+05   8.598092e+04
   7.524993e+04  -4.434322e+05
   5.521207e+05  -2.992831e+05
   2.519529e+05   9.106033e+04
  -3.876254e+05   5.106974e+04
  -5.769009e+05  -5.664209e+05
   1.086544e+05  -1.174365e+06
   1.328894e+06  -9.465224e+05
   2.082440e+06   3.452400e+05
   1.504178e+06   1.891155e+06
  -1.563406e+05   2.434976e+06
  -1.587701e+06   1.508266e+06
  -1.750733e+06  -3.961537e+04
  -9.656680e+05  -9.328134e+05
  -3.538440e+05  -7.805190e+05
  -4.048795e+05  -2.871351e+05
  -5.487757e+05  -2.593613e+05
  -1.011110e+05  -7.021337e+05
   8.231474e+05  -9.379698e+05
   1.455116e+06  -4.068228e+05
   1.128101e+06   7.125231e+05
  -1.741746e+05   1.536728e+06
  -1.700729e+06   1.166056e+06
  -2.285376e+06  -4.110919e+05
  -1.228545e+06  -2.053747e+06
   8.797437e+05  -2.384575e+06
   2.462286e+06  -1.144925e+06
   2.399817e+06   5.272192e+05
   1.088432e+06   1.313432e+06
  -1.319792e+05   1.037271e+06
  -4.401038e+05   5.943015e+05
  -1.683630e+05   7.371788e+05
  -1.202041e+05   1.235195e+06
  -6.142497e+05   1.252174e+06
  -1.246549e+06   3.358450e+05
  -1.344945e+06  -1.050304e+06
  -5.938404e+05  -1.880469e+06
   5.945898e+05  -1.449425e+06
   1.291113e+06  -4.381863e+04
   8.642611e+05   1.228941e+06
  -3.013665e+05   1.400616e+06
  -1.092445e+06   5.003068e+05
  -8.251580e+05  -5.785339e+05
   2.593029e+04  -1.026336e+06
   4.321595e+05  -8.105613e+05
   4.224789e+04  -4.533662e+05
  -4.240625e+05  -3.417353e+05
  -5.869702e+04  -3.880520e+05
   1.112330e+06  -2.513033e+05
   2.027138e+06   2.595637e+05
   1.640989e+06   9.646944e+05
   5.209521e+04   1.396847e+06
  -1.495449e+06   1.164663e+06
  -1.801237e+06   3.622507e+05
  -8.677180e+05  -4.048353e+05
   2.169264e+05  -5.441232e+05
   4.931578e+05  -7.563956e+04
   2.291074e+04   3.774535e+05
  -4.567292e+05   2.554887e+05
  -4.810979e+05  -3.302541e+05
  -2.205321e+05  -7.264417e+05
  -6.120092e+04  -4.763273e+05
  -1.426632e+05   1.316962e+05
  -3.123319e+05   3.386020e+05
  -2.905737e+05  -2.201870e+05
   1.418353e+05  -1.003679e+06
   8.681112e+05  -1.077955e+06
   1.296257e+06  -1.807666e+05
   8.168822e+05   8.898150e+05
  -3.829628e+05   1.103028e+06
  -1.211938e+06   3.244016e+05
  -7.387756e+05  -5.690325e+05
   6.738272e+05  -6.760537e+05
   1.613244e+06   3.119779e+04
   1.091283e+06   8.302056e+05
  -4.160604e+05   1.043924e+06
  -1.505032e+06   5.815861e+05
  -1.283639e+06  -1.288983e+05
  -1.704513e+05  -5.241930e+05
   6.395825e+05  -3.083097e+05
   3.783090e+05   2.691327e+05
  -5.918741e+05   5.140085e+05
  -1.179550e+06  -8.405122e+04
  -6.605250e+05  -1.179629e+06
   5.933587e+05  -1.699953e+06
   1.484804e+06  -8.934413e+05
   1.274861e+06   7.448762e+05
   2.404714e+05   1.802868e+06
  -7.148183e+05   1.340517e+06
  -9.441038e+05  -1.291627e+05
  -4.901818e+05  -1.185976e+06
   1.644306e+05  -1.002054e+06
   5.538998e+05  -1.138475e+05
   5.019951e+05   3.762290e+05
   1.942243e+05   1.455961e+05
   3.690193e+04  -1.065360e+05
   2.513350e+05   2.674164e+05
   5.222510e+05   9.492143e+05
   2.502999e+05   1.088724e+06
  -6.721074e+05   4.242108e+05
  -1.499545e+06  -4.326356e+05
  -1.337735e+06  -8.126875e+05
  -2.075407e+05  -6.917001e+05
   8.726890e+05  -4.371017e+05
   9.954897e+05  -2.163406e+05
   3.442685e+05   2.707511e+04
  -1.501995e+05   2.267536e+05
  -3.209785e+03   2.247893e+05
   2.974543e+05   1.082775e+05
   4.208964e+04   1.331315e+05
  -6.900601e+05   2.383407e+05
  -1.046932e+06   5.424537e+03
  -4.087307e+05  -6.750215e+05
   8.424502e+05  -1.182723e+06
   1.666588e+06  -7.819589e+05
   1.390409e+06   4.109733e+05
   2.988640e+05   1.409141e+06
  -7.281534e+05   1.391690e+06
  -1.038070e+06   5.473760e+05
  -6.661259e+05  -2.330422e+05
  -1.314164e+05  -3.547669e+05
   9.068816e+04  -4.962906e+04
  -7.454205e+04   3.819538e+04
  -3.242705e+05  -3.553525e+05
  -2.788065e+05  -8.068194e+05
   1.678029e+05  -6.802845e+05
   6.899702e+05   1.221952e+05
   7.489716e+05   9.514807e+05
   1.155725e+05   1.026544e+06
  -7.612206e+05   2.431069e+05
  -1.046933e+06  -7.172592e+05
  -3.624613e+05  -1.081647e+06
   7.000946e+05  -6.807592e+05
   1.112511e+06   5.154853e+04
   5.381680e+05   5.837655e+05
  -2.664443e+05   6.674279e+05
  -3.520087e+05   3.765845e+05
   2.679677e+05   1.354107e+04
   6.560250e+05  -5.199948e+04
   1.485527e+05   3.005828e+05
  -8.119423e+05   7.053352e+05
  -1.235414e+06   5.919017e+05
  -7.519027e+05  -1.400823e+05
   7.519457e+04  -8.669583e+05
   5.138604e+05  -8.678759e+05
   4.013533e+05  -1.619044e+05
   5.473183e+04   4.862575e+05
  -2.310412e+05   4.321380e+05
  -3.558841e+05  -1.560015e+05
  -2.672464e+05  -5.732413e+05
   4.414150e+04  -4.138515e+05
   3.918058e+05   4.203566e+04
   4.804903e+05   2.564858e+05
   2.473341e+05   7.976323e+04
  -3.173087e+04  -1.350940e+05
  -8.803459e+04  -1.355072e+04
  -4.008491e+03   3.619266e+05
  -6.622891e+04   5.298994e+05
  -3.204051e+05   1.953637e+05
  -4.446159e+05  -3.851890e+05
  -1.444069e+05  -6.441407e+05
   4.086566e+05  -3.170342e+05
   6.615880e+05   2.721618e+05
   2.605594e+05   5.742612e+05
  -4.944419e+05   3.787203e+05
  -8.771488e+05  -5.817070e+04
  -4.860261e+05  -3.660196e+05
   2.823070e+05  -3.974583e+05
   6.287066e+05  -2.318030e+05
   2.379246e+05  -2.455033e+04
  -3.611370e+05   6.216217e+04
  -4.148317e+05  -7.194355e+04
   1.769335e+05  -3.051069e+05
   7.620835e+05  -2.879881e+05
