
 $NMID
 id='ANONYMOUS ', fmtdat='(2E16.6)'
 volume=1.0
 tramp=1.0
 $END
  -3.149353e+07  -1.077307e+06
  -1.916606e+07  -1.773809e+07
   2.871282e+06  -2.035920e+07
   1.462101e+07  -1.014482e+07
   1.002799e+07   1.519075e+06
  -7.016599e+05   5.298873e+06
  -5.790582e+06   9.580878e+05
  -3.017263e+06  -5.183194e+06
   2.498236e+06  -6.792648e+06
   5.594115e+06  -2.369180e+06
   4.452226e+06   3.864124e+06
   4.817558e+05   5.752274e+06
  -2.709680e+06   1.431826e+06
  -1.972715e+06  -4.291574e+06
   1.984749e+06  -5.012708e+06
   4.791893e+06   1.704056e+05
   3.064056e+06   6.004255e+06
  -1.941433e+06   7.173871e+06
  -5.963144e+06   3.371310e+06
  -6.108787e+06  -1.695550e+06
  -3.030503e+06  -4.494391e+06
   2.567038e+05  -4.211480e+06
   1.055105e+06  -2.520612e+06
  -6.371243e+05  -1.786923e+06
  -1.850259e+06  -2.825304e+06
   3.107134e+05  -3.935272e+06
   4.806050e+06  -2.789893e+06
   7.084403e+06   5.264043e+05
   4.325587e+06   3.288376e+06
  -8.880735e+05   3.243460e+06
  -3.486667e+06   9.751010e+05
  -1.679724e+06  -1.205882e+06
   1.706316e+06  -1.641439e+06
   3.132681e+06  -1.452915e+05
   1.871676e+06   2.246806e+06
  -3.688510e+05   3.537939e+06
  -1.696307e+06   2.115649e+06
  -1.369986e+06  -9.640361e+05
  -5.478536e+04  -2.258103e+06
   6.383694e+05  -8.236093e+04
  -3.238217e+05   2.669377e+06
  -1.884033e+06   1.953653e+06
  -1.746872e+06  -1.715408e+06
   7.008336e+05  -3.523506e+06
   3.113953e+06  -7.235314e+05
   2.629594e+06   3.638611e+06
  -8.256083e+05   4.628429e+06
  -4.322768e+06   1.332971e+06
  -4.807169e+06  -2.738998e+06
  -1.825227e+06  -4.078136e+06
   2.208725e+06  -2.315391e+06
   4.033408e+06   5.006609e+05
   2.292253e+06   2.123669e+06
  -1.134982e+06   1.589083e+06
  -2.843272e+06  -2.667906e+05
  -1.445318e+06  -1.476573e+06
   9.624829e+05  -8.719203e+05
   1.430321e+06   5.789821e+05
  -2.541737e+05   9.738897e+05
  -1.546404e+06  -1.375642e+05
  -5.147183e+05  -1.351327e+06
   1.862374e+06  -1.265665e+06
   3.027843e+06   1.639310e+05
   1.634094e+06   2.076504e+06
  -1.401325e+06   3.440661e+06
  -3.971550e+06   3.178340e+06
  -4.440023e+06   7.849045e+05
  -2.734541e+06  -2.535762e+06
  -3.490488e+05  -4.346847e+06
   9.585773e+05  -3.494713e+06
   8.282188e+05  -1.517418e+06
   4.765708e+05  -6.625239e+05
   1.041844e+06  -1.049716e+06
   2.148276e+06  -8.963951e+05
   2.465943e+06   6.771300e+05
   1.347381e+06   2.296325e+06
  -5.183870e+05   2.106752e+06
  -1.816900e+06   5.854662e+04
  -1.582219e+06  -2.075284e+06
   1.890873e+05  -2.517002e+06
   2.323764e+06  -9.733608e+05
   3.109075e+06   1.328949e+06
   1.841895e+06   2.746265e+06
  -2.710516e+05   2.561474e+06
  -1.381839e+06   1.489310e+06
  -1.190497e+06   7.714435e+05
  -1.148629e+06   7.571642e+05
  -2.262619e+06   6.313639e+05
  -3.472633e+06  -4.225996e+05
  -2.870603e+06  -2.142341e+06
  -1.673334e+05  -3.403656e+06
   2.734432e+06  -3.235547e+06
   3.641117e+06  -1.559035e+06
   2.157525e+06   6.809036e+05
  -1.207905e+05   1.991320e+06
  -1.198071e+06   1.471289e+06
  -4.402131e+05  -1.498545e+05
   1.010954e+06  -1.038188e+06
   1.502592e+06  -2.856499e+05
   5.995621e+05   9.534326e+05
  -5.387658e+05   9.496289e+05
  -5.625140e+05  -2.678279e+05
   5.320579e+05  -8.876795e+05
   1.485274e+06   3.097485e+05
   1.170406e+06   2.332043e+06
  -3.953818e+05   3.110644e+06
  -2.227927e+06   1.769918e+06
  -3.138957e+06  -6.439778e+05
  -2.457651e+06  -2.366647e+06
  -5.703028e+05  -2.441837e+06
   1.139781e+06  -1.278428e+06
   1.405636e+06  -1.256375e+05
   4.178528e+05   3.807680e+04
  -3.118837e+05  -6.220668e+05
   2.669288e+05  -1.035106e+06
   1.437672e+06  -4.715465e+05
   1.624475e+06   5.918665e+05
   4.014000e+05   1.063964e+06
  -9.342964e+05   5.299701e+05
  -8.706047e+05  -3.500819e+05
   6.075286e+05  -6.389725e+05
   1.995418e+06  -7.751438e+03
   1.795591e+06   1.105962e+06
  -2.157570e+04   1.866545e+06
  -1.961563e+06   1.581620e+06
  -2.373901e+06   3.011816e+05
  -1.012778e+06  -9.870669e+05
   7.190944e+05  -1.145226e+06
   1.172856e+06  -1.277453e+05
   9.248772e+04   8.362223e+05
  -1.245897e+06   5.971429e+05
  -1.460517e+06  -5.790284e+05
  -4.232625e+05  -1.365590e+06
   7.955655e+05  -9.545320e+05
   1.088938e+06   9.025915e+04
   3.277305e+05   5.926844e+05
  -5.890670e+05   6.776352e+04
  -5.867743e+05  -8.654917e+05
   5.189690e+05  -1.179827e+06
   1.708697e+06  -4.160533e+05
   1.697785e+06   9.059748e+05
   3.288484e+05   1.727803e+06
  -1.157807e+06   1.388110e+06
  -1.431827e+06   2.381464e+05
  -4.824150e+05  -6.961975e+05
   5.173929e+05  -7.148453e+05
   6.088736e+05  -6.827171e+04
  -2.498577e+04   4.320194e+05
  -5.109260e+05   3.245175e+05
  -3.235667e+05  -7.501497e+04
   2.542229e+05  -1.164491e+05
   4.960512e+05   4.091337e+05
  -6.181773e+04   9.713376e+05
  -1.122888e+06   7.922076e+05
  -1.761550e+06  -3.194986e+05
  -1.241169e+06  -1.631287e+06
   1.725418e+05  -2.085627e+06
   1.374359e+06  -1.310758e+06
   1.532981e+06   1.126235e+04
   8.965515e+05   8.394940e+05
   3.416141e+05   7.809319e+05
   2.978253e+05   3.380378e+05
   3.844847e+05   2.222353e+05
   5.172289e+04   5.565728e+05
  -6.920130e+05   7.939085e+05
  -1.253805e+06   3.643069e+05
  -1.007560e+06  -6.286254e+05
   1.252320e+05  -1.360874e+06
   1.466973e+06  -1.011111e+06
   1.963893e+06   3.709888e+05
   1.045533e+06   1.750257e+06
  -7.349622e+05   1.999172e+06
  -2.065270e+06   9.647695e+05
  -2.050332e+06  -4.208168e+05
  -9.906718e+05  -1.113669e+06
   6.586242e+04  -9.432415e+05
   4.201737e+05  -5.788111e+05
   2.516477e+05  -6.403143e+05
   1.837925e+05  -1.004839e+06
   5.398757e+05  -1.009695e+06
   1.042518e+06  -2.430109e+05
   1.115839e+06   9.290279e+05
   4.663069e+05   1.620081e+06
  -5.412633e+05   1.227884e+06
  -1.104767e+06   2.837341e+04
  -7.251930e+05  -1.031218e+06
   2.373020e+05  -1.173417e+06
   8.745984e+05  -4.483295e+05
   6.667385e+05   4.270632e+05
   5.456268e+03   8.145452e+05
  -3.081423e+05   6.754924e+05
  -6.903215e+03   4.078025e+05
   3.466135e+05   3.191936e+05
   3.577010e+04   3.417645e+05
  -9.264940e+05   1.977723e+05
  -1.686071e+06  -2.519445e+05
  -1.375681e+06  -8.274353e+05
  -5.518383e+04  -1.146877e+06
   1.247595e+06  -9.381645e+05
   1.515371e+06  -3.053688e+05
   7.343987e+05   2.964862e+05
  -1.781841e+05   4.265451e+05
  -4.001427e+05   7.611370e+04
   1.461160e+04  -2.921927e+05
   4.171176e+05  -2.045693e+05
   3.982582e+05   2.941313e+05
   1.337088e+05   6.490521e+05
   2.489060e+03   4.216349e+05
   1.220204e+05  -1.419208e+05
   2.980352e+05  -3.295270e+05
   2.511031e+05   1.875009e+05
  -1.590931e+05   8.760371e+05
  -7.625785e+05   8.945876e+05
  -1.065995e+06   8.576140e+04
  -6.285237e+05  -7.911526e+05
   3.593803e+05  -8.930008e+05
   1.022692e+06  -2.028495e+05
   6.171775e+05   5.168442e+05
  -5.745101e+05   5.716585e+05
  -1.392342e+06  -2.567247e+04
  -9.750669e+05  -7.027429e+05
   3.211685e+05  -9.118105e+05
   1.294062e+06  -5.370557e+05
   1.128240e+06   8.975690e+04
   1.625119e+05   4.563418e+05
  -5.415801e+05   2.723815e+05
  -3.000427e+05  -2.265928e+05
   5.431927e+05  -4.112974e+05
   1.011695e+06   1.304467e+05
   5.048168e+05   1.050971e+06
  -5.957075e+05   1.438585e+06
  -1.321733e+06   7.101259e+05
  -1.080081e+06  -6.828647e+05
  -1.660511e+05  -1.564426e+06
   6.353573e+05  -1.161127e+06
   8.096162e+05   9.908107e+04
   4.265816e+05   1.016817e+06
  -1.175212e+05   8.694433e+05
  -4.624908e+05   1.000677e+05
  -4.531783e+05  -3.326702e+05
  -1.971352e+05  -1.310042e+05
  -1.933207e+04   9.753126e+04
  -1.608137e+05  -2.244827e+05
  -4.109315e+05  -8.206953e+05
  -2.330489e+05  -9.378935e+05
   5.411048e+05  -3.474912e+05
   1.286854e+06   4.010865e+05
   1.169211e+06   7.161678e+05
   1.669939e+05   5.901604e+05
  -7.909937e+05   3.621496e+05
  -8.687691e+05   1.805064e+05
  -2.645465e+05  -1.831631e+04
   1.466279e+05  -1.915273e+05
  -3.392134e+04  -2.025291e+05
  -2.974558e+05  -1.111455e+05
  -1.811089e+04  -1.216256e+05
   6.442432e+05  -1.842169e+05
   8.973131e+05   3.352516e+04
   2.756379e+05   5.975445e+05
  -7.953903e+05   9.811471e+05
  -1.431302e+06   5.952872e+05
  -1.141331e+06  -4.218742e+05
  -2.079107e+05  -1.228598e+06
   6.531325e+05  -1.161417e+06
   9.113233e+05  -4.170315e+05
   5.772015e+05   2.375136e+05
   8.663021e+04   3.115698e+05
  -1.186187e+05   2.576794e+04
   4.582045e+04  -5.402824e+04
   2.845437e+05   2.970287e+05
   2.344404e+05   6.955258e+05
  -1.714629e+05   5.733051e+05
  -6.032847e+05  -1.469963e+05
  -6.018581e+05  -8.678743e+05
  -2.921800e+04  -8.911070e+05
   6.922079e+05  -1.581824e+05
   8.765623e+05   6.809018e+05
   2.573372e+05   9.430642e+05
  -6.328105e+05   5.399155e+05
  -9.385353e+05  -8.981402e+04
  -4.186802e+05  -4.960705e+05
   2.530858e+05  -5.315538e+05
   2.840822e+05  -2.979220e+05
  -2.666793e+05  -2.312251e+04
  -5.752190e+05   2.370434e+04
  -1.062283e+05  -2.587471e+05
   7.150124e+05  -5.887170e+05
   1.041669e+06  -4.932164e+05
   6.018339e+05   1.226476e+05
  -9.435512e+04   7.299604e+05
  -4.389894e+05   7.102466e+05
  -3.220093e+05   9.525707e+04
  -1.949840e+04  -4.376621e+05
   2.214666e+05  -3.482952e+05
   3.110774e+05   1.732565e+05
   2.092115e+05   5.022319e+05
  -6.465334e+04   3.288701e+05
  -3.374615e+05  -6.057082e+04
  -3.895874e+05  -2.152994e+05
  -2.050984e+05  -5.658743e+04
   2.088158e+03   9.717218e+04
   6.207517e+04  -3.478396e+04
   5.051694e+04  -3.410702e+05
   1.399673e+05  -4.355348e+05
   3.141743e+05  -1.085295e+05
   3.401559e+05   3.900071e+05
   5.315677e+04   5.762618e+05
  -3.795543e+05   2.496261e+05
  -5.455081e+05  -2.783939e+05
  -1.948214e+05  -5.172453e+05
   4.277458e+05  -3.042209e+05
   7.373233e+05   9.374747e+04
   3.980546e+05   3.315854e+05
  -2.599194e+05   3.103745e+05
  -5.458287e+05   1.507650e+05
  -1.824980e+05   3.179878e+03
   3.518642e+05  -2.699194e+04
   3.763183e+05   1.045352e+05
  -1.829897e+05   2.844703e+05
  -7.085327e+05   2.356868e+05
