
 $NMID
 id='ANONYMOUS ', fmtdat='(2E16.6)'
 volume=1.0
 tramp=1.0
 $END
   3.824208e+07  -1.302191e+06
   2.456323e+07   2.128499e+07
  -2.733535e+06   2.560652e+07
  -1.779027e+07   1.235467e+07
  -1.215810e+07  -2.562764e+06
   1.135566e+06  -6.588142e+06
   7.037696e+06  -6.356519e+05
   3.269280e+06   6.444046e+06
  -3.309863e+06   7.720978e+06
  -6.704658e+06   2.557749e+06
  -5.325529e+06  -4.274296e+06
  -8.196941e+05  -6.470852e+06
   2.942463e+06  -1.903441e+06
   2.256814e+06   4.505597e+06
  -2.322879e+06   5.533495e+06
  -5.705722e+06  -2.472642e+05
  -3.774752e+06  -7.015373e+06
   2.052798e+06  -8.562875e+06
   6.867906e+06  -4.409735e+06
   7.429496e+06   1.381770e+06
   4.290042e+06   5.017992e+06
   3.781975e+05   5.382444e+06
  -1.311812e+06   3.655905e+06
  -2.086584e+04   2.188432e+06
   1.589910e+06   2.615825e+06
  -8.010937e+04   3.911178e+06
  -4.768970e+06   3.312815e+06
  -7.670343e+06   3.299222e+04
  -5.148909e+06  -3.256548e+06
   3.873531e+05  -3.661134e+06
   3.388517e+06  -1.479032e+06
   1.817622e+06   7.611086e+05
  -1.391378e+06   1.354173e+06
  -2.809954e+06   2.186490e+05
  -1.902006e+06  -1.929008e+06
  -1.011620e+04  -3.524332e+06
   1.556806e+06  -2.613407e+06
   1.840975e+06   5.559659e+05
   6.558708e+05   2.512836e+06
  -5.405549e+05   6.371367e+05
   1.097653e+05  -2.525384e+06
   1.978233e+06  -2.087758e+06
   2.045079e+06   2.057529e+06
  -9.790911e+05   4.365616e+06
  -4.164430e+06   1.098364e+06
  -3.588873e+06  -4.349043e+06
   8.098231e+05  -5.789575e+06
   5.079487e+06  -1.894480e+06
   5.515254e+06   3.000346e+06
   1.984128e+06   4.571153e+06
  -2.498685e+06   2.508548e+06
  -4.412108e+06  -6.687302e+05
  -2.410894e+06  -2.460830e+06
   1.441495e+06  -1.843197e+06
   3.345334e+06   3.128840e+05
   1.669596e+06   1.772632e+06
  -1.130396e+06   1.067285e+06
  -1.536970e+06  -6.682528e+05
   5.604629e+05  -1.022024e+06
   1.912233e+06   5.294334e+05
   3.353452e+05   2.019622e+06
  -2.587111e+06   1.647682e+06
  -3.732954e+06  -3.192981e+05
  -1.964511e+06  -2.536366e+06
   1.332901e+06  -3.965731e+06
   4.064973e+06  -3.732975e+06
   4.812187e+06  -1.224698e+06
   3.305052e+06   2.522689e+06
   6.898057e+05   4.772561e+06
  -1.084669e+06   3.889203e+06
  -1.093424e+06   1.480434e+06
  -4.318335e+05   3.677089e+05
  -7.055778e+05   9.532648e+05
  -1.888748e+06   1.133980e+06
  -2.480575e+06  -3.479186e+05
  -1.529003e+06  -2.099019e+06
   3.288903e+05  -2.060046e+06
   1.708156e+06  -1.009627e+05
   1.613037e+06   2.027812e+06
  -7.545097e+04   2.596763e+06
  -2.366133e+06   1.215571e+06
  -3.470937e+06  -1.142371e+06
  -2.320538e+06  -2.888623e+06
   5.443857e+04  -2.999793e+06
   1.521270e+06  -1.905712e+06
   1.443812e+06  -9.544302e+05
   1.330609e+06  -7.867512e+05
   2.437652e+06  -6.521578e+05
   3.715279e+06   4.164513e+05
   3.082835e+06   2.224577e+06
   2.419083e+05   3.576484e+06
  -2.758249e+06   3.455499e+06
  -3.697383e+06   1.782156e+06
  -2.267754e+06  -5.389255e+05
  -3.581970e+04  -2.013356e+06
   1.107814e+06  -1.595038e+06
   4.656066e+05   1.032511e+05
  -9.932540e+05   1.123296e+06
  -1.595715e+06   3.587471e+05
  -7.152847e+05  -9.895109e+05
   5.075827e+05  -9.911734e+05
   5.293193e+05   3.069397e+05
  -6.905974e+05   8.661643e+05
  -1.653527e+06  -5.544173e+05
  -1.107155e+06  -2.672685e+06
   6.941979e+05  -3.251433e+06
   2.501242e+06  -1.640183e+06
   3.213002e+06   8.304905e+05
   2.423454e+06   2.442764e+06
   5.650985e+05   2.464361e+06
  -1.128989e+06   1.336821e+06
  -1.430943e+06   1.808124e+05
  -4.357457e+05  -3.065393e+04
   3.382220e+05   6.483122e+05
  -2.761301e+05   1.129980e+06
  -1.551847e+06   5.468699e+05
  -1.757549e+06  -6.306117e+05
  -4.267586e+05  -1.158190e+06
   9.899567e+05  -5.636624e+05
   8.791656e+05   3.695273e+05
  -6.757354e+05   6.209844e+05
  -2.052132e+06  -5.768925e+04
  -1.787747e+06  -1.154769e+06
   6.456850e+04  -1.892585e+06
   2.022589e+06  -1.628901e+06
   2.465761e+06  -3.408347e+05
   1.092128e+06   1.036180e+06
  -7.353262e+05   1.262261e+06
  -1.272021e+06   1.839812e+05
  -1.503969e+05  -8.934202e+05
   1.298825e+06  -6.651775e+05
   1.542894e+06   6.021453e+05
   4.247465e+05   1.440421e+06
  -8.682938e+05   9.787494e+05
  -1.145822e+06  -1.366471e+05
  -3.173320e+05  -6.491118e+05
   6.483628e+05  -8.567099e+04
   6.508438e+05   8.960482e+05
  -4.986584e+05   1.251756e+06
  -1.766251e+06   4.910813e+05
  -1.801453e+06  -8.966137e+05
  -3.846248e+05  -1.806539e+06
   1.198886e+06  -1.481637e+06
   1.505044e+06  -2.606789e+05
   5.007747e+05   7.366215e+05
  -5.431317e+05   7.492084e+05
  -6.087423e+05   7.652976e+04
   5.471697e+04  -4.133007e+05
   5.043889e+05  -2.890954e+05
   2.579008e+05   8.275939e+04
  -3.237308e+05   7.266253e+04
  -5.200284e+05  -4.779880e+05
   7.955545e+04  -1.036785e+06
   1.172729e+06  -8.448759e+05
   1.848526e+06   3.027374e+05
   1.334563e+06   1.677754e+06
  -1.385103e+05   2.167306e+06
  -1.411237e+06   1.355801e+06
  -1.569654e+06  -2.114133e+04
  -8.831660e+05  -8.403544e+05
  -3.257598e+05  -7.279314e+05
  -3.436468e+05  -2.788979e+05
  -4.644742e+05  -2.244098e+05
  -8.529866e+04  -6.093667e+05
   7.231375e+05  -8.368622e+05
   1.295690e+06  -3.747053e+05
   1.019681e+06   6.348383e+05
  -1.412025e+05   1.383105e+06
  -1.511365e+06   1.050605e+06
  -2.038177e+06  -3.598717e+05
  -1.102953e+06  -1.819621e+06
   7.639489e+05  -2.115873e+06
   2.173155e+06  -1.029003e+06
   2.139249e+06   4.481228e+05
   9.935735e+05   1.163136e+06
  -1.004336e+05   9.425523e+05
  -4.045004e+05   5.504956e+05
  -1.786005e+05   6.555891e+05
  -1.228878e+05   1.081286e+06
  -5.423021e+05   1.098691e+06
  -1.098999e+06   2.929947e+05
  -1.190947e+06  -9.358032e+05
  -5.252541e+05  -1.672648e+06
   5.312527e+05  -1.288360e+06
   1.148956e+06  -4.280903e+04
   7.722933e+05   1.083040e+06
  -2.540104e+05   1.241786e+06
  -9.529171e+05   4.594981e+05
  -7.286658e+05  -4.888397e+05
   6.895378e+03  -8.959640e+05
   3.614481e+05  -7.210832e+05
   2.754989e+04  -4.109677e+05
  -3.731451e+05  -3.090886e+05
  -4.961394e+04  -3.471709e+05
   9.803682e+05  -2.254201e+05
   1.790018e+06   2.272154e+05
   1.457263e+06   8.496767e+05
   5.884873e+04   1.229476e+06
  -1.313314e+06   1.028530e+06
  -1.593822e+06   3.312711e+05
  -7.743118e+05  -3.408812e+05
   1.863747e+05  -4.741369e+05
   4.325165e+05  -7.422828e+04
   1.348070e+04   3.249199e+05
  -4.122794e+05   2.241389e+05
  -4.252065e+05  -2.943269e+05
  -1.823335e+05  -6.510740e+05
  -4.136582e+04  -4.256410e+05
  -1.274015e+05   1.266555e+05
  -2.870849e+05   3.137715e+05
  -2.607649e+05  -1.938999e+05
   1.326707e+05  -8.974772e+05
   7.716063e+05  -9.551740e+05
   1.137076e+06  -1.493394e+05
   7.095712e+05   7.935122e+05
  -3.423210e+05   9.673540e+05
  -1.069474e+06   2.733999e+05
  -6.546560e+05  -5.109470e+05
   5.954019e+05  -6.031784e+05
   1.439630e+06   1.980908e+04
   9.881901e+05   7.328788e+05
  -3.553970e+05   9.382990e+05
  -1.340255e+06   5.368264e+05
  -1.153112e+06  -1.033461e+05
  -1.590197e+05  -4.688277e+05
   5.665758e+05  -2.805440e+05
   3.313932e+05   2.355810e+05
  -5.339316e+05   4.505938e+05
  -1.048647e+06  -8.628957e+04
  -5.742006e+05  -1.056420e+06
   5.450374e+05  -1.507513e+06
   1.329942e+06  -7.842769e+05
   1.133246e+06   6.696495e+05
   2.103628e+05   1.608217e+06
  -6.371486e+05   1.199989e+06
  -8.421128e+05  -1.067995e+05
  -4.445065e+05  -1.054152e+06
   1.348535e+05  -8.976114e+05
   4.892517e+05  -1.056244e+05
   4.554376e+05   3.366167e+05
   1.826331e+05   1.320079e+05
   2.901572e+04  -9.744916e+04
   2.092091e+05   2.330166e+05
   4.586461e+05   8.432719e+05
   2.336046e+05   9.707152e+05
  -5.853728e+05   3.779921e+05
  -1.336742e+06  -3.869092e+05
  -1.201281e+06  -7.239339e+05
  -1.852324e+05  -6.136208e+05
   7.871866e+05  -3.879377e+05
   8.898756e+05  -1.955142e+05
   2.978647e+05   1.949260e+04
  -1.378910e+05   2.009914e+05
   8.692503e+03   2.047488e+05
   2.773518e+05   1.022766e+05
   3.260094e+04   1.197858e+05
  -6.281286e+05   2.074212e+05
  -9.306912e+05  -1.216760e+03
  -3.443547e+05  -6.013463e+05
   7.647008e+05  -1.044517e+06
   1.477761e+06  -6.823595e+05
   1.222140e+06   3.773950e+05
   2.579568e+05   1.257417e+06
  -6.486035e+05   1.232467e+06
  -9.257486e+05   4.763359e+05
  -5.946442e+05  -2.156482e+05
  -1.108495e+05  -3.163651e+05
   9.189595e+04  -3.783545e+04
  -6.178777e+04   4.157366e+04
  -2.929578e+05  -3.129024e+05
  -2.509006e+05  -7.182323e+05
   1.538440e+05  -6.026471e+05
   6.168201e+05   1.184812e+05
   6.575269e+05   8.574552e+05
   8.674173e+04   9.138426e+05
  -6.862754e+05   2.035349e+05
  -9.267545e+05  -6.522836e+05
  -3.116343e+05  -9.637731e+05
   6.277868e+05  -5.953348e+05
   9.845071e+05   5.314452e+04
   4.698483e+05   5.139383e+05
  -2.393534e+05   5.826442e+05
  -3.052536e+05   3.306913e+05
   2.491105e+05   1.588311e+04
   5.868456e+05  -4.284466e+04
   1.274902e+05   2.662736e+05
  -7.245422e+05   6.266602e+05
  -1.091556e+06   5.299572e+05
  -6.575500e+05  -1.197872e+05
   7.093379e+04  -7.672126e+05
   4.513012e+05  -7.655825e+05
   3.480436e+05  -1.343029e+05
   4.205832e+04   4.377023e+05
  -2.095085e+05   3.783589e+05
  -3.176723e+05  -1.491775e+05
  -2.344871e+05  -5.115026e+05
   4.400239e+04  -3.598662e+05
   3.485138e+05   4.286070e+04
   4.228153e+05   2.236554e+05
   2.191592e+05   6.597453e+04
  -2.235312e+04  -1.134684e+05
  -7.665580e+04   2.790444e+03
  -1.719829e+04   3.293526e+05
  -8.021418e+04   4.628442e+05
  -2.933947e+05   1.562164e+05
  -3.829388e+05  -3.567253e+05
  -1.097169e+05  -5.768398e+05
   3.700270e+05  -2.764701e+05
   5.820760e+05   2.514573e+05
   2.253260e+05   5.162417e+05
  -4.386630e+05   3.335492e+05
  -7.751540e+05  -5.976342e+04
  -4.283682e+05  -3.280031e+05
   2.533853e+05  -3.455598e+05
   5.586319e+05  -1.949967e+05
   2.045404e+05  -1.871094e+04
  -3.327425e+05   4.736928e+04
  -3.740067e+05  -7.575795e+04
   1.664757e+05  -2.780109e+05
   6.932503e+05  -2.544005e+05
