
 $NMID
 id='ANONYMOUS ', fmtdat='(2E16.6)'
 volume=1.0
 tramp=1.0
 $END
  -3.365431e+07  -1.455355e+06
  -2.051009e+07  -1.923970e+07
   3.219324e+06  -2.190501e+07
   1.594657e+07  -1.076333e+07
   1.091451e+07   1.830343e+06
  -8.449827e+05   5.766038e+06
  -6.364285e+06   9.149802e+05
  -3.184737e+06  -5.724334e+06
   2.903395e+06  -7.323347e+06
   6.128929e+06  -2.445313e+06
   4.683184e+06   4.236282e+06
   3.627833e+05   6.159507e+06
  -2.911132e+06   1.454152e+06
  -1.955602e+06  -4.662016e+06
   2.298389e+06  -5.352940e+06
   5.178230e+06   2.695821e+05
   3.191356e+06   6.506367e+06
  -2.196583e+06   7.667421e+06
  -6.413401e+06   3.520116e+06
  -6.470131e+06  -1.875309e+06
  -3.177270e+06  -4.779731e+06
   2.596847e+05  -4.455977e+06
   1.088486e+06  -2.740806e+06
  -6.273922e+05  -2.051944e+06
  -1.810974e+06  -3.129879e+06
   5.001129e+05  -4.162581e+06
   5.192159e+06  -2.790953e+06
   7.507026e+06   7.736068e+05
   4.512628e+06   3.600387e+06
  -1.021889e+06   3.381020e+06
  -3.705906e+06   8.911017e+05
  -1.685930e+06  -1.329454e+06
   1.928647e+06  -1.618058e+06
   3.328824e+06   3.122406e+04
   1.848180e+06   2.462312e+06
  -5.419036e+05   3.701188e+06
  -1.826666e+06   2.183457e+06
  -1.378763e+06  -1.005616e+06
  -2.050420e+04  -2.343204e+06
   5.999809e+05  -7.411086e+04
  -4.776405e+05   2.801855e+06
  -2.086926e+06   2.025399e+06
  -1.853554e+06  -1.890568e+06
   8.029384e+05  -3.826922e+06
   3.367345e+06  -8.090013e+05
   2.807763e+06   3.911486e+06
  -9.182251e+05   4.979245e+06
  -4.643795e+06   1.375143e+06
  -5.098573e+06  -3.057363e+06
  -1.849602e+06  -4.448639e+06
   2.458016e+06  -2.427855e+06
   4.337501e+06   6.750786e+05
   2.404425e+06   2.377280e+06
  -1.274892e+06   1.703103e+06
  -3.064780e+06  -3.498691e+05
  -1.527218e+06  -1.632293e+06
   1.055997e+06  -9.228715e+05
   1.520598e+06   6.772843e+05
  -3.318159e+05   1.078458e+06
  -1.727152e+06  -1.891337e+05
  -5.745487e+05  -1.536787e+06
   2.034635e+06  -1.399069e+06
   3.290750e+06   2.169180e+05
   1.738963e+06   2.269741e+06
  -1.569038e+06   3.631838e+06
  -4.308447e+06   3.261639e+06
  -4.735566e+06   7.181365e+05
  -2.836919e+06  -2.748657e+06
  -2.553705e+05  -4.634549e+06
   1.133718e+06  -3.729449e+06
   9.716249e+05  -1.617045e+06
   5.745539e+05  -6.622225e+05
   1.153826e+06  -1.023709e+06
   2.290657e+06  -8.404225e+05
   2.562451e+06   8.154799e+05
   1.317638e+06   2.482891e+06
  -6.507386e+05   2.200998e+06
  -1.937380e+06  -3.638222e+04
  -1.592301e+06  -2.288522e+06
   3.016292e+05  -2.672162e+06
   2.497815e+06  -9.532363e+05
   3.255726e+06   1.499687e+06
   1.890202e+06   2.955730e+06
  -3.293440e+05   2.715939e+06
  -1.488275e+06   1.571659e+06
  -1.291177e+06   8.185171e+05
  -1.266417e+06   7.875052e+05
  -2.454958e+06   6.021632e+05
  -3.707677e+06  -5.700102e+05
  -2.997341e+06  -2.392605e+06
  -5.536167e+04  -3.647113e+06
   3.038890e+06  -3.354026e+06
   3.934865e+06  -1.522761e+06
   2.261806e+06   8.045047e+05
  -2.090985e+05   2.103783e+06
  -1.327468e+06   1.510415e+06
  -4.591129e+05  -1.777864e+05
   1.117694e+06  -1.067603e+06
   1.617266e+06  -2.523876e+05
   6.082068e+05   1.034638e+06
  -6.164441e+05   9.882044e+05
  -5.963286e+05  -3.227661e+05
   6.235985e+05  -9.511179e+05
   1.624624e+06   3.858477e+05
   1.195330e+06   2.575871e+06
  -5.599229e+05   3.362250e+06
  -2.497661e+06   1.826706e+06
  -3.358608e+06  -8.293028e+05
  -2.529518e+06  -2.651575e+06
  -5.024797e+05  -2.639521e+06
   1.266786e+06  -1.316620e+06
   1.501357e+06  -7.611577e+04
   4.441682e+05   5.707682e+04
  -3.112559e+05  -6.784871e+05
   3.198133e+05  -1.103695e+06
   1.556665e+06  -4.602633e+05
   1.725430e+06   6.921612e+05
   3.948357e+05   1.161572e+06
  -1.025866e+06   5.360113e+05
  -9.225548e+05  -4.162058e+05
   6.847173e+05  -6.694747e+05
   2.149901e+06   7.429153e+04
   1.879799e+06   1.268161e+06
  -1.054792e+05   2.005028e+06
  -2.166822e+06   1.615391e+06
  -2.552227e+06   2.294613e+05
  -1.048985e+06  -1.093979e+06
   8.064744e+05  -1.201089e+06
   1.258255e+06  -9.942261e+04
   7.164435e+04   8.951474e+05
  -1.354540e+06   5.941307e+05
  -1.544946e+06  -6.761577e+05
  -4.008054e+05  -1.485651e+06
   8.974336e+05  -9.973088e+05
   1.172884e+06   1.422783e+05
   3.310713e+05   6.571162e+05
  -6.369021e+05   5.814094e+04
  -6.002931e+05  -9.448574e+05
   5.947069e+05  -1.242088e+06
   1.838865e+06  -3.829014e+05
   1.780411e+06   1.029278e+06
   2.884316e+05   1.859537e+06
  -1.290420e+06   1.443332e+06
  -1.543142e+06   2.000440e+05
  -4.899077e+05  -7.685003e+05
   5.848582e+05  -7.476944e+05
   6.553617e+05  -4.389728e+04
  -5.040545e+04   4.679278e+05
  -5.678793e+05   3.235840e+05
  -3.427934e+05  -1.054263e+05
   2.862021e+05  -1.236205e+05
   5.246506e+05   4.577556e+05
  -9.889586e+04   1.041901e+06
  -1.230158e+06   8.082465e+05
  -1.872179e+06  -4.058258e+05
  -1.266701e+06  -1.788575e+06
   2.648296e+05  -2.221840e+06
   1.525253e+06  -1.347104e+06
   1.642333e+06   7.733274e+04
   9.183258e+05   9.410689e+05
   3.186351e+05   8.498074e+05
   2.953998e+05   3.632791e+05
   4.062179e+05   2.406603e+05
   4.175118e+04   5.933439e+05
  -7.687912e+05   8.247273e+05
  -1.356287e+06   3.418906e+05
  -1.050688e+06  -7.139914e+05
   1.913927e+05  -1.452930e+06
   1.609623e+06  -1.025459e+06
   2.086245e+06   4.722795e+05
   1.054176e+06   1.914781e+06
  -8.596239e+05   2.117620e+06
  -2.249498e+06   9.596106e+05
  -2.184098e+06  -5.314224e+05
  -1.016945e+06  -1.239920e+06
   1.161372e+05  -1.012124e+06
   4.799648e+05  -5.955476e+05
   2.918635e+05  -6.616493e+05
   2.265316e+05  -1.060191e+06
   6.091581e+05  -1.060626e+06
   1.121258e+06  -2.244897e+05
   1.156560e+06   1.032879e+06
   4.366995e+05   1.747912e+06
  -6.250258e+05   1.290727e+06
  -1.184003e+06  -1.218891e+04
  -7.405130e+05  -1.131834e+06
   2.970919e+05  -1.251615e+06
   9.593438e+05  -4.539560e+05
   7.084890e+05   4.801329e+05
  -1.780050e+04   8.788185e+05
  -3.559310e+05   7.211514e+05
  -2.736030e+04   4.399681e+05
   3.553837e+05   3.513736e+05
   2.452801e+04   3.643148e+05
  -9.977597e+05   1.804011e+05
  -1.793478e+06  -3.263060e+05
  -1.442692e+06  -9.352451e+05
  -2.153659e+04  -1.234595e+06
   1.365862e+06  -9.637526e+05
   1.635825e+06  -2.718814e+05
   7.827709e+05   3.471027e+05
  -2.019749e+05   4.523435e+05
  -4.336719e+05   6.883445e+04
   2.140014e+04  -3.076903e+05
   4.511784e+05  -1.987779e+05
   4.132625e+05   3.280284e+05
   1.157664e+05   6.908667e+05
  -1.412326e+04   4.439214e+05
   1.397838e+05  -1.461772e+05
   3.361128e+05  -3.364126e+05
   2.622993e+05   2.094418e+05
  -2.040185e+05   9.255581e+05
  -8.456522e+05   9.278191e+05
  -1.136685e+06   6.063838e+04
  -6.413213e+05  -8.600033e+05
   4.105781e+05  -9.399955e+05
   1.092592e+06  -1.826065e+05
   6.369572e+05   5.740538e+05
  -6.364427e+05   5.902286e+05
  -1.489510e+06  -8.332002e+04
  -1.016491e+06  -7.963002e+05
   3.829760e+05  -9.680719e+05
   1.411982e+06  -5.227756e+05
   1.206882e+06   1.446777e+05
   1.546899e+05   4.972602e+05
  -5.924752e+05   2.714321e+05
  -3.144663e+05  -2.512748e+05
   5.923066e+05  -4.156889e+05
   1.070372e+06   1.769642e+05
   4.962758e+05   1.135072e+06
  -6.884077e+05   1.505427e+06
  -1.433345e+06   7.035228e+05
  -1.123754e+06  -7.701424e+05
  -1.152316e+05  -1.675201e+06
   7.266698e+05  -1.214914e+06
   8.649657e+05   1.380182e+05
   4.172578e+05   1.106643e+06
  -1.619357e+05   9.301796e+05
  -5.002172e+05   9.135959e+04
  -4.704474e+05  -3.769533e+05
  -2.042950e+05  -1.525234e+05
  -2.607463e+04   1.052332e+05
  -1.663516e+05  -2.388113e+05
  -4.084353e+05  -8.896091e+05
  -2.114582e+05  -1.016551e+06
   5.921832e+05  -3.569026e+05
   1.358096e+06   4.791015e+05
   1.220581e+06   8.153432e+05
   1.567538e+05   6.368893e+05
  -8.577526e+05   3.509479e+05
  -9.362128e+05   1.573716e+05
  -2.844008e+05  -2.544863e+04
   1.636803e+05  -1.967184e+05
  -2.550783e+04  -2.231137e+05
  -3.102649e+05  -1.360881e+05
  -1.461845e+04  -1.280517e+05
   6.922182e+05  -1.652886e+05
   9.543266e+05   6.934244e+04
   2.719217e+05   6.389481e+05
  -8.827914e+05   1.010140e+06
  -1.545012e+06   5.840709e+05
  -1.197324e+06  -4.862283e+05
  -1.734697e+05  -1.315948e+06
   7.388040e+05  -1.215431e+06
   9.836585e+05  -4.101939e+05
   6.033800e+05   2.762069e+05
   8.081243e+04   3.330224e+05
  -1.240122e+05   1.762025e+04
   5.498178e+04  -5.806655e+04
   2.942770e+05   3.304685e+05
   2.238016e+05   7.535793e+05
  -2.036556e+05   6.039804e+05
  -6.340639e+05  -1.811941e+05
  -6.045891e+05  -9.454413e+05
   2.755788e+03  -9.449004e+05
   7.387501e+05  -1.381803e+05
   9.031029e+05   7.580919e+05
   2.383673e+05   1.011513e+06
  -6.910236e+05   5.502895e+05
  -9.954753e+05  -1.287075e+05
  -4.315716e+05  -5.413328e+05
   2.845862e+05  -5.574724e+05
   3.128911e+05  -3.119377e+05
  -2.814053e+05  -4.043194e+04
  -6.133137e+05   1.899025e+03
  -1.042974e+05  -2.779556e+05
   7.857910e+05  -6.003949e+05
   1.133574e+06  -4.907736e+05
   6.409886e+05   1.483639e+05
  -1.265695e+05   7.741710e+05
  -4.928882e+05   7.450565e+05
  -3.427549e+05   9.441040e+04
  -1.637706e+03  -4.645637e+05
   2.465061e+05  -3.616584e+05
   3.201665e+05   1.971452e+05
   2.035936e+05   5.426797e+05
  -7.717487e+04   3.466139e+05
  -3.553623e+05  -7.744180e+04
  -4.104038e+05  -2.426782e+05
  -2.194539e+05  -6.800660e+04
   2.229563e+03   1.010937e+05
   7.536143e+04  -3.515933e+04
   7.038807e+04  -3.551461e+05
   1.611075e+05  -4.491309e+05
   3.304006e+05  -1.000839e+05
   3.415181e+05   4.226682e+05
   3.336598e+04   6.077148e+05
  -4.118176e+05   2.489513e+05
  -5.673956e+05  -3.144806e+05
  -1.858406e+05  -5.563556e+05
   4.667403e+05  -3.093770e+05
   7.800349e+05   1.253221e+05
   4.114375e+05   3.672712e+05
  -2.853553e+05   3.207196e+05
  -5.831062e+05   1.407919e+05
  -1.935899e+05   6.688233e+01
   3.726070e+05  -9.696899e+03
   3.918147e+05   1.283849e+05
  -2.095527e+05   2.920646e+05
  -7.645319e+05   2.167964e+05
