
 $NMID
 id='ANONYMOUS ', fmtdat='(2E16.6)'
 volume=1.0
 tramp=1.0
 $END
  -1.550509e+07  -1.408346e+06
  -9.538881e+06  -7.984720e+06
   8.447758e+05  -9.584138e+06
   6.990300e+06  -5.996268e+06
   5.517944e+06  -4.257171e+05
   2.145547e+05   2.723343e+06
  -3.138075e+06   1.298951e+06
  -2.262321e+06  -2.529740e+06
   8.648906e+05  -4.258629e+06
   2.973053e+06  -1.792423e+06
   2.434121e+06   2.208754e+06
   1.327652e+05   3.368631e+06
  -1.617083e+06   5.885901e+05
  -1.139045e+06  -2.868065e+06
   1.040856e+06  -3.215580e+06
   2.614607e+06  -1.677275e+05
   1.761193e+06   3.189561e+06
  -9.586323e+05   3.848234e+06
  -3.145505e+06   1.625760e+06
  -2.999097e+06  -1.200211e+06
  -1.062219e+06  -2.377577e+06
   4.893481e+05  -1.694015e+06
   1.818266e+05  -7.851520e+05
  -1.207408e+06  -1.129515e+06
  -1.481037e+06  -2.371139e+06
   5.272981e+05  -2.801511e+06
   3.407617e+06  -1.420065e+06
   4.383900e+06   8.681039e+05
   2.263188e+06   2.237254e+06
  -1.070709e+06   1.770367e+06
  -2.493539e+06   1.120732e+05
  -9.175752e+05  -1.303469e+06
   1.676501e+06  -1.335929e+06
   2.565130e+06   1.330197e+05
   1.171476e+06   1.957683e+06
  -7.133889e+05   2.433455e+06
  -1.235036e+06   9.617255e+05
  -3.709579e+05  -9.690273e+05
   5.082793e+05  -1.192310e+06
   3.747863e+05   5.238646e+05
  -5.410880e+05   2.000995e+06
  -1.264271e+06   1.285119e+06
  -1.056370e+06  -8.488002e+05
   2.568799e+04  -1.826439e+06
   1.132809e+06  -4.578947e+05
   1.154615e+06   1.684564e+06
  -3.070225e+05   2.221646e+06
  -2.242970e+06   6.019961e+05
  -2.846322e+06  -1.586362e+06
  -1.262358e+06  -2.463783e+06
   1.305235e+06  -1.547371e+06
   2.609085e+06   1.530581e+05
   1.612050e+06   1.218875e+06
  -4.854010e+05   9.828375e+05
  -1.590285e+06  -4.384963e+04
  -8.924017e+05  -7.429751e+05
   4.965306e+05  -4.798728e+05
   9.512424e+05   3.304342e+05
   1.013050e+05   7.590897e+05
  -8.992111e+05   3.674162e+05
  -7.413538e+05  -4.105183e+05
   5.478861e+05  -7.600815e+05
   1.560996e+06  -2.123423e+05
   9.809836e+05   9.785168e+05
  -9.641887e+05   1.935120e+06
  -2.655067e+06   1.725013e+06
  -2.722930e+06   1.878887e+05
  -1.377788e+06  -1.708744e+06
   1.779814e+04  -2.629848e+06
   5.078266e+05  -2.171540e+06
   3.801231e+05  -1.202780e+06
   4.909738e+05  -7.398025e+05
   1.128000e+06  -7.282090e+05
   1.750214e+06  -3.004086e+05
   1.658234e+06   8.505694e+05
   6.933447e+05   1.827126e+06
  -6.208123e+05   1.504108e+06
  -1.416647e+06  -7.288572e+04
  -1.063688e+06  -1.577757e+06
   2.719298e+05  -1.709847e+06
   1.585106e+06  -4.402503e+05
   1.816757e+06   1.082953e+06
   8.665401e+05   1.725764e+06
  -3.067385e+05   1.351863e+06
  -7.507659e+05   6.958943e+05
  -5.656443e+05   4.456194e+05
  -6.584399e+05   5.627053e+05
  -1.477234e+06   4.588776e+05
  -2.276250e+06  -2.904782e+05
  -1.866876e+06  -1.454109e+06
  -4.607452e+04  -2.282355e+06
   1.945866e+06  -2.095915e+06
   2.542021e+06  -8.670195e+05
   1.399213e+06   6.383711e+05
  -2.709402e+05   1.371448e+06
  -9.466396e+05   8.922520e+05
  -2.774111e+05  -1.593099e+05
   7.459374e+05  -6.480771e+05
   9.856109e+05  -1.359262e+05
   3.153755e+05   6.336111e+05
  -4.323645e+05   6.276302e+05
  -4.529959e+05  -1.836468e+05
   2.597961e+05  -7.139642e+05
   9.985714e+05  -4.331849e+04
   9.857745e+05   1.406372e+06
  -8.201696e+03   2.216544e+06
  -1.429142e+06   1.463278e+06
  -2.255913e+06  -3.181608e+05
  -1.797372e+06  -1.700492e+06
  -3.818447e+05  -1.762964e+06
   8.402931e+05  -8.458239e+05
   9.781862e+05  -1.837766e+04
   2.814377e+05   3.721886e+04
  -1.990606e+05  -4.252391e+05
   1.734465e+05  -6.608279e+05
   9.201330e+05  -2.812753e+05
   1.055038e+06   3.819067e+05
   2.764850e+05   6.859038e+05
  -6.294594e+05   3.557232e+05
  -6.296410e+05  -2.521992e+05
   3.920727e+05  -4.997089e+05
   1.419472e+06  -5.592632e+04
   1.311040e+06   7.913056e+05
   1.431073e+03   1.346516e+06
  -1.379206e+06   1.088249e+06
  -1.627045e+06   1.660933e+05
  -6.549497e+05  -6.630338e+05
   4.908751e+05  -7.101140e+05
   7.401413e+05  -4.724540e+04
   1.332277e+04   5.368562e+05
  -8.443927e+05   3.629294e+05
  -9.792116e+05  -3.995132e+05
  -3.040727e+05  -9.290946e+05
   5.207687e+05  -6.797512e+05
   7.527367e+05   2.489593e+04
   2.554686e+05   3.906586e+05
  -3.701603e+05   4.481672e+04
  -3.640315e+05  -5.885053e+05
   3.908572e+05  -7.745396e+05
   1.167665e+06  -2.212683e+05
   1.114112e+06   6.619571e+05
   1.797689e+05   1.166142e+06
  -7.959372e+05   9.094131e+05
  -9.656296e+05   1.465118e+05
  -3.309236e+05  -4.726918e+05
   3.563816e+05  -4.860673e+05
   4.440070e+05  -2.737266e+04
  -3.113561e+03   3.466898e+05
  -3.978193e+05   2.621325e+05
  -3.035880e+05  -7.553399e+04
   1.321303e+05  -1.496785e+05
   3.541446e+05   2.275417e+05
  -1.979524e+04   6.458897e+05
  -7.612048e+05   5.224480e+05
  -1.183382e+06  -2.484749e+05
  -7.977624e+05  -1.128894e+06
   1.687600e+05  -1.419518e+06
   9.717365e+05  -8.942436e+05
   1.080030e+06   1.554550e+04
   6.457325e+05   6.303496e+05
   2.272239e+05   6.293155e+05
   1.433397e+05   2.901735e+05
   1.987592e+05   1.353250e+05
   1.549151e+04   3.392263e+05
  -4.683462e+05   5.323971e+05
  -8.697863e+05   2.488084e+05
  -7.100949e+05  -4.609339e+05
   9.030174e+04  -9.686309e+05
   1.024527e+06  -6.862638e+05
   1.343276e+06   2.884063e+05
   6.971486e+05   1.203417e+06
  -5.009594e+05   1.337365e+06
  -1.391512e+06   6.390859e+05
  -1.405591e+06  -2.870010e+05
  -7.129860e+05  -7.801614e+05
   3.332099e+04  -6.975483e+05
   3.418624e+05  -4.336968e+05
   2.600525e+05  -4.181135e+05
   1.838597e+05  -6.294295e+05
   3.767612e+05  -6.374859e+05
   6.890039e+05  -1.288364e+05
   7.225356e+05   6.622501e+05
   2.697696e+05   1.113665e+06
  -4.048460e+05   8.196118e+05
  -7.560494e+05   1.419852e+03
  -4.812530e+05  -6.961124e+05
   1.536643e+05  -7.884614e+05
   5.649159e+05  -3.276453e+05
   4.401560e+05   2.400099e+05
   3.114077e+04   5.182544e+05
  -1.684988e+05   4.617742e+05
   7.308930e+03   3.010954e+05
   2.153855e+05   2.370967e+05
   8.374030e+03   2.372283e+05
  -6.132011e+05   1.198711e+05
  -1.109536e+06  -1.987253e+05
  -9.133986e+05  -5.751619e+05
  -4.623784e+04  -7.544613e+05
   8.269937e+05  -5.958571e+05
   1.022043e+06  -1.964082e+05
   5.068370e+05   1.725881e+05
  -1.112687e+05   2.635622e+05
  -2.614212e+05   6.189577e+04
   3.059033e+04  -1.679913e+05
   3.030842e+05  -1.180262e+05
   2.563315e+05   2.106568e+05
   3.748619e+04   4.518753e+05
  -4.288292e+04   2.867524e+05
   9.153549e+04  -1.173096e+05
   2.393364e+05  -2.452481e+05
   1.727378e+05   1.291844e+05
  -1.481874e+05   6.011493e+05
  -5.378780e+05   5.810415e+05
  -6.824204e+05   9.717941e+03
  -3.641592e+05  -5.521781e+05
   2.653822e+05  -5.632712e+05
   6.732697e+05  -7.757771e+04
   3.988478e+05   3.784126e+05
  -3.961121e+05   3.809114e+05
  -9.620984e+05  -3.418213e+04
  -6.926938e+05  -4.956306e+05
   2.081393e+05  -6.431272e+05
   9.060814e+05  -3.820589e+05
   7.991039e+05   6.511895e+04
   1.169987e+05   3.242445e+05
  -3.722659e+05   1.889976e+05
  -1.874334e+05  -1.499750e+05
   3.961820e+05  -2.468053e+05
   6.794604e+05   1.429192e+05
   2.807546e+05   7.407640e+05
  -4.834354e+05   9.457650e+05
  -9.367089e+05   4.200052e+05
  -7.133281e+05  -5.096683e+05
  -6.294469e+04  -1.079269e+06
   4.680229e+05  -7.932638e+05
   5.578927e+05   6.804058e+04
   2.869853e+05   7.043328e+05
  -7.513685e+04   6.097179e+05
  -3.103360e+05   6.927024e+04
  -3.221577e+05  -2.463313e+05
  -1.551312e+05  -1.045284e+05
  -7.122997e+03   7.432366e+04
  -6.948619e+04  -1.385759e+05
  -2.447782e+05  -5.639616e+05
  -1.621247e+05  -6.548393e+05
   3.457189e+05  -2.299092e+05
   8.725724e+05   3.117577e+05
   8.064909e+05   5.241375e+05
   1.011940e+05   4.019075e+05
  -5.749199e+05   2.199755e+05
  -6.083299e+05   1.071937e+05
  -1.602320e+05  -3.940517e+03
   1.153324e+05  -1.231633e+05
  -4.528243e+04  -1.556209e+05
  -2.297436e+05  -1.033635e+05
   3.395230e+03  -8.462639e+04
   4.775810e+05  -9.182552e+04
   6.061681e+05   6.024543e+04
   1.235711e+05   4.080474e+05
  -6.019121e+05   6.226740e+05
  -9.719716e+05   3.379026e+05
  -7.243194e+05  -3.397433e+05
  -8.914895e+04  -8.483996e+05
   4.735785e+05  -7.601060e+05
   6.323754e+05  -2.334373e+05
   3.889951e+05   1.980600e+05
   3.565095e+04   2.137523e+05
  -1.072656e+05  -6.051176e+03
   2.417425e+04  -5.682260e+04
   1.991533e+05   2.030335e+05
   1.495279e+05   4.820371e+05
  -1.416272e+05   3.780169e+05
  -4.109727e+05  -1.411946e+05
  -3.615181e+05  -6.305854e+05
   4.350801e+04  -6.026906e+05
   4.933123e+05  -5.428456e+04
   5.624011e+05   5.199388e+05
   1.235296e+05   6.481570e+05
  -4.528714e+05   3.237013e+05
  -6.207356e+05  -1.009569e+05
  -2.524132e+05  -3.308772e+05
   1.868350e+05  -3.265536e+05
   1.790355e+05  -1.882476e+05
  -2.066465e+05  -3.672473e+04
  -3.991117e+05  -8.255175e+03
  -5.446448e+04  -1.740471e+05
   5.070825e+05  -3.800963e+05
   7.042593e+05  -3.216049e+05
   3.800002e+05   8.163965e+04
  -9.116509e+04   4.828952e+05
  -2.992628e+05   4.586803e+05
  -1.947380e+05   3.581621e+04
   1.668557e+04  -3.088202e+05
   1.671026e+05  -2.145514e+05
   2.059113e+05   1.526683e+05
   1.209973e+05   3.498553e+05
  -6.084934e+04   1.993041e+05
  -2.259799e+05  -6.358673e+04
  -2.500765e+05  -1.430133e+05
  -1.381098e+05  -3.066506e+04
  -1.312371e+04   4.674064e+04
   4.509999e+04  -6.055690e+04
   8.065910e+04  -2.441505e+05
   1.568318e+05  -2.625454e+05
   2.306655e+05  -1.786928e+04
   1.840491e+05   3.046719e+05
  -2.747218e+04   3.956961e+05
  -2.789055e+05   1.436631e+05
  -3.442022e+05  -2.242882e+05
  -1.010861e+05  -3.681015e+05
   2.944734e+05  -1.884477e+05
   4.833832e+05   1.005024e+05
   2.516605e+05   2.402182e+05
  -1.871934e+05   1.835927e+05
  -3.692262e+05   6.076974e+04
  -1.049772e+05  -7.465487e+03
   2.662736e+05   1.531782e+04
   2.614971e+05   1.126112e+05
  -1.575800e+05   2.021984e+05
  -5.266628e+05   1.318797e+05
