
 $NMID
 id='ANONYMOUS ', fmtdat='(2E16.6)'
 volume=1.0
 tramp=1.0
 $END
   2.667453e+07  -2.004022e+06
   1.879774e+07   1.216354e+07
   6.600019e+05   1.747070e+07
  -1.139866e+07   1.140136e+07
  -9.671083e+06   8.066542e+05
  -5.151429e+05  -4.901791e+06
   5.380346e+06  -2.189936e+06
   3.931850e+06   4.306175e+06
  -1.289283e+06   7.079784e+06
  -4.908632e+06   3.201796e+06
  -4.378462e+06  -3.140694e+06
  -8.088322e+05  -5.320491e+06
   2.373195e+06  -1.333691e+06
   2.097433e+06   4.199969e+06
  -1.408640e+06   5.197226e+06
  -4.430881e+06   5.768746e+05
  -3.484846e+06  -5.057129e+06
   9.099946e+05  -6.638265e+06
   4.864069e+06  -3.474823e+06
   5.271602e+06   1.062445e+06
   2.651885e+06   3.479328e+06
   6.528930e+04   3.136631e+06
  -1.276507e+05   1.954243e+06
   1.515727e+06   1.981297e+06
   2.122644e+06   3.304128e+06
  -4.401768e+05   4.082133e+06
  -4.765204e+06   2.644668e+06
  -6.745621e+06  -4.840085e+05
  -3.997120e+06  -2.922242e+06
   1.032144e+06  -2.825591e+06
   3.472220e+06  -6.372670e+05
   1.424421e+06   1.531635e+06
  -2.228614e+06   1.820687e+06
  -3.550850e+06  -4.205172e+04
  -1.808156e+06  -2.581886e+06
   6.340095e+05  -3.531742e+06
   1.546495e+06  -1.790652e+06
   8.267457e+05   1.027288e+06
  -2.196613e+05   1.815383e+06
  -4.013747e+05  -4.078894e+05
   5.506898e+05  -2.834610e+06
   1.799698e+06  -2.080877e+06
   1.876557e+06   1.326078e+06
   9.330194e+04   3.283024e+06
  -2.224207e+06   1.219825e+06
  -2.580484e+06  -2.639966e+06
   3.653093e+04  -4.024008e+06
   3.615254e+06  -1.562614e+06
   4.798036e+06   2.147447e+06
   2.231886e+06   3.812217e+06
  -1.951898e+06   2.548483e+06
  -4.119405e+06  -6.938819e+04
  -2.602896e+06  -1.866535e+06
   7.811296e+05  -1.705187e+06
   2.667386e+06  -1.275811e+05
   1.571773e+06   1.166339e+06
  -7.578706e+05   8.993773e+05
  -1.506722e+06  -4.514542e+05
  -1.691427e+04  -1.203126e+06
   1.613568e+06  -4.306225e+05
   1.147213e+06   1.017257e+06
  -1.134107e+06   1.556049e+06
  -2.764909e+06   4.738650e+05
  -1.821066e+06  -1.592852e+06
   1.124425e+06  -3.232305e+06
   3.719959e+06  -3.094605e+06
   4.129420e+06  -8.280349e+05
   2.505558e+06   2.280898e+06
   4.688393e+05   4.061591e+06
  -5.888299e+05   3.505504e+06
  -6.533872e+05   1.829230e+06
  -7.075598e+05   9.233138e+05
  -1.413397e+06   1.010935e+06
  -2.330596e+06   6.549214e+05
  -2.428801e+06  -9.211050e+05
  -1.215981e+06  -2.466547e+06
   6.951729e+05  -2.177131e+06
   2.003012e+06   6.120343e+03
   1.678199e+06   2.203804e+06
  -1.901771e+05   2.553649e+06
  -2.269568e+06   9.204459e+05
  -2.933550e+06  -1.264910e+06
  -1.731208e+06  -2.460770e+06
   1.212439e+05  -2.241423e+06
   1.053605e+06  -1.373194e+06
   9.241654e+05  -8.673257e+05
   1.039650e+06  -9.302328e+05
   2.245843e+06  -8.258233e+05
   3.517006e+06   2.144001e+05
   2.995359e+06   2.013741e+06
   3.095568e+05   3.442147e+06
  -2.680768e+06   3.356732e+06
  -3.659517e+06   1.603371e+06
  -2.136908e+06  -7.245686e+05
   1.978224e+05  -2.010780e+06
   1.241442e+06  -1.434826e+06
   4.228548e+05   1.778776e+05
  -1.019615e+06   1.052138e+06
  -1.479313e+06   3.348414e+05
  -5.885075e+05  -9.046992e+05
   5.601468e+05  -9.696587e+05
   6.624414e+05   2.702168e+05
  -4.390575e+05   1.084526e+06
  -1.623028e+06   9.678955e+03
  -1.576413e+06  -2.230106e+06
   2.123564e+04  -3.409562e+06
   2.201733e+06  -2.221942e+06
   3.422672e+06   4.158016e+05
   2.750623e+06   2.428940e+06
   6.832187e+05   2.577436e+06
  -1.155910e+06   1.335178e+06
  -1.438895e+06   1.360527e+05
  -4.258110e+05  -2.613318e+04
   3.434128e+05   6.212483e+05
  -1.946795e+05   1.043831e+06
  -1.387336e+06   5.486905e+05
  -1.667339e+06  -4.832554e+05
  -4.892898e+05  -1.040773e+06
   9.266142e+05  -5.972481e+05
   9.489708e+05   3.377944e+05
  -5.906038e+05   7.621334e+05
  -2.130605e+06   1.478955e+05
  -1.983482e+06  -1.105445e+06
  -7.180861e+04  -2.002168e+06
   1.978782e+06  -1.735365e+06
   2.427031e+06  -4.014219e+05
   1.068781e+06   9.416169e+05
  -6.558759e+05   1.154365e+06
  -1.133780e+06   1.784943e+05
  -1.059581e+05  -8.101494e+05
   1.233031e+06  -6.452927e+05
   1.521957e+06   5.157627e+05
   5.273668e+05   1.389588e+06
  -7.581611e+05   1.064057e+06
  -1.151750e+06  -2.012252e+03
  -4.064850e+05  -5.928181e+05
   5.740296e+05  -1.136036e+05
   6.209703e+05   8.456329e+05
  -4.935173e+05   1.205190e+06
  -1.720218e+06   4.646146e+05
  -1.745313e+06  -8.672616e+05
  -3.967815e+05  -1.737815e+06
   1.111573e+06  -1.458591e+06
   1.448921e+06  -3.126011e+05
   5.387290e+05   6.916253e+05
  -4.979443e+05   7.645047e+05
  -6.464641e+05   7.606117e+04
   5.225579e+03  -5.022138e+05
   5.695803e+05  -3.863065e+05
   4.091452e+05   1.100084e+05
  -2.393205e+05   2.151313e+05
  -5.663178e+05  -3.501306e+05
  -1.730744e+04  -9.964452e+05
   1.103262e+06  -8.638941e+05
   1.807016e+06   2.545549e+05
   1.318775e+06   1.612688e+06
  -1.104312e+05   2.140795e+06
  -1.378544e+06   1.416552e+06
  -1.612153e+06   5.342322e+04
  -9.834607e+05  -8.836200e+05
  -3.562400e+05  -8.769184e+05
  -2.481055e+05  -3.683082e+05
  -3.536998e+05  -1.701623e+05
  -7.905031e+04  -5.250708e+05
   6.626754e+05  -8.490077e+05
   1.285952e+06  -4.405411e+05
   1.084075e+06   6.302419e+05
  -7.199617e+04   1.446714e+06
  -1.478053e+06   1.112764e+06
  -2.037615e+06  -3.085279e+05
  -1.157388e+06  -1.751288e+06
   6.378499e+05  -2.078629e+06
   2.054535e+06  -1.097756e+06
   2.145679e+06   3.232371e+05
   1.112281e+06   1.126891e+06
  -2.334053e+04   1.032605e+06
  -4.675510e+05   6.384593e+05
  -3.021613e+05   6.262829e+05
  -1.707361e+05   9.733393e+05
  -4.917762e+05   1.019801e+06
  -1.028418e+06   2.808075e+05
  -1.156100e+06  -9.107445e+05
  -5.218234e+05  -1.637404e+06
   5.183952e+05  -1.267649e+06
   1.134754e+06  -7.262933e+04
   7.953016e+05   1.012210e+06
  -1.678403e+05   1.215377e+06
  -8.548885e+05   5.430140e+05
  -7.153836e+05  -3.494106e+05
  -9.004615e+04  -8.138552e+05
   2.408256e+05  -7.296233e+05
  -1.890054e+04  -4.474188e+05
  -3.480669e+05  -3.212130e+05
  -3.894062e+04  -3.486383e+05
   9.213805e+05  -2.474050e+05
   1.704971e+06   1.778878e+05
   1.437646e+06   7.788860e+05
   1.388073e+05   1.156719e+06
  -1.196795e+06   1.003489e+06
  -1.531612e+06   3.917347e+05
  -7.903790e+05  -2.388992e+05
   1.407724e+05  -4.272062e+05
   4.009329e+05  -1.142658e+05
  -8.027044e+03   2.647030e+05
  -4.293975e+05   2.065592e+05
  -4.086976e+05  -2.858486e+05
  -1.188441e+05  -6.521480e+05
   1.669704e+04  -4.185188e+05
  -1.329728e+05   1.697876e+05
  -3.305980e+05   3.637478e+05
  -2.702002e+05  -1.805925e+05
   1.545943e+05  -9.016697e+05
   7.433700e+05  -9.311204e+05
   1.034704e+06  -1.168175e+05
   6.259775e+05   7.705775e+05
  -3.244997e+05   8.900861e+05
  -9.991197e+05   2.160403e+05
  -6.349564e+05  -5.161763e+05
   5.620370e+05  -6.113447e+05
   1.443892e+06  -3.014548e+04
   1.065588e+06   6.962522e+05
  -2.777705e+05   9.824926e+05
  -1.333256e+06   6.326710e+05
  -1.196002e+06  -4.405766e+04
  -1.943645e+05  -4.764535e+05
   5.476441e+05  -3.133005e+05
   3.074235e+05   2.066755e+05
  -5.503766e+05   4.132434e+05
  -1.022059e+06  -1.264602e+05
  -5.097143e+05  -1.057071e+06
   5.966491e+05  -1.456173e+06
   1.335674e+06  -7.315951e+05
   1.114261e+06   6.788293e+05
   2.052277e+05   1.598963e+06
  -6.249559e+05   1.222231e+06
  -8.460684e+05  -5.970665e+04
  -4.890147e+05  -1.034348e+06
   7.383730e+04  -9.214905e+05
   4.669709e+05  -1.318887e+05
   4.918878e+05   3.412555e+05
   2.253923e+05   1.460850e+05
   1.152921e+04  -1.113695e+05
   1.448509e+05   1.945355e+05
   4.339373e+05   8.156089e+05
   2.902372e+05   9.706053e+05
  -5.140889e+05   3.899758e+05
  -1.331639e+06  -3.774678e+05
  -1.242199e+06  -7.115782e+05
  -1.929995e+05  -5.944692e+05
   8.206019e+05  -3.789576e+05
   8.959037e+05  -2.135635e+05
   2.574520e+05  -1.113739e+04
  -1.529103e+05   1.931801e+05
   6.130534e+04   2.316494e+05
   3.292838e+05   1.339906e+05
   9.840134e+03   1.204426e+05
  -6.792467e+05   1.798813e+05
  -9.089208e+05  -1.862019e+04
  -2.553616e+05  -5.790150e+05
   8.071048e+05  -9.907805e+05
   1.415684e+06  -6.295026e+05
   1.130486e+06   4.029968e+05
   2.282776e+05   1.247538e+06
  -6.250879e+05   1.193740e+06
  -9.094305e+05   4.280135e+05
  -5.915350e+05  -2.459419e+05
  -8.380486e+04  -3.095439e+05
   1.379796e+05  -1.178536e+03
  -4.445115e+04   8.002179e+04
  -3.148574e+05  -2.928138e+05
  -2.679669e+05  -7.083511e+05
   1.642237e+05  -5.799790e+05
   6.158451e+05   1.573278e+05
   6.084929e+05   8.820944e+05
   2.026719e+04   8.906644e+05
  -7.070460e+05   1.425144e+05
  -8.884914e+05  -6.949603e+05
  -2.659900e+05  -9.451833e+05
   6.277160e+05  -5.417410e+05
   9.406188e+05   7.193908e+04
   4.302617e+05   4.696122e+05
  -2.325046e+05   5.228048e+05
  -2.570467e+05   3.140725e+05
   2.928589e+05   3.807674e+04
   5.900304e+05  -3.046978e+04
   1.074509e+05   2.523492e+05
  -7.162191e+05   6.196185e+05
  -1.036209e+06   5.546523e+05
  -5.990862e+05  -8.048806e+04
   7.743647e+04  -7.345391e+05
   4.043030e+05  -7.323993e+05
   2.926450e+05  -9.679917e+04
   1.184360e+04   4.498385e+05
  -2.165124e+05   3.437804e+05
  -3.123512e+05  -1.925545e+05
  -2.202414e+05  -5.059573e+05
   5.579263e+04  -3.128906e+05
   3.396860e+05   6.376924e+04
   4.002048e+05   1.913297e+05
   2.158155e+05   3.874672e+04
  -4.356371e+02  -7.618595e+04
  -7.775779e+04   7.387159e+04
  -8.179148e+04   3.495616e+05
  -1.672671e+05   4.022584e+05
  -3.141663e+05   6.948200e+04
  -3.127442e+05  -4.039265e+05
  -2.444011e+04  -5.717167e+05
   3.876767e+05  -2.459125e+05
   5.392770e+05   2.802882e+05
   1.936924e+05   5.263827e+05
  -4.203267e+05   3.183055e+05
  -7.342553e+05  -8.414170e+04
  -4.050504e+05  -3.265916e+05
   2.506304e+05  -3.041079e+05
   5.370901e+05  -1.463661e+05
   1.659285e+05  -1.092414e+04
  -3.750805e+05   5.642125e+03
  -3.842406e+05  -1.285385e+05
   2.075069e+05  -3.000637e+05
   7.496906e+05  -2.393948e+05
