
 $NMID
 id='ANONYMOUS ', fmtdat='(2E16.6)'
 volume=1.0
 tramp=1.0
 $END
  -4.988462e+07   1.781824e+06
  -3.184853e+07  -2.920164e+07
   4.577022e+06  -3.410668e+07
   2.408060e+07  -1.485606e+07
   1.563077e+07   4.978163e+06
  -2.233986e+06   8.660541e+06
  -9.192492e+06  -2.373307e+05
  -3.369112e+06  -8.767150e+06
   5.140587e+06  -9.232950e+06
   8.804703e+06  -2.511339e+06
   6.552683e+06   5.479843e+06
   8.808860e+05   7.926721e+06
  -3.581006e+06   2.464675e+06
  -2.473421e+06  -5.241922e+06
   3.315642e+06  -6.429335e+06
   7.286458e+06   7.745023e+05
   4.472060e+06   9.109760e+06
  -2.962245e+06   1.085228e+07
  -8.869473e+06   5.600983e+06
  -9.604373e+06  -1.598933e+06
  -5.898218e+06  -6.374569e+06
  -8.566234e+05  -7.337880e+06
   2.007084e+06  -5.320231e+06
   1.051585e+06  -2.872266e+06
  -1.166177e+06  -2.634136e+06
   6.000560e+04  -4.140741e+06
   5.280357e+06  -3.890892e+06
   8.970788e+06  -2.346757e+05
   6.364098e+06   3.794112e+06
   2.274746e+03   4.433640e+06
  -3.583358e+06   2.013498e+06
  -2.069851e+06  -3.458694e+05
   1.160198e+06  -9.689207e+05
   2.592887e+06  -1.355388e+05
   1.947864e+06   1.780463e+06
   2.709608e+05   3.763132e+06
  -1.669537e+06   3.352941e+06
  -2.562629e+06  -1.823244e+05
  -1.322564e+06  -3.070969e+06
   4.966694e+05  -1.376644e+06
  -1.145017e+04   2.501452e+06
  -2.389695e+06   2.268122e+06
  -2.435859e+06  -2.793980e+06
   1.725378e+06  -5.701534e+06
   5.915117e+06  -1.365231e+06
   4.784711e+06   5.842513e+06
  -1.266254e+06   7.656705e+06
  -6.564036e+06   2.397140e+06
  -6.609929e+06  -3.946937e+06
  -2.002435e+06  -5.676789e+06
   3.227205e+06  -2.758923e+06
   5.165157e+06   1.246789e+06
   2.565860e+06   3.243527e+06
  -2.064155e+06   2.204737e+06
  -4.212122e+06  -6.264192e+05
  -1.961851e+06  -2.397842e+06
   1.497769e+06  -1.318108e+06
   1.737275e+06   9.358887e+05
  -1.068015e+06   1.112193e+06
  -2.483364e+06  -1.215385e+06
   2.235359e+04  -3.055631e+06
   3.838293e+06  -2.074113e+06
   4.898637e+06   8.150503e+05
   2.354065e+06   3.460834e+06
  -1.623450e+06   4.842513e+06
  -4.743725e+06   4.437172e+06
  -5.729562e+06   1.546088e+06
  -4.110165e+06  -2.919426e+06
  -8.501815e+05  -5.717678e+06
   1.600697e+06  -4.605797e+06
   1.625674e+06  -1.461703e+06
   4.338901e+05   2.251375e+04
   3.825163e+05  -8.408823e+05
   1.756766e+06  -1.388074e+06
   2.643912e+06   1.138767e+05
   1.726549e+06   2.088024e+06
  -2.415505e+05   2.115223e+06
  -1.684362e+06   4.701402e+04
  -1.621616e+06  -2.213204e+06
   1.107844e+05  -2.874102e+06
   2.669838e+06  -1.453481e+06
   4.109615e+06   1.221085e+06
   2.910126e+06   3.444900e+06
   1.291845e+04   3.786562e+06
  -1.951496e+06   2.480796e+06
  -1.951155e+06   1.158365e+06
  -1.720835e+06   7.832743e+05
  -2.883109e+06   5.477749e+05
  -4.261735e+06  -7.054682e+05
  -3.416860e+06  -2.708120e+06
  -1.014463e+05  -4.067408e+06
   3.227013e+06  -3.786131e+06
   4.153790e+06  -1.937709e+06
   2.531634e+06   5.465312e+05
   1.041302e+05   2.182572e+06
  -1.174800e+06   1.792903e+06
  -5.227667e+05  -7.714634e+04
   1.114688e+06  -1.241004e+06
   1.850008e+06  -3.694148e+05
   8.483763e+05   1.152697e+06
  -5.651973e+05   1.078524e+06
  -4.956008e+05  -4.125384e+05
   1.005874e+06  -8.423526e+05
   1.942443e+06   1.036026e+06
   9.052656e+05   3.383397e+06
  -1.366694e+06   3.607694e+06
  -3.148522e+06   1.401091e+06
  -3.473093e+06  -1.362419e+06
  -2.373292e+06  -2.882323e+06
  -4.225762e+05  -2.703445e+06
   1.288430e+06  -1.427113e+06
   1.576917e+06  -1.665762e+05
   4.882724e+05   5.314516e+04
  -3.492478e+05  -7.498497e+05
   3.870486e+05  -1.310399e+06
   1.845258e+06  -5.727727e+05
   2.006320e+06   8.467653e+05
   4.082771e+05   1.387146e+06
  -1.166106e+06   5.738350e+05
  -9.192114e+05  -4.802983e+05
   8.572920e+05  -5.860271e+05
   2.260776e+06   2.978168e+05
   1.814937e+06   1.425251e+06
  -2.609152e+05   2.049947e+06
  -2.356846e+06   1.658393e+06
  -2.780251e+06   2.426108e+05
  -1.199472e+06  -1.248048e+06
   8.950246e+05  -1.451067e+06
   1.502282e+06  -1.822929e+05
   1.744911e+05   1.038676e+06
  -1.502921e+06   7.076462e+05
  -1.713190e+06  -7.819302e+05
  -3.546326e+05  -1.665461e+06
   1.089740e+06  -1.015098e+06
   1.286295e+06   2.862194e+05
   2.789147e+05   7.857473e+05
  -7.737920e+05   6.501908e+04
  -7.115462e+05  -1.044694e+06
   5.983069e+05  -1.394486e+06
   1.998892e+06  -4.950362e+05
   1.997301e+06   1.075291e+06
   3.558768e+05   2.061564e+06
  -1.439991e+06   1.621804e+06
  -1.723081e+06   2.036887e+05
  -5.085032e+05  -8.726775e+05
   6.643159e+05  -8.058554e+05
   6.526545e+05  -5.175041e+04
  -1.278019e+05   4.083713e+05
  -5.487353e+05   2.230537e+05
  -1.797318e+05  -1.163501e+05
   4.446000e+05   6.758287e+03
   5.521124e+05   6.420842e+05
  -1.853621e+05   1.189638e+06
  -1.381658e+06   8.875003e+05
  -2.069092e+06  -4.352812e+05
  -1.429377e+06  -1.951143e+06
   2.572175e+05  -2.415225e+06
   1.652330e+06  -1.408915e+06
   1.724568e+06   1.459268e+05
   8.691848e+05   9.605664e+05
   2.796195e+05   7.309305e+05
   4.108127e+05   2.466162e+05
   5.861214e+05   2.797082e+05
   8.983991e+04   7.303872e+05
  -8.768196e+05   9.002072e+05
  -1.469553e+06   3.197229e+05
  -1.061387e+06  -7.620992e+05
   2.721210e+05  -1.498394e+06
   1.751016e+06  -1.065860e+06
   2.251147e+06   5.170363e+05
   1.123060e+06   2.114864e+06
  -1.007296e+06   2.358802e+06
  -2.537920e+06   1.027643e+06
  -2.370090e+06  -6.669955e+05
  -9.823728e+05  -1.376641e+06
   2.185744e+05  -9.974034e+05
   4.489293e+05  -5.231076e+05
   1.406700e+05  -7.110955e+05
   1.289267e+05  -1.250227e+06
   6.623857e+05  -1.253582e+06
   1.270935e+06  -3.001444e+05
   1.305733e+06   1.094615e+06
   5.200765e+05   1.894849e+06
  -6.461675e+05   1.419106e+06
  -1.288390e+06  -1.715413e+04
  -8.088296e+05  -1.280888e+06
   3.829050e+05  -1.398001e+06
   1.153467e+06  -4.353064e+05
   8.228509e+05   6.577097e+05
  -9.024843e+04   1.063387e+06
  -5.089147e+05   8.020700e+05
  -8.486086e+04   4.400162e+05
   4.133250e+05   3.450246e+05
   4.665553e+04   3.832098e+05
  -1.136529e+06   2.061239e+05
  -2.035515e+06  -3.410512e+05
  -1.603751e+06  -1.042837e+06
   2.270120e+04  -1.425702e+06
   1.565720e+06  -1.122584e+06
   1.829755e+06  -2.736616e+05
   8.532374e+05   4.780577e+05
  -2.456520e+05   5.560504e+05
  -5.101135e+05   4.487578e+04
  -2.719809e+04  -3.941005e+05
   4.513196e+05  -2.383344e+05
   4.704193e+05   3.457319e+05
   2.144215e+05   7.145600e+05
   6.619597e+04   4.654059e+05
   1.517159e+05  -1.061777e+05
   3.135506e+05  -2.942824e+05
   2.769847e+05   2.360966e+05
  -1.718131e+05   9.803863e+05
  -9.073074e+05   1.045395e+06
  -1.323005e+06   1.588178e+05
  -8.095215e+05  -9.055492e+05
   4.151924e+05  -1.108819e+06
   1.228068e+06  -3.082638e+05
   7.143573e+05   5.857623e+05
  -7.073158e+05   6.440375e+05
  -1.599940e+06  -1.154084e+05
  -1.020927e+06  -8.920370e+05
   4.914388e+05  -1.011225e+06
   1.530050e+06  -4.779242e+05
   1.256620e+06   2.096186e+05
   1.321292e+05   5.279532e+05
  -6.575813e+05   2.695945e+05
  -3.779361e+05  -2.881186e+05
   5.917578e+05  -4.964261e+05
   1.165459e+06   1.087877e+05
   6.316748e+05   1.179679e+06
  -6.234964e+05   1.667339e+06
  -1.490494e+06   8.440865e+05
  -1.236051e+06  -7.792316e+05
  -1.700248e+05  -1.793505e+06
   7.681387e+05  -1.289432e+06
   9.345621e+05   1.845390e+05
   4.231193e+05   1.207077e+06
  -2.308522e+05   9.849368e+05
  -5.654143e+05   8.405715e+04
  -4.656306e+05  -3.962746e+05
  -1.664469e+05  -1.535917e+05
  -5.018864e+04   1.013710e+05
  -2.704796e+05  -2.779617e+05
  -4.933368e+05  -9.650906e+05
  -1.815609e+05  -1.095793e+06
   7.115430e+05  -4.005885e+05
   1.468171e+06   4.895945e+05
   1.275353e+06   8.681534e+05
   1.780342e+05   7.006793e+05
  -8.644753e+05   3.949191e+05
  -9.929239e+05   1.660536e+05
  -3.607890e+05  -4.535665e+04
   1.499270e+05  -2.185155e+05
   3.800169e+04  -2.206696e+05
  -2.630549e+05  -1.153942e+05
  -4.531838e+04  -1.288283e+05
   6.657358e+05  -2.100087e+05
   1.040154e+06   2.513851e+04
   4.168319e+05   6.759775e+05
  -8.524029e+05   1.149098e+06
  -1.692841e+06   7.390503e+05
  -1.389584e+06  -4.342241e+05
  -2.532327e+05  -1.402640e+06
   7.768851e+05  -1.365942e+06
   1.045074e+06  -5.220614e+05
   6.446867e+05   2.438817e+05
   1.278756e+05   3.535576e+05
  -6.647605e+04   5.182971e+04
   8.904174e+04  -2.250013e+04
   3.011627e+05   3.759095e+05
   2.384887e+05   8.151850e+05
  -1.844358e+05   6.726853e+05
  -6.702277e+05  -1.322608e+05
  -7.175618e+05  -9.509395e+05
  -1.044254e+05  -1.016083e+06
   7.423547e+05  -2.308064e+05
   1.013639e+06   7.260281e+05
   3.369887e+05   1.082207e+06
  -7.089680e+05   6.663970e+05
  -1.111313e+06  -7.947398e+04
  -5.324785e+05  -6.086668e+05
   2.815943e+05  -6.740952e+05
   3.789994e+05  -3.734903e+05
  -2.426760e+05  -2.296314e+04
  -6.466938e+05   2.981908e+04
  -1.454274e+05  -3.048167e+05
   8.321441e+05  -6.690797e+05
   1.270617e+06  -5.360195e+05
   7.678563e+05   1.733435e+05
  -1.000716e+05   8.654959e+05
  -5.548630e+05   8.589093e+05
  -4.183830e+05   1.691140e+05
  -4.477254e+04  -4.722674e+05
   2.363117e+05  -4.304116e+05
   3.397532e+05   1.498501e+05
   2.480798e+05   5.765770e+05
  -4.677850e+04   4.238417e+05
  -3.852050e+05  -4.704807e+04
  -4.794695e+05  -2.812855e+05
  -2.474599e+05  -9.889797e+04
   4.151656e+04   1.457200e+05
   9.881621e+04   4.556521e+04
  -3.981474e+03  -3.376700e+05
   4.055972e+04  -5.295077e+05
   3.003134e+05  -2.113767e+05
   4.436755e+05   3.665607e+05
   1.523148e+05   6.287901e+05
  -4.036980e+05   3.061351e+05
  -6.548387e+05  -2.757778e+05
  -2.455743e+05  -5.678964e+05
   5.080809e+05  -3.640362e+05
   8.763113e+05   7.500850e+04
   4.753165e+05   3.772014e+05
  -2.882602e+05   3.986355e+05
  -6.301855e+05   2.275410e+05
  -2.501147e+05   2.493381e+04
   3.347549e+05  -5.623106e+04
   3.933821e+05   6.816416e+04
  -1.743964e+05   2.782036e+05
  -7.389796e+05   2.502341e+05
