
 $NMID
 id='ANONYMOUS ', fmtdat='(2E16.6)'
 volume=1.0
 tramp=1.0
 $END
   2.143104e+07   2.322105e+06
   1.220663e+07   1.266430e+07
  -2.722270e+06   1.352790e+07
  -1.021512e+07   6.499997e+06
  -6.778196e+06  -1.098959e+06
   5.571209e+05  -3.542238e+06
   3.977384e+06  -6.416888e+05
   2.026764e+06   3.576127e+06
  -1.812524e+06   4.714919e+06
  -3.902183e+06   1.550964e+06
  -2.944882e+06  -2.879221e+06
  -9.412809e+04  -4.078528e+06
   1.992029e+06  -8.435015e+05
   1.269480e+06   3.192680e+06
  -1.511913e+06   3.526832e+06
  -3.290567e+06  -2.304131e+05
  -1.911830e+06  -4.244627e+06
   1.593434e+06  -4.867534e+06
   4.246169e+06  -2.041039e+06
   4.101818e+06   1.510963e+06
   1.762445e+06   3.264449e+06
  -4.905429e+05   2.779342e+06
  -7.791988e+05   1.507617e+06
   6.207554e+05   1.215907e+06
   1.386111e+06   2.202476e+06
  -3.948094e+05   2.928314e+06
  -3.660330e+06   1.803349e+06
  -5.090206e+06  -7.412582e+05
  -2.889380e+06  -2.577968e+06
   9.034172e+05  -2.275024e+06
   2.660883e+06  -4.858465e+05
   1.183847e+06   1.076812e+06
  -1.403540e+06   1.265121e+06
  -2.426760e+06   8.631190e+03
  -1.320294e+06  -1.806887e+06
   4.805982e+05  -2.617635e+06
   1.356136e+06  -1.376097e+06
   8.512414e+05   8.778728e+05
  -1.986348e+05   1.610098e+06
  -5.088365e+05  -1.166697e+05
   3.699399e+05  -2.020112e+06
   1.420636e+06  -1.364953e+06
   1.163045e+06   1.223499e+06
  -5.352243e+05   2.358184e+06
  -2.030705e+06   3.459163e+05
  -1.583529e+06  -2.571812e+06
   7.375092e+05  -3.086430e+06
   3.030218e+06  -7.179719e+05
   3.300756e+06   2.083891e+06
   1.206254e+06   2.934884e+06
  -1.620204e+06   1.606376e+06
  -2.875519e+06  -4.299850e+05
  -1.606872e+06  -1.540745e+06
   8.061658e+05  -1.074201e+06
   1.962953e+06   2.661125e+05
   9.631719e+05   1.054489e+06
  -6.965242e+05   5.655830e+05
  -1.015667e+06  -4.452999e+05
   1.307024e+05  -7.033112e+05
   1.039674e+06   3.328145e+04
   3.944662e+05   8.276044e+05
  -1.208964e+06   7.811924e+05
  -2.038530e+06  -1.566022e+05
  -1.062926e+06  -1.450777e+06
   1.146654e+06  -2.365707e+06
   3.001076e+06  -2.097748e+06
   3.209376e+06  -3.421273e+05
   1.800234e+06   1.958088e+06
   4.580724e+04   3.114422e+06
  -7.678664e+05   2.453002e+06
  -5.741518e+05   1.110374e+06
  -3.762585e+05   5.634903e+05
  -8.936854e+05   7.865024e+05
  -1.697073e+06   5.492024e+05
  -1.816855e+06  -6.602859e+05
  -8.922809e+05  -1.802543e+06
   4.972590e+05  -1.569904e+06
   1.388002e+06   1.632888e+04
   1.115235e+06   1.600759e+06
  -2.404841e+05   1.845068e+06
  -1.742692e+06   5.925866e+05
  -2.171680e+06  -1.123390e+06
  -1.157061e+06  -2.046780e+06
   3.315942e+05  -1.767135e+06
   1.023008e+06  -9.477980e+05
   8.274679e+05  -4.882660e+05
   8.177181e+05  -5.253379e+05
   1.646252e+06  -4.079527e+05
   2.499744e+06   4.010871e+05
   2.017764e+06   1.639534e+06
   1.743987e+04   2.484707e+06
  -2.106452e+06   2.273752e+06
  -2.730056e+06   1.001840e+06
  -1.555588e+06  -6.047599e+05
   1.868135e+05  -1.473086e+06
   9.573886e+05  -1.025927e+06
   3.174486e+05   1.399922e+05
  -7.859200e+05   7.230285e+05
  -1.100693e+06   1.504114e+05
  -3.867099e+05  -7.169484e+05
   4.388232e+05  -6.803935e+05
   4.243355e+05   2.050612e+05
  -3.734652e+05   6.558882e+05
  -1.050590e+06  -1.951483e+05
  -8.305073e+05  -1.663532e+06
   2.860759e+05  -2.261055e+06
   1.620443e+06  -1.297417e+06
   2.293172e+06   5.027420e+05
   1.775590e+06   1.798379e+06
   3.640945e+05   1.822693e+06
  -8.818225e+05   9.038232e+05
  -1.040062e+06   4.039626e+04
  -3.036024e+05  -4.166068e+04
   2.091770e+05   4.641206e+05
  -2.228288e+05   7.373278e+05
  -1.050136e+06   2.923310e+05
  -1.155920e+06  -4.729725e+05
  -2.627620e+05  -7.779321e+05
   6.960997e+05  -3.625199e+05
   6.401009e+05   2.784396e+05
  -4.465636e+05   4.690922e+05
  -1.468670e+06  -2.209762e+04
  -1.311607e+06  -8.525648e+05
   4.954984e+04  -1.380818e+06
   1.480848e+06  -1.113441e+06
   1.746033e+06  -1.514375e+05
   7.037233e+05   7.468078e+05
  -5.610364e+05   7.992869e+05
  -8.475954e+05   4.693019e+04
  -2.987142e+04  -6.097073e+05
   9.280586e+05  -3.931709e+05
   1.048356e+06   4.621878e+05
   2.786228e+05   1.006110e+06
  -5.971333e+05   6.828917e+05
  -7.930417e+05  -8.317902e+04
  -2.316412e+05  -4.361462e+05
   4.252383e+05  -3.320963e+04
   3.996369e+05   6.492628e+05
  -4.191047e+05   8.455998e+05
  -1.264122e+06   2.470448e+05
  -1.210256e+06  -7.182574e+05
  -1.848117e+05  -1.270420e+06
   8.847314e+05  -9.753079e+05
   1.049572e+06  -1.322847e+05
   3.343943e+05   5.207081e+05
  -3.978798e+05   5.095279e+05
  -4.569749e+05   3.138966e+04
   1.982885e+04  -3.294356e+05
   3.911201e+05  -2.416035e+05
   2.603773e+05   6.131733e+04
  -1.697354e+05   9.514518e+04
  -3.518899e+05  -2.938731e+05
   6.298278e+04  -7.004927e+05
   8.383300e+05  -5.464008e+05
   1.276084e+06   2.850033e+05
   8.551426e+05   1.229268e+06
  -1.907220e+05   1.521745e+06
  -1.044571e+06   9.260617e+05
  -1.128298e+06  -4.492794e+04
  -6.473038e+05  -6.470128e+05
  -2.364286e+05  -6.044084e+05
  -1.979530e+05  -2.746321e+05
  -2.568566e+05  -1.717493e+05
  -1.614370e+04  -3.972305e+05
   5.227146e+05  -5.596584e+05
   9.265610e+05  -2.381039e+05
   7.291185e+05   4.881929e+05
  -1.209545e+05   1.001032e+06
  -1.100945e+06   7.045176e+05
  -1.428699e+06  -3.267016e+05
  -7.179962e+05  -1.307112e+06
   5.869200e+05  -1.435234e+06
   1.528404e+06  -6.479542e+05
   1.488746e+06   3.566520e+05
   7.079008e+05   8.398614e+05
  -6.337140e+04   7.008230e+05
  -3.323860e+05   4.275146e+05
  -2.246966e+05   4.636561e+05
  -1.792066e+05   7.187536e+05
  -4.253690e+05   7.107951e+05
  -7.641909e+05   1.402834e+05
  -7.841613e+05  -7.163334e+05
  -2.888483e+05  -1.200676e+06
   4.363069e+05  -8.816497e+05
   8.098856e+05   1.074702e+04
   5.005750e+05   7.697997e+05
  -2.004509e+05   8.472747e+05
  -6.392856e+05   3.096954e+05
  -4.685999e+05  -3.150715e+05
   1.109687e+04  -5.826314e+05
   2.299299e+05  -4.830467e+05
   1.009577e+04  -3.029462e+05
  -2.409045e+05  -2.478782e+05
  -1.398654e+04  -2.522780e+05
   6.768409e+05  -1.166700e+05
   1.215841e+06   2.344996e+05
   9.787814e+05   6.420775e+05
   1.307018e+04   8.309966e+05
  -9.305804e+05   6.414154e+05
  -1.111936e+06   1.820426e+05
  -5.286246e+05  -2.259840e+05
   1.395780e+05  -2.988669e+05
   2.899660e+05  -4.783507e+04
  -2.569840e+04   2.054253e+05
  -3.158176e+05   1.342400e+05
  -2.798004e+05  -2.281867e+05
  -6.776221e+04  -4.832042e+05
   2.072880e+04  -3.108882e+05
  -9.292299e+04   1.068377e+05
  -2.336149e+05   2.421436e+05
  -1.796433e+05  -1.423144e+05
   1.470257e+05  -6.393553e+05
   5.847316e+05  -6.287222e+05
   7.717592e+05  -2.112680e+04
   4.234230e+05   6.006692e+05
  -2.925580e+05   6.324266e+05
  -7.491883e+05   1.051705e+05
  -4.338246e+05  -4.008423e+05
   4.350278e+05  -4.011616e+05
   1.020296e+06   5.610957e+04
   7.035293e+05   5.388746e+05
  -2.518493e+05   6.627153e+05
  -9.628974e+05   3.668664e+05
  -8.299939e+05  -9.158165e+04
  -1.102754e+05  -3.402612e+05
   4.028116e+05  -1.869777e+05
   2.088674e+05   1.728383e+05
  -4.160168e+05   2.801357e+05
  -7.367855e+05  -1.350671e+05
  -3.276687e+05  -7.907496e+05
   4.934027e+05  -1.031802e+06
   9.964175e+05  -4.713022e+05
   7.686649e+05   5.384300e+05
   7.041841e+04   1.153075e+06
  -5.013248e+05   8.352030e+05
  -5.903665e+05  -9.153636e+04
  -2.867800e+05  -7.560138e+05
   1.041162e+05  -6.365261e+05
   3.387444e+05  -6.211918e+04
   3.280360e+05   2.582350e+05
   1.476771e+05   1.032553e+05
   1.438866e+04  -7.242339e+04
   1.001035e+05   1.666358e+05
   2.708427e+05   6.129793e+05
   1.493280e+05   6.946190e+05
  -3.977304e+05   2.371399e+05
  -9.312262e+05  -3.348793e+05
  -8.413865e+05  -5.603491e+05
  -1.042335e+05  -4.355640e+05
   5.978137e+05  -2.403051e+05
   6.441434e+05  -1.075909e+05
   1.865682e+05   1.874566e+04
  -1.165475e+05   1.352464e+05
   2.707412e+04   1.518289e+05
   2.239468e+05   9.389984e+04
   6.348952e+03   9.080575e+04
  -4.876175e+05   1.124765e+05
  -6.555405e+05  -5.668369e+04
  -1.693036e+05  -4.475727e+05
   6.240537e+05  -6.886180e+05
   1.063093e+06  -3.811808e+05
   8.119199e+05   3.535347e+05
   1.084785e+05   9.085739e+05
  -5.146955e+05   8.255528e+05
  -6.819199e+05   2.695271e+05
  -4.171134e+05  -1.974166e+05
  -4.961271e+04  -2.316065e+05
   9.605297e+04  -1.137742e+04
  -3.142836e+04   4.336697e+04
  -2.021538e+05  -2.235199e+05
  -1.522405e+05  -5.165332e+05
   1.467660e+05  -4.128657e+05
   4.398850e+05   1.331387e+05
   4.078737e+05   6.624048e+05
  -1.799939e+04   6.544720e+05
  -5.188433e+05   8.548720e+04
  -6.176975e+05  -5.360919e+05
  -1.512205e+05  -6.997432e+05
   4.839405e+05  -3.682275e+05
   6.805875e+05   1.003373e+05
   2.843324e+05   3.725082e+05
  -2.038470e+05   3.732921e+05
  -2.116685e+05   2.058133e+05
   2.022437e+05   2.745930e+04
   4.240690e+05   2.734703e+03
   6.623249e+04   1.919977e+05
  -5.431563e+05   4.080889e+05
  -7.719410e+05   3.305539e+05
  -4.280217e+05  -1.056273e+05
   9.494960e+04  -5.284945e+05
   3.394159e+05  -5.009824e+05
   2.325288e+05  -5.213053e+04
  -3.868236e+03   3.248799e+05
  -1.760279e+05   2.437514e+05
  -2.235456e+05  -1.438947e+05
  -1.352066e+05  -3.752565e+05
   6.142067e+04  -2.328627e+05
   2.453454e+05   5.879856e+04
   2.747611e+05   1.666715e+05
   1.473544e+05   4.422326e+04
   6.095503e+03  -6.665893e+04
  -4.445476e+04   3.418916e+04
  -5.703800e+04   2.541443e+05
  -1.319161e+05   3.093293e+05
  -2.403259e+05   5.732270e+04
  -2.284017e+05  -3.068721e+05
  -7.594435e+03  -4.270980e+05
   2.904515e+05  -1.671826e+05
   3.863083e+05   2.277318e+05
   1.221455e+05   3.887371e+05
  -3.217001e+05   2.068292e+05
  -5.333078e+05  -9.756460e+04
  -2.782061e+05  -2.569621e+05
   2.019600e+05  -2.133521e+05
   4.042772e+05  -8.511911e+04
   1.285944e+05   6.107035e+03
  -2.671972e+05   3.708220e+03
  -2.764259e+05  -9.652585e+04
   1.490103e+05  -2.078175e+05
   5.370280e+05  -1.499824e+05
