
 $NMID
 id='ANONYMOUS ', fmtdat='(2E16.6)'
 volume=1.0
 tramp=1.0
 $END
  -1.733446e+07  -1.869587e+06
  -1.097873e+07  -8.073000e+06
   2.188649e+05  -1.040197e+07
   7.521914e+06  -7.702066e+06
   6.667079e+06  -1.544957e+06
   7.640665e+05   3.155784e+06
  -3.730480e+06   2.198416e+06
  -3.226353e+06  -2.772841e+06
   5.846031e+05  -5.533403e+06
   3.472380e+06  -2.582439e+06
   2.969524e+06   2.659030e+06
   1.400823e+05   4.195236e+06
  -2.018021e+06   6.041428e+05
  -1.465059e+06  -3.785279e+06
   1.150609e+06  -4.220762e+06
   3.131263e+06  -4.504848e+05
   2.246833e+06   3.715860e+06
  -9.874219e+05   4.581198e+06
  -3.645918e+06   1.863251e+06
  -3.367666e+06  -1.560512e+06
  -8.986835e+05  -2.751806e+06
   7.831522e+05  -1.591929e+06
  -1.014134e+05  -5.289628e+05
  -2.085966e+06  -1.461695e+06
  -2.141227e+06  -3.416604e+06
   8.441215e+05  -3.825433e+06
   4.607136e+06  -1.680920e+06
   5.622760e+06   1.369729e+06
   2.680183e+06   2.939748e+06
  -1.658915e+06   2.128543e+06
  -3.393988e+06  -1.241133e+05
  -1.111176e+06  -2.002504e+06
   2.525916e+06  -1.934671e+06
   3.685868e+06   2.784731e+05
   1.534999e+06   2.852849e+06
  -1.184091e+06   3.281809e+06
  -1.677272e+06   1.032346e+06
  -1.840662e+05  -1.461757e+06
   9.672769e+05  -1.394836e+06
   4.628674e+05   1.030755e+06
  -8.806081e+05   2.789908e+06
  -1.660839e+06   1.717685e+06
  -1.362489e+06  -9.309614e+05
  -2.751265e+05  -2.125598e+06
   9.343506e+05  -6.367175e+05
   1.225602e+06   1.759416e+06
  -2.018619e+05   2.445513e+06
  -2.579561e+06   6.838944e+05
  -3.599013e+06  -1.903238e+06
  -1.753088e+06  -3.097892e+06
   1.605547e+06  -2.085680e+06
   3.424589e+06   4.601806e+04
   2.219460e+06   1.476523e+06
  -4.619774e+05   1.279101e+06
  -1.935884e+06   6.006774e+04
  -1.165684e+06  -8.263098e+05
   5.602277e+05  -5.918693e+05
   1.270767e+06   3.879173e+05
   3.084524e+05   1.079519e+06
  -1.121030e+06   7.816958e+05
  -1.242713e+06  -2.495852e+05
   2.986165e+05  -9.859653e+05
   1.805392e+06  -5.112279e+05
   1.265033e+06   1.038847e+06
  -1.257321e+06   2.372509e+06
  -3.492114e+06   2.102194e+06
  -3.464220e+06   1.029632e+05
  -1.594919e+06  -2.245742e+06
   1.192352e+05  -3.328693e+06
   5.548530e+05  -2.803587e+06
   3.884137e+05  -1.722371e+06
   7.515416e+05  -1.162615e+06
   1.743109e+06  -9.910895e+05
   2.498187e+06  -2.449115e+05
   2.214349e+06   1.336137e+06
   8.254265e+05   2.583373e+06
  -9.612481e+05   2.061309e+06
  -2.001080e+06  -1.407796e+05
  -1.442521e+06  -2.190061e+06
   4.164654e+05  -2.291056e+06
   2.113015e+06  -4.892523e+05
   2.275553e+06   1.516384e+06
   9.694296e+05   2.206255e+06
  -4.504934e+05   1.587176e+06
  -8.777537e+05   7.647428e+05
  -6.073667e+05   5.652550e+05
  -8.021555e+05   7.947834e+05
  -1.934839e+06   6.580008e+05
  -3.002993e+06  -3.503466e+05
  -2.475370e+06  -1.912130e+06
  -6.252168e+04  -3.035188e+06
   2.617518e+06  -2.777195e+06
   3.423648e+06  -1.091351e+06
   1.842201e+06   9.303255e+05
  -4.484734e+05   1.847171e+06
  -1.326478e+06   1.146952e+06
  -3.611830e+05  -2.399542e+05
   1.019193e+06  -8.464205e+05
   1.295139e+06  -1.679241e+05
   3.813848e+05   8.318819e+05
  -6.046839e+05   8.378050e+05
  -6.510798e+05  -2.384686e+05
   2.768360e+05  -1.026926e+06
   1.333995e+06  -2.244825e+05
   1.458869e+06   1.765597e+06
   1.774367e+05   3.033685e+06
  -1.844283e+06   2.137538e+06
  -3.100549e+06  -3.207993e+05
  -2.508437e+06  -2.302861e+06
  -5.360847e+05  -2.414084e+06
   1.148736e+06  -1.132132e+06
   1.321978e+06  -2.178465e+03
   3.762014e+05   5.161321e+04
  -2.666216e+05  -5.663991e+05
   2.141447e+05  -8.627600e+05
   1.192201e+06  -3.718707e+05
   1.391613e+06   4.784468e+05
   3.869348e+05   8.911610e+05
  -8.313623e+05   4.856737e+05
  -8.686804e+05  -3.338959e+05
   5.044859e+05  -7.128663e+05
   1.935991e+06  -1.272977e+05
   1.820263e+06   1.061204e+06
   3.317404e+04   1.847926e+06
  -1.854437e+06   1.487706e+06
  -2.182937e+06   2.282638e+05
  -8.700680e+05  -8.709639e+05
   6.439624e+05  -9.201749e+05
   9.563612e+05  -5.530824e+04
   1.306873e+01   6.987518e+05
  -1.121139e+06   4.762115e+05
  -1.310263e+06  -5.202198e+05
  -4.338536e+05  -1.239423e+06
   6.735371e+05  -9.385484e+05
   1.016493e+06  -2.167831e+03
   3.694944e+05   5.111847e+05
  -4.753514e+05   6.651368e+04
  -4.761805e+05  -7.797147e+05
   5.313533e+05  -1.025504e+06
   1.560970e+06  -2.797729e+05
   1.478365e+06   8.928962e+05
   2.357586e+05   1.552299e+06
  -1.054211e+06   1.211782e+06
  -1.286209e+06   2.049058e+05
  -4.544076e+05  -6.265889e+05
   4.703060e+05  -6.576118e+05
   6.110234e+05  -3.394569e+04
   9.695592e+03   4.941861e+05
  -5.571605e+05   3.806237e+05
  -4.552286e+05  -1.112139e+05
   1.519066e+05  -2.434419e+05
   4.880818e+05   2.700266e+05
  -3.007642e+03   8.567751e+05
  -1.008778e+06   7.024778e+05
  -1.579392e+06  -3.306671e+05
  -1.059931e+06  -1.508502e+06
   2.316125e+05  -1.903754e+06
   1.307629e+06  -1.215711e+06
   1.468795e+06   7.386129e+03
   8.962268e+05   8.689470e+05
   3.107812e+05   8.969669e+05
   1.611434e+05   4.209658e+05
   2.314531e+05   1.679599e+05
   1.472653e+04   4.308997e+05
  -6.174879e+05   7.160646e+05
  -1.170634e+06   3.471484e+05
  -9.720205e+05  -6.259955e+05
   1.089264e+05  -1.323557e+06
   1.376030e+06  -9.343641e+05
   1.807169e+06   3.848018e+05
   9.456411e+05   1.606465e+06
  -6.477667e+05   1.785869e+06
  -1.843988e+06   8.700254e+05
  -1.893701e+06  -3.603249e+05
  -9.912002e+05  -1.046095e+06
   2.647432e+04  -9.676735e+05
   4.838176e+05  -6.093490e+05
   3.929951e+05  -5.529576e+05
   2.690946e+05  -8.136499e+05
   4.983700e+05  -8.312407e+05
   9.080640e+05  -1.633786e+05
   9.571762e+05   8.915237e+05
   3.526295e+05   1.492702e+06
  -5.490295e+05   1.094898e+06
  -1.014610e+06   4.685518e+03
  -6.494185e+05  -9.202421e+05
   1.873125e+05  -1.052751e+06
   7.331925e+05  -4.622423e+05
   5.860758e+05   2.838538e+05
   6.718716e+04   6.725080e+05
  -1.932781e+05   6.228679e+05
   2.200422e+04   4.172258e+05
   2.801902e+05   3.256953e+05
   5.526788e+03   3.203331e+05
  -8.089866e+05   1.622921e+05
  -1.466594e+06  -2.631198e+05
  -1.219437e+06  -7.613429e+05
  -8.042942e+04  -9.939364e+05
   1.083601e+06  -7.872482e+05
   1.359744e+06  -2.743568e+05
   6.862133e+05   2.049613e+05
  -1.384099e+05   3.391911e+05
  -3.427412e+05   9.334885e+04
   5.029032e+04  -2.074512e+05
   4.155291e+05  -1.507845e+05
   3.383903e+05   2.840376e+05
   2.624855e+04   6.104690e+05
  -7.877590e+04   3.844586e+05
   1.259486e+05  -1.707223e+05
   3.379245e+05  -3.443122e+05
   2.340215e+05   1.713019e+05
  -2.123349e+05   8.100690e+05
  -7.213470e+05   7.702606e+05
  -8.875929e+05  -4.117136e+03
  -4.592443e+05  -7.409292e+05
   3.577779e+05  -7.323287e+05
   8.865700e+05  -7.975788e+04
   5.280456e+05   5.156754e+05
  -5.270375e+05   5.122246e+05
  -1.297788e+06  -3.922833e+04
  -9.533402e+05  -6.624816e+05
   2.618418e+05  -8.784177e+05
   1.222113e+06  -5.368771e+05
   1.089726e+06   7.604433e+04
   1.660020e+05   4.403257e+05
  -4.973175e+05   2.617451e+05
  -2.436406e+05  -1.947751e+05
   5.416325e+05  -3.174836e+05
   9.065625e+05   2.115642e+05
   3.514899e+05   1.001840e+06
  -6.770286e+05   1.254901e+06
  -1.268990e+06   5.411393e+05
  -9.511874e+05  -6.967782e+05
  -7.327023e+04  -1.452837e+06
   6.342345e+05  -1.072118e+06
   7.523621e+05   8.191109e+04
   3.944045e+05   9.454840e+05
  -8.722955e+04   8.283079e+05
  -4.116014e+05   9.873444e+04
  -4.436110e+05  -3.360847e+05
  -2.218785e+05  -1.463469e+05
  -4.668550e+03   1.044769e+05
  -7.179661e+04  -1.757218e+05
  -3.169548e+05  -7.539833e+05
  -2.306435e+05  -8.839217e+05
   4.455468e+05  -3.101300e+05
   1.171945e+06   4.253040e+05
   1.095389e+06   7.097800e+05
   1.350039e+05   5.366236e+05
  -7.877959e+05   2.887017e+05
  -8.228744e+05   1.447172e+05
  -2.029370e+05   2.574342e+03
   1.614641e+05  -1.627325e+05
  -7.639111e+04  -2.183733e+05
  -3.253720e+05  -1.509792e+05
   1.254194e+04  -1.142877e+05
   6.609978e+05  -1.110981e+05
   8.098684e+05   9.232896e+04
   1.345750e+05   5.448347e+05
  -8.309708e+05   8.173895e+05
  -1.294263e+06   4.295399e+05
  -9.446193e+05  -4.734794e+05
  -1.029608e+05  -1.141714e+06
   6.382213e+05  -1.007924e+06
   8.497675e+05  -2.934971e+05
   5.217878e+05   2.800744e+05
   3.753439e+04   2.864274e+05
  -1.593657e+05  -2.039531e+04
   2.730971e+04  -8.839790e+04
   2.734044e+05   2.689475e+05
   2.026264e+05   6.478866e+05
  -1.976971e+05   5.012936e+05
  -5.527608e+05  -2.062565e+05
  -4.664453e+05  -8.615489e+05
   8.528340e+04  -8.053854e+05
   6.726620e+05  -4.960344e+04
   7.417683e+05   7.199197e+05
   1.460397e+05   8.694568e+05
  -6.139068e+05   4.152980e+05
  -8.221524e+05  -1.480462e+05
  -3.243794e+05  -4.345710e+05
   2.530842e+05  -4.194778e+05
   2.278313e+05  -2.465530e+05
  -2.923374e+05  -5.816542e+04
  -5.390713e+05  -1.870141e+04
  -6.535151e+04  -2.308973e+05
   6.845311e+05  -5.055596e+05
   9.346987e+05  -4.346004e+05
   4.927775e+05   1.015488e+05
  -1.296112e+05   6.399579e+05
  -3.930312e+05   6.048003e+05
  -2.456185e+05   3.416874e+04
   3.480782e+04  -4.202933e+05
   2.297467e+05  -2.768093e+05
   2.748666e+05   2.215113e+05
   1.553787e+05   4.711318e+05
  -8.795929e+04   2.533608e+05
  -3.014752e+05  -9.446258e+04
  -3.284653e+05  -1.850240e+05
  -1.846542e+05  -3.402397e+04
  -2.533737e+04   5.124209e+04
   6.114904e+04  -1.037563e+05
   1.312520e+05  -3.353485e+05
   2.418821e+05  -3.340562e+05
   3.184365e+05   5.309756e+03
   2.235174e+05   4.279580e+05
  -6.770203e+04   5.322875e+05
  -3.831634e+05   1.815911e+05
  -4.486584e+05  -3.149953e+05
  -1.229757e+05  -5.006304e+05
   3.930222e+05  -2.463903e+05
   6.380058e+05   1.479282e+05
   3.297200e+05   3.258796e+05
  -2.534918e+05   2.326976e+05
  -4.919433e+05   6.303073e+04
  -1.293405e+05  -1.381974e+04
   3.726019e+05   3.588925e+04
   3.552412e+05   1.708159e+05
  -2.270816e+05   2.785211e+05
  -7.292623e+05   1.687443e+05
