 This RAW file was created using the MATLAB spectral
 simulation program developed by Robin Simpson
 and Jamie Near, FMRIB 2010

 Experiment Name : press0.015_idealSim
 Investigator    : jnear
 Comment : Simulated LCModel basis set for ideal press experiment with echo time 0.015 ms

 User defined parameters:

 Sweep Width = 2000.0000 Hz
 Vector Size = 1024 points
 Apodization = 2.0000 Hz
 B0 Field    = 3.0000 T

 $NMID ID='NAA'
 FMTDAT='(2E16.6)'
 VOLUME=1.00000
 TRAMP=1.00000
 $END
   7.000000E+00  -4.813051E-16
   4.089323E+00   3.234754E+00
  -1.587610E+00   4.169590E+00
  -4.371979E+00   2.008232E+00
  -2.008904E+00  -1.660116E+00
   2.434741E+00  -3.666432E+00
   4.438434E+00  -1.978662E+00
   2.770435E+00   1.991720E+00
  -6.316567E-02   4.421399E+00
  -1.255047E+00   3.018870E+00
  -4.966967E-01  -3.786319E-01
   5.938373E-01  -1.848990E+00
   7.650663E-01   5.406867E-02
   1.763959E-01   2.666903E+00
  -3.580363E-01   2.591414E+00
  -3.396083E-01  -3.874433E-02
   2.124570E-01  -1.727849E+00
   8.582504E-01  -4.147675E-02
   8.032479E-01   3.239778E+00
  -5.282863E-01   4.171854E+00
  -2.464972E+00   1.370023E+00
  -3.075916E+00  -2.328433E+00
  -1.086498E+00  -3.111862E+00
   2.082590E+00  -3.510501E-01
   3.097628E+00   3.017401E+00
   2.886892E-01   3.818540E+00
  -3.933111E+00   1.643523E+00
  -5.202813E+00  -1.346734E+00
  -2.000950E+00  -2.787369E+00
   2.400837E+00  -1.916518E+00
   3.413844E+00   3.181475E-01
   1.898870E-01   2.141847E+00
  -3.576798E+00   2.066683E+00
  -3.934684E+00  -7.705051E-03
  -9.481129E-01  -2.384688E+00
   1.832848E+00  -2.801857E+00
   1.631329E+00  -7.414715E-01
  -7.338583E-01   1.644231E+00
  -2.337606E+00   1.617317E+00
  -1.598983E+00  -9.628290E-01
   3.737531E-01  -3.184668E+00
   1.480200E+00  -2.346780E+00
   8.669502E-01   7.189745E-01
  -6.226253E-01   2.417884E+00
  -1.573401E+00   6.069847E-01
  -1.157679E+00  -2.749044E+00
   4.113562E-01  -3.783666E+00
   1.978219E+00  -1.235079E+00
   2.114463E+00   2.104838E+00
   3.814218E-01   2.639592E+00
  -1.806110E+00  -1.853370E-02
  -2.139469E+00  -2.859868E+00
   1.429280E-01  -2.981607E+00
   2.964135E+00  -5.524371E-01
   3.287714E+00   1.823008E+00
   5.363464E-01   2.043487E+00
  -2.435633E+00   3.378542E-01
  -2.354936E+00  -1.475667E+00
   7.232228E-01  -1.866312E+00
   3.379120E+00  -6.738298E-01
   2.699372E+00   1.056844E+00
  -4.368476E-01   1.908500E+00
  -2.480160E+00   1.110113E+00
  -1.315549E+00  -7.015433E-01
   1.494640E+00  -1.764642E+00
   2.739988E+00  -7.960054E-01
   1.213062E+00   1.432216E+00
  -1.226201E+00   2.550407E+00
  -1.997468E+00   1.118303E+00
  -5.470962E-01  -1.483628E+00
   1.423407E+00  -2.314570E+00
   1.969441E+00  -2.202325E-01
   7.121549E-01   2.608820E+00
  -1.125938E+00   2.961821E+00
  -1.966713E+00   3.019789E-01
  -1.115296E+00  -2.511897E+00
   7.513157E-01  -2.417226E+00
   2.023000E+00   4.267712E-01
   1.406378E+00   2.904038E+00
  -7.665954E-01   2.456910E+00
  -2.509874E+00  -2.435791E-01
  -1.967878E+00  -2.306167E+00
   5.107705E-01  -1.825057E+00
   2.423884E+00   3.646504E-01
   1.676990E+00   1.939232E+00
  -1.003308E+00   1.541677E+00
  -2.704751E+00  -1.666820E-01
  -1.545696E+00  -1.484135E+00
   1.156454E+00  -1.304337E+00
   2.356497E+00   7.128263E-02
   7.523148E-01   1.325728E+00
  -1.765971E+00   1.248218E+00
  -2.330692E+00  -1.906220E-01
  -3.423407E-01  -1.653510E+00
   1.962168E+00  -1.560798E+00
   2.095029E+00   2.477352E-01
  -7.046569E-03   2.039585E+00
  -2.095364E+00   1.796288E+00
  -2.089699E+00  -5.162281E-01
  -1.047700E-01  -2.599258E+00
   1.898508E+00  -2.140489E+00
   2.116298E+00   5.734131E-01
   4.675703E-01   2.776387E+00
  -1.520681E+00   2.149857E+00
  -2.118045E+00  -6.422085E-01
  -8.345149E-01  -2.674457E+00
   1.177884E+00  -1.929066E+00
   2.088822E+00   6.308552E-01
   1.033985E+00   2.277841E+00
  -9.823833E-01   1.490750E+00
  -1.954772E+00  -6.235550E-01
  -8.897443E-01  -1.774533E+00
   1.068629E+00  -9.494640E-01
   1.776162E+00   7.509009E-01
   4.342648E-01   1.493027E+00
  -1.450177E+00   6.070719E-01
  -1.701936E+00  -8.958437E-01
   4.050322E-02  -1.453934E+00
   1.842091E+00  -4.818016E-01
   1.616230E+00   1.097105E+00
  -5.035497E-01   1.711901E+00
  -2.260411E+00   6.304342E-01
  -1.734694E+00  -1.244570E+00
   5.776241E-01  -2.098107E+00
   2.314575E+00  -9.440163E-01
   1.738386E+00   1.248564E+00
  -5.292812E-01   2.335652E+00
  -2.241010E+00   1.127964E+00
  -1.800853E+00  -1.271765E+00
   2.610722E-01  -2.471855E+00
   1.936627E+00  -1.243828E+00
   1.704262E+00   1.153932E+00
  -1.006924E-01   2.265722E+00
  -1.698339E+00   1.009307E+00
  -1.580015E+00  -1.224864E+00
   7.792202E-02  -2.099497E+00
   1.605305E+00  -7.937163E-01
   1.472723E+00   1.223524E+00
  -1.771272E-01   1.831385E+00
  -1.638079E+00   4.708871E-01
  -1.363919E+00  -1.370924E+00
   4.037440E-01  -1.779838E+00
   1.830992E+00  -3.667043E-01
   1.389538E+00   1.408072E+00
  -5.093285E-01   1.755330E+00
  -1.907848E+00   3.382441E-01
  -1.345725E+00  -1.426346E+00
   6.060116E-01  -1.789048E+00
   1.947032E+00  -3.962238E-01
   1.331494E+00   1.365165E+00
  -5.680576E-01   1.748931E+00
  -1.805367E+00   3.982387E-01
  -1.175575E+00  -1.295612E+00
   5.990268E-01  -1.613236E+00
   1.674327E+00  -2.720588E-01
   9.873339E-01   1.292915E+00
  -6.931196E-01   1.440022E+00
  -1.594578E+00   4.345873E-02
  -7.742340E-01  -1.389109E+00
   9.066972E-01  -1.321492E+00
   1.662293E+00   1.880952E-01
   6.386970E-01   1.550108E+00
  -1.151985E+00   1.305727E+00
  -1.829111E+00  -3.538173E-01
  -5.999463E-01  -1.765461E+00
   1.352548E+00  -1.468813E+00
   2.033995E+00   3.151859E-01
   6.960462E-01   1.868005E+00
  -1.357843E+00   1.642368E+00
  -2.084117E+00  -2.040936E-01
  -7.723849E-01  -1.914406E+00
   1.263992E+00  -1.818072E+00
   2.049609E+00   1.477542E-02
   9.077564E-01   1.801647E+00
  -9.611168E-01   1.797889E+00
  -1.756131E+00   5.214251E-02
  -8.274351E-01  -1.640843E+00
   8.071218E-01  -1.589220E+00
   1.552915E+00   5.472293E-02
   7.788278E-01   1.505391E+00
  -6.520589E-01   1.276523E+00
  -1.285531E+00  -2.601302E-01
  -5.115876E-01  -1.361449E+00
   8.351362E-01  -8.536099E-01
   1.307008E+00   6.319314E-01
   3.399073E-01   1.429616E+00
  -1.085032E+00   6.793363E-01
  -1.394785E+00  -7.936244E-01
  -1.205586E-01  -1.419799E+00
   1.466247E+00  -5.363207E-01
   1.610541E+00   9.821364E-01
  -1.157457E-03   1.643563E+00
  -1.766886E+00   7.895398E-01
  -1.804247E+00  -8.094663E-01
   4.512953E-03  -1.678736E+00
   1.822092E+00  -9.786706E-01
   1.786452E+00   7.080170E-01
  -3.156317E-02   1.840317E+00
  -1.758927E+00   1.306437E+00
  -1.724656E+00  -4.651555E-01
  -1.210299E-01  -1.797829E+00
   1.366772E+00  -1.361906E+00
   1.369550E+00   4.287322E-01
   9.349426E-02   1.748152E+00
  -1.110986E+00   1.237356E+00
  -1.168510E+00  -5.215709E-01
  -1.958419E-01  -1.614707E+00
   7.892639E-01  -9.004121E-01
   8.767318E-01   7.344648E-01
   4.704769E-02   1.410519E+00
  -8.536119E-01   4.015663E-01
  -8.883186E-01  -1.078666E+00
   5.601384E-02  -1.318452E+00
   1.046170E+00  -6.170319E-02
   9.513674E-01   1.260925E+00
  -3.112508E-01   1.186852E+00
  -1.477170E+00  -1.932742E-01
  -1.161439E+00  -1.427373E+00
   5.321560E-01  -1.284722E+00
   1.888579E+00   5.559151E-02
   1.346077E+00   1.312957E+00
  -6.895545E-01   1.368093E+00
  -2.121684E+00   2.018397E-01
  -1.395354E+00  -1.177962E+00
   7.681999E-01  -1.586063E+00
   2.127720E+00  -6.159883E-01
   1.340351E+00   9.580287E-01
  -6.664004E-01   1.727907E+00
  -1.816823E+00   8.948940E-01
  -1.111545E+00  -8.395363E-01
   5.113256E-01  -1.786712E+00
   1.393412E+00  -9.448061E-01
   8.739337E-01   8.500927E-01
  -2.998275E-01   1.708242E+00
  -9.698779E-01   7.305536E-01
  -6.740791E-01  -9.591264E-01
   1.477749E-01  -1.467056E+00
   7.149720E-01  -2.903590E-01
   5.570753E-01   1.135215E+00
  -1.632173E-01   1.149755E+00
  -7.633809E-01  -1.986511E-01
  -5.905177E-01  -1.280909E+00
   2.930878E-01  -8.474054E-01
   9.884126E-01   5.537540E-01
   6.061985E-01   1.305601E+00
  -6.330387E-01   6.009018E-01
  -1.397187E+00  -7.458840E-01
  -6.548463E-01  -1.321109E+00
   9.825399E-01  -6.201628E-01
   1.722940E+00   5.928351E-01
   5.909101E-01   1.190093E+00
  -1.308694E+00   7.064062E-01
  -1.895233E+00  -4.081323E-01
  -4.536725E-01  -1.240675E+00
   1.500276E+00  -1.082486E+00
   1.889674E+00   3.280602E-02
   3.662315E-01   1.215984E+00
  -1.390183E+00   1.333959E+00
  -1.594205E+00   1.012224E-01
  -2.155782E-01  -1.397608E+00
   1.216658E+00  -1.610136E+00
   1.369972E+00  -1.797390E-01
   3.444053E-01   1.477414E+00
  -7.364963E-01   1.588981E+00
  -9.659814E-01   1.412628E-02
  -3.359003E-01  -1.519821E+00
   5.180236E-01  -1.339340E+00
   9.178318E-01   2.786905E-01
   5.719488E-01   1.470634E+00
  -2.415477E-01   9.678912E-01
  -7.991995E-01  -5.033349E-01
  -5.029770E-01  -1.197215E+00
   4.331256E-01  -4.140716E-01
   1.010517E+00   8.158754E-01
   4.717552E-01   1.079171E+00
  -6.985035E-01   1.919331E-01
  -1.140438E+00  -7.665879E-01
  -1.912017E-01  -7.896432E-01
   1.162397E+00   4.063392E-02
   1.291802E+00   8.447461E-01
  -1.236698E-01   9.166796E-01
  -1.567070E+00   2.625596E-01
  -1.365885E+00  -5.718944E-01
   3.329006E-01  -9.394894E-01
   1.673132E+00  -4.836394E-01
   1.194545E+00   5.461496E-01
  -5.434529E-01   1.290557E+00
  -1.671717E+00   9.231977E-01
  -1.113422E+00  -4.132390E-01
   3.763000E-01  -1.468037E+00
   1.236524E+00  -1.061912E+00
   7.853923E-01   5.168755E-01
  -3.100820E-01   1.621232E+00
  -9.736376E-01   1.007694E+00
  -7.658220E-01  -6.885271E-01
  -3.759163E-02  -1.596127E+00
   5.775588E-01  -7.376687E-01
   6.360972E-01   8.479038E-01
   9.974972E-02   1.342329E+00
  -6.043283E-01   2.621051E-01
  -8.011400E-01  -1.062936E+00
  -1.767287E-01  -1.129019E+00
   7.249126E-01   2.667444E-02
   8.915101E-01   1.016530E+00
  -1.785732E-02   7.855603E-01
  -1.078445E+00  -2.890300E-01
