 This RAW file was created using the MATLAB spectral
 simulation program developed by Robin Simpson
 and Jamie Near, FMRIB 2010

 Experiment Name : press0.015_idealSim
 Investigator    : jnear
 Comment : Simulated LCModel basis set for ideal press experiment with echo time 0.015 ms

 User defined parameters:

 Sweep Width = 2000.0000 Hz
 Vector Size = 1024 points
 Apodization = 2.0000 Hz
 B0 Field    = 3.0000 T

 $NMID ID='NAAG'
 FMTDAT='(2E16.6)'
 VOLUME=1.00000
 TRAMP=1.00000
 $END
   1.300000E+01  -1.226123E-15
   7.239835E+00   5.727147E+00
  -3.421708E+00   7.767793E+00
  -7.626124E+00   3.724645E+00
  -2.489849E+00  -3.935013E+00
   4.938245E+00  -7.732210E+00
   7.459239E+00  -2.811383E+00
   4.559227E+00   6.049210E+00
  -5.489040E-02   9.057444E+00
  -3.198961E+00   3.267460E+00
  -3.231032E+00  -3.976842E+00
  -2.634339E-02  -4.616664E+00
   3.744737E+00   6.515743E-01
   3.817453E+00   4.796282E+00
  -5.964028E-01   3.634772E+00
  -4.591241E+00  -5.801784E-01
  -3.094976E+00  -3.406600E+00
   2.393281E+00  -2.819716E+00
   5.381540E+00   2.382994E-01
   2.463031E+00   3.181322E+00
  -2.827821E+00   3.202913E+00
  -4.711466E+00  -4.167804E-01
  -1.517017E+00  -4.646729E+00
   3.519289E+00  -5.089024E+00
   6.049813E+00  -9.561093E-01
   4.171307E+00   3.660388E+00
  -3.957106E-01   4.337275E+00
  -3.519613E+00   9.665171E-01
  -2.109211E+00  -2.882315E+00
   2.540615E+00  -3.936404E+00
   5.691201E+00  -1.597610E+00
   4.352324E+00   2.291647E+00
   5.396168E-01   4.667056E+00
  -1.639969E+00   3.320188E+00
  -8.701810E-01  -5.834168E-01
   9.679222E-01  -2.825652E+00
   2.087893E+00  -7.279811E-01
   2.224949E+00   3.185873E+00
   1.311843E+00   4.138586E+00
  -6.450910E-01   1.329432E+00
  -2.097980E+00  -1.280844E+00
  -9.749551E-01  -6.859455E-01
   1.862288E+00   1.447528E+00
   2.626399E+00   2.039253E+00
  -2.807523E-01   1.013586E+00
  -3.319425E+00   2.539908E-01
  -2.360836E+00   3.672571E-02
   1.385188E+00  -6.361818E-01
   3.000243E+00  -1.156669E+00
   7.617114E-01   4.931468E-02
  -1.884877E+00   2.045879E+00
  -1.680138E+00   1.758180E+00
   2.970655E-01  -1.236846E+00
   1.286978E+00  -3.185502E+00
   1.004849E+00  -1.250439E+00
   8.632407E-01   2.155873E+00
   8.734945E-01   2.628761E+00
   8.071407E-02  -9.095889E-02
  -7.895180E-01  -2.118535E+00
   2.165664E-02  -1.076578E+00
   2.004586E+00   1.160741E+00
   2.398115E+00   1.843812E+00
   2.730719E-01   9.230277E-01
  -1.687582E+00   3.635304E-02
  -8.655285E-01  -1.514351E-01
   1.560666E+00   1.988167E-02
   2.335583E+00   5.630828E-01
   5.477647E-01   1.490781E+00
  -1.542166E+00   1.819149E+00
  -1.725279E+00   6.417767E-01
  -2.180748E-01  -1.039157E+00
   1.267833E+00  -1.143874E+00
   1.461549E+00   6.571249E-01
   2.442268E-01   2.280965E+00
  -1.464002E+00   1.823931E+00
  -2.139426E+00  -2.084410E-01
  -9.112428E-01  -1.756492E+00
   1.168347E+00  -1.496851E+00
   1.908024E+00   1.776841E-01
   5.075565E-01   1.759068E+00
  -1.409758E+00   1.761283E+00
  -1.790668E+00  -3.796743E-02
  -4.779603E-01  -1.988550E+00
   1.035849E+00  -1.915458E+00
   1.486135E+00   2.926728E-01
   7.299264E-01   2.147239E+00
  -6.087187E-01   1.448499E+00
  -1.463288E+00  -9.008377E-01
  -7.915573E-01  -2.052712E+00
   1.163500E+00  -8.095369E-01
   2.362220E+00   1.195225E+00
   1.026747E+00   1.872759E+00
  -1.719566E+00   9.306860E-01
  -2.661003E+00  -5.508650E-01
  -4.640670E-01  -1.527864E+00
   2.406688E+00  -1.331982E+00
   2.673551E+00   2.469762E-01
   2.052050E-01   2.193410E+00
  -2.178718E+00   2.445829E+00
  -2.266024E+00   1.780848E-01
  -5.006724E-01  -2.502494E+00
   1.296812E+00  -2.558201E+00
   1.870310E+00   2.079592E-01
   9.808324E-01   2.686767E+00
  -7.905373E-01   2.196767E+00
  -2.060588E+00  -4.271340E-01
  -1.458412E+00  -2.191664E+00
   6.945417E-01  -1.529050E+00
   2.153797E+00   4.230591E-01
   1.164563E+00   1.617074E+00
  -1.221443E+00   1.141593E+00
  -2.214486E+00  -3.982026E-01
  -6.401688E-01  -1.618319E+00
   1.680238E+00  -1.342256E+00
   2.156869E+00   3.839375E-01
   3.359582E-01   1.976241E+00
  -1.838577E+00   1.636679E+00
  -2.212746E+00  -5.829756E-01
  -4.510189E-01  -2.478701E+00
   1.821103E+00  -1.958794E+00
   2.505209E+00   5.883496E-01
   8.724180E-01   2.628291E+00
  -1.666746E+00   2.136501E+00
  -2.713588E+00  -3.836224E-01
  -1.182490E+00  -2.507306E+00
   1.492312E+00  -2.262864E+00
   2.701338E+00   6.769695E-02
   1.291013E+00   2.262899E+00
  -1.291707E+00   2.243495E+00
  -2.507136E+00   5.722538E-02
  -1.242335E+00  -2.129872E+00
   1.179282E+00  -2.152573E+00
   2.358684E+00  -2.334166E-02
   1.157040E+00   2.083211E+00
  -1.209203E+00   2.042776E+00
  -2.361335E+00  -9.146610E-02
  -1.121718E+00  -2.171724E+00
   1.289106E+00  -2.096095E+00
   2.465628E+00   1.124098E-01
   1.218674E+00   2.292338E+00
  -1.268065E+00   2.250325E+00
  -2.612190E+00  -2.494555E-02
  -1.503623E+00  -2.299918E+00
   1.063913E+00  -2.345029E+00
   2.676552E+00  -1.782889E-01
   1.742478E+00   2.050194E+00
  -8.978956E-01   2.285068E+00
  -2.656557E+00   4.681479E-01
  -1.773086E+00  -1.641478E+00
   7.975553E-01  -2.180347E+00
   2.375712E+00  -7.338915E-01
   1.455670E+00   1.368422E+00
  -7.777068E-01   2.145066E+00
  -1.957698E+00   7.684000E-01
  -1.097719E+00  -1.424217E+00
   6.911712E-01  -2.080481E+00
   1.644147E+00  -3.884923E-01
   9.833563E-01   1.819663E+00
  -6.506395E-01   2.045705E+00
  -1.800380E+00   2.753140E-02
  -1.287679E+00  -1.974541E+00
   6.449659E-01  -1.822829E+00
   2.171930E+00   2.082223E-01
   1.510475E+00   2.011244E+00
  -9.566671E-01   1.944671E+00
  -2.724202E+00   1.871754E-01
  -1.833048E+00  -1.717868E+00
   8.492935E-01  -2.163971E+00
   2.560965E+00  -6.817103E-01
   1.666656E+00   1.532721E+00
  -7.819762E-01   2.417624E+00
  -2.401539E+00   9.918288E-01
  -1.842363E+00  -1.427703E+00
   2.145293E-01  -2.436585E+00
   1.877194E+00  -1.094768E+00
   1.689294E+00   1.119802E+00
  -1.064176E-01   2.006060E+00
  -1.719826E+00   8.860573E-01
  -1.533813E+00  -9.772936E-01
   1.682449E-01  -1.790582E+00
   1.504949E+00  -8.429269E-01
   1.133553E+00   9.205667E-01
  -3.411453E-01   1.703400E+00
  -1.288304E+00   5.948541E-01
  -8.822070E-01  -1.268838E+00
   3.423402E-01  -1.729677E+00
   1.279599E+00  -1.298820E-01
   1.097414E+00   1.722523E+00
  -2.545602E-01   1.682835E+00
  -1.710898E+00  -1.117250E-01
  -1.652697E+00  -1.572779E+00
   2.937001E-01  -1.313224E+00
   2.211387E+00   4.230671E-02
   1.750766E+00   1.152231E+00
  -8.220340E-01   1.403119E+00
  -2.602729E+00   7.595604E-01
  -1.594606E+00  -6.154177E-01
   8.266539E-01  -1.838592E+00
   1.878559E+00  -1.469634E+00
   8.597701E-01   6.285830E-01
  -5.912591E-01   2.300008E+00
  -1.105495E+00   1.401310E+00
  -8.623900E-01  -1.178082E+00
  -3.517773E-01  -2.345366E+00
   4.529398E-01  -8.128759E-01
   1.172950E+00   1.284721E+00
   7.819611E-01   1.424097E+00
  -7.213835E-01  -9.003600E-02
  -1.558897E+00  -1.094747E+00
  -3.977506E-01  -6.909863E-01
   1.438290E+00   1.272709E-01
   1.501638E+00   4.482694E-01
  -3.520549E-01   4.204965E-01
  -1.681768E+00   2.392456E-01
  -8.094190E-01  -3.246957E-01
   1.042434E+00  -9.446046E-01
   1.630466E+00  -6.040733E-01
   5.337939E-01   7.796793E-01
  -8.292699E-01   1.633692E+00
  -1.225189E+00   6.569354E-01
  -5.989057E-01  -1.191807E+00
   4.766759E-01  -1.744356E+00
   1.287256E+00  -3.684700E-01
   1.110303E+00   1.362535E+00
  -1.434335E-01   1.697816E+00
  -1.380378E+00   5.191311E-01
  -1.262747E+00  -9.537434E-01
   1.394174E-01  -1.479426E+00
   1.327613E+00  -6.553553E-01
   1.166531E+00   8.287858E-01
   4.568303E-02   1.577376E+00
  -8.993533E-01   7.648551E-01
  -1.012053E+00  -7.550043E-01
  -3.237133E-01  -1.258612E+00
   6.920844E-01  -2.887414E-01
   1.177722E+00   7.898103E-01
   4.699264E-01   7.290168E-01
  -8.301966E-01  -1.003166E-02
  -1.124732E+00  -2.849455E-01
   1.054089E-01  -3.186677E-02
   1.251408E+00   4.718088E-02
   6.560276E-01  -6.303624E-02
  -8.812602E-01   1.494969E-01
  -1.118321E+00   4.116705E-01
   3.357057E-01  -3.031032E-02
   1.424789E+00  -7.491973E-01
   6.972663E-01  -3.652493E-01
  -6.952668E-01   1.066180E+00
  -9.524769E-01   1.505507E+00
  -1.757771E-01  -1.496381E-01
   3.685539E-01  -1.955367E+00
   4.724081E-01  -1.360728E+00
   7.728093E-01   1.071419E+00
   9.199370E-01   2.303269E+00
  -6.103715E-02   9.872675E-01
  -1.539054E+00  -9.598425E-01
  -1.424443E+00  -1.334968E+00
   7.139133E-01  -3.694733E-01
   2.405099E+00   4.583123E-01
   1.429373E+00   7.689356E-01
  -1.030430E+00   1.004089E+00
  -1.975406E+00   8.795139E-01
  -5.944042E-01  -1.242707E-01
   1.050674E+00  -1.169741E+00
   1.136074E+00  -7.490674E-01
   1.395364E-01   9.088267E-01
  -5.447073E-01   1.720878E+00
  -5.369767E-01   5.898928E-01
  -2.487839E-01  -9.767342E-01
   1.372198E-01  -9.591271E-01
   4.902895E-01   4.663378E-01
   2.982231E-01   1.391839E+00
  -5.682381E-01   7.650752E-01
  -1.140519E+00  -5.770936E-01
  -4.346354E-01  -1.232155E+00
   9.702158E-01  -6.630644E-01
   1.420370E+00   6.255113E-01
   2.868876E-01   1.556312E+00
  -1.242605E+00   1.155841E+00
  -1.614914E+00  -4.753424E-01
  -5.086246E-01  -1.827333E+00
   1.114298E+00  -1.377134E+00
   1.922167E+00   5.289927E-01
   1.119415E+00   1.903256E+00
  -8.083093E-01   1.431581E+00
  -2.079517E+00  -1.490930E-01
  -1.188551E+00  -1.235681E+00
   1.124288E+00  -1.115811E+00
   2.310427E+00  -1.230194E-01
   1.013718E+00   1.088634E+00
  -1.161277E+00   1.701068E+00
  -1.713051E+00   9.481161E-01
  -3.732813E-01  -7.919835E-01
   9.592240E-01  -1.664757E+00
   9.594803E-01  -3.569649E-01
   1.537200E-01   1.785271E+00
  -5.063133E-01   2.063846E+00
  -8.510378E-01   9.738269E-03
  -8.338920E-01  -1.808413E+00
  -6.989035E-02  -1.181235E+00
   1.080067E+00   8.807192E-01
   1.132816E+00   1.773464E+00
  -5.403656E-01   7.626825E-01
  -2.157671E+00  -6.172756E-01
  -1.488232E+00  -1.054560E+00
   9.365249E-01  -7.277075E-01
