 This RAW file was created using the MATLAB spectral
 simulation program developed by Robin Simpson
 and Jamie Near, FMRIB 2010

 Experiment Name : press0.015_idealSim
 Investigator    : jnear
 Comment : Simulated LCModel basis set for ideal press experiment with echo time 0.015 ms

 User defined parameters:

 Sweep Width = 2000.0000 Hz
 Vector Size = 1024 points
 Apodization = 2.0000 Hz
 B0 Field    = 3.0000 T

 $NMID ID='PE'
 FMTDAT='(2E16.6)'
 VOLUME=1.00000
 TRAMP=1.00000
 $END
   4.000000E+00   2.954840E-09
   3.593920E+00   1.617205E+00
   2.514065E+00   2.837204E+00
   1.057403E+00   3.392721E+00
  -3.902800E-01   3.212225E+00
  -1.472894E+00   2.434272E+00
  -1.970003E+00   1.356525E+00
  -1.857001E+00   3.357950E-01
  -1.302209E+00  -3.278014E-01
  -6.024420E-01  -4.840657E-01
  -7.780192E-02  -1.745223E-01
   3.847370E-02   3.886423E-01
  -3.220421E-01   8.999488E-01
  -1.040811E+00   1.069485E+00
  -1.851546E+00   7.255467E-01
  -2.429514E+00  -1.236855E-01
  -2.502535E+00  -1.287312E+00
  -1.944979E+00  -2.447637E+00
  -8.233385E-01  -3.259310E+00
   6.185523E-01  -3.460347E+00
   2.029318E+00  -2.956304E+00
   3.055704E+00  -1.850313E+00
   3.450588E+00  -4.130680E-01
   3.145594E+00   9.972673E-01
   2.265887E+00   2.043164E+00
   1.087167E+00   2.509033E+00
  -5.121362E-02   2.359979E+00
  -8.527679E-01   1.741147E+00
  -1.154797E+00   9.233255E-01
  -9.709848E-01   2.120470E-01
  -4.748216E-01  -1.541245E-01
   6.513195E-02  -8.128946E-02
   3.782954E-01   3.549481E-01
   2.869024E-01   9.420441E-01
  -2.310621E-01   1.404622E+00
  -1.035090E+00   1.498347E+00
  -1.869772E+00   1.096769E+00
  -2.446754E+00   2.392438E-01
  -2.538052E+00  -8.793046E-01
  -2.054191E+00  -1.968896E+00
  -1.077612E+00  -2.731887E+00
   1.625135E-01  -2.953780E+00
   1.360596E+00  -2.571757E+00
   2.224217E+00  -1.694225E+00
   2.559871E+00  -5.630131E-01
   2.330535E+00   5.233006E-01
   1.661669E+00   1.297681E+00
   7.928687E-01   1.602482E+00
  -2.108106E-03   1.434392E+00
  -4.992260E-01   9.368863E-01
  -5.916355E-01   3.428588E-01
  -3.205733E-01  -1.063072E-01
   1.457540E-01  -2.380071E-01
   5.773342E-01  -3.887091E-03
   7.626252E-01   5.039565E-01
   5.779557E-01   1.087162E+00
   3.049013E-02   1.512748E+00
  -7.398710E-01   1.591453E+00
  -1.506380E+00   1.238715E+00
  -2.031740E+00   5.054948E-01
  -2.143143E+00  -4.327564E-01
  -1.784479E+00  -1.331457E+00
  -1.035834E+00  -1.955402E+00
  -9.141497E-02  -2.148770E+00
   8.025040E-01  -1.878095E+00
   1.425458E+00  -1.241200E+00
   1.645792E+00  -4.360491E-01
   1.453672E+00   3.052309E-01
   9.600003E-01   7.908131E-01
   3.578348E-01   9.232603E-01
  -1.451278E-01   7.218702E-01
  -3.953433E-01   3.119221E-01
  -3.372077E-01  -1.200395E-01
  -2.436363E-02  -3.934568E-01
   4.002387E-01  -3.953755E-01
   7.540583E-01  -1.133262E-01
   8.806123E-01   3.641331E-01
   7.031300E-01   8.756495E-01
   2.467197E-01   1.240526E+00
  -3.708637E-01   1.321627E+00
  -9.743067E-01   1.070747E+00
  -1.386338E+00   5.408203E-01
  -1.486706E+00  -1.315649E-01
  -1.249103E+00  -7.662284E-01
  -7.444166E-01  -1.195275E+00
  -1.167272E-01  -1.316839E+00
   4.596945E-01  -1.123395E+00
   8.345814E-01  -6.970302E-01
   9.288750E-01  -1.805627E-01
   7.542623E-01   2.665261E-01
   4.013172E-01   5.188523E-01
   7.123922E-03   5.247276E-01
  -2.883385E-01   3.169004E-01
  -3.882162E-01  -5.615582E-03
  -2.701481E-01  -3.122849E-01
   1.147375E-02  -4.831020E-01
   3.490735E-01  -4.490705E-01
   6.179938E-01  -2.152600E-01
   7.161701E-01   1.446751E-01
   5.987012E-01   5.163305E-01
   2.929927E-01   7.809973E-01
  -1.133361E-01   8.522952E-01
  -5.032054E-01   7.047410E-01
  -7.657802E-01   3.816919E-01
  -8.294432E-01  -2.199389E-02
  -6.843956E-01  -3.921745E-01
  -3.842501E-01  -6.292928E-01
  -2.485865E-02  -6.771084E-01
   2.879713E-01  -5.394233E-01
   4.695161E-01  -2.761918E-01
   4.801489E-01   2.017060E-02
   3.363612E-01   2.559448E-01
   1.022356E-01   3.635550E-01
  -1.356158E-01   3.205874E-01
  -2.971677E-01   1.554139E-01
  -3.323695E-01  -6.511643E-02
  -2.351576E-01  -2.611251E-01
  -4.417592E-02  -3.661401E-01
   1.724105E-01  -3.462546E-01
   3.418876E-01  -2.093856E-01
   4.103296E-01  -1.783507E-03
   3.575963E-01   2.090746E-01
   2.023038E-01   3.582107E-01
  -5.040995E-03   4.031345E-01
  -2.000823E-01   3.349106E-01
  -3.264164E-01   1.794402E-01
  -3.521091E-01  -1.187282E-02
  -2.771672E-01  -1.801524E-01
  -1.317906E-01  -2.783710E-01
   3.453147E-02  -2.843982E-01
   1.701985E-01  -2.052810E-01
   2.379409E-01  -7.313853E-02
   2.245307E-01   6.647992E-02
   1.423341E-01   1.702303E-01
   2.350590E-02   2.103312E-01
  -9.165081E-02   1.812029E-01
  -1.682677E-01   9.880597E-02
  -1.871656E-01  -6.229666E-03
  -1.488120E-01  -9.961557E-02
  -7.099713E-02  -1.546048E-01
   1.850560E-02  -1.593037E-01
   9.180547E-02  -1.184362E-01
   1.295520E-01  -4.992217E-02
   1.256097E-01   2.238582E-02
   8.717779E-02   7.703119E-02
   3.081967E-02   1.010684E-01
  -2.425162E-02   9.252087E-02
  -6.270105E-02   5.943070E-02
  -7.678515E-02   1.584341E-02
  -6.709473E-02  -2.397902E-02
  -4.109785E-02  -5.015287E-02
  -9.516688E-03  -5.875348E-02
   1.825695E-02  -5.139574E-02
   3.681912E-02  -3.379800E-02
   4.457327E-02  -1.290139E-02
   4.271981E-02   6.345570E-03
   3.430642E-02   2.182217E-02
   2.234609E-02   3.274346E-02
   8.033555E-03   3.861906E-02
  -8.481186E-03   3.917371E-02
  -2.578296E-02   3.362106E-02
  -4.063435E-02   2.027741E-02
  -4.905135E-02  -1.348484E-03
  -4.679103E-02  -2.793429E-02
  -3.024446E-02  -5.271252E-02
   5.013179E-04  -6.787423E-02
   3.921567E-02  -6.622976E-02
   7.515953E-02  -4.318865E-02
   9.686932E-02  -4.173468E-04
   9.485608E-02   5.232502E-02
   6.441942E-02   1.003139E-01
   9.512635E-03   1.289524E-01
  -5.640561E-02   1.272860E-01
  -1.150941E-01   9.134288E-02
  -1.497479E-01   2.781653E-02
  -1.490306E-01  -4.636895E-02
  -1.105990E-01  -1.103679E-01
  -4.421991E-02  -1.464814E-01
   3.018014E-02  -1.443617E-01
   9.030883E-02  -1.043533E-01
   1.190942E-01  -3.968630E-02
   1.087011E-01   2.715368E-02
   6.333775E-02   7.353377E-02
   2.090872E-04   8.442713E-02
  -5.588047E-02   5.590733E-02
  -8.272982E-02  -2.884571E-03
  -6.832543E-02  -7.026639E-02
  -1.354211E-02  -1.191805E-01
   6.694936E-02  -1.282231E-01
   1.468209E-01  -8.874980E-02
   1.969118E-01  -6.586932E-03
   1.967626E-01   9.824096E-02
   1.409567E-01   1.952697E-01
   3.971553E-02   2.538471E-01
  -8.257935E-02   2.547855E-01
  -1.926527E-01   1.956581E-01
  -2.596699E-01   9.019363E-02
  -2.665620E-01  -3.437052E-02
  -2.139974E-01  -1.438663E-01
  -1.185077E-01  -2.091893E-01
  -8.734505E-03  -2.168241E-01
   8.222733E-02  -1.712172E-01
   1.290416E-01  -9.157437E-02
   1.234128E-01  -7.059464E-03
   7.463541E-02   5.171266E-02
   5.029769E-03   6.470231E-02
  -5.584667E-02   3.012295E-02
  -8.035257E-02  -3.695888E-02
  -5.427125E-02  -1.105202E-01
   1.734439E-02  -1.602687E-01
   1.135096E-01  -1.612446E-01
   2.044018E-01  -1.045502E-01
   2.587881E-01  -1.265693E-03
   2.538504E-01   1.226714E-01
   1.849185E-01   2.345063E-01
   6.746303E-02   3.025846E-01
  -6.953803E-02   3.061173E-01
  -1.922413E-01   2.437012E-01
  -2.700149E-01   1.334490E-01
  -2.848019E-01   5.160361E-03
  -2.382005E-01  -1.085432E-01
  -1.498021E-01  -1.800921E-01
  -4.847939E-02  -1.955675E-01
   3.635740E-02  -1.601169E-01
   8.210624E-02  -9.457056E-02
   8.048788E-02  -2.611481E-02
   4.112692E-02   2.006871E-02
  -1.345281E-02   2.738785E-02
  -5.754122E-02  -5.944197E-03
  -7.004623E-02  -6.522323E-02
  -4.020254E-02  -1.257110E-01
   2.758772E-02  -1.625087E-01
   1.138768E-01  -1.576957E-01
   1.918045E-01  -1.051407E-01
   2.368727E-01  -1.401629E-02
   2.333269E-01   9.290185E-02
   1.780959E-01   1.876640E-01
   8.311342E-02   2.465141E-01
  -2.763658E-02   2.554068E-01
  -1.268962E-01   2.131018E-01
  -1.927615E-01   1.324480E-01
  -2.132100E-01   3.652920E-02
  -1.883572E-01  -5.001428E-02
  -1.308448E-01  -1.085665E-01
  -6.141111E-02  -1.299650E-01
  -6.908078E-04  -1.159160E-01
   3.710086E-02  -7.860056E-02
   4.645214E-02  -3.593605E-02
   3.115629E-02  -4.120383E-03
   3.245564E-03   7.328904E-03
  -2.184519E-02  -3.230176E-03
  -3.183853E-02  -2.968653E-02
  -2.126925E-02  -5.977655E-02
   8.237870E-03  -7.984076E-02
   4.863963E-02  -8.042984E-02
   8.742066E-02  -5.881446E-02
   1.120957E-01  -1.860872E-02
   1.148617E-01   3.120559E-02
   9.419209E-02   7.833446E-02
   5.411913E-02   1.112402E-01
   3.235732E-03   1.228689E-01
  -4.720843E-02   1.115822E-01
  -8.676666E-02   8.040632E-02
  -1.086466E-01   3.628123E-02
  -1.102249E-01  -1.145107E-02
  -9.253109E-02  -5.375571E-02
  -5.995920E-02  -8.395352E-02
  -1.933215E-02  -9.804211E-02
   2.198034E-02  -9.461611E-02
   5.742221E-02  -7.517381E-02
   8.158559E-02  -4.385108E-02
   9.070179E-02  -6.351669E-03
   8.358844E-02   3.089640E-02
   6.204522E-02   6.128698E-02
   3.047938E-02   7.917242E-02
  -4.659509E-03   8.141514E-02
  -3.584065E-02   6.834175E-02
  -5.627090E-02   4.384891E-02
  -6.195826E-02   1.481620E-02
  -5.304905E-02  -1.048021E-02
  -3.412309E-02  -2.488261E-02
  -1.324026E-02  -2.480415E-02
   4.855021E-04  -1.173398E-02
   1.035564E-04   7.606333E-03
  -1.645698E-02   2.293351E-02
  -4.493200E-02   2.386188E-02
  -7.502498E-02   3.816119E-03
  -9.310777E-02  -3.710348E-02
  -8.685345E-02  -9.090738E-02
  -4.980739E-02  -1.427469E-01
   1.570863E-02  -1.748690E-01
   9.778141E-02  -1.724628E-01
   1.768580E-01  -1.287858E-01
   2.310582E-01  -4.797494E-02
   2.431477E-01   5.467457E-02
   2.060161E-01   1.557025E-01
   1.252085E-01   2.301324E-01
   1.851708E-02   2.593411E-01
  -8.813377E-02   2.365766E-01
  -1.685555E-01   1.689411E-01
  -2.047250E-01   7.610009E-02
  -1.919380E-01  -1.502869E-02
  -1.399073E-01  -7.919889E-02
  -7.033700E-02  -1.014361E-01
  -1.031825E-02  -8.139019E-02
   1.748729E-02  -3.318555E-02
