
 $NMID
 id='ANONYMOUS ', fmtdat='(2E16.6)'
 volume=1.0
 tramp=1.0
 $END
   4.976732e+07   8.849145e+05
   2.977147e+07   3.036469e+07
  -6.338369e+06   3.324336e+07
  -2.418088e+07   1.353917e+07
  -1.486117e+07  -5.342043e+06
   2.530675e+06  -8.262982e+06
   8.818193e+06   4.842625e+05
   2.985633e+06   8.557031e+06
  -5.169960e+06   8.864193e+06
  -8.638387e+06   2.203464e+06
  -6.349199e+06  -5.705744e+06
  -6.518851e+05  -7.996560e+06
   3.747405e+06  -2.343297e+06
   2.478869e+06   5.353498e+06
  -3.342074e+06   6.318321e+06
  -7.112803e+06  -1.007336e+06
  -4.083960e+06  -9.178808e+06
   3.363415e+06  -1.063207e+07
   9.098897e+06  -5.166129e+06
   9.553998e+06   2.119730e+06
   5.514914e+06   6.784404e+06
   2.880990e+05   7.383658e+06
  -2.374702e+06   4.975759e+06
  -9.705817e+05   2.495876e+06
   1.458087e+06   2.591791e+06
  -4.602689e+03   4.349814e+06
  -5.547906e+06   3.969167e+06
  -9.232717e+06   2.118761e+04
  -6.347272e+06  -4.112028e+06
   2.469861e+05  -4.640523e+06
   3.888317e+06  -2.042333e+06
   2.301510e+06   5.120537e+05
  -1.119097e+06   1.277981e+06
  -2.787391e+06   3.489985e+05
  -2.183256e+06  -1.884457e+06
  -2.587502e+05  -4.025223e+06
   1.904334e+06  -3.368148e+06
   2.664483e+06   4.881381e+05
   1.108641e+06   3.311491e+06
  -7.759393e+05   1.281415e+06
  -6.077731e+04  -2.708264e+06
   2.407046e+06  -2.290956e+06
   2.296521e+06   2.816000e+06
  -1.919099e+06   5.449137e+06
  -5.829633e+06   9.183079e+05
  -4.379357e+06  -6.060160e+06
   1.648593e+06  -7.467788e+06
   6.652035e+06  -2.073706e+06
   6.493002e+06   4.097633e+06
   1.910430e+06   5.647658e+06
  -3.213417e+06   2.701255e+06
  -5.098126e+06  -1.254529e+06
  -2.503638e+06  -3.184905e+06
   2.070368e+06  -2.075798e+06
   4.128857e+06   7.520334e+05
   1.849221e+06   2.406894e+06
  -1.533366e+06   1.242427e+06
  -1.721267e+06  -9.296836e+05
   9.799944e+05  -1.000896e+06
   2.254529e+06   1.218576e+06
  -2.041405e+05   2.808264e+06
  -3.802296e+06   1.741198e+06
  -4.707734e+06  -9.883429e+05
  -2.162199e+06  -3.472622e+06
   1.800207e+06  -4.842954e+06
   4.955006e+06  -4.428871e+06
   5.893454e+06  -1.409449e+06
   4.091795e+06   3.147899e+06
   7.051672e+05   5.836255e+06
  -1.656206e+06   4.550468e+06
  -1.510916e+06   1.416455e+06
  -3.113078e+05   1.071834e+05
  -4.283670e+05   1.067493e+06
  -1.955835e+06   1.518514e+06
  -2.860633e+06  -1.555075e+05
  -1.861054e+06  -2.238132e+06
   2.258969e+05  -2.277923e+06
   1.777537e+06  -1.376561e+05
   1.734247e+06   2.244128e+06
  -1.078007e+05   2.967652e+06
  -2.789759e+06   1.458561e+06
  -4.200148e+06  -1.370260e+06
  -2.836231e+06  -3.621359e+06
   1.690778e+05  -3.822822e+06
   2.079357e+06  -2.376709e+06
   1.962052e+06  -1.049376e+06
   1.685596e+06  -7.482520e+05
   2.876338e+06  -5.493614e+05
   4.289264e+06   7.176859e+05
   3.452230e+06   2.741252e+06
   1.113475e+05   4.126190e+06
  -3.283018e+06   3.871329e+06
  -4.274335e+06   1.994750e+06
  -2.633963e+06  -5.873641e+05
  -1.063067e+05  -2.295646e+06
   1.240468e+06  -1.867529e+06
   5.524068e+05   9.261829e+04
  -1.149975e+06   1.280654e+06
  -1.884314e+06   3.605481e+05
  -8.433722e+05  -1.198523e+06
   5.783216e+05  -1.120822e+06
   5.121507e+05   3.765586e+05
  -9.368827e+05   8.195074e+05
  -1.834827e+06  -9.993630e+05
  -8.750460e+05  -3.279321e+06
   1.258834e+06  -3.526002e+06
   3.015312e+06  -1.429614e+06
   3.465293e+06   1.263782e+06
   2.478685e+06   2.830275e+06
   5.002950e+05   2.736196e+06
  -1.306015e+06   1.478719e+06
  -1.623588e+06   1.837843e+05
  -4.974449e+05  -5.202440e+04
   3.571665e+05   7.594244e+05
  -4.001131e+05   1.313017e+06
  -1.866023e+06   5.573190e+05
  -2.009968e+06  -8.588360e+05
  -4.031562e+05  -1.386476e+06
   1.171824e+06  -5.831307e+05
   9.417777e+05   4.598669e+05
  -8.235452e+05   5.961182e+05
  -2.263235e+06  -2.422793e+05
  -1.872581e+06  -1.380059e+06
   2.040795e+05  -2.069477e+06
   2.359514e+06  -1.715201e+06
   2.819360e+06  -2.693033e+05
   1.209548e+06   1.262571e+06
  -9.243764e+05   1.460242e+06
  -1.523437e+06   1.614445e+05
  -1.610695e+05  -1.065430e+06
   1.529475e+06  -7.177403e+05
   1.732847e+06   7.811628e+05
   3.732699e+05   1.665927e+06
  -1.070736e+06   1.024775e+06
  -1.280526e+06  -2.668363e+05
  -2.846837e+05  -7.708041e+05
   7.762484e+05  -5.569554e+04
   7.209871e+05   1.065056e+06
  -6.106023e+05   1.425983e+06
  -2.042006e+06   5.103520e+05
  -2.039081e+06  -1.093015e+06
  -3.655386e+05  -2.094588e+06
   1.455200e+06  -1.645274e+06
   1.739950e+06  -2.135569e+05
   5.188380e+05   8.727341e+05
  -6.632281e+05   8.189164e+05
  -6.702625e+05   6.964245e+04
   9.735490e+04  -4.128245e+05
   5.373028e+05  -2.603392e+05
   2.059355e+05   7.711102e+04
  -4.070451e+05  -1.365804e+04
  -5.388211e+05  -6.266412e+05
   1.806383e+05  -1.187123e+06
   1.392256e+06  -9.028860e+05
   2.102189e+06   4.322301e+05
   1.460493e+06   1.979363e+06
  -2.445116e+05   2.461202e+06
  -1.655541e+06   1.452364e+06
  -1.747095e+06  -1.140430e+05
  -9.186289e+05  -9.491501e+05
  -3.372740e+05  -7.489283e+05
  -4.389958e+05  -2.826732e+05
  -5.769581e+05  -3.064415e+05
  -7.482336e+04  -7.399900e+05
   8.787092e+05  -9.128052e+05
   1.479658e+06  -3.442650e+05
   1.096729e+06   7.500908e+05
  -2.395954e+05   1.520451e+06
  -1.759136e+06   1.102743e+06
  -2.291772e+06  -5.022576e+05
  -1.154224e+06  -2.129762e+06
   1.006186e+06  -2.382483e+06
   2.554752e+06  -1.047906e+06
   2.394837e+06   6.461395e+05
   1.017793e+06   1.361330e+06
  -1.817868e+05   1.008009e+06
  -4.347173e+05   5.644688e+05
  -1.559561e+05   7.603074e+05
  -1.541384e+05   1.283190e+06
  -6.826532e+05   1.266779e+06
  -1.293514e+06   2.982846e+05
  -1.335301e+06  -1.113873e+06
  -5.398259e+05  -1.929833e+06
   6.514859e+05  -1.451519e+06
   1.307652e+06   6.421233e+03
   8.214376e+05   1.288893e+06
  -3.777103e+05   1.406363e+06
  -1.142929e+06   4.360585e+05
  -8.073389e+05  -6.558246e+05
   9.640969e+04  -1.053566e+06
   4.994797e+05  -7.918526e+05
   6.823582e+04  -4.408251e+05
  -4.270184e+05  -3.567153e+05
  -5.090015e+04  -3.943344e+05
   1.148405e+06  -2.071665e+05
   2.062765e+06   3.482992e+05
   1.627997e+06   1.049729e+06
  -2.269741e+04   1.428906e+06
  -1.586429e+06   1.127947e+06
  -1.845425e+06   2.853508e+05
  -8.497358e+05  -4.670000e+05
   2.548327e+05  -5.539062e+05
   5.070258e+05  -4.550652e+04
   1.289581e+04   4.032524e+05
  -4.654123e+05   2.511789e+05
  -4.803459e+05  -3.527167e+05
  -2.208068e+05  -7.461515e+05
  -6.506795e+04  -4.906971e+05
  -1.424492e+05   1.153475e+05
  -3.074874e+05   3.204658e+05
  -2.825757e+05  -2.347516e+05
   1.667895e+05  -1.010288e+06
   9.215095e+05  -1.067468e+06
   1.350953e+06  -1.437824e+05
   8.225558e+05   9.391390e+05
  -4.336757e+05   1.125714e+06
  -1.262185e+06   3.023166e+05
  -7.356070e+05  -5.978055e+05
   7.115664e+05  -6.565588e+05
   1.622969e+06   9.690947e+04
   1.048781e+06   8.770886e+05
  -4.733743e+05   1.020598e+06
  -1.531981e+06   5.098147e+05
  -1.273759e+06  -1.848995e+05
  -1.454126e+05  -5.291957e+05
   6.587869e+05  -2.795443e+05
   3.789692e+05   2.950364e+05
  -6.119786e+05   5.145296e+05
  -1.201313e+06  -1.108661e+05
  -6.516532e+05  -1.217847e+06
   6.400876e+05  -1.720308e+06
   1.530639e+06  -8.742106e+05
   1.271914e+06   7.906869e+05
   1.881092e+05   1.832290e+06
  -7.654263e+05   1.324039e+06
  -9.442956e+05  -1.743386e+05
  -4.425978e+05  -1.215617e+06
   2.143999e+05  -9.941319e+05
   5.678753e+05  -8.751434e+04
   4.843299e+05   3.907929e+05
   1.793369e+05   1.447014e+05
   4.491153e+04  -1.004418e+05
   2.627880e+05   2.961113e+05
   5.037378e+05   9.862349e+05
   2.011283e+05   1.102567e+06
  -7.138705e+05   3.975192e+05
  -1.502425e+06  -4.868654e+05
  -1.312216e+06  -8.625778e+05
  -1.841114e+05  -7.106500e+05
   8.852814e+05  -4.205875e+05
   1.008852e+06  -1.826232e+05
   3.571313e+05   5.145734e+04
  -1.546576e+05   2.283161e+05
  -2.458362e+04   2.135931e+05
   2.834510e+05   1.036814e+05
   4.578461e+04   1.376666e+05
  -6.906621e+05   2.329860e+05
  -1.066458e+06  -2.322711e+04
  -4.185831e+05  -7.098420e+05
   8.789492e+05  -1.189984e+06
   1.732586e+06  -7.498662e+05
   1.423730e+06   4.582526e+05
   2.670680e+05   1.438746e+06
  -7.896434e+05   1.393833e+06
  -1.075278e+06   5.349930e+05
  -6.695678e+05  -2.465707e+05
  -1.298797e+05  -3.671296e+05
   8.173169e+04  -6.328044e+04
  -7.854009e+04   2.240325e+04
  -3.078173e+05  -3.734608e+05
  -2.504307e+05  -8.253659e+05
   1.892711e+05  -6.903400e+05
   6.971771e+05   1.323965e+05
   7.452799e+05   9.809878e+05
   1.042540e+05   1.054169e+06
  -7.754754e+05   2.435443e+05
  -1.051721e+06  -7.467808e+05
  -3.457418e+05  -1.114083e+06
   7.332110e+05  -6.833264e+05
   1.138152e+06   8.437610e+04
   5.343584e+05   6.241803e+05
  -2.974118e+05   6.846351e+05
  -3.842110e+05   3.705574e+05
   2.583092e+05   1.086933e+04
   6.644918e+05  -3.655009e+04
   1.459590e+05   3.145405e+05
  -8.453855e+05   6.890469e+05
  -1.281894e+06   5.469376e+05
  -7.704744e+05  -1.826316e+05
   1.036178e+05  -8.846273e+05
   5.640050e+05  -8.673139e+05
   4.316301e+05  -1.581604e+05
   5.106765e+04   4.918158e+05
  -2.476545e+05   4.411697e+05
  -3.603823e+05  -1.551845e+05
  -2.563690e+05  -5.904662e+05
   5.786304e+04  -4.328677e+05
   3.992762e+05   4.867034e+04
   4.818283e+05   2.863670e+05
   2.460140e+05   9.724033e+04
  -3.151922e+04  -1.513986e+05
  -8.170826e+04  -3.906698e+04
   7.299630e+03   3.649374e+05
  -6.090177e+04   5.606307e+05
  -3.309717e+05   2.171463e+05
  -4.640763e+05  -3.941502e+05
  -1.528559e+05  -6.646282e+05
   4.197766e+05  -3.190802e+05
   6.763333e+05   2.900392e+05
   2.565789e+05   5.878480e+05
  -5.184795e+05   3.705823e+05
  -8.997086e+05  -8.174895e+04
  -4.870798e+05  -3.873646e+05
   3.021374e+05  -4.058657e+05
   6.536629e+05  -2.283976e+05
   2.542008e+05  -1.643825e+04
  -3.570244e+05   6.886558e+04
  -4.184115e+05  -6.766443e+04
   1.730361e+05  -2.994645e+05
   7.621240e+05  -2.773722e+05
