
 $NMID
 id='ANONYMOUS ', fmtdat='(2E16.6)'
 volume=1.0
 tramp=1.0
 $END
  -4.660879e+07  -1.575648e+05
  -2.816175e+07  -2.825740e+07
   5.698646e+06  -3.126531e+07
   2.253161e+07  -1.274222e+07
   1.385653e+07   5.057983e+06
  -2.384355e+06   7.739454e+06
  -8.203748e+06  -5.090563e+05
  -2.743642e+06  -7.979417e+06
   4.808250e+06  -8.185181e+06
   8.021465e+06  -2.040698e+06
   5.962404e+06   5.220042e+06
   7.155397e+05   7.384920e+06
  -3.434790e+06   2.256518e+06
  -2.351904e+06  -4.848566e+06
   3.046809e+06  -5.815093e+06
   6.621685e+06   9.138571e+05
   3.873368e+06   8.507857e+06
  -3.038099e+06   9.931323e+06
  -8.428929e+06   4.936982e+06
  -8.970911e+06  -1.821353e+06
  -5.311690e+06  -6.268991e+06
  -4.083533e+05  -6.981550e+06
   2.237010e+06  -4.763496e+06
   1.044082e+06  -2.295458e+06
  -1.294561e+06  -2.229760e+06
  -1.142462e+05  -3.918138e+06
   4.963895e+06  -3.771975e+06
   8.485784e+06  -2.318260e+05
   5.965861e+06   3.671500e+06
  -6.658809e+04   4.320957e+06
  -3.480998e+06   2.025348e+06
  -2.148949e+06  -3.259164e+05
   8.790892e+05  -1.118221e+06
   2.422153e+06  -3.994303e+05
   2.023865e+06   1.586572e+06
   3.841803e+05   3.645071e+06
  -1.677207e+06   3.190365e+06
  -2.558695e+06  -3.425430e+05
  -1.169866e+06  -3.078422e+06
   7.061717e+05  -1.310472e+06
   1.586583e+05   2.413065e+06
  -2.166899e+06   2.113125e+06
  -2.143825e+06  -2.610939e+06
   1.797572e+06  -5.102675e+06
   5.520134e+06  -8.986684e+05
   4.187168e+06   5.648584e+06
  -1.484793e+06   7.017735e+06
  -6.185771e+06   2.020427e+06
  -6.035579e+06  -3.722904e+06
  -1.783830e+06  -5.182680e+06
   2.938489e+06  -2.490034e+06
   4.672577e+06   1.134610e+06
   2.290723e+06   2.921935e+06
  -1.928808e+06   1.928887e+06
  -3.838701e+06  -6.757111e+05
  -1.724124e+06  -2.230683e+06
   1.418153e+06  -1.170571e+06
   1.577027e+06   8.427705e+05
  -9.460094e+05   8.954253e+05
  -2.095653e+06  -1.195263e+06
   2.517989e+05  -2.674194e+06
   3.607609e+06  -1.642018e+06
   4.403046e+06   9.296994e+05
   2.027635e+06   3.235825e+06
  -1.584778e+06   4.510564e+06
  -4.466090e+06   4.172615e+06
  -5.407308e+06   1.419360e+06
  -3.860523e+06  -2.821764e+06
  -7.577058e+05  -5.369721e+06
   1.494610e+06  -4.196193e+06
   1.402535e+06  -1.258923e+06
   2.415898e+05  -2.991031e+04
   2.771266e+05  -9.691864e+05
   1.690509e+06  -1.471907e+06
   2.602603e+06   1.919166e+04
   1.764935e+06   1.949686e+06
  -1.183148e+05   2.053104e+06
  -1.568891e+06   1.695528e+05
  -1.599265e+06  -1.980338e+06
   3.458107e+04  -2.695645e+06
   2.517276e+06  -1.404507e+06
   3.897605e+06   1.160168e+06
   2.702361e+06   3.294133e+06
  -8.726575e+04   3.565658e+06
  -1.910137e+06   2.253587e+06
  -1.829608e+06   9.902399e+05
  -1.552286e+06   6.838443e+05
  -2.620239e+06   5.193860e+05
  -3.920718e+06  -6.092018e+05
  -3.180569e+06  -2.455584e+06
  -1.573414e+05  -3.752106e+06
   2.921715e+06  -3.570913e+06
   3.844809e+06  -1.898501e+06
   2.413212e+06   4.654964e+05
   1.642723e+05   2.078772e+06
  -1.076438e+06   1.733500e+06
  -5.080008e+05  -6.488506e+04
   1.017345e+06  -1.187855e+06
   1.716007e+06  -3.598164e+05
   7.996665e+05   1.083511e+06
  -4.983650e+05   1.027854e+06
  -4.519739e+05  -3.362833e+05
   8.668169e+05  -7.267010e+05
   1.677982e+06   9.501267e+05
   7.804113e+05   3.011414e+06
  -1.171341e+06   3.188653e+06
  -2.743982e+06   1.264392e+06
  -3.128523e+06  -1.142709e+06
  -2.246915e+06  -2.523443e+06
  -4.819808e+05  -2.454248e+06
   1.155587e+06  -1.360463e+06
   1.466756e+06  -1.985494e+05
   4.527439e+05   3.978589e+04
  -3.348451e+05  -6.853366e+05
   3.522416e+05  -1.206247e+06
   1.702355e+06  -5.336930e+05
   1.845132e+06   7.649814e+05
   3.789085e+05   1.263939e+06
  -1.059405e+06   5.422503e+05
  -8.505693e+05  -4.045859e+05
   7.464526e+05  -5.333901e+05
   2.041461e+06   2.099977e+05
   1.691507e+06   1.224972e+06
  -1.689719e+05   1.861890e+06
  -2.114270e+06   1.576779e+06
  -2.553673e+06   2.810498e+05
  -1.118427e+06  -1.136499e+06
   8.245391e+05  -1.351190e+06
   1.395347e+06  -1.709065e+05
   1.686454e+05   9.733490e+05
  -1.382100e+06   6.769094e+05
  -1.584070e+06  -6.908660e+05
  -3.512070e+05  -1.508667e+06
   9.669368e+05  -9.334991e+05
   1.162290e+06   2.384315e+05
   2.583888e+05   7.000149e+05
  -7.111976e+05   5.871968e+04
  -6.732705e+05  -9.594491e+05
   5.310455e+05  -1.306828e+06
   1.847030e+06  -4.979181e+05
   1.871184e+06   9.612793e+05
   3.626820e+05   1.899907e+06
  -1.302988e+06   1.515943e+06
  -1.579493e+06   2.143921e+05
  -4.789516e+05  -7.875651e+05
   5.929777e+05  -7.500718e+05
   6.007543e+05  -7.448002e+04
  -8.737985e+04   3.629505e+05
  -4.728625e+05   2.317212e+05
  -1.676143e+05  -6.187591e+04
   3.791801e+05   2.552914e+04
   4.908910e+05   5.756982e+05
  -1.578716e+05   1.082629e+06
  -1.255488e+06   8.368119e+05
  -1.915726e+06  -3.644736e+05
  -1.355914e+06  -1.777793e+06
   1.858344e+05  -2.236162e+06
   1.479889e+06  -1.333713e+06
   1.578039e+06   8.478745e+04
   8.343802e+05   8.386003e+05
   3.145209e+05   6.531701e+05
   4.152719e+05   2.379505e+05
   5.415291e+05   2.763169e+05
   7.962313e+04   6.802257e+05
  -7.893357e+05   8.386188e+05
  -1.335443e+06   3.263610e+05
  -9.965250e+05  -6.622258e+05
   2.016112e+05  -1.371905e+06
   1.579508e+06  -1.018153e+06
   2.083124e+06   4.250488e+05
   1.071678e+06   1.918768e+06
  -8.898389e+05   2.177624e+06
  -2.311871e+06   9.800745e+05
  -2.177445e+06  -5.630658e+05
  -9.277411e+05  -1.220403e+06
   1.579505e+05  -9.033679e+05
   3.757248e+05  -5.070132e+05
   1.129808e+05  -6.957903e+05
   1.134510e+05  -1.179152e+06
   6.050972e+05  -1.168241e+06
   1.176013e+06  -2.920014e+05
   1.231543e+06   9.908425e+05
   5.200555e+05   1.743646e+06
  -5.684843e+05   1.327596e+06
  -1.185911e+06   1.119318e+04
  -7.610068e+05  -1.163152e+06
   3.310119e+05  -1.282502e+06
   1.040292e+06  -4.015143e+05
   7.423181e+05   5.994274e+05
  -8.380309e+04   9.657210e+05
  -4.554075e+05   7.230384e+05
  -6.050120e+04   3.951862e+05
   3.958244e+05   3.149188e+05
   5.374716e+04   3.562662e+05
  -1.044362e+06   2.025908e+05
  -1.884455e+06  -2.896461e+05
  -1.493157e+06  -9.340256e+05
   8.719616e+03  -1.303243e+06
   1.434085e+06  -1.049267e+06
   1.674369e+06  -2.796528e+05
   7.741172e+05   4.225073e+05
  -2.282951e+05   5.115244e+05
  -4.623032e+05   4.379776e+04
  -2.041820e+04  -3.731877e+05
   4.154985e+05  -2.374536e+05
   4.428551e+05   3.130499e+05
   2.202738e+05   6.726905e+05
   7.437590e+04   4.448008e+05
   1.261467e+05  -1.010984e+05
   2.672122e+05  -2.888309e+05
   2.581646e+05   2.098712e+05
  -1.321437e+05   9.172396e+05
  -8.214121e+05   9.842680e+05
  -1.234808e+06   1.551412e+05
  -7.706969e+05  -8.410739e+05
   3.777338e+05  -1.036404e+06
   1.147999e+06  -3.009253e+05
   6.784391e+05   5.291340e+05
  -6.382613e+05   6.047068e+05
  -1.470503e+06  -6.829091e+04
  -9.534414e+05  -7.817582e+05
   4.222377e+05  -9.254921e+05
   1.379440e+06  -4.736197e+05
   1.150416e+06   1.544822e+05
   1.356037e+05   4.756367e+05
  -5.943113e+05   2.592879e+05
  -3.508141e+05  -2.650588e+05
   5.441129e+05  -4.807845e+05
   1.093527e+06   7.609352e+04
   6.181570e+05   1.092942e+06
  -5.457778e+05   1.575469e+06
  -1.371954e+06   8.232737e+05
  -1.167222e+06  -6.946769e+05
  -2.003443e+05  -1.657730e+06
   6.734198e+05  -1.208401e+06
   8.570795e+05   1.489118e+05
   4.142974e+05   1.096041e+06
  -1.860262e+05   9.000645e+05
  -5.155472e+05   8.468318e+04
  -4.401230e+05  -3.452194e+05
  -1.592371e+05  -1.259176e+05
  -4.121931e+04   8.973231e+04
  -2.508320e+05  -2.695514e+05
  -4.750468e+05  -8.889335e+05
  -1.924548e+05  -9.948336e+05
   6.493723e+05  -3.692856e+05
   1.369107e+06   4.181108e+05
   1.196801e+06   7.614344e+05
   1.769275e+05   6.431198e+05
  -7.907543e+05   3.965814e+05
  -9.098120e+05   1.792503e+05
  -3.292979e+05  -4.526235e+04
   1.344909e+05  -2.104453e+05
   2.550385e+04  -1.898889e+05
  -2.517985e+05  -8.475191e+04
  -4.661579e+04  -1.240265e+05
   6.153094e+05  -2.261055e+05
   9.691986e+05   1.848054e+03
   4.019375e+05   6.398664e+05
  -7.718525e+05   1.099245e+06
  -1.565721e+06   7.133010e+05
  -1.309022e+06  -3.896613e+05
  -2.687344e+05  -1.300312e+06
   6.962532e+05  -1.279849e+06
   9.678189e+05  -5.079063e+05
   6.109843e+05   2.086421e+05
   1.269665e+05   3.315131e+05
  -6.728421e+04   6.381016e+04
   7.270796e+04  -1.634878e+04
   2.816979e+05   3.357271e+05
   2.377103e+05   7.445889e+05
  -1.591472e+05   6.312816e+05
  -6.339599e+05  -1.036222e+05
  -6.973524e+05  -8.736569e+05
  -1.198605e+05  -9.566710e+05
   6.962286e+05  -2.412077e+05
   9.698928e+05   6.542082e+05
   3.368102e+05   1.006295e+06
  -6.535841e+05   6.376417e+05
  -1.038046e+06  -5.610967e+04
  -4.987202e+05  -5.628832e+05
   2.598158e+05  -6.325615e+05
   3.484566e+05  -3.434812e+05
  -2.286178e+05  -2.410533e+03
  -6.009217e+05   4.538504e+04
  -1.397284e+05  -2.845445e+05
   7.557387e+05  -6.384590e+05
   1.159225e+06  -5.121811e+05
   7.080420e+05   1.587143e+05
  -7.908364e+04   8.071877e+05
  -5.033494e+05   7.984779e+05
  -3.959804e+05   1.545732e+05
  -5.820121e+04  -4.432945e+05
   2.166232e+05  -4.081160e+05
   3.299670e+05   1.291409e+05
   2.434682e+05   5.315135e+05
  -4.434043e+04   3.992238e+05
  -3.637364e+05  -3.500809e+04
  -4.436483e+05  -2.560562e+05
  -2.245693e+05  -8.772267e+04
   3.351018e+04   1.416834e+05
   7.384799e+04   4.337275e+04
  -2.111175e+04  -3.283233e+05
   3.529727e+04  -5.174445e+05
   2.943274e+05  -2.135287e+05
   4.362482e+05   3.439718e+05
   1.602213e+05   6.009222e+05
  -3.730295e+05   2.998711e+05
  -6.230476e+05  -2.484494e+05
  -2.460255e+05  -5.272363e+05
   4.661712e+05  -3.457631e+05
   8.217195e+05   5.678457e+04
   4.503873e+05   3.434015e+05
  -2.678493e+05   3.778361e+05
  -5.915960e+05   2.235315e+05
  -2.351052e+05   1.964612e+04
   3.170508e+05  -7.395787e+04
   3.791644e+05   4.754400e+04
  -1.463198e+05   2.714685e+05
  -6.785159e+05   2.659142e+05
