
 $NMID
 id='ANONYMOUS ', fmtdat='(2E16.6)'
 volume=1.0
 tramp=1.0
 $END
   5.781121e+07  -1.198481e+06
   3.540783e+07   3.537317e+07
  -7.070811e+06   3.938339e+07
  -2.813735e+07   1.532689e+07
  -1.695426e+07  -7.168135e+06
   3.352976e+06  -9.630724e+06
   1.007709e+07   1.261127e+06
   2.865156e+06   1.000737e+07
  -6.299741e+06   9.517040e+06
  -9.842725e+06   2.085953e+06
  -7.233028e+06  -6.181725e+06
  -1.001909e+06  -8.699677e+06
   3.985227e+06  -2.907487e+06
   2.745365e+06   5.382122e+06
  -3.754545e+06   6.630241e+06
  -8.059982e+06  -1.290856e+06
  -4.686556e+06  -1.035432e+07
   3.675547e+06  -1.211296e+07
   1.021975e+07  -6.250907e+06
   1.112746e+07   1.827606e+06
   7.027547e+06   7.517179e+06
   9.621684e+05   8.940662e+06
  -2.938195e+06   6.379795e+06
  -2.054627e+06   2.773380e+06
   1.027420e+06   1.998929e+06
   3.979920e+05   4.087379e+06
  -5.243084e+06   4.578699e+06
  -9.704983e+06   7.991701e+05
  -7.268379e+06  -3.978889e+06
  -4.851305e+05  -5.141364e+06
   3.596244e+06  -2.770881e+06
   2.504533e+06  -2.103828e+05
  -4.416328e+05   8.438071e+05
  -2.111736e+06   5.652072e+05
  -2.208316e+06  -1.255669e+06
  -8.822715e+05  -3.864629e+06
   1.690461e+06  -3.998467e+06
   3.372115e+06  -6.700386e+04
   1.936688e+06   3.669908e+06
  -7.324288e+05   2.107738e+06
  -4.611647e+05  -2.364619e+06
   2.421327e+06  -2.337451e+06
   2.532837e+06   3.238897e+06
  -2.446136e+06   6.333687e+06
  -7.201114e+06   1.162432e+06
  -5.417209e+06  -7.034256e+06
   1.822307e+06  -8.806109e+06
   7.555479e+06  -2.629316e+06
   7.116866e+06   4.405574e+06
   1.920588e+06   6.079510e+06
  -3.489242e+06   2.761191e+06
  -5.308737e+06  -1.509126e+06
  -2.452548e+06  -3.518890e+06
   2.463454e+06  -2.263609e+06
   4.632107e+06   8.885198e+05
   2.016147e+06   2.761404e+06
  -1.736533e+06   1.428716e+06
  -1.756126e+06  -1.021995e+06
   1.394888e+06  -9.206761e+05
   2.564189e+06   1.844639e+06
  -6.551126e+05   3.610731e+06
  -4.792067e+06   2.025950e+06
  -5.464519e+06  -1.351445e+06
  -2.421446e+06  -4.053458e+06
   1.705407e+06  -5.385319e+06
   4.919159e+06  -5.017151e+06
   6.217553e+06  -1.935325e+06
   4.747702e+06   3.066852e+06
   1.110079e+06   6.221845e+06
  -1.830198e+06   4.847671e+06
  -1.809573e+06   1.199915e+06
  -1.363393e+05  -3.453338e+05
   1.629479e+05   9.475366e+05
  -1.475625e+06   1.880749e+06
  -2.790612e+06   3.908082e+05
  -2.101743e+06  -1.814331e+06
  -1.266125e+05  -2.109962e+06
   1.493598e+06  -2.475410e+05
   1.699568e+06   2.008406e+06
   8.144680e+04   2.928999e+06
  -2.731244e+06   1.753671e+06
  -4.559871e+06  -1.063669e+06
  -3.387209e+06  -3.733912e+06
  -7.560758e+04  -4.331193e+06
   2.276642e+06  -2.848597e+06
   2.284680e+06  -1.203022e+06
   1.865707e+06  -6.986922e+05
   2.961490e+06  -5.088882e+05
   4.390574e+06   7.075853e+05
   3.549578e+06   2.729686e+06
   1.974989e+05   4.142934e+06
  -3.140935e+06   3.973083e+06
  -4.130984e+06   2.228047e+06
  -2.679883e+06  -3.346224e+05
  -3.590396e+05  -2.222468e+06
   1.035465e+06  -1.978626e+06
   5.699218e+05   1.079782e+04
  -1.057224e+06   1.341813e+06
  -1.920355e+06   4.412003e+05
  -9.694286e+05  -1.200419e+06
   4.871776e+05  -1.126533e+06
   4.118994e+05   3.927660e+05
  -1.106944e+06   6.828304e+05
  -1.900653e+06  -1.358198e+06
  -6.316523e+05  -3.568436e+06
   1.661347e+06  -3.425267e+06
   3.191235e+06  -1.064731e+06
   3.302264e+06   1.470908e+06
   2.258119e+06   2.730877e+06
   4.723176e+05   2.582504e+06
  -1.209752e+06   1.485882e+06
  -1.571849e+06   2.649249e+05
  -4.963551e+05  -3.793746e+04
   3.715351e+05   7.530486e+05
  -4.058890e+05   1.371368e+06
  -1.936175e+06   6.171698e+05
  -2.076617e+06  -8.837664e+05
  -3.997331e+05  -1.440717e+06
   1.180069e+06  -5.866204e+05
   8.836457e+05   4.511180e+05
  -8.659880e+05   5.059032e+05
  -2.178031e+06  -3.340074e+05
  -1.725816e+06  -1.347246e+06
   2.513387e+05  -1.956842e+06
   2.297639e+06  -1.672034e+06
   2.784613e+06  -3.079087e+05
   1.249439e+06   1.268672e+06
  -9.104872e+05   1.548745e+06
  -1.592479e+06   2.226251e+05
  -2.333822e+05  -1.097949e+06
   1.522823e+06  -7.714703e+05
   1.743394e+06   7.751899e+05
   3.417388e+05   1.666578e+06
  -1.108798e+06   9.791421e+05
  -1.268276e+06  -3.264870e+05
  -2.381212e+05  -7.968958e+05
   8.178340e+05  -6.372809e+04
   7.662749e+05   1.055526e+06
  -5.522144e+05   1.450375e+06
  -2.014476e+06   5.878890e+05
  -2.074891e+06  -1.022854e+06
  -4.198819e+05  -2.091797e+06
   1.437739e+06  -1.680628e+06
   1.743606e+06  -2.279634e+05
   5.093317e+05   8.758440e+05
  -6.595275e+05   8.138764e+05
  -6.237370e+05   8.622908e+04
   1.289423e+05  -3.415536e+05
   4.749645e+05  -1.894225e+05
   8.291970e+04   6.128358e+04
  -4.774456e+05  -1.045407e+05
  -5.218543e+05  -7.002430e+05
   2.116851e+05  -1.206906e+06
   1.389357e+06  -9.179246e+05
   2.106166e+06   3.908105e+05
   1.508510e+06   1.939433e+06
  -1.815754e+05   2.437925e+06
  -1.604638e+06   1.427733e+06
  -1.685746e+06  -1.189542e+05
  -8.458406e+05  -8.747841e+05
  -3.160080e+05  -6.082055e+05
  -5.047770e+05  -1.841898e+05
  -6.653086e+05  -3.140666e+05
  -1.087438e+05  -7.867243e+05
   8.792597e+05  -9.161151e+05
   1.449861e+06  -3.322471e+05
   1.046004e+06   7.087626e+05
  -2.466958e+05   1.450937e+06
  -1.717529e+06   1.087822e+06
  -2.262029e+06  -4.595592e+05
  -1.159090e+06  -2.104980e+06
   1.004576e+06  -2.401972e+06
   2.564560e+06  -1.061824e+06
   2.368588e+06   6.550680e+05
   9.485129e+05   1.338502e+06
  -2.146031e+05   9.280492e+05
  -3.661114e+05   4.911702e+05
  -2.944421e+04   7.601958e+05
  -6.337059e+04   1.339850e+06
  -6.602990e+05   1.326527e+06
  -1.309753e+06   3.481540e+05
  -1.370291e+06  -1.063930e+06
  -5.942769e+05  -1.897631e+06
   5.998067e+05  -1.457309e+06
   1.292812e+06  -1.269172e+04
   8.321204e+05   1.292182e+06
  -3.903001e+05   1.415628e+06
  -1.188239e+06   4.058137e+05
  -8.330375e+05  -7.238874e+05
   1.296674e+05  -1.106295e+06
   5.587171e+05  -7.942342e+05
   9.249742e+04  -4.089568e+05
  -4.472852e+05  -3.237944e+05
  -7.029758e+04  -3.819692e+05
   1.164735e+06  -2.266586e+05
   2.099141e+06   3.069708e+05
   1.646704e+06   1.029176e+06
  -3.337404e+04   1.462166e+06
  -1.604949e+06   1.182849e+06
  -1.849907e+06   2.952499e+05
  -8.422773e+05  -5.112267e+05
   2.633025e+05  -5.904747e+05
   5.227311e+05  -3.191718e+04
   4.743128e+04   4.391437e+05
  -4.324011e+05   2.724438e+05
  -4.945118e+05  -3.350839e+05
  -2.888309e+05  -7.163035e+05
  -1.250311e+05  -4.782186e+05
  -1.352516e+05   8.303551e+04
  -2.611488e+05   2.800139e+05
  -2.774426e+05  -2.320221e+05
   1.147995e+05  -9.879876e+05
   8.876980e+05  -1.094081e+06
   1.393741e+06  -2.174901e+05
   9.012155e+05   9.031133e+05
  -3.958666e+05   1.176481e+06
  -1.274770e+06   3.863232e+05
  -7.530689e+05  -5.557685e+05
   7.021690e+05  -6.610187e+05
   1.591464e+06   8.338353e+04
   9.959620e+05   8.605411e+05
  -4.956592e+05   9.854025e+05
  -1.496387e+06   4.722840e+05
  -1.223308e+06  -1.911320e+05
  -1.304791e+05  -5.102041e+05
   6.532450e+05  -2.701356e+05
   4.011882e+05   2.970785e+05
  -5.661616e+05   5.500654e+05
  -1.195489e+06  -3.700644e+04
  -7.257920e+05  -1.164316e+06
   5.271672e+05  -1.737988e+06
   1.460374e+06  -9.435803e+05
   1.282718e+06   7.245777e+05
   2.462030e+05   1.792863e+06
  -7.186424e+05   1.302589e+06
  -9.301017e+05  -1.780886e+05
  -4.379145e+05  -1.194457e+06
   2.283597e+05  -9.657511e+05
   5.723774e+05  -8.483458e+04
   4.569915e+05   3.666533e+05
   1.452404e+05   1.287139e+05
   5.568548e+04  -9.033975e+04
   3.200183e+05   3.056522e+05
   5.453426e+05   9.681394e+05
   1.870132e+05   1.077161e+06
  -7.424785e+05   4.081663e+05
  -1.489452e+06  -4.360038e+05
  -1.279490e+06  -8.158194e+05
  -1.979535e+05  -7.049101e+05
   8.257194e+05  -4.430802e+05
   9.778369e+05  -1.955542e+05
   3.852090e+05   5.945799e+04
  -1.316611e+05   2.329083e+05
  -6.088369e+04   1.933748e+05
   2.370128e+05   7.239397e+04
   6.679901e+04   1.306292e+05
  -6.257422e+05   2.664139e+05
  -1.059149e+06   2.624261e+04
  -5.031463e+05  -6.905735e+05
   7.843703e+05  -1.229519e+06
   1.714737e+06  -8.345055e+05
   1.476079e+06   3.753564e+05
   3.303263e+05   1.403779e+06
  -7.435182e+05   1.420244e+06
  -1.043264e+06   5.961011e+05
  -6.622454e+05  -1.962199e+05
  -1.602546e+05  -3.578688e+05
   3.864842e+04  -8.895224e+04
  -9.310428e+04  -4.124253e+03
  -2.974186e+05  -3.732549e+05
  -2.583227e+05  -8.085861e+05
   1.533181e+05  -6.978466e+05
   6.832423e+05   7.718705e+04
   7.957180e+05   9.123842e+05
   1.890160e+05   1.039855e+06
  -7.290787e+05   3.083059e+05
  -1.078048e+06  -6.606221e+05
  -4.103622e+05  -1.089174e+06
   6.909269e+05  -7.331358e+05
   1.148349e+06   2.825555e+04
   5.770409e+05   6.247877e+05
  -2.694104e+05   7.262375e+05
  -4.003104e+05   3.917323e+05
   2.168059e+05  -1.087657e+04
   6.451253e+05  -6.593335e+04
   1.695010e+05   3.121359e+05
  -8.110684e+05   7.066136e+05
  -1.282008e+06   5.607206e+05
  -8.084480e+05  -1.799474e+05
   6.561409e+04  -8.933573e+05
   5.581782e+05  -8.960354e+05
   4.571084e+05  -2.024641e+05
   8.786887e+04   4.672066e+05
  -2.198201e+05   4.656076e+05
  -3.575853e+05  -1.061144e+05
  -2.808487e+05  -5.724991e+05
   2.961014e+04  -4.608042e+05
   3.970391e+05   1.796033e+04
   5.007616e+05   2.882027e+05
   2.487011e+05   1.083727e+05
  -5.603448e+04  -1.742440e+05
  -8.664165e+04  -9.128866e+04
   6.723484e+04   3.350983e+05
   3.145241e+04   5.897454e+05
  -2.928871e+05   2.886511e+05
  -5.168340e+05  -3.277686e+05
  -2.374034e+05  -6.415788e+05
   3.840170e+05  -3.475010e+05
   7.013913e+05   2.361125e+05
   2.931498e+05   5.561146e+05
  -5.084243e+05   3.922166e+05
  -9.122394e+05  -2.905552e+04
  -5.068411e+05  -3.625941e+05
   2.812097e+05  -4.390377e+05
   6.446002e+05  -2.837837e+05
   2.775741e+05  -3.358419e+04
  -3.101828e+05   1.073549e+05
  -3.986017e+05  -1.273471e+04
   1.297536e+05  -2.773876e+05
   6.912142e+05  -3.018159e+05
