
 $NMID
 id='ANONYMOUS ', fmtdat='(2E16.6)'
 volume=1.0
 tramp=1.0
 $END
   3.674883e+07  -3.236257e+06
   2.494694e+07   1.937009e+07
  -1.287851e+06   2.500241e+07
  -1.674546e+07   1.284354e+07
  -1.205888e+07  -2.002358e+06
   8.038601e+05  -6.517528e+06
   6.900549e+06  -8.931815e+05
   3.462959e+06   6.195430e+06
  -2.975288e+06   7.659800e+06
  -6.448932e+06   2.752803e+06
  -5.304221e+06  -3.891162e+06
  -1.033745e+06  -6.176158e+06
   2.718249e+06  -1.945928e+06
   2.277249e+06   4.241078e+06
  -2.087823e+06   5.428343e+06
  -5.560522e+06  -1.576044e+03
  -3.955861e+06  -6.622833e+06
   1.602746e+06  -8.367850e+06
   6.400497e+06  -4.576123e+06
   7.189286e+06   9.435423e+05
   4.389270e+06   4.553495e+06
   7.164408e+05   5.136053e+06
  -1.018186e+06   3.674338e+06
   1.484100e+04   2.257619e+06
   1.482500e+06   2.506645e+06
  -1.035393e+04   3.688676e+06
  -4.409797e+06   3.267058e+06
  -7.276174e+06   2.934041e+05
  -5.033436e+06  -2.885882e+06
   1.939009e+05  -3.445939e+06
   3.109445e+06  -1.485077e+06
   1.672802e+06   6.319500e+05
  -1.333802e+06   1.218731e+06
  -2.631957e+06   1.889022e+05
  -1.782632e+06  -1.778515e+06
  -9.109949e+04  -3.290267e+06
   1.343984e+06  -2.540125e+06
   1.735586e+06   3.746259e+05
   7.680529e+05   2.302405e+06
  -3.924457e+05   6.543123e+05
   7.944763e+04  -2.356268e+06
   1.847901e+06  -2.049294e+06
   2.073282e+06   1.918138e+06
  -7.517056e+05   4.320283e+06
  -4.001549e+06   1.337441e+06
  -3.713674e+06  -4.001324e+06
   4.819711e+05  -5.656075e+06
   4.799625e+06  -2.072241e+06
   5.425276e+06   2.691459e+06
   2.059511e+06   4.361762e+06
  -2.348536e+06   2.499802e+06
  -4.291268e+06  -5.309789e+05
  -2.407836e+06  -2.331813e+06
   1.336811e+06  -1.860394e+06
   3.257635e+06   1.678752e+05
   1.694554e+06   1.659156e+06
  -1.046327e+06   1.083826e+06
  -1.502870e+06  -6.080924e+05
   5.456662e+05  -1.044642e+06
   1.944021e+06   4.541448e+05
   4.519032e+05   2.027539e+06
  -2.453745e+06   1.781621e+06
  -3.671240e+06  -1.418330e+05
  -2.028433e+06  -2.383159e+06
   1.117307e+06  -3.845027e+06
   3.740028e+06  -3.689922e+06
   4.535079e+06  -1.344768e+06
   3.243530e+06   2.258422e+06
   8.333781e+05   4.527535e+06
  -9.259966e+05   3.791284e+06
  -1.060047e+06   1.473721e+06
  -4.590237e+05   3.179435e+05
  -6.458260e+05   8.450802e+05
  -1.717793e+06   1.080503e+06
  -2.311232e+06  -2.655705e+05
  -1.465933e+06  -1.930101e+06
   2.783519e+05  -1.928901e+06
   1.609419e+06  -1.001682e+05
   1.557805e+06   1.905416e+06
  -1.377060e+04   2.466136e+06
  -2.202254e+06   1.222195e+06
  -3.329760e+06  -9.601152e+05
  -2.327904e+06  -2.653332e+06
  -9.081015e+04  -2.869441e+06
   1.364605e+06  -1.908521e+06
   1.358803e+06  -9.966160e+05
   1.274593e+06  -8.051300e+05
   2.334180e+06  -6.873559e+05
   3.576766e+06   3.062278e+05
   3.008146e+06   2.055065e+06
   3.145273e+05   3.415607e+06
  -2.552684e+06   3.359863e+06
  -3.471817e+06   1.780067e+06
  -2.155599e+06  -4.512679e+05
  -7.886834e+04  -1.893912e+06
   1.004912e+06  -1.531528e+06
   4.388591e+05   8.322937e+04
  -9.167617e+05   1.089372e+06
  -1.514380e+06   3.866466e+05
  -7.133345e+05  -9.174911e+05
   4.611975e+05  -9.499374e+05
   5.122270e+05   2.974648e+05
  -6.701623e+05   8.625670e+05
  -1.649528e+06  -5.039574e+05
  -1.147093e+06  -2.586415e+06
   6.284260e+05  -3.183895e+06
   2.421733e+06  -1.634176e+06
   3.120821e+06   7.595242e+05
   2.353985e+06   2.317180e+06
   5.728799e+05   2.349248e+06
  -1.049408e+06   1.294096e+06
  -1.355880e+06   2.006554e+05
  -4.167792e+05  -1.966617e+04
   3.381767e+05   6.126594e+05
  -2.332904e+05   1.093576e+06
  -1.472540e+06   5.699376e+05
  -1.706235e+06  -5.598658e+05
  -4.412801e+05  -1.105239e+06
   9.378641e+05  -5.633190e+05
   8.478040e+05   3.432237e+05
  -6.490191e+05   6.119898e+05
  -1.978674e+06  -2.700704e+04
  -1.728984e+06  -1.087996e+06
   3.877366e+04  -1.818561e+06
   1.908896e+06  -1.595816e+06
   2.351856e+06  -3.766493e+05
   1.072561e+06   9.659093e+05
  -6.662031e+05   1.228951e+06
  -1.211537e+06   2.156050e+05
  -1.709694e+05  -8.458792e+05
   1.224580e+06  -6.674941e+05
   1.492949e+06   5.432067e+05
   4.368963e+05   1.377340e+06
  -8.201719e+05   9.606972e+05
  -1.109863e+06  -1.110592e+05
  -3.197559e+05  -6.236000e+05
   6.211313e+05  -1.021074e+05
   6.444858e+05   8.393055e+05
  -4.457349e+05   1.204999e+06
  -1.672537e+06   5.087507e+05
  -1.739810e+06  -8.138564e+05
  -4.096497e+05  -1.717737e+06
   1.113219e+06  -1.446418e+06
   1.436771e+06  -2.832757e+05
   4.961616e+05   6.976268e+05
  -5.057418e+05   7.297828e+05
  -5.782357e+05   8.089094e+04
   5.458755e+04  -3.988566e+05
   4.844904e+05  -2.767030e+05
   2.416372e+05   8.964118e+04
  -3.243225e+05   8.202115e+04
  -5.182323e+05  -4.530159e+05
   5.289756e+04  -1.001455e+06
   1.104957e+06  -8.359526e+05
   1.774671e+06   2.485840e+05
   1.313083e+06   1.573013e+06
  -8.697091e+04   2.072920e+06
  -1.326172e+06   1.323000e+06
  -1.504384e+06   4.705001e+03
  -8.519770e+05  -7.939190e+05
  -3.081589e+05  -6.880151e+05
  -3.253527e+05  -2.469740e+05
  -4.554095e+05  -1.938157e+05
  -1.026574e+05  -5.803024e+05
   6.754759e+05  -8.185367e+05
   1.235343e+06  -3.826525e+05
   9.840139e+05   5.922111e+05
  -1.155739e+05   1.327823e+06
  -1.427741e+06   1.034029e+06
  -1.956155e+06  -3.038237e+05
  -1.094011e+06  -1.720566e+06
   6.851140e+05  -2.047123e+06
   2.061711e+06  -1.035645e+06
   2.062165e+06   3.882585e+05
   9.719574e+05   1.103121e+06
  -8.847881e+04   9.073406e+05
  -3.831417e+05   5.243029e+05
  -1.517201e+05   6.158061e+05
  -8.315859e+04   1.030416e+06
  -4.878546e+05   1.065408e+06
  -1.042236e+06   3.089937e+05
  -1.157513e+06  -8.655244e+05
  -5.377793e+05  -1.584904e+06
   4.791454e+05  -1.240814e+06
   1.098276e+06  -6.446386e+04
   7.650578e+05   1.021384e+06
  -2.165269e+05   1.199009e+06
  -9.106028e+05   4.659799e+05
  -7.198959e+05  -4.530479e+05
  -1.813464e+04  -8.666426e+05
   3.337282e+05  -7.076833e+05
   2.305222e+04  -3.967585e+05
  -3.610636e+05  -2.843757e+05
  -5.421074e+04  -3.288433e+05
   9.338969e+05  -2.402830e+05
   1.718355e+06   1.730151e+05
   1.414425e+06   7.806792e+05
   8.674822e+04   1.181343e+06
  -1.231560e+06   1.019861e+06
  -1.521055e+06   3.529161e+05
  -7.558618e+05  -3.135280e+05
   1.641420e+05  -4.616708e+05
   4.159270e+05  -8.196571e+04
   2.623572e+04   3.083736e+05
  -3.864417e+05   2.203088e+05
  -4.124829e+05  -2.706335e+05
  -1.878257e+05  -6.102707e+05
  -4.975513e+04  -3.988609e+05
  -1.235538e+05   1.218184e+05
  -2.721140e+05   2.991509e+05
  -2.537347e+05  -1.809829e+05
   1.087845e+05  -8.558858e+05
   7.147911e+05  -9.295807e+05
   1.079743e+06  -1.766715e+05
   6.964106e+05   7.339582e+05
  -2.992400e+05   9.326190e+05
  -1.009503e+06   2.905956e+05
  -6.341256e+05  -4.720329e+05
   5.573770e+05  -5.903618e+05
   1.378468e+06  -8.065041e+03
   9.591869e+05   6.884652e+05
  -3.267049e+05   9.092807e+05
  -1.277950e+06   5.372024e+05
  -1.107180e+06  -8.161949e+04
  -1.593579e+05  -4.476050e+05
   5.386614e+05  -2.801163e+05
   3.242805e+05   2.160515e+05
  -4.958289e+05   4.391495e+05
  -9.977745e+05  -5.788744e+04
  -5.695690e+05  -9.889582e+05
   4.833556e+05  -1.443600e+06
   1.246812e+06  -7.744768e+05
   1.093162e+06   6.139262e+05
   2.334221e+05   1.528949e+06
  -5.865240e+05   1.157686e+06
  -8.101403e+05  -8.657049e+04
  -4.459452e+05  -1.001630e+06
   1.146618e+05  -8.647524e+05
   4.677300e+05  -1.122996e+05
   4.397047e+05   3.158629e+05
   1.743882e+05   1.266566e+05
   2.761165e+04  -9.512686e+04
   2.095488e+05   2.117976e+05
   4.574778e+05   7.928908e+05
   2.408032e+05   9.271845e+05
  -5.534217e+05   3.795176e+05
  -1.283390e+06  -3.421863e+05
  -1.160285e+06  -6.712930e+05
  -1.906689e+05  -5.826658e+05
   7.413136e+05  -3.819701e+05
   8.465125e+05  -2.029776e+05
   2.885361e+05   8.901532e+03
  -1.263793e+05   1.928869e+05
   8.357164e+03   2.002660e+05
   2.620100e+05   9.708089e+04
   3.383703e+04   1.110766e+05
  -5.908352e+05   2.051493e+05
  -8.859996e+05   1.992743e+04
  -3.444020e+05  -5.573404e+05
   7.018666e+05  -1.007501e+06
   1.391081e+06  -6.876153e+05
   1.171795e+06   3.252452e+05
   2.724401e+05   1.190847e+06
  -5.903717e+05   1.191315e+06
  -8.683717e+05   4.752037e+05
  -5.680286e+05  -1.929491e+05
  -1.132260e+05  -2.966589e+05
   8.197501e+04  -3.358810e+04
  -6.262635e+04   4.199842e+04
  -2.872845e+05  -2.953592e+05
  -2.541673e+05  -6.819645e+05
   1.321262e+05  -5.770027e+05
   5.862880e+05   9.993041e+04
   6.421744e+05   7.988112e+05
   1.045714e+05   8.628773e+05
  -6.433121e+05   2.065479e+05
  -8.926550e+05  -5.986803e+05
  -3.190901e+05  -9.082230e+05
   5.810205e+05  -5.811137e+05
   9.386143e+05   2.608892e+04
   4.637715e+05   4.773299e+05
  -2.103328e+05   5.622145e+05
  -2.836733e+05   3.269411e+05
   2.345645e+05   1.457225e+04
   5.573123e+05  -5.233049e+04
   1.287295e+05   2.494682e+05
  -6.779041e+05   6.128821e+05
  -1.034154e+06   5.324216e+05
  -6.347882e+05  -9.564153e+04
   4.881105e+04  -7.328923e+05
   4.125248e+05  -7.446857e+05
   3.262115e+05  -1.417053e+05
   4.800692e+04   4.129973e+05
  -1.883961e+05   3.648215e+05
  -3.012241e+05  -1.345471e+05
  -2.345670e+05  -4.816599e+05
   2.950220e+04  -3.436449e+05
   3.310580e+05   3.262087e+04
   4.115497e+05   2.030882e+05
   2.133102e+05   5.875385e+04
  -2.805082e+04  -1.060948e+05
  -8.076987e+04   2.660974e+03
  -1.083986e+04   3.069475e+05
  -5.904304e+04   4.346106e+05
  -2.668127e+05   1.541771e+05
  -3.684076e+05  -3.240135e+05
  -1.182280e+05  -5.386675e+05
   3.436965e+05  -2.695964e+05
   5.576806e+05   2.230520e+05
   2.245565e+05   4.841545e+05
  -4.103907e+05   3.290037e+05
  -7.384540e+05  -3.675098e+04
  -4.155458e+05  -3.017932e+05
   2.303269e+05  -3.356151e+05
   5.239461e+05  -2.002578e+05
   1.945719e+05  -2.623666e+04
  -3.109709e+05   4.793416e+04
  -3.521679e+05  -6.494416e+04
   1.548581e+05  -2.634733e+05
   6.532773e+05  -2.503956e+05
