
 $NMID
 id='ANONYMOUS ', fmtdat='(2E16.6)'
 volume=1.0
 tramp=1.0
 $END
   7.023687e+06   4.534695e+05
   4.735582e+06   3.400225e+06
  -2.673227e+04   4.493222e+06
  -3.277047e+06   3.101247e+06
  -2.854443e+06   3.607568e+05
  -2.040466e+05  -1.392307e+06
   1.641327e+06  -7.344261e+05
   1.222800e+06   1.280034e+06
  -4.409473e+05   2.203957e+06
  -1.499198e+06   9.401338e+05
  -1.147199e+06  -1.073857e+06
  -1.589003e+03  -1.622034e+06
   7.666142e+05  -2.300551e+05
   4.701399e+05   1.456583e+06
  -5.691043e+05   1.612108e+06
  -1.291461e+06   1.193992e+05
  -8.686414e+05  -1.519023e+06
   4.276033e+05  -1.835195e+06
   1.440690e+06  -7.592345e+05
   1.330174e+06   5.510963e+05
   4.367995e+05   1.017665e+06
  -1.760914e+05   6.638442e+05
   6.653800e+04   3.607272e+05
   6.620461e+05   7.012120e+05
   6.284246e+05   1.315255e+06
  -4.052697e+05   1.360835e+06
  -1.708582e+06   5.361271e+05
  -2.064408e+06  -5.733883e+05
  -9.970419e+05  -1.112103e+06
   5.894519e+05  -7.543344e+05
   1.203837e+06   9.608220e+04
   3.334753e+05   7.080814e+05
  -9.735361e+05   5.716846e+05
  -1.300249e+06  -2.371583e+05
  -4.478571e+05  -1.057266e+06
   5.010990e+05  -1.137564e+06
   5.991517e+05  -3.745090e+05
   4.953485e+04   4.619215e+05
  -3.074008e+05   4.738090e+05
  -8.427506e+04  -3.294241e+05
   3.976802e+05  -9.642207e+05
   6.687301e+05  -6.012428e+05
   5.336684e+05   4.123912e+05
   5.686963e+04   9.234622e+05
  -4.745975e+05   3.301255e+05
  -5.727820e+05  -7.103987e+05
   6.434968e+04  -1.044603e+06
   1.028518e+06  -2.975382e+05
   1.375153e+06   7.987585e+05
   6.010740e+05   1.249653e+06
  -6.848629e+05   7.617938e+05
  -1.321871e+06  -1.243769e+05
  -8.055020e+05  -6.545305e+05
   2.393785e+05  -5.130379e+05
   7.867117e+05   1.325591e+04
   4.509690e+05   3.695552e+05
  -2.368346e+05   2.392177e+05
  -4.760678e+05  -1.907840e+05
  -3.924234e+04  -4.386427e+05
   5.167313e+05  -2.252246e+05
   4.748807e+05   2.362940e+05
  -2.087731e+05   4.572594e+05
  -7.832197e+05   1.595430e+05
  -5.070441e+05  -4.588585e+05
   4.922703e+05  -8.919060e+05
   1.323066e+06  -7.348144e+05
   1.292085e+06  -7.717277e+03
   5.847804e+05   8.349182e+05
  -7.978005e+04   1.250911e+06
  -2.861697e+05   1.072214e+06
  -2.373027e+05   6.317754e+05
  -3.280862e+05   3.580477e+05
  -6.338782e+05   2.705311e+05
  -8.750380e+05   2.325911e+04
  -7.505357e+05  -5.184020e+05
  -2.299617e+05  -9.402316e+05
   4.009786e+05  -7.097783e+05
   7.173598e+05   1.193510e+05
   4.613497e+05   8.467435e+05
  -2.085233e+05   8.333679e+05
  -7.829765e+05   1.454338e+05
  -8.209598e+05  -5.827673e+05
  -3.552476e+05  -8.271832e+05
   1.588610e+05  -6.089502e+05
   3.350569e+05  -3.147673e+05
   2.597826e+05  -2.287499e+05
   3.411812e+05  -2.830818e+05
   7.535682e+05  -1.954484e+05
   1.123423e+06   2.068903e+05
   8.813271e+05   7.785303e+05
  -5.303569e+04   1.135764e+06
  -1.039553e+06   9.670829e+05
  -1.286369e+06   3.226859e+05
  -6.525078e+05  -3.771057e+05
   2.034571e+05  -6.577191e+05
   5.069425e+05  -3.882337e+05
   1.268428e+05   9.371366e+04
  -3.950752e+05   2.896110e+05
  -4.913245e+05   3.572532e+04
  -1.313406e+05  -3.167431e+05
   2.453763e+05  -2.934128e+05
   2.332022e+05   1.170536e+05
  -1.572283e+05   3.802304e+05
  -5.395247e+05   2.203247e+04
  -4.970502e+05  -7.455004e+05
   6.207583e+04  -1.162927e+06
   7.930243e+05  -7.301238e+05
   1.152652e+06   2.381445e+05
   8.482022e+05   9.419857e+05
   1.194516e+05   9.090028e+05
  -4.537988e+05   3.851402e+05
  -4.858563e+05  -3.435241e+04
  -1.382989e+05  -2.959647e+04
   8.581783e+04   2.190536e+05
  -1.007799e+05   3.248415e+05
  -4.612947e+05   1.171056e+05
  -5.186456e+05  -2.174864e+05
  -1.243827e+05  -3.534482e+05
   3.280090e+05  -1.625449e+05
   3.141153e+05   1.526504e+05
  -2.170124e+05   2.503553e+05
  -7.285505e+05  -1.827298e+04
  -6.388953e+05  -4.557391e+05
   5.072967e+04  -6.881033e+05
   7.353210e+05  -4.982593e+05
   8.202387e+05  -2.434972e+04
   3.056752e+05   3.505851e+05
  -2.614346e+05   3.347326e+05
  -3.636638e+05   3.225083e+03
   1.073524e+04  -2.616630e+05
   4.307968e+05  -1.523625e+05
   4.787115e+05   2.314380e+05
   1.251259e+05   4.812422e+05
  -2.873373e+05   3.331605e+05
  -3.868808e+05  -3.435188e+04
  -1.234112e+05  -2.101241e+05
   1.838650e+05  -1.814546e+04
   1.622709e+05   3.002842e+05
  -2.189809e+05   3.682703e+05
  -5.845469e+05   6.736149e+04
  -5.278656e+05  -3.671067e+05
  -4.945309e+04  -5.851693e+05
   4.263464e+05  -4.268996e+05
   4.887073e+05  -4.092794e+04
   1.524360e+05   2.510902e+05
  -1.962591e+05   2.345151e+05
  -2.271790e+05  -6.352419e+03
   1.615356e+04  -1.834316e+05
   2.189412e+05  -1.187160e+05
   1.572428e+05   6.068915e+04
  -7.436125e+04   8.471251e+04
  -1.783781e+05  -1.208473e+05
   2.561169e+04  -3.237087e+05
   3.953213e+05  -2.360478e+05
   5.797470e+05   1.636847e+05
   3.563250e+05   5.878691e+05
  -1.370568e+05   7.007137e+05
  -5.227780e+05   4.131813e+05
  -5.458653e+05  -4.970212e+04
  -2.990381e+05  -3.511231e+05
  -7.776342e+04  -3.353762e+05
  -4.573044e+04  -1.489701e+05
  -8.926033e+04  -6.238661e+04
   4.280104e+02  -1.615864e+05
   2.502528e+05  -2.500486e+05
   4.448701e+05  -9.414910e+04
   3.381467e+05   2.608247e+05
  -8.312230e+04   4.865056e+05
  -5.381303e+05   3.073103e+05
  -6.604873e+05  -1.927776e+05
  -3.089081e+05  -6.260734e+05
   2.904208e+05  -6.535987e+05
   7.156656e+05  -2.771842e+05
   6.992061e+05   1.909556e+05
   3.353776e+05   4.240817e+05
  -4.582677e+04   3.585610e+05
  -1.986588e+05   2.037203e+05
  -1.527810e+05   1.864196e+05
  -1.122239e+05   2.950575e+05
  -2.039016e+05   3.008840e+05
  -3.426205e+05   4.122222e+04
  -3.331368e+05  -3.543672e+05
  -9.262557e+04  -5.630548e+05
   2.319711e+05  -3.921171e+05
   3.784607e+05   2.586305e+04
   2.195057e+05   3.626032e+05
  -9.968838e+04   3.915746e+05
  -2.938929e+05   1.545759e+05
  -2.195039e+05  -1.256797e+05
  -8.432570e+03  -2.608316e+05
   9.391621e+04  -2.335501e+05
   7.994965e+03  -1.569088e+05
  -9.426751e+04  -1.255046e+05
   6.592813e+03  -1.171508e+05
   3.069128e+05  -4.104605e+04
   5.413369e+05   1.327864e+05
   4.360350e+05   3.158690e+05
   5.212269e+03   3.786250e+05
  -4.248601e+05   2.713231e+05
  -5.175392e+05   6.638462e+04
  -2.552145e+05  -9.994161e+04
   5.881317e+04  -1.266899e+05
   1.332303e+05  -2.575937e+04
  -1.948411e+04   7.560886e+04
  -1.558812e+05   4.298186e+04
  -1.180867e+05  -1.136883e+05
   5.130108e+03  -2.214547e+05
   3.705008e+04  -1.359895e+05
  -5.388300e+04   5.721213e+04
  -1.356382e+05   1.130704e+05
  -8.199948e+04  -6.983615e+04
   9.962273e+04  -2.907994e+05
   2.859929e+05  -2.679688e+05
   3.288639e+05   1.631452e+04
   1.543961e+05   2.806523e+05
  -1.469887e+05   2.650494e+05
  -3.280640e+05   1.248273e+04
  -1.811287e+05  -2.034673e+05
   2.108574e+05  -1.767249e+05
   4.818783e+05   5.272741e+04
   3.335031e+05   2.780889e+05
  -1.272616e+05   3.210875e+05
  -4.736077e+05   1.614881e+05
  -4.033007e+05  -6.337386e+04
  -4.736900e+04  -1.696379e+05
   1.943075e+05  -8.348885e+04
   8.815664e+04   7.793330e+04
  -2.052875e+05   1.029787e+05
  -3.274359e+05  -9.929400e+04
  -1.049508e+05  -3.751225e+05
   2.790625e+05  -4.433407e+05
   4.798982e+05  -1.664580e+05
   3.322671e+05   2.821759e+05
  -1.227781e+04   5.389230e+05
  -2.660729e+05   3.787532e+05
  -2.791122e+05  -5.296239e+04
  -1.197296e+05  -3.642398e+05
   5.874554e+04  -3.075575e+05
   1.574904e+05  -2.619834e+04
   1.531890e+05   1.387779e+05
   7.559330e+04   6.285503e+04
   6.442413e+03  -3.933583e+04
   2.709427e+04   6.345415e+04
   9.952642e+04   2.867106e+05
   5.886542e+04   3.375961e+05
  -1.768476e+05   1.073821e+05
  -4.224241e+05  -1.895483e+05
  -3.847081e+05  -2.960812e+05
  -3.623319e+04  -2.031805e+05
   2.971959e+05  -8.266733e+04
   3.092094e+05  -2.971036e+04
   7.877542e+04   2.696942e+03
  -6.321708e+04   5.489137e+04
   1.807073e+04   8.570931e+04
   1.118476e+05   6.724199e+04
  -6.740469e+03   3.996420e+04
  -2.432447e+05   2.011496e+04
  -2.963288e+05  -5.394553e+04
  -3.975579e+04  -1.991552e+05
   3.240986e+05  -2.780832e+05
   4.885301e+05  -1.297438e+05
   3.374237e+05   1.931859e+05
   8.403412e+03   4.228531e+05
  -2.613735e+05   3.580690e+05
  -3.188580e+05   8.822379e+04
  -1.830032e+05  -1.162618e+05
  -7.725631e+03  -1.049898e+05
   5.378835e+04   1.399911e+04
  -1.601079e+04   3.182917e+04
  -9.445153e+04  -1.092067e+05
  -5.744609e+04  -2.467340e+05
   8.466683e+04  -1.801535e+05
   1.959307e+05   8.976850e+04
   1.488432e+05   3.267738e+05
  -4.953542e+04   2.913305e+05
  -2.447553e+05   4.560712e+02
  -2.525234e+05  -2.821779e+05
  -3.304490e+04  -3.225984e+05
   2.342467e+05  -1.384869e+05
   2.998960e+05   7.326320e+04
   1.128167e+05   1.679919e+05
  -1.005799e+05   1.507758e+05
  -9.137042e+04   8.933980e+04
   1.030987e+05   3.224859e+04
   1.975501e+05   2.154642e+04
   1.951775e+04   8.606300e+04
  -2.667430e+05   1.689073e+05
  -3.613764e+05   1.382195e+05
  -1.844340e+05  -4.814200e+04
   6.288555e+04  -2.337092e+05
   1.611296e+05  -2.174559e+05
   9.080690e+04  -1.137718e+04
  -2.433511e+04   1.516247e+05
  -8.963295e+04   9.662474e+04
  -9.232799e+04  -8.750506e+04
  -4.536919e+04  -1.775137e+05
   3.550380e+04  -9.200005e+04
   1.075993e+05   4.181491e+04
   1.196091e+05   7.692290e+04
   6.947124e+04   1.842233e+04
   7.110235e+03  -1.791905e+04
  -3.082459e+04   3.402785e+04
  -5.696783e+04   1.147378e+05
  -9.092726e+04   1.123922e+05
  -1.102656e+05  -9.243910e+03
  -6.974003e+04  -1.573658e+05
   3.627590e+04  -1.885737e+05
   1.436464e+05  -5.628768e+04
   1.564493e+05   1.244712e+05
   3.204299e+04   1.855972e+05
  -1.514965e+05   8.217485e+04
  -2.313516e+05  -6.823410e+04
  -1.138642e+05  -1.278225e+05
   9.709904e+04  -8.076832e+04
   1.807447e+05  -1.309804e+04
   4.822525e+04   5.572279e+03
  -1.321706e+05  -2.518689e+04
  -1.223289e+05  -7.187525e+04
   9.184227e+04  -9.288430e+04
   2.711268e+05  -3.855281e+04
