
 $NMID
 id='ANONYMOUS ', fmtdat='(2E16.6)'
 volume=1.0
 tramp=1.0
 $END
  -2.786555e+07   2.014316e+06
  -1.920901e+07  -1.276488e+07
  -4.257445e+05  -1.801218e+07
   1.163347e+07  -1.159917e+07
   9.675743e+06  -8.209481e+05
   5.052423e+05   4.910142e+06
  -5.317179e+06   2.222577e+06
  -3.952922e+06  -4.268276e+06
   1.168854e+06  -7.115720e+06
   4.906129e+06  -3.280359e+06
   4.574406e+06   3.160960e+06
   9.789980e+05   5.470828e+06
  -2.440582e+06   1.465193e+06
  -2.312471e+06  -4.213654e+06
   1.291406e+06  -5.298001e+06
   4.503344e+06  -6.091660e+05
   3.619277e+06   5.176387e+06
  -8.998599e+05   6.859465e+06
  -5.057733e+06   3.651464e+06
  -5.568743e+06  -1.083284e+06
  -2.832921e+06  -3.712442e+06
  -4.979384e+03  -3.390239e+06
   2.870874e+05  -2.000644e+06
  -1.526569e+06  -1.825651e+06
  -2.357929e+06  -3.196349e+06
   2.293605e+05  -4.223315e+06
   4.823053e+06  -2.958834e+06
   7.026469e+06   2.473484e+05
   4.258213e+06   2.929999e+06
  -9.581241e+05   3.039284e+06
  -3.583048e+06   8.686123e+05
  -1.621215e+06  -1.486238e+06
   2.093216e+06  -2.016489e+06
   3.616318e+06  -2.142803e+05
   2.056793e+06   2.527331e+06
  -4.277477e+05   3.718481e+06
  -1.581550e+06   1.970100e+06
  -1.013568e+06  -1.075029e+06
   1.514857e+05  -1.996552e+06
   5.456356e+05   3.475336e+05
  -3.742544e+05   2.951448e+06
  -1.762325e+06   2.196349e+06
  -1.918889e+06  -1.328357e+06
  -6.506642e+04  -3.305013e+06
   2.328696e+06  -1.136204e+06
   2.638669e+06   2.796325e+06
  -9.645938e+04   4.146372e+06
  -3.757793e+06   1.626238e+06
  -4.959753e+06  -2.112260e+06
  -2.361841e+06  -3.822546e+06
   1.905187e+06  -2.637035e+06
   4.170909e+06  -5.278170e+04
   2.684665e+06   1.799582e+06
  -7.592112e+05   1.715936e+06
  -2.710925e+06   1.622249e+05
  -1.610948e+06  -1.155701e+06
   7.644706e+05  -9.215154e+05
   1.540515e+06   4.021613e+05
   6.316445e+04   1.151352e+06
  -1.543109e+06   4.274519e+05
  -1.064136e+06  -9.557005e+05
   1.190096e+06  -1.493138e+06
   2.789238e+06  -4.618496e+05
   1.849842e+06   1.623535e+06
  -1.096285e+06   3.394183e+06
  -3.762920e+06   3.351882e+06
  -4.281191e+06   9.930628e+05
  -2.699900e+06  -2.320748e+06
  -6.120440e+05  -4.206592e+06
   5.064961e+05  -3.593384e+06
   5.745965e+05  -1.845568e+06
   6.133401e+05  -9.813984e+05
   1.359307e+06  -1.169831e+06
   2.380958e+06  -8.451680e+05
   2.587119e+06   8.058789e+05
   1.412037e+06   2.474148e+06
  -5.728077e+05   2.284187e+06
  -2.034920e+06   1.228422e+05
  -1.828878e+06  -2.154712e+06
   7.192895e+04  -2.632361e+06
   2.313616e+06  -1.055205e+06
   3.108647e+06   1.206364e+06
   1.882842e+06   2.529036e+06
  -9.341212e+04   2.359811e+06
  -1.103713e+06   1.444895e+06
  -9.539237e+05   8.855499e+05
  -1.029412e+06   9.606709e+05
  -2.258261e+06   9.135086e+05
  -3.604665e+06  -9.743362e+04
  -3.143333e+06  -1.950605e+06
  -4.533358e+05  -3.511199e+06
   2.610161e+06  -3.555487e+06
   3.694457e+06  -1.816276e+06
   2.245511e+06   6.426992e+05
  -9.572869e+04   2.088538e+06
  -1.207432e+06   1.550046e+06
  -4.463736e+05  -1.576851e+05
   9.985142e+05  -1.126185e+06
   1.501646e+06  -4.003049e+05
   6.418170e+05   9.121757e+05
  -5.201364e+05   1.020500e+06
  -6.699045e+05  -2.325611e+05
   3.934259e+05  -1.082290e+06
   1.598524e+06  -3.807194e+04
   1.635556e+06   2.191533e+06
   1.072634e+05   3.408421e+06
  -2.111372e+06   2.304584e+06
  -3.468829e+06  -2.738420e+05
  -2.906647e+06  -2.326700e+06
  -8.212435e+05  -2.588046e+06
   1.121559e+06  -1.424590e+06
   1.470933e+06  -2.115584e+05
   4.380332e+05   6.972123e+03
  -3.742913e+05  -6.199836e+05
   1.669173e+05  -1.070258e+06
   1.401881e+06  -6.047032e+05
   1.713192e+06   4.350203e+05
   5.298945e+05   1.036469e+06
  -9.169908e+05   6.377984e+05
  -9.707172e+05  -2.979748e+05
   5.660487e+05  -7.833485e+05
   2.147633e+06  -2.366218e+05
   2.059571e+06   1.026642e+06
   1.646742e+05   2.023295e+06
  -1.938196e+06   1.853102e+06
  -2.460885e+06   5.145355e+05
  -1.128662e+06  -9.203639e+05
   6.324044e+05  -1.208053e+06
   1.158505e+06  -2.218369e+05
   1.386938e+05   8.304540e+05
  -1.236508e+06   7.083375e+05
  -1.570422e+06  -4.652488e+05
  -5.908540e+05  -1.386748e+06
   7.218880e+05  -1.103213e+06
   1.158799e+06  -4.325034e+04
   4.279879e+05   5.767746e+05
  -5.825744e+05   1.255928e+05
  -6.648527e+05  -8.475264e+05
   4.615673e+05  -1.257037e+06
   1.747998e+06  -5.465770e+05
   1.825792e+06   8.185943e+05
   4.763746e+05   1.763519e+06
  -1.078199e+06   1.535425e+06
  -1.464706e+06   3.792978e+05
  -5.752628e+05  -6.770298e+05
   4.731767e+05  -7.952882e+05
   6.505424e+05  -1.116099e+05
   1.928772e+04   4.987001e+05
  -5.514011e+05   4.164457e+05
  -4.130572e+05  -7.867924e+04
   2.304107e+05  -2.108297e+05
   5.805969e+05   3.407410e+05
   4.964200e+04   1.015100e+06
  -1.096585e+06   9.258532e+05
  -1.860821e+06  -1.886946e+05
  -1.417454e+06  -1.599506e+06
   1.983668e+04  -2.196360e+06
   1.341034e+06  -1.505837e+06
   1.637017e+06  -1.292467e+05
   1.047502e+06   8.435443e+05
   4.226108e+05   8.664379e+05
   2.904458e+05   3.708551e+05
   3.737148e+05   1.774602e+05
   9.602308e+04   5.453230e+05
  -6.460712e+05   8.952753e+05
  -1.295515e+06   5.034099e+05
  -1.136948e+06  -5.929086e+05
   7.434871e+03  -1.475802e+06
   1.462513e+06  -1.198641e+06
   2.096634e+06   2.291171e+05
   1.251386e+06   1.740572e+06
  -5.742972e+05   2.144813e+06
  -2.054926e+06   1.197564e+06
  -2.195851e+06  -2.416147e+05
  -1.176453e+06  -1.090812e+06
  -2.783214e+04  -1.041630e+06
   4.341813e+05  -6.757549e+05
   2.740560e+05  -6.724252e+05
   1.384925e+05  -1.019107e+06
   4.697559e+05  -1.067319e+06
   1.047264e+06  -3.272383e+05
   1.225179e+06   8.858266e+05
   6.050381e+05   1.655674e+06
  -4.760670e+05   1.321182e+06
  -1.155183e+06   1.215240e+05
  -8.493236e+05  -1.003324e+06
   1.268511e+05  -1.243669e+06
   8.485638e+05  -5.755574e+05
   7.325467e+05   3.392742e+05
   1.106093e+05   8.246550e+05
  -2.231299e+05   7.419661e+05
   4.085359e+04   4.477908e+05
   3.764311e+05   3.156895e+05
   5.753100e+04   3.579526e+05
  -9.363557e+05   2.868698e+05
  -1.757621e+06  -1.199156e+05
  -1.500955e+06  -7.412918e+05
  -1.775650e+05  -1.174258e+06
   1.193684e+06  -1.069492e+06
   1.547632e+06  -4.583803e+05
   8.052715e+05   2.152164e+05
  -1.347917e+05   4.428901e+05
  -4.037261e+05   1.279471e+05
   6.516166e+02  -2.812158e+05
   4.308032e+05  -2.372599e+05
   4.335490e+05   2.761902e+05
   1.592545e+05   6.712252e+05
   7.306260e+03   4.376365e+05
   1.230346e+05  -1.774819e+05
   3.128270e+05  -3.881722e+05
   2.833501e+05   1.752575e+05
  -1.154182e+05   9.356331e+05
  -7.268008e+05   9.866577e+05
  -1.070051e+06   1.555185e+05
  -6.817832e+05  -7.747201e+05
   3.037620e+05  -9.321821e+05
   1.028460e+06  -2.641017e+05
   6.776060e+05   5.013938e+05
  -5.493658e+05   6.478976e+05
  -1.471517e+06   9.439306e+04
  -1.112635e+06  -6.575448e+05
   2.405234e+05  -1.006061e+06
   1.325182e+06  -7.003111e+05
   1.215683e+06  -9.934990e+03
   2.187365e+05   4.737116e+05
  -5.436386e+05   3.401292e+05
  -3.221063e+05  -2.035313e+05
   5.484595e+05  -4.538943e+05
   1.060386e+06   8.241635e+04
   5.772165e+05   1.067672e+06
  -5.450870e+05   1.531268e+06
  -1.340477e+06   8.180033e+05
  -1.176578e+06  -6.447168e+05
  -2.845033e+05  -1.630268e+06
   5.816109e+05  -1.277715e+06
   8.631004e+05   2.614221e+04
   5.416553e+05   1.033280e+06
  -3.648354e+04   9.366254e+05
  -4.712953e+05   1.504212e+05
  -5.163321e+05  -3.218887e+05
  -2.347111e+05  -1.321012e+05
  -6.151441e+03   1.108098e+05
  -1.584159e+05  -2.051178e+05
  -4.809510e+05  -8.210852e+05
  -3.367872e+05  -9.726143e+05
   5.137891e+05  -4.124682e+05
   1.380877e+06   3.260693e+05
   1.300056e+06   6.668398e+05
   2.221235e+05   6.013197e+05
  -8.209898e+05   4.321820e+05
  -9.049966e+05   2.594792e+05
  -2.634006e+05   1.483207e+04
   1.467261e+05  -2.077713e+05
  -7.236447e+04  -2.249337e+05
  -3.424840e+05  -1.124296e+05
  -1.741573e+04  -1.263429e+05
   6.864653e+05  -2.252675e+05
   9.364039e+05  -2.157351e+04
   2.943196e+05   5.955744e+05
  -7.835458e+05   1.063509e+06
  -1.434275e+06   7.077603e+05
  -1.189816e+06  -3.699570e+05
  -2.936722e+05  -1.272657e+06
   5.929258e+05  -1.252950e+06
   9.204999e+05  -4.830926e+05
   6.217287e+05   2.224693e+05
   1.014836e+05   3.177903e+05
  -1.418263e+05   1.734840e+04
   3.851264e+04  -7.782247e+04
   3.310504e+05   2.846627e+05
   3.037980e+05   7.117748e+05
  -1.434944e+05   6.048322e+05
  -6.430523e+05  -1.291668e+05
  -6.721497e+05  -8.792168e+05
  -6.585355e+04  -9.223910e+05
   7.235230e+05  -1.879110e+05
   9.521782e+05   6.712027e+05
   3.187289e+05   9.639995e+05
  -6.252210e+05   5.897602e+05
  -9.741306e+05  -3.418023e+04
  -4.604056e+05  -4.713210e+05
   2.231974e+05  -5.514907e+05
   2.560972e+05  -3.283145e+05
  -3.005932e+05  -1.676834e+04
  -6.047079e+05   6.033389e+04
  -1.221056e+05  -2.578117e+05
   7.065990e+05  -6.676810e+05
   1.037881e+06  -6.064011e+05
   6.181140e+05   6.636674e+04
  -4.873527e+04   7.601974e+05
  -3.893283e+05   7.662060e+05
  -3.062000e+05   1.091891e+05
  -3.794145e+04  -4.632414e+05
   2.098704e+05  -3.669164e+05
   3.355434e+05   1.789701e+05
   2.499245e+05   5.106337e+05
  -4.775482e+04   3.295792e+05
  -3.546074e+05  -4.852821e+04
  -4.167516e+05  -1.836403e+05
  -2.196215e+05  -3.280049e+04
   1.056247e+03   8.480117e+04
   6.644026e+04  -7.218963e+04
   5.816034e+04  -3.685454e+05
   1.518405e+05  -4.378631e+05
   3.281703e+05  -9.761260e+04
   3.528480e+05   4.038272e+05
   5.977278e+04   5.967001e+05
  -3.881195e+05   2.755743e+05
  -5.739283e+05  -2.649788e+05
  -2.275059e+05  -5.336518e+05
   4.198727e+05  -3.447415e+05
   7.636368e+05   5.516122e+04
   4.322938e+05   3.190036e+05
  -2.484006e+05   3.269785e+05
  -5.519885e+05   1.770860e+05
  -1.744890e+05   1.474133e+04
   3.850152e+05  -3.313714e+04
   4.055010e+05   1.068205e+05
  -1.913221e+05   3.201463e+05
  -7.529153e+05   2.893275e+05
