
 $NMID
 id='ANONYMOUS ', fmtdat='(2E16.6)'
 volume=1.0
 tramp=1.0
 $END
   4.498825e+07   2.745717e+05
   2.769218e+07   2.678839e+07
  -4.900879e+06   3.020466e+07
  -2.181349e+07   1.308138e+07
  -1.399109e+07  -4.282852e+06
   1.982229e+06  -7.676058e+06
   8.263794e+06   5.635041e+04
   3.128384e+06   7.850326e+06
  -4.585911e+06   8.517768e+06
  -7.992399e+06   2.322559e+06
  -5.878093e+06  -5.221408e+06
  -5.847011e+05  -7.407610e+06
   3.435532e+06  -2.088149e+06
   2.250931e+06   5.116529e+06
  -3.090618e+06   6.041054e+06
  -6.606380e+06  -7.515706e+05
  -3.906615e+06  -8.384865e+06
   2.926382e+06  -9.811340e+06
   8.227846e+06  -4.790320e+06
   8.626606e+06   1.885098e+06
   4.932629e+06   6.033943e+06
   3.296408e+05   6.485688e+06
  -1.861031e+06   4.451990e+06
  -5.628180e+05   2.536280e+06
   1.387888e+06   2.783799e+06
  -2.270795e+05   4.184686e+06
  -5.347075e+06   3.513817e+06
  -8.578279e+06  -2.136017e+05
  -5.753278e+06  -3.869607e+06
   4.094213e+05  -4.152732e+06
   3.701885e+06  -1.635038e+06
   1.993187e+06   6.989592e+05
  -1.392983e+06   1.208533e+06
  -2.848561e+06   9.801512e+04
  -1.940295e+06  -2.020077e+06
   1.600595e+04  -3.788750e+06
   1.794497e+06  -2.981373e+06
   2.219840e+06   5.158413e+05
   8.534080e+05   2.911104e+06
  -5.974692e+05   9.620516e+05
   1.649212e+05  -2.628754e+06
   2.324747e+06  -2.171292e+06
   2.198104e+06   2.553115e+06
  -1.553359e+06   5.067690e+06
  -5.148938e+06   1.042795e+06
  -4.044610e+06  -5.359800e+06
   1.323454e+06  -6.801711e+06
   6.030314e+06  -1.952954e+06
   6.086018e+06   3.782928e+06
   1.872462e+06   5.321625e+06
  -3.023665e+06   2.607308e+06
  -4.884420e+06  -1.136705e+06
  -2.462140e+06  -2.997280e+06
   1.855875e+06  -1.998996e+06
   3.840341e+06   6.194503e+05
   1.775868e+06   2.190531e+06
  -1.388903e+06   1.164175e+06
  -1.654754e+06  -8.773866e+05
   8.456912e+05  -1.065100e+06
   2.195658e+06   9.395249e+05
   8.185120e+04   2.551856e+06
  -3.314443e+06   1.761841e+06
  -4.366299e+06  -7.248302e+05
  -2.091390e+06  -3.129921e+06
   1.691747e+06  -4.457830e+06
   4.696507e+06  -4.027801e+06
   5.474743e+06  -1.207805e+06
   3.689266e+06   2.954684e+06
   5.788612e+05   5.418887e+06
  -1.521696e+06   4.307534e+06
  -1.419740e+06   1.477334e+06
  -4.473134e+05   2.031278e+05
  -6.294718e+05   9.373362e+05
  -1.970673e+06   1.230701e+06
  -2.659625e+06  -3.616681e+05
  -1.604495e+06  -2.253686e+06
   3.864226e+05  -2.167026e+06
   1.777352e+06  -1.848178e+04
   1.606527e+06   2.259183e+06
  -2.011971e+05   2.827160e+06
  -2.655623e+06   1.272153e+06
  -3.853395e+06  -1.378345e+06
  -2.548959e+06  -3.360941e+06
   1.665278e+05  -3.468945e+06
   1.862267e+06  -2.164673e+06
   1.765681e+06  -1.013479e+06
   1.584811e+06  -7.584717e+05
   2.757696e+06  -5.322584e+05
   4.090233e+06   7.134154e+05
   3.265057e+06   2.655220e+06
   4.390691e+04   3.950746e+06
  -3.220914e+06   3.634490e+06
  -4.129044e+06   1.776173e+06
  -2.461462e+06  -6.604762e+05
   1.458444e+04  -2.180110e+06
   1.252488e+06  -1.706180e+06
   5.072007e+05   1.179244e+05
  -1.136853e+06   1.182646e+06
  -1.789875e+06   3.092971e+05
  -7.602573e+05  -1.135593e+06
   5.966128e+05  -1.050382e+06
   5.237381e+05   3.864487e+05
  -8.889889e+05   8.587469e+05
  -1.815153e+06  -8.567575e+05
  -9.473129e+05  -3.129587e+06
   1.144914e+06  -3.499203e+06
   2.941123e+06  -1.496742e+06
   3.417735e+06   1.220983e+06
   2.404756e+06   2.826177e+06
   4.307331e+05   2.692433e+06
  -1.299343e+06   1.388132e+06
  -1.562742e+06   1.247366e+05
  -4.751995e+05  -5.946986e+04
   3.304045e+05   7.343791e+05
  -3.850210e+05   1.244116e+06
  -1.768841e+06   5.139633e+05
  -1.911294e+06  -8.266915e+05
  -3.851395e+05  -1.324130e+06
   1.133075e+06  -5.498088e+05
   9.191410e+05   4.693752e+05
  -8.060624e+05   6.046878e+05
  -2.224316e+06  -2.448707e+05
  -1.828553e+06  -1.389207e+06
   2.265140e+05  -2.036092e+06
   2.317371e+06  -1.628436e+06
   2.719382e+06  -2.117875e+05
   1.140179e+06   1.217364e+06
  -8.905965e+05   1.366006e+06
  -1.433898e+06   1.352291e+05
  -1.282023e+05  -1.002534e+06
   1.471225e+06  -6.575419e+05
   1.656125e+06   7.697640e+05
   3.516738e+05   1.614582e+06
  -1.040314e+06   9.974603e+05
  -1.246975e+06  -2.554778e+05
  -2.850417e+05  -7.483042e+05
   7.356101e+05  -5.252261e+04
   6.693155e+05   1.027154e+06
  -6.145932e+05   1.348825e+06
  -1.963971e+06   4.426443e+05
  -1.927279e+06  -1.086363e+06
  -3.139730e+05  -2.009829e+06
   1.415352e+06  -1.554836e+06
   1.672598e+06  -1.839402e+05
   4.930699e+05   8.470469e+05
  -6.502826e+05   7.821923e+05
  -6.571588e+05   4.389425e+04
   1.042171e+05  -4.268092e+05
   5.556899e+05  -2.544751e+05
   2.329793e+05   1.082487e+05
  -3.897017e+05   2.734334e+04
  -5.347389e+05  -5.888064e+05
   1.705908e+05  -1.142249e+06
   1.346717e+06  -8.515318e+05
   2.010341e+06   4.479299e+05
   1.364234e+06   1.921912e+06
  -2.836386e+05   2.360779e+06
  -1.629145e+06   1.378361e+06
  -1.700483e+06  -1.387482e+05
  -8.806264e+05  -9.608024e+05
  -2.929133e+05  -7.711553e+05
  -3.785460e+05  -2.914927e+05
  -5.279189e+05  -2.784741e+05
  -6.583444e+04  -6.912261e+05
   8.528974e+05  -8.700924e+05
   1.439474e+06  -3.158822e+05
   1.056082e+06   7.552771e+05
  -2.572637e+05   1.484678e+06
  -1.720175e+06   1.041447e+06
  -2.202191e+06  -5.247375e+05
  -1.084300e+06  -2.068981e+06
   9.885090e+05  -2.278832e+06
   2.464699e+06  -9.822313e+05
   2.309807e+06   6.489045e+05
   9.825987e+05   1.343205e+06
  -1.926264e+05   1.000463e+06
  -4.610063e+05   5.465373e+05
  -1.959589e+05   7.027997e+05
  -1.760361e+05   1.196839e+06
  -6.633978e+05   1.190037e+06
  -1.232684e+06   2.630434e+05
  -1.253460e+06  -1.093201e+06
  -4.773608e+05  -1.861637e+06
   6.561805e+05  -1.378351e+06
   1.259809e+06   2.824012e+04
   7.761350e+05   1.246173e+06
  -3.716736e+05   1.350801e+06
  -1.098151e+06   4.280406e+05
  -7.786889e+05  -6.131550e+05
   8.123830e+04  -1.005304e+06
   4.704528e+05  -7.704373e+05
   6.998852e+04  -4.388235e+05
  -3.943940e+05  -3.526307e+05
  -3.695918e+04  -3.794044e+05
   1.098486e+06  -1.865510e+05
   1.963201e+06   3.591816e+05
   1.547766e+06   1.028767e+06
  -2.509127e+04   1.368791e+06
  -1.521192e+06   1.058750e+06
  -1.776629e+06   2.546561e+05
  -8.260022e+05  -4.466445e+05
   2.399376e+05  -5.219116e+05
   4.870052e+05  -4.666725e+04
   6.499946e+03   3.695231e+05
  -4.552499e+05   2.233666e+05
  -4.506912e+05  -3.461632e+05
  -1.783481e+05  -7.139813e+05
  -3.705454e+04  -4.633083e+05
  -1.474745e+05   1.179437e+05
  -3.223200e+05   3.078596e+05
  -2.715056e+05  -2.303296e+05
   1.902437e+05  -9.665490e+05
   9.018021e+05  -1.004309e+06
   1.273411e+06  -1.135665e+05
   7.517697e+05   9.054090e+05
  -4.282765e+05   1.056427e+06
  -1.195662e+06   2.568141e+05
  -6.878819e+05  -5.913334e+05
   6.932857e+05  -6.218761e+05
   1.568246e+06   1.200821e+05
   1.013690e+06   8.714804e+05
  -4.667681e+05   9.938147e+05
  -1.499359e+06   4.795000e+05
  -1.241564e+06  -1.998306e+05
  -1.351111e+05  -5.201678e+05
   6.411766e+05  -2.643668e+05
   3.560622e+05   2.824288e+05
  -6.002219e+05   4.688164e+05
  -1.141164e+06  -1.418756e+05
  -5.815408e+05  -1.178551e+06
   6.629279e+05  -1.619683e+06
   1.487779e+06  -7.903346e+05
   1.198918e+06   7.910663e+05
   1.371062e+05   1.764925e+06
  -7.687712e+05   1.263541e+06
  -9.129171e+05  -1.790694e+05
  -4.112376e+05  -1.182539e+06
   2.184167e+05  -9.673249e+05
   5.472553e+05  -8.078748e+04
   4.655466e+05   3.945906e+05
   1.779377e+05   1.538118e+05
   4.336775e+04  -1.016822e+05
   2.353733e+05   2.719246e+05
   4.590074e+05   9.507941e+05
   1.812956e+05   1.074739e+06
  -6.805130e+05   3.792497e+05
  -1.434543e+06  -5.016601e+05
  -1.254582e+06  -8.648706e+05
  -1.651206e+05  -6.847330e+05
   8.692564e+05  -3.762205e+05
   9.797316e+05  -1.552435e+05
   3.369090e+05   4.415291e+04
  -1.570398e+05   2.116590e+05
  -1.948844e+04   2.196501e+05
   2.789244e+05   1.225154e+05
   3.506265e+04   1.304893e+05
  -6.792538e+05   1.930715e+05
  -1.017972e+06  -4.911840e+04
  -3.666888e+05  -6.742337e+05
   8.773389e+05  -1.104221e+06
   1.662008e+06  -6.761118e+05
   1.332257e+06   4.678623e+05
   2.165124e+05   1.384262e+06
  -7.816637e+05   1.316555e+06
  -1.036492e+06   4.795378e+05
  -6.334047e+05  -2.606311e+05
  -1.104852e+05  -3.508321e+05
   8.636125e+04  -4.274545e+04
  -7.756381e+04   3.209732e+04
  -2.960138e+05  -3.651505e+05
  -2.270549e+05  -8.007721e+05
   1.981548e+05  -6.527497e+05
   6.619314e+05   1.540231e+05
   6.775934e+05   9.611830e+05
   6.153432e+04   1.001274e+06
  -7.483303e+05   1.970603e+05
  -9.781474e+05  -7.491576e+05
  -2.972596e+05  -1.069011e+06
   7.139926e+05  -6.265641e+05
   1.079593e+06   1.066161e+05
   4.961810e+05   5.964569e+05
  -2.918916e+05   6.378927e+05
  -3.641398e+05   3.506736e+05
   2.559526e+05   2.890949e+04
   6.394090e+05  -1.567950e+04
   1.300053e+05   2.996499e+05
  -8.271406e+05   6.423810e+05
  -1.236803e+06   5.102761e+05
  -7.283559e+05  -1.754819e+05
   1.177401e+05  -8.397103e+05
   5.467734e+05  -8.199968e+05
   3.994910e+05  -1.408199e+05
   2.784267e+04   4.730670e+05
  -2.454511e+05   4.088833e+05
  -3.351886e+05  -1.681827e+05
  -2.298206e+05  -5.709381e+05
   6.193745e+04  -4.015668e+05
   3.777350e+05   6.043746e+04
   4.560651e+05   2.756291e+05
   2.377297e+05   9.208901e+04
  -2.682019e+04  -1.337404e+05
  -8.880115e+04  -2.172592e+04
  -2.121785e+04   3.467513e+05
  -8.496944e+04   5.095492e+05
  -3.158469e+05   1.758776e+05
  -4.122133e+05  -3.918300e+05
  -1.103215e+05  -6.291213e+05
   4.115308e+05  -2.866253e+05
   6.288207e+05   2.961975e+05
   2.233282e+05   5.697688e+05
  -5.009985e+05   3.432093e+05
  -8.500117e+05  -1.002672e+05
  -4.538333e+05  -3.806900e+05
   2.936199e+05  -3.732955e+05
   6.218194e+05  -1.950075e+05
   2.340283e+05  -1.359062e+04
  -3.497593e+05   4.060414e+04
  -3.956507e+05  -9.021262e+04
   1.875903e+05  -2.834307e+05
   7.523113e+05  -2.362086e+05
