
 $NMID
 id='ANONYMOUS ', fmtdat='(2E16.6)'
 volume=1.0
 tramp=1.0
 $END
   6.042833e+07  -1.615046e+06
   3.714841e+07   3.716889e+07
  -7.452847e+06   4.139452e+07
  -2.955136e+07   1.582337e+07
  -1.767924e+07  -7.847774e+06
   3.660515e+06  -1.009604e+07
   1.053144e+07   1.557363e+06
   2.799002e+06   1.053397e+07
  -6.748748e+06   9.740984e+06
  -1.028275e+07   2.006991e+06
  -7.488424e+06  -6.388302e+06
  -1.052023e+06  -8.942651e+06
   4.077444e+06  -3.060666e+06
   2.778760e+06   5.427197e+06
  -3.955255e+06   6.729352e+06
  -8.383497e+06  -1.426218e+06
  -4.834189e+06  -1.077880e+07
   3.846330e+06  -1.259112e+07
   1.061937e+07  -6.552932e+06
   1.162094e+07   1.787439e+06
   7.476685e+06   7.773191e+06
   1.155138e+06   9.433729e+06
  -3.124238e+06   6.836029e+06
  -2.417692e+06   2.901954e+06
   8.430947e+05   1.853975e+06
   4.655491e+05   4.002949e+06
  -5.185982e+06   4.709922e+06
  -9.854748e+06   9.596291e+05
  -7.529292e+06  -3.985895e+06
  -6.830578e+05  -5.283595e+06
   3.511413e+06  -2.952463e+06
   2.541891e+06  -4.189423e+05
  -2.633378e+05   6.711274e+05
  -1.902920e+06   5.759218e+05
  -2.176674e+06  -1.087119e+06
  -1.027748e+06  -3.805225e+06
   1.642231e+06  -4.178603e+06
   3.576786e+06  -2.388068e+05
   2.178962e+06   3.773774e+06
  -7.025464e+05   2.362700e+06
  -5.434209e+05  -2.249794e+06
   2.457994e+06  -2.333195e+06
   2.600446e+06   3.398733e+06
  -2.645201e+06   6.631423e+06
  -7.654917e+06   1.232101e+06
  -5.730946e+06  -7.370393e+06
   1.913131e+06  -9.242831e+06
   7.864588e+06  -2.773225e+06
   7.302221e+06   4.565006e+06
   1.883824e+06   6.256350e+06
  -3.615612e+06   2.764102e+06
  -5.388782e+06  -1.643117e+06
  -2.422147e+06  -3.665881e+06
   2.611023e+06  -2.322596e+06
   4.802413e+06   9.607948e+05
   2.062147e+06   2.896156e+06
  -1.812726e+06   1.482801e+06
  -1.766248e+06  -1.072567e+06
   1.544055e+06  -9.045521e+05
   2.681329e+06   2.059743e+06
  -7.977074e+05   3.889991e+06
  -5.126001e+06   2.118842e+06
  -5.723067e+06  -1.492366e+06
  -2.494768e+06  -4.262794e+06
   1.714458e+06  -5.548742e+06
   4.950904e+06  -5.160333e+06
   6.334574e+06  -2.052583e+06
   4.929855e+06   3.071767e+06
   1.189777e+06   6.355135e+06
  -1.930504e+06   4.945207e+06
  -1.933924e+06   1.130984e+06
  -1.014368e+05  -4.988057e+05
   3.316648e+05   8.845330e+05
  -1.332985e+06   1.959064e+06
  -2.754489e+06   5.278629e+05
  -2.141810e+06  -1.699437e+06
  -2.046405e+05  -2.048015e+06
   1.407207e+06  -2.512040e+05
   1.659707e+06   1.962679e+06
   1.056935e+05   2.918128e+06
  -2.726929e+06   1.817955e+06
  -4.659926e+06  -1.004521e+06
  -3.534388e+06  -3.791662e+06
  -1.295050e+05  -4.492951e+06
   2.353880e+06  -2.990065e+06
   2.398869e+06  -1.245827e+06
   1.938717e+06  -6.737305e+05
   3.005928e+06  -4.689113e+05
   4.428525e+06   7.511774e+05
   3.560521e+06   2.770397e+06
   1.791413e+05   4.159995e+06
  -3.146779e+06   3.975511e+06
  -4.113339e+06   2.254387e+06
  -2.686568e+06  -2.847593e+05
  -4.103482e+05  -2.198222e+06
   9.916770e+05  -1.997782e+06
   5.731150e+05  -9.110859e+03
  -1.043889e+06   1.348849e+06
  -1.939129e+06   4.480531e+05
  -9.986852e+05  -1.209669e+06
   4.729478e+05  -1.122049e+06
   3.785380e+05   4.090226e+05
  -1.178614e+06   6.388421e+05
  -1.930932e+06  -1.492924e+06
  -5.323310e+05  -3.690590e+06
   1.836760e+06  -3.407425e+06
   3.287918e+06  -9.272862e+05
   3.256483e+06   1.586441e+06
   2.160744e+06   2.746027e+06
   4.280202e+05   2.549995e+06
  -1.200193e+06   1.474455e+06
  -1.559824e+06   2.706696e+05
  -4.965296e+05  -3.937423e+04
   3.684970e+05   7.570962e+05
  -4.215379e+05   1.390056e+06
  -1.968635e+06   6.197664e+05
  -2.095926e+06  -9.146464e+05
  -3.865922e+05  -1.467420e+06
   1.193190e+06  -5.769489e+05
   8.630966e+05   4.628665e+05
  -8.924313e+05   4.719200e+05
  -2.159717e+06  -3.926999e+05
  -1.668921e+06  -1.368583e+06
   2.948487e+05  -1.927890e+06
   2.307225e+06  -1.635070e+06
   2.784720e+06  -2.877099e+05
   1.252119e+06   1.287031e+06
  -9.222398e+05   1.570704e+06
  -1.618905e+06   2.280313e+05
  -2.460694e+05  -1.110832e+06
   1.531911e+06  -7.733838e+05
   1.743604e+06   7.951429e+05
   3.142440e+05   1.678020e+06
  -1.137963e+06   9.577104e+05
  -1.268265e+06  -3.612211e+05
  -2.168021e+05  -8.129700e+05
   8.339276e+05  -5.951752e+04
   7.707187e+05   1.062353e+06
  -5.508421e+05   1.453673e+06
  -2.015279e+06   5.899988e+05
  -2.077941e+06  -1.025954e+06
  -4.145106e+05  -2.099970e+06
   1.454369e+06  -1.680233e+06
   1.752559e+06  -2.136571e+05
   4.983705e+05   8.861554e+05
  -6.701272e+05   8.075142e+05
  -6.115476e+05   8.226015e+04
   1.466839e+05  -3.206942e+05
   4.628654e+05  -1.594264e+05
   4.331361e+04   6.376733e+04
  -5.044689e+05  -1.350381e+05
  -5.141531e+05  -7.323045e+05
   2.346847e+05  -1.216305e+06
   1.402679e+06  -9.098640e+05
   2.107942e+06   4.027475e+05
   1.504631e+06   1.948049e+06
  -1.913063e+05   2.433590e+06
  -1.611620e+06   1.404093e+06
  -1.671204e+06  -1.431607e+05
  -8.121756e+05  -8.679011e+05
  -2.961984e+05  -5.710131e+05
  -5.197897e+05  -1.563366e+05
  -6.919561e+05  -3.203937e+05
  -1.132199e+05  -8.033609e+05
   8.925326e+05  -9.102570e+05
   1.449717e+06  -3.116789e+05
   1.023461e+06   7.126283e+05
  -2.697224e+05   1.431631e+06
  -1.723321e+06   1.065261e+06
  -2.252944e+06  -4.748395e+05
  -1.139500e+06  -2.117182e+06
   1.033551e+06  -2.404777e+06
   2.587576e+06  -1.041332e+06
   2.361502e+06   6.881988e+05
   9.138043e+05   1.350248e+06
  -2.402114e+05   9.055248e+05
  -3.552919e+05   4.622472e+05
   1.349483e+03   7.558209e+05
  -4.745634e+04   1.356638e+06
  -6.674474e+05   1.341049e+06
  -1.320601e+06   3.509515e+05
  -1.371246e+06  -1.065601e+06
  -5.901889e+05  -1.897896e+06
   6.018682e+05  -1.454610e+06
   1.291731e+06  -3.346747e+03
   8.238746e+05   1.306420e+06
  -4.110459e+05   1.419570e+06
  -1.212559e+06   3.867104e+05
  -8.392509e+05  -7.556250e+05
   1.502139e+05  -1.126756e+06
   5.879165e+05  -7.944597e+05
   1.066661e+05  -4.006360e+05
  -4.497145e+05  -3.186038e+05
  -7.161350e+04  -3.791558e+05
   1.175279e+06  -2.211950e+05
   2.111927e+06   3.168978e+05
   1.645425e+06   1.043840e+06
  -5.155000e+04   1.477676e+06
  -1.626630e+06   1.186847e+06
  -1.860405e+06   2.786948e+05
  -8.393620e+05  -5.366494e+05
   2.715871e+05  -6.013394e+05
   5.304563e+05  -2.270358e+04
   5.525110e+04   4.505248e+05
  -4.255452e+05   2.733463e+05
  -4.958726e+05  -3.355792e+05
  -3.013413e+05  -7.091152e+05
  -1.380879e+05  -4.742239e+05
  -1.360774e+05   7.132028e+04
  -2.528242e+05   2.629879e+05
  -2.739920e+05  -2.352979e+05
   1.112736e+05  -9.803050e+05
   8.910577e+05  -1.094287e+06
   1.410353e+06  -2.277481e+05
   9.167069e+05   9.009650e+05
  -3.960240e+05   1.189831e+06
  -1.282954e+06   4.000823e+05
  -7.525729e+05  -5.521327e+05
   7.088485e+05  -6.562131e+05
   1.585365e+06   9.908007e+04
   9.722656e+05   8.722957e+05
  -5.172532e+05   9.733134e+05
  -1.497637e+06   4.434182e+05
  -1.209880e+06  -2.101627e+05
  -1.195147e+05  -5.082642e+05
   6.572751e+05  -2.604683e+05
   4.062456e+05   3.020784e+05
  -5.581296e+05   5.542293e+05
  -1.193438e+06  -2.789025e+04
  -7.354204e+05  -1.155877e+06
   5.124498e+05  -1.737516e+06
   1.450438e+06  -9.482195e+05
   1.278776e+06   7.203488e+05
   2.428272e+05   1.786373e+06
  -7.223197e+05   1.289741e+06
  -9.270061e+05  -1.910962e+05
  -4.233555e+05  -1.197082e+06
   2.458485e+05  -9.583332e+05
   5.768043e+05  -7.808088e+04
   4.446239e+05   3.669486e+05
   1.328297e+05   1.275907e+05
   6.078787e+04  -8.743719e+04
   3.359921e+05   3.102665e+05
   5.482869e+05   9.697551e+05
   1.697639e+05   1.075753e+06
  -7.579570e+05   4.059924e+05
  -1.482866e+06  -4.391232e+05
  -1.261962e+06  -8.201652e+05
  -1.946781e+05  -7.070052e+05
   8.137729e+05  -4.391387e+05
   9.730061e+05  -1.875847e+05
   3.950045e+05   6.502570e+04
  -1.273386e+05   2.324384e+05
  -7.565347e+04   1.889420e+05
   2.208880e+05   6.798468e+04
   7.174284e+04   1.285185e+05
  -6.088738e+05   2.672705e+05
  -1.058159e+06   2.942271e+04
  -5.223988e+05  -6.881462e+05
   7.693567e+05  -1.232192e+06
   1.719955e+06  -8.434177e+05
   1.488795e+06   3.647080e+05
   3.334785e+05   1.398037e+06
  -7.462901e+05   1.422465e+06
  -1.040325e+06   6.037145e+05
  -6.573498e+05  -1.890360e+05
  -1.657497e+05  -3.564016e+05
   2.500656e+04  -9.455952e+04
  -9.929910e+04  -1.269038e+04
  -2.909667e+05  -3.783480e+05
  -2.516671e+05  -8.085948e+05
   1.501070e+05  -6.989448e+05
   6.774552e+05   6.867435e+04
   8.002460e+05   9.004318e+05
   2.035824e+05   1.036609e+06
  -7.171779e+05   3.188676e+05
  -1.077926e+06  -6.468001e+05
  -4.182860e+05  -1.086337e+06
   6.857464e+05  -7.411184e+05
   1.152144e+06   2.328218e+04
   5.852788e+05   6.313520e+05
  -2.675960e+05   7.371474e+05
  -4.099820e+05   3.959952e+05
   2.035867e+05  -1.305452e+04
   6.404693e+05  -6.701637e+04
   1.737581e+05   3.131167e+05
  -8.101731e+05   7.035272e+05
  -1.291987e+06   5.524560e+05
  -8.208435e+05  -1.868509e+05
   6.361976e+04  -8.963685e+05
   5.668543e+05  -9.014111e+05
   4.665484e+05  -2.131293e+05
   9.306591e+04   4.601790e+05
  -2.158611e+05   4.708518e+05
  -3.541482e+05  -9.536836e+04
  -2.820229e+05  -5.707212e+05
   2.464110e+04  -4.692491e+05
   3.958735e+05   1.305094e+04
   5.052014e+05   2.944075e+05
   2.497398e+05   1.148743e+05
  -6.309735e+04  -1.812963e+05
  -9.018279e+04  -1.085853e+05
   8.078829e+04   3.245509e+05
   5.520313e+04   5.963204e+05
  -2.815197e+05   3.065993e+05
  -5.278365e+05  -3.112619e+05
  -2.560969e+05  -6.348095e+05
   3.766034e+05  -3.513201e+05
   7.060742e+05   2.267073e+05
   2.975962e+05   5.494943e+05
  -5.102981e+05   3.940194e+05
  -9.161360e+05  -2.236948e+04
  -5.093234e+05  -3.607850e+05
   2.788555e+05  -4.465894e+05
   6.442579e+05  -2.942501e+05
   2.852747e+05  -3.712862e+04
  -2.958370e+05   1.137554e+05
  -3.907585e+05  -1.204693e+03
   1.209977e+05  -2.677187e+05
   6.735888e+05  -2.989345e+05
