
 $NMID
 id='ANONYMOUS ', fmtdat='(2E16.6)'
 volume=1.0
 tramp=1.0
 $END
   4.556130e+07   2.983714e+05
   2.748698e+07   2.721416e+07
  -5.332125e+06   3.029040e+07
  -2.173838e+07   1.279193e+07
  -1.356711e+07  -4.434906e+06
   2.106196e+06  -7.517357e+06
   7.989541e+06   1.702297e+05
   2.946316e+06   7.668062e+06
  -4.432475e+06   8.244716e+06
  -7.807490e+06   2.243255e+06
  -5.944718e+06  -5.139876e+06
  -7.529639e+05  -7.383303e+06
   3.446686e+06  -2.206540e+06
   2.454183e+06   4.944853e+06
  -2.881826e+06   5.929582e+06
  -6.511294e+06  -7.574551e+05
  -3.914924e+06  -8.328446e+06
   2.891722e+06  -9.797457e+06
   8.275044e+06  -4.857202e+06
   8.796313e+06   1.866153e+06
   5.080728e+06   6.202823e+06
   2.552158e+05   6.728295e+06
  -2.112989e+06   4.461357e+06
  -6.881211e+05   2.211165e+06
   1.577745e+06   2.418303e+06
   1.092619e+05   4.148404e+06
  -5.162266e+06   3.837886e+06
  -8.640528e+06   1.647483e+05
  -5.947151e+06  -3.746122e+06
   2.374805e+05  -4.346960e+06
   3.686287e+06  -1.960417e+06
   2.213322e+06   5.314649e+05
  -1.060160e+06   1.368468e+06
  -2.718354e+06   4.582146e+05
  -2.166344e+06  -1.784814e+06
  -3.008557e+05  -3.842767e+06
   1.763876e+06  -3.140126e+06
   2.458072e+06   5.235183e+05
   9.858827e+05   3.090384e+06
  -7.747748e+05   1.104134e+06
  -1.237152e+05  -2.623343e+06
   2.175487e+06  -2.214680e+06
   2.162127e+06   2.515847e+06
  -1.623094e+06   4.970913e+06
  -5.237897e+06   8.756757e+05
  -4.040973e+06  -5.479253e+06
   1.402389e+06  -6.817770e+06
   6.070772e+06  -1.985590e+06
   6.082667e+06   3.630249e+06
   1.930274e+06   5.151380e+06
  -2.877655e+06   2.595860e+06
  -4.750091e+06  -9.844016e+05
  -2.420663e+06  -2.836964e+06
   1.826029e+06  -1.940610e+06
   3.795048e+06   5.958909e+05
   1.747413e+06   2.151500e+06
  -1.380591e+06   1.163670e+06
  -1.625408e+06  -8.008174e+05
   8.118198e+05  -9.373882e+05
   2.036828e+06   1.001299e+06
  -1.120872e+05   2.464451e+06
  -3.376604e+06   1.610193e+06
  -4.282590e+06  -7.890134e+05
  -2.039158e+06  -3.112822e+06
   1.589791e+06  -4.516597e+06
   4.548983e+06  -4.223168e+06
   5.467836e+06  -1.404001e+06
   3.841301e+06   2.884999e+06
   7.552659e+05   5.416162e+06
  -1.399201e+06   4.246841e+06
  -1.296692e+06   1.376624e+06
  -2.662078e+05   1.973361e+05
  -4.409549e+05   1.092483e+06
  -1.887552e+06   1.481298e+06
  -2.747257e+06  -1.239064e+05
  -1.823189e+06  -2.118592e+06
   1.701327e+05  -2.199119e+06
   1.711390e+06  -2.014519e+05
   1.726664e+06   2.071475e+06
  -2.522541e+04   2.803460e+06
  -2.598360e+06   1.419268e+06
  -3.950529e+06  -1.222781e+06
  -2.679100e+06  -3.329935e+06
   1.185948e+05  -3.528318e+06
   1.882843e+06  -2.200584e+06
   1.766035e+06  -9.907380e+05
   1.518207e+06  -7.453213e+05
   2.653523e+06  -6.081039e+05
   4.020131e+06   5.379835e+05
   3.306667e+06   2.457914e+06
   2.287801e+05   3.860250e+06
  -2.970470e+06   3.729740e+06
  -3.974467e+06   1.989033e+06
  -2.501567e+06  -5.031172e+05
  -1.463462e+05  -2.179907e+06
   1.139068e+06  -1.792195e+06
   5.252864e+05   8.229388e+04
  -1.052358e+06   1.236457e+06
  -1.752399e+06   3.845374e+05
  -8.095345e+05  -1.104894e+06
   5.173309e+05  -1.075722e+06
   5.048877e+05   3.221703e+05
  -8.086149e+05   8.007106e+05
  -1.702079e+06  -8.252633e+05
  -9.354670e+05  -2.967418e+06
   9.866884e+05  -3.312168e+06
   2.706206e+06  -1.475060e+06
   3.285282e+06   1.016117e+06
   2.456418e+06   2.554136e+06
   5.803858e+05   2.561346e+06
  -1.186174e+06   1.435506e+06
  -1.527782e+06   2.198146e+05
  -4.683715e+05  -3.381855e+04
   3.580156e+05   7.004583e+05
  -3.350598e+05   1.231691e+06
  -1.721467e+06   5.676160e+05
  -1.895381e+06  -7.384295e+05
  -4.183288e+05  -1.274153e+06
   1.075223e+06  -5.832068e+05
   9.057179e+05   3.936787e+05
  -7.341787e+05   5.945266e+05
  -2.127580e+06  -1.273220e+05
  -1.822908e+06  -1.216706e+06
   1.020769e+05  -1.953767e+06
   2.152822e+06  -1.696173e+06
   2.635889e+06  -3.447544e+05
   1.166661e+06   1.142738e+06
  -8.262526e+05   1.384394e+06
  -1.414701e+06   1.858515e+05
  -1.721426e+05  -9.932879e+05
   1.412343e+06  -7.151816e+05
   1.645398e+06   6.738831e+05
   4.097667e+05   1.541483e+06
  -9.560549e+05   9.969947e+05
  -1.201779e+06  -1.961612e+05
  -2.962783e+05  -7.023703e+05
   7.186708e+05  -7.271973e+04
   7.043567e+05   9.777033e+05
  -5.340365e+05   1.356392e+06
  -1.904162e+06   5.374011e+05
  -1.945232e+06  -9.672730e+05
  -4.045841e+05  -1.951959e+06
   1.311198e+06  -1.583740e+06
   1.620295e+06  -2.557751e+05
   5.154434e+05   7.969611e+05
  -5.925815e+05   7.890437e+05
  -6.330119e+05   8.989195e+04
   6.504629e+04  -3.968656e+05
   4.957328e+05  -2.787513e+05
   2.154173e+05   5.484327e+04
  -3.609929e+05   7.532633e+03
  -5.199673e+05  -5.547043e+05
   1.260106e+05  -1.109804e+06
   1.273083e+06  -8.893155e+05
   1.983714e+06   3.396378e+05
   1.429287e+06   1.812137e+06
  -1.524608e+05   2.319234e+06
  -1.503767e+06   1.422674e+06
  -1.645854e+06  -4.048472e+04
  -9.094627e+05  -8.598529e+05
  -3.583661e+05  -7.075971e+05
  -4.203167e+05  -2.709616e+05
  -5.357842e+05  -2.749345e+05
  -8.517604e+04  -6.857552e+05
   7.907776e+05  -8.826203e+05
   1.374918e+06  -3.769574e+05
   1.062717e+06   6.650036e+05
  -1.642004e+05   1.439324e+06
  -1.612032e+06   1.097115e+06
  -2.168520e+06  -3.953727e+05
  -1.152940e+06  -1.956405e+06
   8.624775e+05  -2.258716e+06
   2.353061e+06  -1.062918e+06
   2.263788e+06   5.191443e+05
   1.010253e+06   1.234607e+06
  -1.227238e+05   9.571422e+05
  -3.900541e+05   5.605061e+05
  -1.390697e+05   7.291740e+05
  -1.202150e+05   1.205731e+06
  -6.049426e+05   1.200717e+06
  -1.201960e+06   3.134119e+05
  -1.285937e+06  -1.007368e+06
  -5.650429e+05  -1.796453e+06
   5.684160e+05  -1.383520e+06
   1.226987e+06  -3.680943e+04
   8.095916e+05   1.177897e+06
  -3.046913e+05   1.324916e+06
  -1.043927e+06   4.461517e+05
  -7.661136e+05  -5.783202e+05
   5.498274e+04  -9.769483e+05
   4.316143e+05  -7.507578e+05
   4.200833e+04  -4.166971e+05
  -4.116578e+05  -3.260279e+05
  -5.933655e+04  -3.707746e+05
   1.066207e+06  -2.279495e+05
   1.939138e+06   2.657844e+05
   1.556874e+06   9.314057e+05
   2.522505e+04   1.330666e+06
  -1.447986e+06   1.098053e+06
  -1.716042e+06   3.271610e+05
  -8.067765e+05  -4.005467e+05
   2.220124e+05  -5.201356e+05
   4.687392e+05  -6.011551e+04
   1.687789e+04   3.747122e+05
  -4.336818e+05   2.507602e+05
  -4.606712e+05  -3.175776e+05
  -2.245709e+05  -7.015325e+05
  -6.973438e+04  -4.645719e+05
  -1.270049e+05   1.182492e+05
  -2.794332e+05   3.208704e+05
  -2.732670e+05  -2.097620e+05
   1.271738e+05  -9.588934e+05
   8.332467e+05  -1.028740e+06
   1.259419e+06  -1.647425e+05
   7.927627e+05   8.636839e+05
  -3.782562e+05   1.063441e+06
  -1.176565e+06   3.114859e+05
  -7.096433e+05  -5.420899e+05
   6.449073e+05  -6.381686e+05
   1.526689e+06   3.451725e+04
   1.019767e+06   7.815789e+05
  -4.010957e+05   9.731374e+05
  -1.416499e+06   5.376906e+05
  -1.204022e+06  -1.236970e+05
  -1.580141e+05  -4.911498e+05
   6.063546e+05  -2.855790e+05
   3.607602e+05   2.650395e+05
  -5.652800e+05   5.011461e+05
  -1.135361e+06  -7.349459e+04
  -6.448288e+05  -1.132186e+06
   5.589700e+05  -1.638925e+06
   1.419074e+06  -8.658887e+05
   1.221011e+06   7.072104e+05
   2.331656e+05   1.718515e+06
  -6.756409e+05   1.271741e+06
  -8.904786e+05  -1.290571e+05
  -4.577611e+05  -1.124245e+06
   1.618680e+05  -9.395235e+05
   5.270480e+05  -1.009657e+05
   4.725943e+05   3.498100e+05
   1.792877e+05   1.281388e+05
   3.595707e+04  -9.581358e+04
   2.461840e+05   2.724138e+05
   4.999232e+05   9.120113e+05
   2.299862e+05   1.026372e+06
  -6.508158e+05   3.912488e+05
  -1.428249e+06  -4.106755e+05
  -1.265648e+06  -7.657212e+05
  -1.946856e+05  -6.604542e+05
   8.246362e+05  -4.258858e+05
   9.429837e+05  -2.060875e+05
   3.306243e+05   3.771384e+04
  -1.407831e+05   2.203389e+05
  -8.272340e+03   1.998044e+05
   2.786682e+05   8.726770e+04
   4.506280e+04   1.303862e+05
  -6.509629e+05   2.428468e+05
  -1.004024e+06   7.690976e+03
  -4.046976e+05  -6.610492e+05
   7.997054e+05  -1.146040e+06
   1.605837e+06  -7.488236e+05
   1.347254e+06   3.980372e+05
   2.924662e+05   1.347791e+06
  -7.007329e+05   1.330625e+06
  -9.982754e+05   5.307079e+05
  -6.406071e+05  -2.146600e+05
  -1.302653e+05  -3.433646e+05
   8.333629e+04  -6.251820e+04
  -6.778289e+04   2.606972e+04
  -3.019918e+05  -3.377299e+05
  -2.625677e+05  -7.665319e+05
   1.597808e+05  -6.543907e+05
   6.640381e+05   1.070455e+05
   7.294328e+05   9.073888e+05
   1.219030e+05   9.928669e+05
  -7.303374e+05   2.489842e+05
  -1.013411e+06  -6.781938e+05
  -3.538084e+05  -1.040233e+06
   6.738100e+05  -6.605467e+05
   1.071179e+06   4.982888e+04
   5.142710e+05   5.697950e+05
  -2.633583e+05   6.468217e+05
  -3.464757e+05   3.546354e+05
   2.502670e+05   4.191676e+02
   6.259154e+05  -5.424097e+04
   1.438325e+05   2.919045e+05
  -7.740089e+05   6.736714e+05
  -1.181396e+06   5.525980e+05
  -7.211205e+05  -1.489988e+05
   7.354626e+04  -8.331510e+05
   5.018031e+05  -8.262510e+05
   3.989320e+05  -1.532475e+05
   6.139985e+04   4.655196e+05
  -2.232763e+05   4.200411e+05
  -3.476149e+05  -1.399328e+05
  -2.578330e+05  -5.485652e+05
   4.654034e+04  -4.053834e+05
   3.784167e+05   3.636412e+04
   4.571398e+05   2.531182e+05
   2.317490e+05   8.121183e+04
  -2.859106e+04  -1.395896e+05
  -7.163102e+04  -2.648283e+04
   1.327203e+04   3.515290e+05
  -5.474520e+04   5.313176e+05
  -3.150914e+05   2.074342e+05
  -4.461232e+05  -3.681166e+05
  -1.551243e+05  -6.283037e+05
   3.899173e+05  -3.119292e+05
   6.439135e+05   2.589113e+05
   2.575511e+05   5.494029e+05
  -4.759322e+05   3.617998e+05
  -8.474578e+05  -5.516317e+04
  -4.680655e+05  -3.514177e+05
   2.752822e+05  -3.868599e+05
   6.104302e+05  -2.282867e+05
   2.353647e+05  -1.900927e+04
  -3.423964e+05   7.549428e+04
  -4.020433e+05  -5.529442e+04
   1.558601e+05  -2.935460e+05
   7.162378e+05  -2.886844e+05
