
 $NMID
 id='ANONYMOUS ', fmtdat='(2E16.6)'
 volume=1.0
 tramp=1.0
 $END
  -5.044253e+07  -1.301156e+06
  -2.945863e+07  -3.186911e+07
   7.493925e+06  -3.383275e+07
   2.487893e+07  -1.254387e+07
   1.451180e+07   6.488210e+06
  -3.110676e+06   8.224358e+06
  -8.704227e+06  -1.219879e+06
  -2.325556e+06  -8.720242e+06
   5.633807e+06  -8.246483e+06
   8.627835e+06  -1.641425e+06
   6.164004e+06   5.695311e+06
   5.863705e+05   7.756412e+06
  -3.659133e+06   2.385451e+06
  -2.317961e+06  -4.959920e+06
   3.443758e+06  -5.832051e+06
   7.004471e+06   1.324812e+06
   3.790398e+06   9.214001e+06
  -3.607330e+06   1.048843e+07
  -9.179789e+06   5.080215e+06
  -9.654133e+06  -2.092756e+06
  -5.747004e+06  -6.888113e+06
  -3.745718e+05  -7.756379e+06
   2.752215e+06  -5.288715e+06
   1.629772e+06  -2.305192e+06
  -1.076247e+06  -1.969035e+06
  -1.942271e+05  -3.836271e+06
   4.994616e+06  -3.918195e+06
   8.772463e+06  -2.807098e+05
   6.280965e+06   3.872992e+06
   8.926165e+04   4.604964e+06
  -3.471476e+06   2.268932e+06
  -2.287825e+06  -8.245836e+04
   5.740585e+05  -9.465264e+05
   2.145919e+06  -4.738444e+05
   2.034534e+06   1.366719e+06
   5.650924e+05   3.633060e+06
  -1.729417e+06   3.441127e+06
  -2.912396e+06  -2.260340e+05
  -1.421129e+06  -3.343475e+06
   7.920615e+05  -1.667389e+06
   2.911287e+05   2.294388e+06
  -2.244360e+06   2.066199e+06
  -2.136819e+06  -2.890129e+06
   2.267345e+06  -5.409876e+06
   6.193258e+06  -7.301029e+05
   4.407682e+06   6.306545e+06
  -1.888866e+06   7.569723e+06
  -6.706201e+06   2.009506e+06
  -6.181554e+06  -4.103108e+06
  -1.592977e+06  -5.438533e+06
   3.148566e+06  -2.404383e+06
   4.715185e+06   1.414559e+06
   2.150041e+06   3.142994e+06
  -2.184478e+06   1.923076e+06
  -4.037241e+06  -8.987152e+05
  -1.702072e+06  -2.460138e+06
   1.563126e+06  -1.194911e+06
   1.559591e+06   9.378204e+05
  -1.157613e+06   7.973224e+05
  -2.151234e+06  -1.570695e+06
   6.036725e+05  -2.997561e+06
   4.133009e+06  -1.582153e+06
   4.691442e+06   1.292095e+06
   1.999659e+06   3.584922e+06
  -1.725776e+06   4.716570e+06
  -4.628123e+06   4.304363e+06
  -5.642264e+06   1.464031e+06
  -4.077793e+06  -2.958300e+06
  -7.430823e+05  -5.602328e+06
   1.729331e+06  -4.272207e+06
   1.561087e+06  -1.093510e+06
   1.273067e+05   1.695196e+05
   2.966050e+04  -9.528912e+05
   1.548127e+06  -1.621633e+06
   2.614338e+06  -1.522909e+05
   1.846473e+06   1.832835e+06
  -1.047556e+04   2.001502e+06
  -1.454925e+06   1.916537e+05
  -1.540047e+06  -1.922455e+06
   3.090900e+04  -2.693057e+06
   2.559186e+06  -1.464281e+06
   4.050030e+06   1.172072e+06
   2.841455e+06   3.474290e+06
  -1.275603e+05   3.814200e+06
  -2.107680e+06   2.393626e+06
  -2.019659e+06   9.781857e+05
  -1.652391e+06   5.991747e+05
  -2.673603e+06   4.125679e+05
  -3.950620e+06  -7.357454e+05
  -3.150269e+06  -2.559002e+06
  -7.731667e+04  -3.773459e+06
   2.978903e+06  -3.538395e+06
   3.859501e+06  -1.895604e+06
   2.440155e+06   4.307396e+05
   2.191582e+05   2.071477e+06
  -1.047243e+06   1.766479e+06
  -5.203918e+05  -4.558832e+04
   1.018264e+06  -1.191410e+06
   1.751053e+06  -3.393842e+05
   8.227800e+05   1.120125e+06
  -4.905726e+05   1.022037e+06
  -3.950070e+05  -3.508650e+05
   9.572408e+05  -6.248852e+05
   1.651709e+06   1.171536e+06
   5.534382e+05   3.150178e+06
  -1.447355e+06   3.076714e+06
  -2.836950e+06   9.995827e+05
  -3.004090e+06  -1.322969e+06
  -2.076155e+06  -2.533144e+06
  -4.042585e+05  -2.398763e+06
   1.155684e+06  -1.335518e+06
   1.456390e+06  -1.932656e+05
   4.521985e+05   4.757546e+04
  -3.204755e+05  -6.946535e+05
   3.977301e+05  -1.222064e+06
   1.756838e+06  -5.020566e+05
   1.850440e+06   8.403589e+05
   3.332082e+05   1.301288e+06
  -1.081645e+06   5.101057e+05
  -8.129132e+05  -4.235768e+05
   7.760901e+05  -4.664970e+05
   1.990606e+06   3.091414e+05
   1.590086e+06   1.252701e+06
  -2.403717e+05   1.803014e+06
  -2.133696e+06   1.496392e+06
  -2.551087e+06   2.209804e+05
  -1.100714e+06  -1.178251e+06
   8.682464e+05  -1.367140e+06
   1.437571e+06  -1.492836e+05
   1.682165e+05   9.997239e+05
  -1.405532e+06   6.586486e+05
  -1.568491e+06  -7.394078e+05
  -2.893339e+05  -1.518550e+06
   1.010920e+06  -8.798096e+05
   1.145386e+06   3.016396e+05
   2.131113e+05   7.171789e+05
  -7.334396e+05   3.695547e+04
  -6.651972e+05  -9.805587e+05
   5.477026e+05  -1.306854e+06
   1.857364e+06  -4.777316e+05
   1.863834e+06   9.915295e+05
   3.280174e+05   1.915352e+06
  -1.346259e+06   1.493128e+06
  -1.589788e+06   1.708543e+05
  -4.495725e+05  -8.039467e+05
   6.151859e+05  -7.297831e+05
   5.837442e+05  -6.641111e+04
  -1.078149e+05   3.260298e+05
  -4.469497e+05   1.898076e+05
  -1.114084e+05  -5.064381e+04
   4.034959e+05   8.380418e+04
   4.599046e+05   6.233086e+05
  -2.073164e+05   1.084899e+06
  -1.282206e+06   8.050930e+05
  -1.910429e+06  -4.062070e+05
  -1.325810e+06  -1.806894e+06
   2.258273e+05  -2.225770e+06
   1.497644e+06  -1.280552e+06
   1.547910e+06   1.320156e+05
   7.808991e+05   8.258481e+05
   2.950919e+05   5.976853e+05
   4.454076e+05   2.112251e+05
   5.728365e+05   3.034943e+05
   7.040412e+04   7.067803e+05
  -8.163206e+05   8.158356e+05
  -1.331838e+06   2.817560e+05
  -9.565186e+05  -6.709197e+05
   2.424687e+05  -1.334211e+06
   1.592201e+06  -9.657637e+05
   2.060779e+06   4.688823e+05
   1.016239e+06   1.942724e+06
  -9.595212e+05   2.160079e+06
  -2.349605e+06   9.136393e+05
  -2.148435e+06  -6.339489e+05
  -8.601195e+05  -1.234711e+06
   1.953296e+05  -8.601223e+05
   3.551299e+05  -4.673713e+05
   7.737111e+04  -7.021397e+05
   1.135888e+05  -1.208852e+06
   6.365186e+05  -1.178735e+06
   1.197038e+06  -2.766665e+05
   1.220831e+06   1.010070e+06
   4.927611e+05   1.750528e+06
  -5.875272e+05   1.317072e+06
  -1.181743e+06  -1.629034e+04
  -7.295780e+05  -1.190115e+06
   3.779349e+05  -1.276173e+06
   1.071916e+06  -3.519396e+05
   7.305730e+05   6.559753e+05
  -1.332362e+05   9.851922e+05
  -5.055381e+05   7.058826e+05
  -8.165561e+04   3.772063e+05
   3.978475e+05   3.139662e+05
   5.241521e+04   3.539146e+05
  -1.060166e+06   1.776511e+05
  -1.896153e+06  -3.327601e+05
  -1.474850e+06  -9.735097e+05
   5.696765e+04  -1.318217e+06
   1.480475e+06  -1.028540e+06
   1.686993e+06  -2.313578e+05
   7.546527e+05   4.667074e+05
  -2.510441e+05   5.206795e+05
  -4.700735e+05   2.198715e+04
  -2.181449e+04  -3.928428e+05
   4.096441e+05  -2.366035e+05
   4.409715e+05   3.201162e+05
   2.324571e+05   6.713775e+05
   8.865526e+04   4.461419e+05
   1.236552e+05  -8.304938e+04
   2.523430e+05  -2.657601e+05
   2.497419e+05   2.163379e+05
  -1.355090e+05   9.073596e+05
  -8.393191e+05   9.738714e+05
  -1.265429e+06   1.470170e+05
  -7.833212e+05  -8.551703e+05
   3.969993e+05  -1.051129e+06
   1.170054e+06  -3.024228e+05
   6.732777e+05   5.328723e+05
  -6.536507e+05   5.877309e+05
  -1.455847e+06  -1.059939e+05
  -9.066503e+05  -8.006641e+05
   4.590323e+05  -8.950913e+05
   1.376130e+06  -4.161704e+05
   1.122855e+06   1.897718e+05
   1.153626e+05   4.704420e+05
  -5.996486e+05   2.369133e+05
  -3.527141e+05  -2.788585e+05
   5.413351e+05  -4.836161e+05
   1.094667e+06   7.641225e+04
   6.219436e+05   1.094142e+06
  -5.454739e+05   1.575667e+06
  -1.371740e+06   8.174399e+05
  -1.155875e+06  -7.024332e+05
  -1.777711e+05  -1.651323e+06
   6.888688e+05  -1.181670e+06
   8.462012e+05   1.765517e+05
   3.796065e+05   1.099758e+06
  -2.186574e+05   8.808967e+05
  -5.204190e+05   6.705006e+04
  -4.189317e+05  -3.462593e+05
  -1.410558e+05  -1.212452e+05
  -4.824372e+04   8.308328e+04
  -2.679042e+05  -2.861569e+05
  -4.677024e+05  -8.992462e+05
  -1.567454e+05  -9.889131e+05
   6.752004e+05  -3.518710e+05
   1.354650e+06   4.372529e+05
   1.162167e+06   7.757769e+05
   1.635979e+05   6.474575e+05
  -7.781967e+05   3.866153e+05
  -9.028267e+05   1.589775e+05
  -3.402777e+05  -6.131557e+04
   1.310648e+05  -2.101064e+05
   4.652784e+04  -1.772994e+05
  -2.304887e+05  -7.503858e+04
  -5.288628e+04  -1.239303e+05
   5.956822e+05  -2.269540e+05
   9.700827e+05   9.200079e+03
   4.220381e+05   6.503223e+05
  -7.666859e+05   1.100645e+06
  -1.587175e+06   7.044481e+05
  -1.327520e+06  -3.970697e+05
  -2.594716e+05  -1.298263e+06
   7.177654e+05  -1.274233e+06
   9.742749e+05  -5.080727e+05
   6.052224e+05   2.044678e+05
   1.311876e+05   3.337447e+05
  -5.159500e+04   7.661034e+04
   7.795009e+04  -9.360593e+02
   2.666395e+05   3.439280e+05
   2.193257e+05   7.454982e+05
  -1.632725e+05   6.327747e+05
  -6.288524e+05  -9.743831e+04
  -6.983704e+05  -8.685928e+05
  -1.295304e+05  -9.607413e+05
   6.878638e+05  -2.523797e+05
   9.682581e+05   6.477643e+05
   3.366884e+05   1.010882e+06
  -6.583909e+05   6.433139e+05
  -1.045704e+06  -6.389789e+04
  -5.007940e+05  -5.822984e+05
   2.701156e+05  -6.458399e+05
   3.683684e+05  -3.412585e+05
  -2.113419e+05   3.356551e+03
  -5.960484e+05   4.137316e+04
  -1.417889e+05  -2.897255e+05
   7.619171e+05  -6.256489e+05
   1.177102e+06  -4.823792e+05
   7.209904e+05   1.826016e+05
  -8.781382e+04   8.119674e+05
  -5.281773e+05   7.966846e+05
  -4.159189e+05   1.605617e+05
  -6.288758e+04  -4.368755e+05
   2.186683e+05  -4.147422e+05
   3.284319e+05   1.170173e+05
   2.394054e+05   5.330957e+05
  -4.607420e+04   4.128744e+05
  -3.640967e+05  -3.230404e+04
  -4.443761e+05  -2.723734e+05
  -2.223589e+05  -1.000918e+05
   3.858071e+04   1.550318e+05
   7.095804e+04   6.986513e+04
  -4.029629e+04  -3.199919e+05
   1.163503e+04  -5.366775e+05
   2.890995e+05  -2.397699e+05
   4.546048e+05   3.315100e+05
   1.816545e+05   6.020142e+05
  -3.684639e+05   3.039151e+05
  -6.310035e+05  -2.454252e+05
  -2.486220e+05  -5.235127e+05
   4.743167e+05  -3.419471e+05
   8.300252e+05   5.952644e+04
   4.507070e+05   3.479246e+05
  -2.727844e+05   3.863042e+05
  -5.989147e+05   2.309757e+05
  -2.477537e+05   1.836861e+04
   3.010736e+05  -8.499627e+04
   3.729063e+05   3.302875e+04
  -1.336221e+05   2.601620e+05
  -6.567935e+05   2.610943e+05
