
 $NMID
 id='ANONYMOUS ', fmtdat='(2E16.6)'
 volume=1.0
 tramp=1.0
 $END
   3.527900e+07  -1.018235e+06
   2.322749e+07   1.867139e+07
  -1.586943e+06   2.341239e+07
  -1.619300e+07   1.261488e+07
  -1.192785e+07  -1.207043e+06
   4.609657e+05  -6.272698e+06
   6.837025e+06  -1.398900e+06
   3.812582e+06   5.969877e+06
  -2.712559e+06   8.038056e+06
  -6.420729e+06   3.001447e+06
  -5.178748e+06  -4.165297e+06
  -7.158006e+05  -6.437734e+06
   2.928275e+06  -1.678989e+06
   2.228270e+06   4.813314e+06
  -2.196613e+06   5.807294e+06
  -5.535413e+06   5.430152e+04
  -3.800430e+06  -6.667783e+06
   1.804716e+06  -8.238191e+06
   6.473294e+06  -4.137681e+06
   6.855758e+06   1.485782e+06
   3.654000e+06   4.680543e+06
   1.532223e+05   4.605372e+06
  -8.125951e+05   3.039085e+06
   7.756414e+05   2.341088e+06
   1.910934e+06   3.320869e+06
  -4.344784e+05   4.342756e+06
  -5.284073e+06   3.070961e+06
  -7.822582e+06  -4.797768e+05
  -4.869207e+06  -3.489722e+06
   8.744649e+05  -3.478937e+06
   3.755232e+06  -1.016823e+06
   1.698544e+06   1.309049e+06
  -2.057737e+06   1.652005e+06
  -3.477290e+06  -4.060452e+04
  -1.924326e+06  -2.533069e+06
   4.742800e+05  -3.818374e+06
   1.744756e+06  -2.333725e+06
   1.395713e+06   8.884123e+05
   1.673309e+05   2.330230e+06
  -4.849582e+05   9.438616e+04
   4.703240e+05  -2.904173e+06
   2.129688e+06  -2.212661e+06
   2.097828e+06   1.895848e+06
  -5.665555e+05   4.167851e+06
  -3.494255e+06   1.211048e+06
  -3.274395e+06  -3.860240e+06
   5.683238e+05  -5.328890e+06
   4.767032e+06  -1.770293e+06
   5.546850e+06   2.951765e+06
   2.179313e+06   4.639421e+06
  -2.506879e+06   2.696641e+06
  -4.651929e+06  -5.324233e+05
  -2.679328e+06  -2.442240e+06
   1.258316e+06  -1.912624e+06
   3.276443e+06   1.786859e+05
   1.732076e+06   1.645555e+06
  -1.052660e+06   1.047146e+06
  -1.645924e+06  -6.589734e+05
   3.304502e+05  -1.223602e+06
   1.943479e+06   9.007748e+04
   7.984843e+05   1.687918e+06
  -2.057379e+06   1.722666e+06
  -3.552441e+06   1.292363e+04
  -2.017382e+06  -2.297276e+06
   1.440593e+06  -3.876104e+06
   4.340005e+06  -3.586895e+06
   4.888800e+06  -9.766229e+05
   3.078277e+06   2.693510e+06
   4.947303e+05   4.819050e+06
  -1.021605e+06   4.011158e+06
  -1.012508e+06   1.793428e+06
  -6.646635e+05   6.861861e+05
  -1.203981e+06   1.014942e+06
  -2.326271e+06   8.808130e+05
  -2.637754e+06  -7.863208e+05
  -1.401130e+06  -2.535058e+06
   6.422230e+05  -2.284148e+06
   2.027466e+06   2.356981e+04
   1.716943e+06   2.370058e+06
  -2.354756e+05   2.799948e+06
  -2.555032e+06   1.081626e+06
  -3.437787e+06  -1.410996e+06
  -2.118586e+06  -2.963328e+06
   1.662420e+05  -2.840115e+06
   1.437729e+06  -1.747690e+06
   1.311570e+06  -9.659300e+05
   1.321712e+06  -9.060596e+05
   2.581744e+06  -7.329537e+05
   3.935716e+06   4.608896e+05
   3.245553e+06   2.411182e+06
   1.834023e+05   3.836935e+06
  -3.080853e+06   3.620835e+06
  -4.065312e+06   1.716034e+06
  -2.372304e+06  -7.653069e+05
   1.625785e+05  -2.184884e+06
   1.331594e+06  -1.604602e+06
   4.765390e+05   1.689047e+05
  -1.134114e+06   1.149150e+06
  -1.686233e+06   3.274442e+05
  -6.781119e+05  -1.050539e+06
   6.167525e+05  -1.048598e+06
   6.430803e+05   3.388951e+05
  -6.521927e+05   1.055102e+06
  -1.793264e+06  -3.437200e+05
  -1.398977e+06  -2.726548e+06
   4.992305e+05  -3.642355e+06
   2.643830e+06  -2.043016e+06
   3.612775e+06   7.941687e+05
   2.742876e+06   2.756204e+06
   5.916498e+05   2.776735e+06
  -1.293060e+06   1.416587e+06
  -1.569385e+06   1.217976e+05
  -4.687985e+05  -4.558356e+04
   3.504024e+05   7.039559e+05
  -2.908525e+05   1.178110e+06
  -1.619201e+06   5.508980e+05
  -1.850916e+06  -6.620846e+05
  -4.655259e+05  -1.214891e+06
   1.065404e+06  -6.019007e+05
   9.866763e+05   4.192780e+05
  -7.175379e+05   7.371645e+05
  -2.290122e+06  -2.254324e+04
  -2.022091e+06  -1.303311e+06
   6.484598e+04  -2.130047e+06
   2.243203e+06  -1.768040e+06
   2.682296e+06  -3.216372e+05
   1.146241e+06   1.113910e+06
  -7.963336e+05   1.293996e+06
  -1.315689e+06   1.595892e+05
  -1.116408e+05  -9.307418e+05
   1.401913e+06  -6.719872e+05
   1.654007e+06   6.610455e+05
   4.730561e+05   1.561999e+06
  -9.231919e+05   1.090236e+06
  -1.254477e+06  -1.136224e+05
  -3.760884e+05  -6.915070e+05
   6.697589e+05  -8.985544e+04
   6.641537e+05   9.704543e+05
  -5.826179e+05   1.322053e+06
  -1.916592e+06   4.612621e+05
  -1.903408e+06  -1.021705e+06
  -3.665182e+05  -1.945731e+06
   1.309101e+06  -1.565275e+06
   1.621398e+06  -2.636479e+05
   5.438371e+05   7.972787e+05
  -5.938552e+05   8.088063e+05
  -6.877507e+05   6.011753e+04
   5.053646e+04  -5.012398e+05
   6.015471e+05  -3.493330e+05
   3.622484e+05   1.217343e+05
  -3.148620e+05   1.521237e+05
  -5.826370e+05  -4.697231e+05
   6.651960e+04  -1.109969e+06
   1.270431e+06  -8.946282e+05
   1.984619e+06   3.656306e+05
   1.391306e+06   1.839188e+06
  -2.095997e+05   2.345471e+06
  -1.570932e+06   1.465253e+06
  -1.738646e+06  -3.779683e+04
  -9.883801e+05  -9.762939e+05
  -3.401776e+05  -8.904569e+05
  -3.072572e+05  -3.619870e+05
  -4.390886e+05  -2.253066e+05
  -7.228955e+04  -6.199786e+05
   7.844492e+05  -8.973247e+05
   1.423969e+06  -4.011130e+05
   1.126613e+06   7.283770e+05
  -1.662195e+05   1.542737e+06
  -1.669317e+06   1.129817e+06
  -2.212670e+06  -4.346745e+05
  -1.173353e+06  -1.987302e+06
   8.344344e+05  -2.266127e+06
   2.342693e+06  -1.090740e+06
   2.327088e+06   4.934533e+05
   1.111552e+06   1.288425e+06
  -1.032639e+05   1.078764e+06
  -4.999278e+05   6.328552e+05
  -2.857538e+05   6.866034e+05
  -1.935944e+05   1.112158e+06
  -5.977100e+05   1.137438e+06
  -1.168656e+06   2.776882e+05
  -1.247926e+06  -1.046507e+06
  -5.142831e+05  -1.822718e+06
   6.161819e+05  -1.375646e+06
   1.248075e+06  -2.402738e+04
   8.208111e+05   1.169488e+06
  -2.706889e+05   1.334743e+06
  -1.004180e+06   5.194562e+05
  -7.767668e+05  -4.796128e+05
  -1.955251e+04  -9.353800e+05
   3.520013e+05  -7.843171e+05
   1.997466e+04  -4.699177e+05
  -3.815965e+05  -3.557567e+05
  -3.598508e+04  -3.807311e+05
   1.045046e+06  -2.268398e+05
   1.899030e+06   2.785141e+05
   1.552129e+06   9.368697e+05
   6.962097e+04   1.305922e+06
  -1.401681e+06   1.067409e+06
  -1.717793e+06   3.426202e+05
  -8.464327e+05  -3.422524e+05
   1.919899e+05  -4.864161e+05
   4.584644e+05  -8.986852e+04
  -5.849833e+03   3.200254e+05
  -4.662401e+05   2.194529e+05
  -4.446443e+05  -3.302740e+05
  -1.404961e+05  -7.141087e+05
   1.994865e+03  -4.589696e+05
  -1.485100e+05   1.577028e+05
  -3.508747e+05   3.582969e+05
  -2.836529e+05  -2.135635e+05
   1.884631e+05  -9.756590e+05
   8.579415e+05  -1.002784e+06
   1.186458e+06  -1.097745e+05
   7.004187e+05   8.734530e+05
  -3.934704e+05   1.000619e+06
  -1.133819e+06   2.320123e+05
  -6.849316e+05  -5.821097e+05
   6.520487e+05  -6.432938e+05
   1.574243e+06   4.388380e+04
   1.097493e+06   8.168136e+05
  -3.787633e+05   1.039485e+06
  -1.481072e+06   5.930003e+05
  -1.280976e+06  -1.215990e+05
  -1.766033e+05  -5.228293e+05
   6.186453e+05  -3.055143e+05
   3.411176e+05   2.511639e+05
  -6.055805e+05   4.511115e+05
  -1.123958e+06  -1.519981e+05
  -5.532150e+05  -1.169614e+06
   6.735929e+05  -1.594008e+06
   1.478646e+06  -7.792183e+05
   1.201606e+06   7.741288e+05
   1.709674e+05   1.755970e+06
  -7.309357e+05   1.299697e+06
  -9.192025e+05  -1.195634e+05
  -4.740175e+05  -1.156225e+06
   1.452284e+05  -9.906025e+05
   5.260451e+05  -1.139431e+05
   5.052762e+05   3.873429e+05
   2.179470e+05   1.602618e+05
   2.586941e+04  -1.139025e+05
   1.857178e+05   2.368325e+05
   4.582678e+05   9.190520e+05
   2.527653e+05   1.069476e+06
  -6.121668e+05   4.019320e+05
  -1.442074e+06  -4.630378e+05
  -1.308573e+06  -8.264226e+05
  -1.859195e+05  -6.653441e+05
   8.904431e+05  -3.891003e+05
   9.816330e+05  -1.920992e+05
   3.029434e+05   1.254622e+04
  -1.654649e+05   2.093181e+05
   3.064809e+04   2.411817e+05
   3.266388e+05   1.414658e+05
   1.857087e+04   1.311122e+05
  -7.197608e+05   1.864998e+05
  -1.002034e+06  -4.252197e+04
  -3.057017e+05  -6.511954e+05
   8.917599e+05  -1.080449e+06
   1.598242e+06  -6.659767e+05
   1.267179e+06   4.642986e+05
   2.213427e+05   1.373524e+06
  -7.353661e+05   1.301020e+06
  -1.014910e+06   4.609178e+05
  -6.379176e+05  -2.728067e+05
  -9.500852e+04  -3.438447e+05
   1.257233e+05  -1.532932e+04
  -6.090357e+04   6.559519e+04
  -3.218662e+05  -3.412420e+05
  -2.586656e+05  -7.873804e+05
   1.935838e+05  -6.387292e+05
   6.662785e+05   1.725066e+05
   6.585895e+05   9.696927e+05
   2.651353e+04   9.836241e+05
  -7.644218e+05   1.628409e+05
  -9.645997e+05  -7.659130e+05
  -2.815590e+05  -1.049474e+06
   7.029274e+05  -5.973715e+05
   1.046437e+06   1.007717e+05
   4.744037e+05   5.501958e+05
  -2.747325e+05   5.938802e+05
  -3.166324e+05   3.429668e+05
   2.946758e+05   4.049878e+04
   6.427826e+05  -1.919153e+04
   1.191793e+05   2.861118e+05
  -8.070914e+05   6.546870e+05
  -1.179102e+06   5.564421e+05
  -6.820222e+05  -1.287619e+05
   1.062246e+05  -8.156729e+05
   4.909672e+05  -8.028607e+05
   3.514319e+05  -1.158919e+05
   1.309272e+04   4.842698e+05
  -2.440094e+05   3.856376e+05
  -3.362746e+05  -1.978815e+05
  -2.301949e+05  -5.622879e+05
   6.495665e+04  -3.640454e+05
   3.726949e+05   7.022095e+04
   4.421839e+05   2.394654e+05
   2.361330e+05   6.414667e+04
  -9.860196e+03  -1.025823e+05
  -8.764612e+04   4.023432e+04
  -6.745017e+04   3.669542e+05
  -1.496663e+05   4.639391e+05
  -3.330558e+05   1.104887e+05
  -3.636197e+05  -4.256447e+05
  -5.192662e+04  -6.261201e+05
   4.217044e+05  -2.706728e+05
   6.007339e+05   3.087340e+05
   2.095420e+05   5.751364e+05
  -4.790660e+05   3.408190e+05
  -8.192774e+05  -1.039715e+05
  -4.427647e+05  -3.707981e+05
   2.849247e+05  -3.449231e+05
   6.017215e+05  -1.669151e+05
   2.016938e+05  -1.071745e+04
  -3.863950e+05   1.465434e+04
  -4.085627e+05  -1.257788e+05
   2.153361e+05  -3.078866e+05
   7.959820e+05  -2.422513e+05
