
 $NMID
 id='ANONYMOUS ', fmtdat='(2E16.6)'
 volume=1.0
 tramp=1.0
 $END
   5.372592e+07   9.926599e+05
   3.189511e+07   3.346303e+07
  -7.406677e+06   3.612075e+07
  -2.642754e+07   1.393825e+07
  -1.580754e+07  -6.518313e+06
   3.092506e+06  -8.891054e+06
   9.444403e+06   1.022428e+06
   2.775294e+06   9.339321e+06
  -5.906347e+06   9.117471e+06
  -9.293545e+06   1.985199e+06
  -6.673061e+06  -6.096138e+06
  -6.441240e+05  -8.385377e+06
   3.930876e+06  -2.535271e+06
   2.501686e+06   5.457804e+06
  -3.687981e+06   6.434457e+06
  -7.571226e+06  -1.292586e+06
  -4.191184e+06  -9.861633e+06
   3.753448e+06  -1.130521e+07
   9.778082e+06  -5.499606e+06
   1.028533e+07   2.204185e+06
   6.092935e+06   7.276879e+06
   4.412736e+05   8.142591e+06
  -2.747666e+06   5.596759e+06
  -1.520513e+06   2.623795e+06
   1.214024e+06   2.376714e+06
   8.093229e+04   4.260193e+06
  -5.533291e+06   4.150498e+06
  -9.509045e+06   1.741871e+05
  -6.719367e+06  -4.215116e+06
   1.610401e+04  -4.891716e+06
   3.825278e+06  -2.300710e+06
   2.395238e+06   2.383382e+05
  -8.513611e+05   1.063397e+06
  -2.509056e+06   3.846274e+05
  -2.165647e+06  -1.662437e+06
  -4.527108e+05  -3.984797e+06
   1.892430e+06  -3.634284e+06
   2.990017e+06   2.959394e+05
   1.420299e+06   3.517303e+06
  -7.853895e+05   1.646519e+06
  -1.810578e+05  -2.571859e+06
   2.480640e+06  -2.275840e+06
   2.360902e+06   3.076244e+06
  -2.284505e+06   5.848787e+06
  -6.509219e+06   9.155555e+05
  -4.752635e+06  -6.632998e+06
   1.894130e+06  -8.090253e+06
   7.149639e+06  -2.199247e+06
   6.733544e+06   4.404069e+06
   1.807952e+06   5.924815e+06
  -3.419723e+06   2.679525e+06
  -5.204226e+06  -1.488382e+06
  -2.431299e+06  -3.414090e+06
   2.307003e+06  -2.133471e+06
   4.370656e+06   9.060115e+05
   1.887947e+06   2.624187e+06
  -1.662112e+06   1.303740e+06
  -1.730041e+06  -1.015446e+06
   1.196341e+06  -9.533041e+05
   2.387707e+06   1.557133e+06
  -4.654745e+05   3.188831e+06
  -4.312615e+06   1.804838e+06
  -5.063704e+06  -1.258072e+06
  -2.222083e+06  -3.805667e+06
   1.873520e+06  -5.082580e+06
   5.068339e+06  -4.617493e+06
   6.110154e+06  -1.529743e+06
   4.348053e+06   3.219967e+06
   7.675562e+05   6.065844e+06
  -1.844717e+06   4.682511e+06
  -1.689257e+06   1.297536e+06
  -2.397817e+05  -1.044933e+05
  -1.883899e+05   1.008030e+06
  -1.783926e+06   1.647638e+06
  -2.843124e+06   2.742585e+04
  -1.932242e+06  -2.102185e+06
   1.187582e+05  -2.211989e+06
   1.664731e+06  -1.483151e+05
   1.681233e+06   2.191852e+06
  -8.792536e+04   2.968458e+06
  -2.813782e+06   1.541293e+06
  -4.361343e+06  -1.331542e+06
  -3.026850e+06  -3.757417e+06
   1.407845e+05  -4.074896e+06
   2.232939e+06  -2.562309e+06
   2.143994e+06  -1.084906e+06
   1.795592e+06  -6.952736e+05
   2.947507e+06  -4.726687e+05
   4.349909e+06   8.114131e+05
   3.460992e+06   2.830613e+06
   6.112059e+04   4.165335e+06
  -3.326353e+06   3.872588e+06
  -4.282721e+06   2.020359e+06
  -2.659689e+06  -5.346637e+05
  -1.708139e+05  -2.280185e+06
   1.197140e+06  -1.903244e+06
   5.621356e+05   6.813908e+04
  -1.143831e+06   1.292105e+06
  -1.921728e+06   3.589725e+05
  -8.804956e+05  -1.225764e+06
   5.656741e+05  -1.118813e+06
   4.626963e+05   3.979406e+05
  -1.038631e+06   7.443086e+05
  -1.857652e+06  -1.207828e+06
  -7.015087e+05  -3.453645e+06
   1.526925e+06  -3.480689e+06
   3.149500e+06  -1.210403e+06
   3.390203e+06   1.442998e+06
   2.334724e+06   2.861214e+06
   4.307289e+05   2.697612e+06
  -1.304298e+06   1.463526e+06
  -1.615651e+06   1.859823e+05
  -4.993961e+05  -5.696306e+04
   3.497286e+05   7.696390e+05
  -4.337199e+05   1.340125e+06
  -1.922876e+06   5.482286e+05
  -2.036134e+06  -9.195150e+05
  -3.749567e+05  -1.429766e+06
   1.196422e+06  -5.637220e+05
   9.123332e+05   4.796811e+05
  -8.617662e+05   5.417778e+05
  -2.235964e+06  -3.351531e+05
  -1.789467e+06  -1.416628e+06
   2.725134e+05  -2.029244e+06
   2.386139e+06  -1.656294e+06
   2.829722e+06  -2.270239e+05
   1.208911e+06   1.300645e+06
  -9.560859e+05   1.490625e+06
  -1.568888e+06   1.574955e+05
  -1.720017e+05  -1.090923e+06
   1.552763e+06  -7.139205e+05
   1.733116e+06   8.216972e+05
   3.255955e+05   1.686576e+06
  -1.118114e+06   9.886456e+05
  -1.278846e+06  -3.234139e+05
  -2.493763e+05  -7.945088e+05
   8.014536e+05  -4.319854e+04
   7.232346e+05   1.083569e+06
  -6.194632e+05   1.433357e+06
  -2.054764e+06   5.042634e+05
  -2.045595e+06  -1.113439e+06
  -3.470222e+05  -2.116057e+06
   1.493491e+06  -1.641308e+06
   1.758870e+06  -1.837370e+05
   4.995265e+05   8.918439e+05
  -6.840661e+05   8.082584e+05
  -6.556166e+05   6.301053e+04
   1.214101e+05  -3.815377e+05
   5.188304e+05  -2.182171e+05
   1.500805e+05   7.545686e+04
  -4.417607e+05  -6.346701e+04
  -5.215222e+05  -6.762109e+05
   2.218639e+05  -1.200632e+06
   1.420521e+06  -8.855922e+05
   2.109301e+06   4.625365e+05
   1.449148e+06   2.007152e+06
  -2.717477e+05   2.462748e+06
  -1.676345e+06   1.415376e+06
  -1.729605e+06  -1.555331e+05
  -8.713927e+05  -9.430174e+05
  -3.130537e+05  -6.985289e+05
  -4.650446e+05  -2.496759e+05
  -6.140991e+05  -3.242573e+05
  -7.452578e+04  -7.677642e+05
   9.052776e+05  -9.014790e+05
   1.484321e+06  -3.086287e+05
   1.064931e+06   7.611407e+05
  -2.781842e+05   1.494710e+06
  -1.777087e+06   1.065135e+06
  -2.283505e+06  -5.368250e+05
  -1.118082e+06  -2.158924e+06
   1.064460e+06  -2.386301e+06
   2.600205e+06  -1.006028e+06
   2.386164e+06   7.071069e+05
   9.641597e+05   1.383340e+06
  -2.202053e+05   9.754421e+05
  -4.196234e+05   5.257026e+05
  -1.167312e+05   7.616991e+05
  -1.421225e+05   1.314116e+06
  -7.048361e+05   1.287774e+06
  -1.316355e+06   2.947411e+05
  -1.336086e+06  -1.128316e+06
  -5.259831e+05  -1.940662e+06
   6.644863e+05  -1.450089e+06
   1.310090e+06   2.639069e+04
   8.040425e+05   1.317409e+06
  -4.166764e+05   1.412411e+06
  -1.181102e+06   4.008810e+05
  -8.106536e+05  -7.085912e+05
   1.347843e+05  -1.082836e+06
   5.468998e+05  -7.879482e+05
   8.936629e+04  -4.283051e+05
  -4.312003e+05  -3.537474e+05
  -5.125003e+04  -3.926195e+05
   1.168381e+06  -1.923579e+05
   2.085997e+06   3.771015e+05
   1.625016e+06   1.083388e+06
  -5.861846e+04   1.453552e+06
  -1.630385e+06   1.126161e+06
  -1.866816e+06   2.516676e+05
  -8.424964e+05  -5.087320e+05
   2.723890e+05  -5.687607e+05
   5.187539e+05  -2.871230e+04
   1.978280e+04   4.224161e+05
  -4.593934e+05   2.522092e+05
  -4.823836e+05  -3.577995e+05
  -2.364841e+05  -7.426483e+05
  -8.169907e+04  -4.897818e+05
  -1.429150e+05   9.847508e+04
  -2.959849e+05   2.976166e+05
  -2.770141e+05  -2.413874e+05
   1.668590e+05  -1.003526e+06
   9.360266e+05  -1.066677e+06
   1.382520e+06  -1.485781e+05
   8.430520e+05   9.472464e+05
  -4.441318e+05   1.146883e+06
  -1.283080e+06   3.146797e+05
  -7.354742e+05  -5.992021e+05
   7.267659e+05  -6.476901e+05
   1.618273e+06   1.271044e+05
   1.013332e+06   8.990644e+05
  -5.092224e+05   1.001849e+06
  -1.538237e+06   4.630102e+05
  -1.256182e+06  -2.170229e+05
  -1.281263e+05  -5.276812e+05
   6.671175e+05  -2.629532e+05
   3.852308e+05   3.061829e+05
  -6.068091e+05   5.206008e+05
  -1.204518e+06  -1.047004e+05
  -6.628023e+05  -1.216395e+06
   6.314224e+05  -1.726103e+06
   1.528837e+06  -8.779137e+05
   1.268343e+06   7.943863e+05
   1.753816e+05   1.831567e+06
  -7.788791e+05   1.306976e+06
  -9.408696e+05  -1.979255e+05
  -4.170477e+05  -1.224449e+06
   2.439629e+05  -9.838420e+05
   5.758236e+05  -7.456812e+04
   4.668817e+05   3.933978e+05
   1.621043e+05   1.425834e+05
   5.229863e+04  -9.571050e+04
   2.839210e+05   3.079824e+05
   5.044393e+05   9.959580e+05
   1.721158e+05   1.103490e+06
  -7.404171e+05   3.896999e+05
  -1.496517e+06  -5.003352e+05
  -1.287900e+06  -8.765132e+05
  -1.760940e+05  -7.171025e+05
   8.739750e+05  -4.141195e+05
   1.006065e+06  -1.675940e+05
   3.711804e+05   6.309539e+04
  -1.504092e+05   2.285620e+05
  -4.580182e+04   2.056792e+05
   2.622230e+05   9.674217e+04
   5.249641e+04   1.363667e+05
  -6.713926e+05   2.343006e+05
  -1.070059e+06  -2.447209e+04
  -4.439454e+05  -7.150334e+05
   8.685738e+05  -1.196665e+06
   1.752947e+06  -7.553364e+05
   1.447037e+06   4.551793e+05
   2.658213e+05   1.438891e+06
  -8.048726e+05   1.398190e+06
  -1.079977e+06   5.426206e+05
  -6.654466e+05  -2.403590e+05
  -1.363849e+05  -3.682706e+05
   6.425155e+04  -7.327964e+04
  -8.622827e+04   9.005103e+03
  -2.971956e+05  -3.827731e+05
  -2.377074e+05  -8.291275e+05
   1.894810e+05  -6.943563e+05
   6.927737e+05   1.238044e+05
   7.515706e+05   9.732355e+05
   1.199930e+05   1.057204e+06
  -7.652485e+05   2.572462e+05
  -1.054410e+06  -7.362900e+05
  -3.527958e+05  -1.118139e+06
   7.341765e+05  -6.943747e+05
   1.148762e+06   8.458594e+04
   5.436915e+05   6.403639e+05
  -3.017209e+05   7.015536e+05
  -4.021346e+05   3.743830e+05
   2.412292e+05   7.012796e+03
   6.612169e+05  -3.540749e+04
   1.506811e+05   3.187961e+05
  -8.509771e+05   6.832734e+05
  -1.302958e+06   5.290788e+05
  -7.890139e+05  -1.993767e+05
   1.065616e+05  -8.924485e+05
   5.842119e+05  -8.740623e+05
   4.494054e+05  -1.698409e+05
   5.710690e+04   4.852564e+05
  -2.464644e+05   4.497566e+05
  -3.581157e+05  -1.421620e+05
  -2.562259e+05  -5.921113e+05
   5.493182e+04  -4.471072e+05
   3.999387e+05   4.395565e+04
   4.875258e+05   2.996593e+05
   2.469015e+05   1.082842e+05
  -3.953214e+04  -1.633062e+05
  -8.386379e+04  -6.452579e+04
   2.615637e+04   3.540765e+05
  -3.202436e+04   5.759902e+05
  -3.207046e+05   2.433947e+05
  -4.821884e+05  -3.771011e+05
  -1.772751e+05  -6.620260e+05
   4.135782e+05  -3.248001e+05
   6.858468e+05   2.825730e+05
   2.618573e+05   5.832511e+05
  -5.256586e+05   3.715754e+05
  -9.097448e+05  -7.826598e+04
  -4.908721e+05  -3.895558e+05
   3.036185e+05  -4.169713e+05
   6.590235e+05  -2.405863e+05
   2.667977e+05  -1.879291e+04
  -3.399084e+05   7.866069e+04
  -4.108265e+05  -5.270703e+04
   1.614685e+05  -2.877600e+05
   7.417100e+05  -2.734204e+05
