
 $NMID
 id='ANONYMOUS ', fmtdat='(2E16.6)'
 volume=1.0
 tramp=1.0
 $END
   2.061749e+07   2.444032e+06
   1.185216e+07   1.137743e+07
  -2.042182e+06   1.260570e+07
  -9.384451e+06   7.029507e+06
  -6.741031e+06  -7.503846e+04
   7.737459e+04  -3.399252e+06
   3.874414e+06  -1.270503e+06
   2.513540e+06   3.267865e+06
  -1.291804e+06   5.098964e+06
  -3.768532e+06   1.994618e+06
  -3.063017e+06  -2.872045e+06
  -1.594081e+05  -4.264752e+06
   2.088541e+06  -7.992424e+05
   1.470783e+06   3.508627e+06
  -1.334853e+06   3.900599e+06
  -3.287424e+06   3.520751e+04
  -2.096630e+06  -4.148882e+06
   1.403472e+06  -4.892244e+06
   4.168989e+06  -2.027818e+06
   3.986599e+06   1.618551e+06
   1.474089e+06   3.252372e+06
  -7.092565e+05   2.455303e+06
  -5.476385e+05   1.109219e+06
   1.242095e+06   1.211694e+06
   1.861242e+06   2.668435e+06
  -4.737385e+05   3.427151e+06
  -4.156314e+06   1.941319e+06
  -5.546527e+06  -9.192895e+05
  -2.968068e+06  -2.807601e+06
   1.223994e+06  -2.378678e+06
   3.093902e+06  -3.574390e+05
   1.294325e+06   1.470611e+06
  -1.813882e+06   1.686166e+06
  -3.027150e+06   3.731355e+04
  -1.565230e+06  -2.243015e+06
   6.833377e+05  -3.037919e+06
   1.548784e+06  -1.335602e+06
   6.867778e+05   1.189574e+06
  -5.092635e+05   1.659518e+06
  -5.970167e+05  -4.730021e+05
   4.908695e+05  -2.441656e+06
   1.520477e+06  -1.585527e+06
   1.264264e+06   1.126874e+06
  -2.463656e+05   2.282828e+06
  -1.653353e+06   3.833743e+05
  -1.447982e+06  -2.375154e+06
   5.943519e+05  -2.909383e+06
   2.965981e+06  -7.135630e+05
   3.537004e+06   2.036211e+06
   1.500444e+06   3.043908e+06
  -1.615437e+06   1.860962e+06
  -3.159004e+06  -2.228677e+05
  -1.907429e+06  -1.500248e+06
   6.750849e+05  -1.164529e+06
   1.994772e+06   1.375905e+05
   1.062200e+06   9.772802e+05
  -6.627267e+05   5.879939e+05
  -1.148462e+06  -4.070472e+05
  -7.424785e+04  -8.323889e+05
   1.031731e+06  -2.946965e+05
   6.863397e+05   5.519431e+05
  -8.777940e+05   8.123753e+05
  -1.961726e+06   8.969307e+04
  -1.152983e+06  -1.317445e+06
   1.210270e+06  -2.475605e+06
   3.281609e+06  -2.248607e+06
   3.444827e+06  -3.140139e+05
   1.830896e+06   2.144616e+06
   3.032339e+04   3.325684e+06
  -6.599550e+05   2.663487e+06
  -4.555903e+05   1.373897e+06
  -4.723837e+05   8.542117e+05
  -1.227768e+06   9.826214e+05
  -2.092714e+06   5.419759e+05
  -2.106077e+06  -8.926399e+05
  -9.872921e+05  -2.168309e+06
   6.353099e+05  -1.863876e+06
   1.686465e+06  -3.659433e+03
   1.350121e+06   1.846357e+06
  -2.601301e+05   2.102470e+06
  -1.953781e+06   6.234509e+05
  -2.337423e+06  -1.287908e+06
  -1.159459e+06  -2.190832e+06
   3.913317e+05  -1.776477e+06
   1.013546e+06  -9.073108e+05
   7.615574e+05  -5.225379e+05
   8.120362e+05  -6.540098e+05
   1.791156e+06  -5.601664e+05
   2.784226e+06   3.279658e+05
   2.307535e+06   1.744664e+06
   1.078502e+05   2.783538e+06
  -2.314343e+06   2.616886e+06
  -3.080346e+06   1.161098e+06
  -1.758243e+06  -7.125156e+05
   2.472240e+05  -1.697172e+06
   1.114420e+06  -1.152255e+06
   3.558703e+05   1.772338e+05
  -8.872976e+05   8.251009e+05
  -1.212728e+06   1.893738e+05
  -4.149960e+05  -7.847403e+05
   4.985121e+05  -7.842571e+05
   5.315296e+05   2.013245e+05
  -3.103686e+05   8.164925e+05
  -1.160747e+06  -6.188491e+03
  -1.126167e+06  -1.698130e+06
   2.690492e+04  -2.599894e+06
   1.676276e+06  -1.702791e+06
   2.675030e+06   3.557620e+05
   2.185155e+06   1.974394e+06
   5.145227e+05   2.097906e+06
  -9.876736e+05   1.057446e+06
  -1.189670e+06   6.245230e+04
  -3.438104e+05  -3.753129e+04
   2.522181e+05   5.135669e+05
  -2.101962e+05   8.136610e+05
  -1.133621e+06   3.552918e+05
  -1.293029e+06  -4.611989e+05
  -3.364493e+05  -8.361719e+05
   7.596693e+05  -4.410207e+05
   7.589125e+05   2.840242e+05
  -4.591271e+05   5.896630e+05
  -1.689189e+06   9.058038e+04
  -1.582371e+06  -9.057597e+05
  -3.567711e+04  -1.604076e+06
   1.634660e+06  -1.345734e+06
   1.969593e+06  -2.420799e+05
   8.111025e+05   8.003820e+05
  -5.956670e+05   8.872562e+05
  -9.191229e+05   6.883749e+04
  -3.248176e+04  -6.688895e+05
   1.025548e+06  -4.650916e+05
   1.196698e+06   4.684278e+05
   3.784538e+05   1.115791e+06
  -6.189520e+05   8.179681e+05
  -9.005137e+05  -2.634145e+04
  -3.031652e+05  -4.663092e+05
   4.574183e+05  -5.510108e+04
   4.616538e+05   7.134924e+05
  -4.540580e+05   9.604953e+05
  -1.420128e+06   3.072943e+05
  -1.380493e+06  -7.766868e+05
  -2.482111e+05  -1.419270e+06
   9.520855e+05  -1.125251e+06
   1.170882e+06  -1.959000e+05
   4.065709e+05   5.663863e+05
  -4.225293e+05   5.948963e+05
  -5.323338e+05   5.128668e+04
  -8.448553e+03  -4.026117e+05
   4.548335e+05  -3.227262e+05
   3.502397e+05   6.270754e+04
  -1.547106e+05   1.558372e+05
  -4.179182e+05  -2.797388e+05
   2.142321e+04  -7.816153e+05
   9.155935e+05  -6.499355e+05
   1.446656e+06   2.737753e+05
   1.002125e+06   1.355552e+06
  -1.647226e+05   1.730029e+06
  -1.149090e+06   1.104820e+06
  -1.297399e+06   9.317288e+03
  -7.928903e+05  -7.269936e+05
  -3.061962e+05  -7.296772e+05
  -2.073405e+05  -3.424408e+05
  -2.580921e+05  -1.767375e+05
  -2.319418e+04  -4.249636e+05
   5.587796e+05  -6.541221e+05
   1.042481e+06  -3.200189e+05
   8.668346e+05   5.299785e+05
  -8.182686e+04   1.162014e+06
  -1.219863e+06   8.543231e+05
  -1.635292e+06  -3.134056e+05
  -8.711055e+05  -1.443185e+06
   5.871873e+05  -1.633808e+06
   1.679979e+06  -7.996436e+05
   1.702570e+06   3.208800e+05
   8.690204e+05   9.176299e+05
  -2.080584e+04   8.261703e+05
  -3.821146e+05   5.299814e+05
  -2.851043e+05   5.326533e+05
  -2.051586e+05   7.916817e+05
  -4.517479e+05   7.938044e+05
  -8.443544e+05   1.743499e+05
  -9.020792e+05  -7.871979e+05
  -3.615255e+05  -1.348756e+06
   4.683035e+05  -1.010319e+06
   9.171097e+05  -2.067569e+04
   5.968463e+05   8.380121e+05
  -1.765125e+05   9.580523e+05
  -6.823329e+05   3.938619e+05
  -5.310063e+05  -2.999852e+05
  -3.185359e+04  -6.317217e+05
   2.074561e+05  -5.532538e+05
  -1.495241e+04  -3.550019e+05
  -2.744191e+05  -2.809765e+05
  -1.996419e+04  -2.883602e+05
   7.474311e+05  -1.568494e+05
   1.362060e+06   2.201121e+05
   1.124161e+06   6.808340e+05
   6.159665e+04   9.182037e+05
  -1.004855e+06   7.435847e+05
  -1.238098e+06   2.567482e+05
  -6.086518e+05  -2.073195e+05
   1.379495e+05  -3.266637e+05
   3.163944e+05  -7.450680e+04
  -3.381214e+04   2.163424e+05
  -3.627593e+05   1.576358e+05
  -3.198187e+05  -2.500061e+05
  -7.063871e+04  -5.529526e+05
   3.404801e+04  -3.560659e+05
  -1.021394e+05   1.391672e+05
  -2.707188e+05   3.019912e+05
  -2.113787e+05  -1.521049e+05
   1.557990e+05  -7.359957e+05
   6.402177e+05  -7.244169e+05
   8.473097e+05  -3.006453e+04
   4.714641e+05   6.696248e+05
  -3.134971e+05   7.030430e+05
  -8.311066e+05   1.189572e+05
  -5.002347e+05  -4.470353e+05
   4.725737e+05  -4.709715e+05
   1.163347e+06   1.701799e+04
   8.414629e+05   5.769259e+05
  -2.392761e+05   7.730828e+05
  -1.079002e+06   4.779957e+05
  -9.596553e+05  -5.778367e+04
  -1.479017e+05  -3.851055e+05
   4.454998e+05  -2.347619e+05
   2.335640e+05   1.827169e+05
  -4.736373e+05   3.202318e+05
  -8.374886e+05  -1.470784e+05
  -3.756163e+05  -8.957830e+05
   5.520616e+05  -1.176910e+06
   1.126986e+06  -5.496863e+05
   8.864945e+05   5.952344e+05
   1.121447e+05   1.309709e+06
  -5.415087e+05   9.736281e+05
  -6.743015e+05  -7.111580e+04
  -3.628180e+05  -8.442660e+05
   7.835149e+04  -7.330417e+05
   3.754534e+05  -8.816913e+04
   3.939033e+05   2.841209e+05
   1.863399e+05   1.154995e+05
   7.651394e+03  -8.656358e+04
   9.550488e+04   1.780666e+05
   3.170846e+05   6.830988e+05
   2.094805e+05   7.840910e+05
  -4.221410e+05   2.818772e+05
  -1.069279e+06  -3.514153e+05
  -9.885748e+05  -6.074627e+05
  -1.331511e+05  -4.867092e+05
   6.859998e+05  -2.906310e+05
   7.321050e+05  -1.480140e+05
   1.981053e+05   8.103897e+03
  -1.342714e+05   1.559267e+05
   5.433842e+04   1.781084e+05
   2.770980e+05   1.078967e+05
   2.408407e+03   1.049026e+05
  -5.711024e+05   1.365202e+05
  -7.428299e+05  -5.229502e+04
  -1.755094e+05  -5.030815e+05
   7.082461e+05  -7.882080e+05
   1.183270e+06  -4.448707e+05
   9.072828e+05   3.928766e+05
   1.401380e+05   1.031082e+06
  -5.568908e+05   9.421981e+05
  -7.669094e+05   3.104789e+05
  -4.820997e+05  -2.229571e+05
  -5.404099e+04  -2.619135e+05
   1.265570e+05  -6.387563e+03
  -2.656948e+04   6.205866e+04
  -2.431181e+05  -2.409331e+05
  -1.938587e+05  -5.800918e+05
   1.598844e+05  -4.681049e+05
   5.073499e+05   1.516959e+05
   4.697819e+05   7.541133e+05
  -2.450200e+04   7.428695e+05
  -5.993995e+05   9.384612e+04
  -7.098959e+05  -6.092417e+05
  -1.769087e+05  -7.897945e+05
   5.439490e+05  -4.163843e+05
   7.654620e+05   1.030678e+05
   3.194638e+05   4.039576e+05
  -2.226295e+05   4.114089e+05
  -2.202792e+05   2.325448e+05
   2.471462e+05   3.007639e+04
   4.853250e+05  -5.511644e+03
   7.374828e+04   2.135072e+05
  -6.048120e+05   4.784720e+05
  -8.505224e+05   4.045703e+05
  -4.694552e+05  -9.820484e+04
   9.668307e+04  -5.948859e+05
   3.585510e+05  -5.674479e+05
   2.474505e+05  -5.066358e+04
  -4.074018e+03   3.762749e+05
  -1.978203e+05   2.720789e+05
  -2.598958e+05  -1.720814e+05
  -1.602001e+05  -4.228139e+05
   6.979073e+04  -2.524569e+05
   2.797449e+05   6.720535e+04
   3.087914e+05   1.725296e+05
   1.665969e+05   3.725597e+04
   1.441389e+04  -6.513896e+04
  -4.586209e+04   6.384386e+04
  -7.767137e+04   3.018829e+05
  -1.735612e+05   3.416305e+05
  -2.842335e+05   4.501642e+04
  -2.490326e+05  -3.628036e+05
   7.193807e+03  -4.899931e+05
   3.338106e+05  -1.901197e+05
   4.346890e+05   2.602451e+05
   1.408795e+05   4.447762e+05
  -3.554766e+05   2.391877e+05
  -5.987877e+05  -1.059229e+05
  -3.169681e+05  -2.856224e+05
   2.254515e+05  -2.353341e+05
   4.540979e+05  -9.165837e+04
   1.344808e+05   7.987982e+03
  -3.209281e+05   8.159224e+02
  -3.244553e+05  -1.187040e+05
   1.759937e+05  -2.510073e+05
   6.273161e+05  -1.852100e+05
