
 $NMID
 id='ANONYMOUS ', fmtdat='(2E16.6)'
 volume=1.0
 tramp=1.0
 $END
   2.396625e+07  -2.153503e+06
   1.656445e+07   1.212626e+07
  -3.578054e+05   1.620582e+07
  -1.076302e+07   8.955593e+06
  -8.158178e+06  -7.524324e+05
   2.451074e+05  -4.326926e+06
   4.630985e+06  -9.632616e+05
   2.624025e+06   4.024958e+06
  -1.750072e+06   5.395004e+06
  -4.286740e+06   2.099062e+06
  -3.592479e+06  -2.611226e+06
  -6.870568e+05  -4.228512e+06
   1.860315e+06  -1.249740e+06
   1.575673e+06   3.039427e+06
  -1.353336e+06   3.852314e+06
  -3.739265e+06   1.446264e+05
  -2.743836e+06  -4.385888e+06
   9.728942e+05  -5.609033e+06
   4.218643e+06  -3.039523e+06
   4.698491e+06   6.827996e+05
   2.748612e+06   2.984280e+06
   3.929337e+05   3.196761e+06
  -4.869006e+05   2.248752e+06
   3.666578e+05   1.596512e+06
   1.184894e+06   2.013695e+06
  -1.359288e+05   2.730566e+06
  -3.247524e+06   2.169501e+06
  -5.077834e+06   9.920507e+03
  -3.354147e+06  -2.072910e+06
   3.360321e+05  -2.302293e+06
   2.301625e+06  -8.413614e+05
   1.114478e+06   6.681380e+05
  -1.192351e+06   9.884271e+05
  -2.103228e+06   4.470070e+04
  -1.257093e+06  -1.476373e+06
   1.270768e+05  -2.400681e+06
   1.003062e+06  -1.634542e+06
   1.010358e+06   4.064931e+05
   3.200703e+05   1.513173e+06
  -2.575854e+05   2.148658e+05
   1.921123e+05  -1.792630e+06
   1.324735e+06  -1.472757e+06
   1.450087e+06   1.239234e+06
  -3.279618e+05   2.874777e+06
  -2.452061e+06   9.642259e+05
  -2.417023e+06  -2.533141e+06
   2.189497e+05  -3.682529e+06
   3.158814e+06  -1.378929e+06
   3.749749e+06   1.808326e+06
   1.516848e+06   3.014176e+06
  -1.603330e+06   1.807618e+06
  -3.050614e+06  -2.842316e+05
  -1.778599e+06  -1.578455e+06
   8.305596e+05  -1.308276e+06
   2.205561e+06   4.736008e+04
   1.194129e+06   1.077199e+06
  -6.818073e+05   7.376491e+05
  -1.081711e+06  -4.054574e+05
   2.662736e+05  -8.007398e+05
   1.339229e+06   1.142310e+05
   5.092718e+05   1.235733e+06
  -1.448658e+06   1.251300e+06
  -2.436392e+06   5.450863e+04
  -1.418886e+06  -1.525612e+06
   8.030933e+05  -2.610296e+06
   2.679755e+06  -2.493040e+06
   3.151270e+06  -8.349607e+05
   2.143343e+06   1.620209e+06
   5.057489e+05   3.133405e+06
  -5.922010e+05   2.659639e+06
  -6.799210e+05   1.149838e+06
  -4.067164e+05   3.641140e+05
  -6.548158e+05   6.227685e+05
  -1.372402e+06   6.504832e+05
  -1.668515e+06  -3.597443e+05
  -9.703345e+05  -1.512846e+06
   3.138716e+05  -1.431467e+06
   1.246739e+06  -2.916751e+04
   1.131119e+06   1.448849e+06
  -6.443919e+04   1.786626e+06
  -1.594040e+06   7.947530e+05
  -2.284213e+06  -7.648656e+05
  -1.523787e+06  -1.852592e+06
  -2.009241e+04  -1.905396e+06
   8.990084e+05  -1.245849e+06
   8.727787e+05  -6.911876e+05
   8.660450e+05  -6.091140e+05
   1.661677e+06  -5.192747e+05
   2.555354e+06   2.112038e+05
   2.149624e+06   1.477881e+06
   2.098024e+05   2.460037e+06
  -1.877297e+06   2.397738e+06
  -2.540136e+06   1.216629e+06
  -1.533947e+06  -3.974699e+05
   2.030675e+04  -1.380442e+06
   7.814639e+05  -1.066022e+06
   3.082386e+05   8.361901e+04
  -6.862196e+05   7.666335e+05
  -1.079050e+06   2.599612e+05
  -4.789643e+05  -6.551678e+05
   3.590533e+05  -6.820392e+05
   4.029181e+05   2.133195e+05
  -4.358127e+05   6.756227e+05
  -1.189982e+06  -2.457411e+05
  -9.249327e+05  -1.788754e+06
   3.258788e+05  -2.353854e+06
   1.709288e+06  -1.309416e+06
   2.319091e+06   4.845609e+05
   1.772186e+06   1.710948e+06
   4.217223e+05   1.746595e+06
  -7.853479e+05   9.318119e+05
  -9.923954e+05   1.208902e+05
  -3.011625e+05  -1.758699e+04
   2.412494e+05   4.434816e+05
  -1.615138e+05   7.733893e+05
  -1.038755e+06   4.003419e+05
  -1.215515e+06  -3.897165e+05
  -3.253993e+05  -7.812315e+05
   6.739372e+05  -4.088271e+05
   6.314221e+05   2.514831e+05
  -4.588793e+05   4.740364e+05
  -1.461666e+06   9.823482e+03
  -1.297089e+06  -7.995392e+05
   1.407870e+04  -1.352381e+06
   1.397716e+06  -1.169277e+06
   1.708826e+06  -2.646063e+05
   7.658963e+05   6.920237e+05
  -4.788893e+05   8.621346e+05
  -8.511993e+05   1.431052e+05
  -1.047155e+05  -5.977136e+05
   8.834206e+05  -4.686385e+05
   1.077336e+06   3.904552e+05
   3.292090e+05   9.960874e+05
  -5.808690e+05   7.126508e+05
  -8.092948e+05  -5.950841e+04
  -2.484150e+05  -4.440236e+05
   4.355224e+05  -7.461624e+04
   4.534286e+05   6.062970e+05
  -3.365521e+05   8.621446e+05
  -1.213280e+06   3.465131e+05
  -1.245744e+06  -6.044905e+05
  -2.834195e+05  -1.239519e+06
   8.052199e+05  -1.036913e+06
   1.036453e+06  -2.041656e+05
   3.636423e+05   5.025947e+05
  -3.652086e+05   5.303012e+05
  -4.315381e+05   5.265485e+04
   3.202516e+04  -3.120709e+05
   3.723311e+05  -2.203610e+05
   2.124202e+05   7.486100e+04
  -2.167101e+05   9.157233e+04
  -3.845642e+05  -3.043120e+05
   2.529184e+04  -7.196787e+05
   7.972963e+05  -6.024123e+05
   1.280857e+06   1.881702e+05
   9.366418e+05   1.144570e+06
  -7.842994e+04   1.503629e+06
  -9.727015e+05   9.653485e+05
  -1.107213e+06   5.864881e+03
  -6.373840e+05  -5.984620e+05
  -2.248055e+05  -5.415338e+05
  -2.109743e+05  -2.054677e+05
  -3.026956e+05  -1.327076e+05
  -6.722865e+04  -4.034140e+05
   4.862346e+05  -5.926522e+05
   9.023591e+05  -2.820904e+05
   7.270058e+05   4.411354e+05
  -8.134710e+04   9.825376e+05
  -1.043671e+06   7.539901e+05
  -1.422681e+06  -2.296153e+05
  -7.926634e+05  -1.249051e+06
   4.900762e+05  -1.475883e+06
   1.484693e+06  -7.500679e+05
   1.500752e+06   2.741169e+05
   7.260773e+05   8.055588e+05
  -5.518829e+04   6.827054e+05
  -3.004563e+05   3.997663e+05
  -1.475520e+05   4.399805e+05
  -8.324539e+04   7.236079e+05
  -3.544022e+05   7.520522e+05
  -7.456128e+05   2.112317e+05
  -8.260157e+05  -6.370054e+05
  -3.743718e+05  -1.152328e+06
   3.592512e+05  -8.942966e+05
   7.977721e+05  -4.267665e+04
   5.525488e+05   7.352284e+05
  -1.493181e+05   8.652667e+05
  -6.446365e+05   3.506367e+05
  -5.167826e+05  -3.035547e+05
  -2.794297e+04  -6.117802e+05
   2.210952e+05  -5.144930e+05
   9.585521e+03  -2.979605e+05
  -2.540425e+05  -2.141047e+05
  -3.342215e+04  -2.406763e+05
   6.688440e+05  -1.707213e+05
   1.229913e+06   1.321616e+05
   1.017990e+06   5.666595e+05
   7.039763e+04   8.441956e+05
  -8.798834e+05   7.242594e+05
  -1.097219e+06   2.560498e+05
  -5.516545e+05  -2.114634e+05
   1.132984e+05  -3.232815e+05
   2.963225e+05  -6.521817e+04
   1.062918e+04   2.102683e+05
  -2.882234e+05   1.522162e+05
  -2.937855e+05  -1.995337e+05
  -1.148643e+05  -4.470935e+05
  -1.777382e+04  -2.894963e+05
  -9.276366e+04   9.812448e+04
  -2.123022e+05   2.274535e+05
  -1.854078e+05  -1.314113e+05
   9.378424e+04  -6.238416e+05
   5.240079e+05  -6.641601e+05
   7.638078e+05  -1.093596e+05
   4.793303e+05   5.367528e+05
  -2.236097e+05   6.576837e+05
  -7.216485e+05   1.870716e+05
  -4.524210e+05  -3.520822e+05
   4.043455e+05  -4.264888e+05
   1.006019e+06  -3.591427e+03
   7.110005e+05   5.030498e+05
  -2.286994e+05   6.703035e+05
  -9.355978e+05   4.016616e+05
  -8.168136e+05  -5.666339e+04
  -1.201148e+05  -3.298663e+05
   3.909807e+05  -2.065391e+05
   2.281942e+05   1.538141e+05
  -3.701346e+05   3.056613e+05
  -7.201620e+05  -6.265118e+04
  -3.888509e+05  -7.270762e+05
   3.802973e+05  -1.034558e+06
   9.184543e+05  -5.384159e+05
   7.857079e+05   4.613353e+05
   1.527270e+05   1.114738e+06
  -4.368166e+05   8.431813e+05
  -5.906428e+05  -6.010734e+04
  -3.254185e+05  -7.300288e+05
   7.776636e+04  -6.350496e+05
   3.366899e+05  -8.335900e+04
   3.261361e+05   2.360764e+05
   1.362748e+05   9.765667e+04
   1.683213e+04  -7.247713e+04
   1.346944e+05   1.471270e+05
   3.190160e+05   5.760100e+05
   1.796420e+05   6.784095e+05
  -3.899124e+05   2.737632e+05
  -9.306622e+05  -2.606956e+05
  -8.487643e+05  -4.986037e+05
  -1.347439e+05  -4.220628e+05
   5.526446e+05  -2.683831e+05
   6.207157e+05  -1.434383e+05
   2.003189e+05   1.996658e+03
  -9.784544e+04   1.373391e+05
   1.690995e+04   1.527126e+05
   2.027234e+05   8.137609e+04
   1.787977e+04   8.149511e+04
  -4.454364e+05   1.364962e+05
  -6.407094e+05   8.646996e+02
  -2.232802e+05  -4.044027e+05
   5.326998e+05  -7.137655e+05
   1.006036e+06  -4.735476e+05
   8.282120e+05   2.557517e+05
   1.787030e+05   8.685302e+05
  -4.371839e+05   8.526675e+05
  -6.340254e+05   3.253320e+05
  -4.112527e+05  -1.541292e+05
  -7.273729e+04  -2.157730e+05
   7.143487e+04  -1.458338e+04
  -4.185238e+04   3.941193e+04
  -2.116803e+05  -2.134234e+05
  -1.822422e+05  -4.973930e+05
   1.049752e+05  -4.136214e+05
   4.260581e+05   8.861522e+04
   4.475847e+05   5.951349e+05
   5.075969e+04   6.243762e+05
  -4.762108e+05   1.287452e+05
  -6.349485e+05  -4.563346e+05
  -2.117794e+05  -6.608493e+05
   4.296571e+05  -4.042871e+05
   6.731456e+05   3.356227e+04
   3.232987e+05   3.419633e+05
  -1.575837e+05   3.928988e+05
  -1.983992e+05   2.312439e+05
   1.815844e+05   1.856557e+04
   4.075990e+05  -2.920510e+04
   8.628102e+04   1.797881e+05
  -4.986018e+05   4.378622e+05
  -7.458932e+05   3.832572e+05
  -4.473650e+05  -6.675278e+04
   4.492201e+04  -5.256947e+05
   2.970296e+05  -5.303411e+05
   2.256671e+05  -9.064864e+04
   2.319568e+04   3.045408e+05
  -1.429054e+05   2.554484e+05
  -2.168363e+05  -1.119269e+05
  -1.623932e+05  -3.522268e+05
   2.802421e+04  -2.386405e+05
   2.388027e+05   3.241929e+04
   2.923051e+05   1.444427e+05
   1.540623e+05   3.839038e+04
  -1.394783e+04  -6.846351e+04
  -5.920237e+04   1.855735e+04
  -2.703628e+04   2.285802e+05
  -6.901462e+04   3.012632e+05
  -2.011994e+05   8.823909e+04
  -2.478540e+05  -2.516666e+05
  -5.952392e+04  -3.926290e+05
   2.577236e+05  -1.853715e+05
   3.936386e+05   1.755720e+05
   1.507882e+05   3.577918e+05
  -2.981316e+05   2.317474e+05
  -5.278533e+05  -4.058625e+04
  -2.939890e+05  -2.240381e+05
   1.707572e+05  -2.320206e+05
   3.787366e+05  -1.284888e+05
   1.326175e+05  -1.517263e+04
  -2.375779e+05   2.137343e+04
  -2.585186e+05  -6.404389e+04
   1.257670e+05  -1.958222e+05
   4.927265e+05  -1.719028e+05
