
 $NMID
 id='ANONYMOUS ', fmtdat='(2E16.6)'
 volume=1.0
 tramp=1.0
 $END
   4.007562e+07  -5.742321e+05
   2.515468e+07   2.260528e+07
  -3.356445e+06   2.656938e+07
  -1.866481e+07   1.261531e+07
  -1.253146e+07  -2.744044e+06
   1.271315e+06  -6.811807e+06
   7.300383e+06  -6.444571e+05
   3.365510e+06   6.701872e+06
  -3.457379e+06   8.050112e+06
  -6.997713e+06   2.627384e+06
  -5.541386e+06  -4.578204e+06
  -7.778743e+05  -6.848109e+06
   3.171784e+06  -1.952019e+06
   2.399999e+06   4.810967e+06
  -2.433538e+06   5.819861e+06
  -5.940343e+06  -3.083808e+05
  -3.857210e+06  -7.376766e+06
   2.264189e+06  -8.911435e+06
   7.267498e+06  -4.479399e+06
   7.763337e+06   1.625844e+06
   4.355139e+06   5.392260e+06
   2.003319e+05   5.638169e+06
  -1.479301e+06   3.697620e+06
   4.461816e+04   2.170308e+06
   1.798428e+06   2.757319e+06
  -6.390825e+04   4.210028e+06
  -5.127262e+06   3.525764e+06
  -8.183550e+06  -3.873017e+04
  -5.419919e+06  -3.548548e+06
   5.145483e+05  -3.939000e+06
   3.705464e+06  -1.564616e+06
   2.002095e+06   8.837433e+05
  -1.479504e+06   1.556564e+06
  -3.056224e+06   2.986506e+05
  -2.077305e+06  -2.092866e+06
   2.365756e+04  -3.810123e+06
   1.728351e+06  -2.734937e+06
   1.949891e+06   7.145364e+05
   5.964986e+05   2.724728e+06
  -6.612654e+05   6.143973e+05
   9.939380e+04  -2.748873e+06
   2.086415e+06  -2.215014e+06
   2.112923e+06   2.166378e+06
  -1.061965e+06   4.510380e+06
  -4.320580e+06   1.026363e+06
  -3.646829e+06  -4.617200e+06
   9.429795e+05  -6.013584e+06
   5.353593e+06  -1.900009e+06
   5.781549e+06   3.184489e+06
   2.082972e+06   4.798331e+06
  -2.623920e+06   2.640416e+06
  -4.640473e+06  -6.887229e+05
  -2.530806e+06  -2.572564e+06
   1.520992e+06  -1.912570e+06
   3.502196e+06   3.606959e+05
   1.725397e+06   1.872583e+06
  -1.204213e+06   1.107637e+06
  -1.622959e+06  -7.029469e+05
   5.519583e+05  -1.058028e+06
   1.945952e+06   5.342928e+05
   3.224666e+05   2.035426e+06
  -2.680557e+06   1.638056e+06
  -3.855131e+06  -3.695227e+05
  -2.010587e+06  -2.655332e+06
   1.454835e+06  -4.165342e+06
   4.346951e+06  -3.922118e+06
   5.115035e+06  -1.241901e+06
   3.464630e+06   2.730655e+06
   6.758974e+05   5.063519e+06
  -1.153328e+06   4.080746e+06
  -1.107462e+06   1.551423e+06
  -4.186041e+05   4.370444e+05
  -7.703606e+05   1.083869e+06
  -2.068763e+06   1.239024e+06
  -2.696663e+06  -3.880626e+05
  -1.660215e+06  -2.280069e+06
   3.513595e+05  -2.242948e+06
   1.852308e+06  -1.383912e+05
   1.752756e+06   2.161474e+06
  -7.972823e+04   2.780605e+06
  -2.540967e+06   1.282745e+06
  -3.686135e+06  -1.257877e+06
  -2.411807e+06  -3.097661e+06
   1.191078e+05  -3.158840e+06
   1.633674e+06  -1.961594e+06
   1.509966e+06  -9.676288e+05
   1.381880e+06  -8.249097e+05
   2.564948e+06  -7.011887e+05
   3.928032e+06   4.287180e+05
   3.269810e+06   2.349021e+06
   2.688795e+05   3.795582e+06
  -2.922800e+06   3.683452e+06
  -3.944494e+06   1.903577e+06
  -2.431878e+06  -5.872143e+05
  -3.577728e+04  -2.169149e+06
   1.199759e+06  -1.709254e+06
   5.067412e+05   1.189800e+05
  -1.062400e+06   1.205233e+06
  -1.701312e+06   3.791347e+05
  -7.547864e+05  -1.062791e+06
   5.471025e+05  -1.067891e+06
   5.772696e+05   3.109817e+05
  -6.968328e+05   9.222779e+05
  -1.715838e+06  -5.481563e+05
  -1.180972e+06  -2.774489e+06
   6.731349e+05  -3.417647e+06
   2.587704e+06  -1.765433e+06
   3.398537e+06   8.289170e+05
   2.608155e+06   2.561861e+06
   6.306256e+05   2.617934e+06
  -1.197606e+06   1.430090e+06
  -1.528734e+06   1.953080e+05
  -4.630834e+05  -3.287771e+04
   3.639367e+05   6.880856e+05
  -2.903007e+05   1.197044e+06
  -1.644585e+06   5.790294e+05
  -1.863699e+06  -6.646339e+05
  -4.566489e+05  -1.226635e+06
   1.048700e+06  -6.090267e+05
   9.469675e+05   3.790945e+05
  -6.934006e+05   6.691227e+05
  -2.171165e+06  -2.682519e+04
  -1.919215e+06  -1.197976e+06
   3.932384e+04  -2.011358e+06
   2.134541e+06  -1.749253e+06
   2.619451e+06  -3.745545e+05
   1.159589e+06   1.098737e+06
  -7.848116e+05   1.338143e+06
  -1.350956e+06   1.888274e+05
  -1.563706e+05  -9.542844e+05
   1.380671e+06  -7.112997e+05
   1.641308e+06   6.315203e+05
   4.618142e+05   1.524459e+06
  -9.095831e+05   1.045829e+06
  -1.215255e+06  -1.318207e+05
  -3.454126e+05  -6.837026e+05
   6.840587e+05  -9.638042e+04
   6.965730e+05   9.467594e+05
  -5.230356e+05   1.333532e+06
  -1.876173e+06   5.299531e+05
  -1.918499e+06  -9.472616e+05
  -4.142858e+05  -1.918355e+06
   1.268406e+06  -1.576360e+06
   1.597319e+06  -2.811265e+05
   5.367732e+05   7.813455e+05
  -5.731190e+05   8.022552e+05
  -6.553046e+05   8.870066e+04
   4.061583e+04  -4.444572e+05
   5.293272e+05  -3.266568e+05
   2.889060e+05   7.184090e+04
  -3.224015e+05   8.025676e+04
  -5.452924e+05  -4.915290e+05
   7.591366e+04  -1.090417e+06
   1.236005e+06  -9.002213e+05
   1.962199e+06   3.120741e+05
   1.423204e+06   1.776131e+06
  -1.381061e+05   2.304932e+06
  -1.490920e+06   1.451880e+06
  -1.668630e+06  -8.170632e+03
  -9.527349e+05  -8.873910e+05
  -3.621644e+05  -7.820847e+05
  -3.664281e+05  -3.088212e+05
  -4.820829e+05  -2.403528e+05
  -8.532002e+04  -6.398483e+05
   7.590743e+05  -8.868457e+05
   1.366942e+06  -4.080948e+05
   1.089023e+06   6.625472e+05
  -1.329672e+05   1.468451e+06
  -1.593401e+06   1.126632e+06
  -2.166256e+06  -3.684175e+05
  -1.182947e+06  -1.922436e+06
   7.960203e+05  -2.245205e+06
   2.295903e+06  -1.102639e+06
   2.272087e+06   4.581272e+05
   1.069783e+06   1.223109e+06
  -8.976099e+04   1.005077e+06
  -4.255967e+05   5.993853e+05
  -1.985069e+05   7.067774e+05
  -1.385543e+05   1.148459e+06
  -5.757548e+05   1.163180e+06
  -1.165327e+06   3.107840e+05
  -1.268698e+06  -9.921602e+05
  -5.647319e+05  -1.777261e+06
   5.606131e+05  -1.373103e+06
   1.221122e+06  -5.286847e+04
   8.247215e+05   1.142669e+06
  -2.601112e+05   1.315484e+06
  -9.989520e+05   4.931947e+05
  -7.665828e+05  -5.070185e+05
   1.655979e+03  -9.403050e+05
   3.710000e+05  -7.616121e+05
   2.139017e+04  -4.378154e+05
  -3.962708e+05  -3.300522e+05
  -5.292565e+04  -3.691900e+05
   1.035394e+06  -2.410728e+05
   1.895054e+06   2.357736e+05
   1.548944e+06   8.933416e+05
   7.065618e+04   1.297526e+06
  -1.385980e+06   1.091312e+06
  -1.687373e+06   3.603965e+05
  -8.207821e+05  -3.501867e+05
   1.960411e+05  -4.981861e+05
   4.542655e+05  -8.171266e+04
   8.283564e+03   3.414398e+05
  -4.413711e+05   2.384035e+05
  -4.510384e+05  -3.129611e+05
  -1.903162e+05  -6.969759e+05
  -3.990816e+04  -4.568243e+05
  -1.319254e+05   1.386583e+05
  -3.029404e+05   3.430677e+05
  -2.770651e+05  -2.012088e+05
   1.382789e+05  -9.557681e+05
   8.145708e+05  -1.015980e+06
   1.201974e+06  -1.550074e+05
   7.499247e+05   8.448910e+05
  -3.638359e+05   1.023164e+06
  -1.135091e+06   2.852259e+05
  -6.973084e+05  -5.434359e+05
   6.283956e+05  -6.424835e+05
   1.529478e+06   1.141551e+04
   1.058537e+06   7.676040e+05
  -3.650493e+05   9.980122e+05
  -1.417193e+06   5.844685e+05
  -1.227571e+06  -9.688163e+04
  -1.749575e+05  -4.967550e+05
   5.984608e+05  -3.032118e+05
   3.505467e+05   2.483751e+05
  -5.702440e+05   4.804829e+05
  -1.117760e+06  -9.235187e+04
  -6.104161e+05  -1.127197e+06
   5.827924e+05  -1.606682e+06
   1.417682e+06  -8.357341e+05
   1.208101e+06   7.113303e+05
   2.286703e+05   1.711269e+06
  -6.712059e+05   1.281241e+06
  -8.940351e+05  -1.057298e+05
  -4.804681e+05  -1.115536e+06
   1.320299e+05  -9.544887e+05
   5.162778e+05  -1.159641e+05
   4.902907e+05   3.540209e+05
   2.004390e+05   1.380254e+05
   2.827247e+04  -1.041100e+05
   2.154250e+05   2.480738e+05
   4.879244e+05   8.956368e+05
   2.579267e+05   1.029488e+06
  -6.147110e+05   4.012710e+05
  -1.424098e+06  -4.064976e+05
  -1.284915e+06  -7.623580e+05
  -1.989025e+05  -6.500611e+05
   8.404311e+05  -4.173053e+05
   9.460479e+05  -2.137446e+05
   3.112311e+05   1.953172e+04
  -1.484012e+05   2.150297e+05
   1.629018e+04   2.167392e+05
   3.027138e+05   1.065611e+05
   3.364992e+04   1.285393e+05
  -6.742531e+05   2.244772e+05
  -9.903293e+05  -2.725342e+02
  -3.594788e+05  -6.429612e+05
   8.179361e+05  -1.113451e+06
   1.568976e+06  -7.233313e+05
   1.296005e+06   4.058171e+05
   2.760842e+05   1.338933e+06
  -6.858914e+05   1.309546e+06
  -9.851356e+05   5.055436e+05
  -6.358439e+05  -2.296790e+05
  -1.168106e+05  -3.373403e+05
   1.042291e+05  -4.053135e+04
  -6.128094e+04   4.687682e+04
  -3.140096e+05  -3.284183e+05
  -2.715255e+05  -7.617804e+05
   1.636243e+05  -6.415420e+05
   6.602713e+05   1.269093e+05
   7.012661e+05   9.162913e+05
   8.824553e+04   9.756012e+05
  -7.364102e+05   2.152189e+05
  -9.888869e+05  -6.977883e+05
  -3.300028e+05  -1.026482e+06
   6.697573e+05  -6.312987e+05
   1.045607e+06   5.728435e+04
   4.958197e+05   5.435919e+05
  -2.555076e+05   6.153107e+05
  -3.200674e+05   3.490087e+05
   2.707975e+05   1.548902e+04
   6.256108e+05  -4.695529e+04
   1.338401e+05   2.829895e+05
  -7.689016e+05   6.689893e+05
  -1.153602e+06   5.672570e+05
  -6.925865e+05  -1.253859e+05
   7.548906e+04  -8.148150e+05
   4.755052e+05  -8.107036e+05
   3.673121e+05  -1.370006e+05
   4.434026e+04   4.690754e+05
  -2.245742e+05   4.007909e+05
  -3.411719e+05  -1.621271e+05
  -2.499476e+05  -5.441868e+05
   4.975023e+04  -3.797438e+05
   3.719856e+05   4.686909e+04
   4.469114e+05   2.350962e+05
   2.314319e+05   6.715732e+04
  -1.977584e+04  -1.187113e+05
  -7.693739e+04   1.002931e+04
  -2.173285e+04   3.571398e+05
  -9.599801e+04   4.934394e+05
  -3.197587e+05   1.606571e+05
  -4.057406e+05  -3.876961e+05
  -1.106287e+05  -6.191214e+05
   3.966460e+05  -2.940957e+05
   6.186357e+05   2.710608e+05
   2.396878e+05   5.518126e+05
  -4.650110e+05   3.542024e+05
  -8.234740e+05  -6.559418e+04
  -4.552291e+05  -3.490774e+05
   2.711080e+05  -3.650088e+05
   5.956202e+05  -2.037695e+05
   2.146848e+05  -1.713045e+04
  -3.612270e+05   5.085208e+04
  -4.033708e+05  -8.361444e+04
   1.786135e+05  -3.017921e+05
   7.437924e+05  -2.760934e+05
