
 $NMID
 id='ANONYMOUS ', fmtdat='(2E16.6)'
 volume=1.0
 tramp=1.0
 $END
   9.527185e+06   1.065346e+06
   5.418927e+06   5.809311e+06
  -1.368751e+06   6.131162e+06
  -4.752648e+06   2.769167e+06
  -3.068613e+06  -7.523111e+05
   3.801856e+05  -1.739341e+06
   1.911176e+06  -2.479285e+05
   8.997133e+05   1.716667e+06
  -9.245707e+05   2.155249e+06
  -1.836717e+06   6.355137e+05
  -1.304991e+06  -1.384117e+06
   5.036045e+04  -1.882632e+06
   9.773071e+05  -3.755233e+05
   5.819513e+05   1.447122e+06
  -7.106292e+05   1.555770e+06
  -1.463430e+06  -1.573001e+05
  -7.630579e+05  -1.902176e+06
   8.114169e+05  -2.079078e+06
   1.906644e+06  -7.763666e+05
   1.765497e+06   7.505683e+05
   7.347463e+05   1.466921e+06
  -2.390492e+05   1.253680e+06
  -4.125739e+05   7.058319e+05
   1.395955e+05   5.300874e+05
   5.025704e+05   8.946193e+05
  -1.769942e+05   1.210103e+06
  -1.554240e+06   7.689763e+05
  -2.219580e+06  -3.285217e+05
  -1.303890e+06  -1.173766e+06
   3.692417e+05  -1.072861e+06
   1.177341e+06  -2.744249e+05
   5.444592e+05   4.300995e+05
  -5.813069e+05   5.070184e+05
  -9.970206e+05  -4.062868e+04
  -4.820368e+05  -7.966494e+05
   2.936493e+05  -1.110575e+06
   6.371517e+05  -5.633420e+05
   3.946025e+05   4.077607e+05
  -6.383961e+04   7.308193e+05
  -2.026652e+05  -7.558741e+03
   1.708130e+05  -8.322552e+05
   6.252690e+05  -5.448236e+05
   5.048184e+05   5.918127e+05
  -2.640238e+05   1.081787e+06
  -9.433700e+05   1.696409e+05
  -7.390049e+05  -1.142443e+06
   3.093976e+05  -1.374406e+06
   1.324769e+06  -3.193191e+05
   1.419579e+06   9.221343e+05
   4.778931e+05   1.290948e+06
  -7.510779e+05   6.864844e+05
  -1.260756e+06  -2.437535e+05
  -6.579917e+05  -7.583495e+05
   4.260679e+05  -5.255603e+05
   9.178014e+05   1.447430e+05
   4.288480e+05   5.447706e+05
  -3.357704e+05   2.895293e+05
  -4.547958e+05  -2.323735e+05
   9.968162e+04  -3.462904e+05
   5.078817e+05   5.792398e+04
   1.752643e+05   4.489601e+05
  -5.697261e+05   3.670898e+05
  -9.139176e+05  -1.199546e+05
  -4.420174e+05  -6.666702e+05
   5.288580e+05  -9.801598e+05
   1.303255e+06  -8.241529e+05
   1.367441e+06  -9.795403e+04
   7.478883e+05   8.582738e+05
  -3.137042e+04   1.352981e+06
  -4.121244e+05   1.054430e+06
  -3.206670e+05   4.269129e+05
  -1.743767e+05   1.552622e+05
  -3.339110e+05   2.767537e+05
  -6.677757e+05   2.335585e+05
  -7.494786e+05  -2.569167e+05
  -3.776615e+05  -7.598808e+05
   2.161846e+05  -6.759930e+05
   5.984650e+05   8.903495e+03
   4.701729e+05   6.988915e+05
  -1.216655e+05   8.005532e+05
  -7.598300e+05   2.473975e+05
  -9.244798e+05  -5.038376e+05
  -4.721895e+05  -9.014423e+05
   1.712608e+05  -7.651932e+05
   4.626289e+05  -3.905048e+05
   3.705573e+05  -1.810288e+05
   3.567786e+05  -1.979150e+05
   6.960343e+05  -1.471893e+05
   1.040519e+06   2.044536e+05
   8.222932e+05   7.243406e+05
  -2.383083e+04   1.050927e+06
  -9.111523e+05   9.286100e+05
  -1.167561e+06   3.871878e+05
  -6.671084e+05  -2.726706e+05
   8.459530e+04  -6.270582e+05
   4.320785e+05  -4.372745e+05
   1.605375e+05   6.190149e+04
  -3.379736e+05   3.181323e+05
  -4.960769e+05   6.695672e+04
  -1.775204e+05  -3.245825e+05
   2.061763e+05  -3.152427e+05
   2.031038e+05   8.300163e+04
  -1.613121e+05   2.915121e+05
  -4.533078e+05  -8.475820e+04
  -3.246395e+05  -7.285859e+05
   1.777681e+05  -9.660291e+05
   7.210822e+05  -5.121177e+05
   9.536968e+05   2.755970e+05
   7.059964e+05   8.034736e+05
   1.186668e+05   7.730605e+05
  -3.887004e+05   3.596865e+05
  -4.466974e+05  -6.289148e+03
  -1.300965e+05  -2.942056e+04
   9.309848e+04   1.988559e+05
  -9.285054e+04   3.234097e+05
  -4.581818e+05   1.292507e+05
  -5.128429e+05  -2.133694e+05
  -1.255790e+05  -3.563944e+05
   2.995488e+05  -1.771135e+05
   2.882315e+05   1.061629e+05
  -1.697197e+05   1.916013e+05
  -6.039674e+05  -1.887369e+04
  -5.390009e+05  -3.679986e+05
   3.579333e+04  -5.793701e+05
   6.407466e+05  -4.517941e+05
   7.496439e+05  -3.718558e+04
   2.973445e+05   3.396891e+05
  -2.529670e+05   3.486965e+05
  -3.785201e+05   1.405141e+04
  -1.975783e+04  -2.706593e+05
   4.009121e+05  -1.696985e+05
   4.518065e+05   2.084915e+05
   1.120600e+05   4.451866e+05
  -2.710059e+05   2.996792e+05
  -3.564883e+05  -3.966333e+04
  -1.150948e+05  -2.005327e+05
   1.699781e+05  -3.502435e+04
   1.699369e+05   2.543766e+05
  -1.660446e+05   3.421916e+05
  -5.202023e+05   9.420261e+04
  -4.994224e+05  -3.113513e+05
  -6.439883e+04  -5.412773e+05
   3.932728e+05  -4.067744e+05
   4.625073e+05  -3.801037e+04
   1.485801e+05   2.423981e+05
  -1.759599e+05   2.307271e+05
  -2.096150e+05   1.865664e+04
  -8.929466e+03  -1.399721e+05
   1.531267e+05  -1.077357e+05
   1.092153e+05   1.451662e+04
  -5.846400e+04   2.901863e+04
  -1.288450e+05  -1.236281e+05
   3.927366e+04  -2.800682e+05
   3.519699e+05  -2.092562e+05
   5.240618e+05   1.358213e+05
   3.380337e+05   5.247529e+05
  -1.074065e+05   6.389372e+05
  -4.624106e+05   3.767449e+05
  -4.807134e+05  -4.301108e+04
  -2.593657e+05  -2.986098e+05
  -7.924422e+04  -2.721783e+05
  -6.612801e+04  -1.219655e+05
  -9.241102e+04  -6.928444e+04
   9.834044e+03  -1.534911e+05
   2.279705e+05  -2.101098e+05
   3.774968e+05  -7.323923e+04
   2.796383e+05   2.155341e+05
  -7.153579e+04   4.064251e+05
  -4.632714e+05   2.689092e+05
  -5.862956e+05  -1.580302e+05
  -2.862221e+05  -5.542546e+05
   2.575123e+05  -5.949726e+05
   6.493873e+05  -2.563875e+05
   6.287285e+05   1.693178e+05
   2.944551e+05   3.698097e+05
  -3.566460e+04   3.019997e+05
  -1.524846e+05   1.768332e+05
  -1.095281e+05   1.875867e+05
  -9.086022e+04   2.952139e+05
  -1.897398e+05   2.908389e+05
  -3.215588e+05   4.729597e+04
  -3.181366e+05  -3.132762e+05
  -1.040749e+05  -5.101287e+05
   1.968799e+05  -3.668547e+05
   3.430738e+05   1.161621e+04
   2.036043e+05   3.267011e+05
  -9.140519e+04   3.546821e+05
  -2.686608e+05   1.297611e+05
  -1.926013e+05  -1.281046e+05
   4.855187e+03  -2.394657e+05
   9.268844e+04  -2.033973e+05
   6.534109e+03  -1.348149e+05
  -8.843342e+04  -1.114023e+05
   5.087962e+03  -1.033829e+05
   2.791945e+05  -3.434352e+04
   4.934777e+05   1.168360e+05
   3.988657e+05   2.791156e+05
   4.965737e+03   3.434446e+05
  -3.893230e+05   2.547684e+05
  -4.709850e+05   6.567215e+04
  -2.259721e+05  -9.413845e+04
   5.943683e+04  -1.180199e+05
   1.194551e+05  -1.765681e+04
  -2.299412e+04   7.769688e+04
  -1.433350e+05   4.227642e+04
  -1.096736e+05  -1.059332e+05
  -5.932326e+03  -2.057932e+05
   2.331159e+04  -1.303310e+05
  -4.245670e+04   4.389736e+04
  -1.032396e+05   1.005542e+05
  -6.475756e+04  -5.608500e+04
   7.981309e+04  -2.561700e+05
   2.475749e+05  -2.450300e+05
   3.037511e+05   7.427213e+03
   1.536447e+05   2.538879e+05
  -1.313615e+05   2.488481e+05
  -3.069882e+05   2.038974e+04
  -1.703585e+05  -1.805531e+05
   1.906339e+05  -1.603207e+05
   4.314113e+05   4.326345e+04
   2.927652e+05   2.409657e+05
  -1.146613e+05   2.789045e+05
  -4.151580e+05   1.441007e+05
  -3.537334e+05  -4.934265e+04
  -4.402271e+04  -1.476363e+05
   1.720633e+05  -7.789030e+04
   8.459950e+04   7.043605e+04
  -1.797699e+05   1.053955e+05
  -3.036496e+05  -7.449600e+04
  -1.141456e+05  -3.391796e+05
   2.375400e+05  -4.184721e+05
   4.335595e+05  -1.694311e+05
   3.106274e+05   2.480854e+05
   1.785641e+03   4.890329e+05
  -2.299944e+05   3.447652e+05
  -2.480227e+05  -4.495809e+04
  -1.118363e+05  -3.220477e+05
   4.620297e+04  -2.704849e+05
   1.387777e+05  -2.481966e+04
   1.384537e+05   1.150854e+05
   6.796226e+04   4.806925e+04
   6.251150e+03  -3.391890e+04
   3.062810e+04   6.467894e+04
   9.992183e+04   2.610137e+05
   5.811295e+04   3.001573e+05
  -1.633706e+05   9.607394e+04
  -3.872836e+05  -1.611669e+05
  -3.498981e+05  -2.550741e+05
  -3.472882e+04  -1.828195e+05
   2.637306e+05  -8.513535e+04
   2.757130e+05  -3.358633e+04
   7.220778e+04   7.066740e+03
  -5.572486e+04   5.459142e+04
   1.350111e+04   7.030529e+04
   9.863469e+04   4.806518e+04
  -1.835491e+03   3.526010e+04
  -2.140150e+05   3.149881e+04
  -2.717336e+05  -3.875579e+04
  -4.917829e+04  -1.873324e+05
   2.845735e+05  -2.696609e+05
   4.481004e+05  -1.313542e+05
   3.207186e+05   1.703186e+05
   2.072253e+04   3.842535e+05
  -2.304637e+05   3.306572e+05
  -2.882150e+05   9.168897e+04
  -1.697051e+05  -9.486481e+04
  -1.309004e+04  -9.526165e+04
   4.600831e+04   3.812365e+03
  -1.191552e+04   2.356270e+04
  -8.435476e+04  -9.498985e+04
  -5.816538e+04  -2.194792e+05
   6.987555e+04  -1.692370e+05
   1.827494e+05   6.923641e+04
   1.524131e+05   2.914430e+05
  -3.081405e+04   2.731245e+05
  -2.245037e+05   1.570055e+04
  -2.435807e+05  -2.469815e+05
  -4.142219e+04  -2.959014e+05
   2.118044e+05  -1.361565e+05
   2.774804e+05   5.919798e+04
   1.065904e+05   1.543085e+05
  -9.035929e+04   1.430733e+05
  -8.403692e+04   8.191498e+04
   9.176929e+04   2.234088e+04
   1.785953e+05   1.318746e+04
   2.011197e+04   7.996066e+04
  -2.376257e+05   1.601049e+05
  -3.260345e+05   1.283368e+05
  -1.706693e+05  -4.719246e+04
   5.241592e+04  -2.170859e+05
   1.469359e+05  -2.001487e+05
   8.976427e+04  -1.136045e+04
  -1.447738e+04   1.388191e+05
  -8.046868e+04   9.289810e+04
  -8.938596e+04  -7.316418e+04
  -4.652892e+04  -1.605614e+05
   3.222732e+04  -8.938741e+04
   1.011503e+05   3.335310e+04
   1.101232e+05   7.116118e+04
   6.134400e+04   1.801602e+04
   6.439804e+03  -2.145865e+04
  -2.116657e+04   2.482689e+04
  -4.025823e+04   1.085600e+05
  -7.565059e+04   1.170865e+05
  -1.052399e+05   4.619858e+03
  -7.792058e+04  -1.416454e+05
   2.009276e+04  -1.786118e+05
   1.288378e+05  -5.873166e+04
   1.505104e+05   1.087478e+05
   3.761676e+04   1.676393e+05
  -1.370853e+05   7.795543e+04
  -2.162933e+05  -5.592591e+04
  -1.086423e+05  -1.141394e+05
   8.902982e+04  -7.987429e+04
   1.695381e+05  -2.008280e+04
   4.865955e+04   6.780539e+03
  -1.197817e+05  -1.060176e+04
  -1.167174e+05  -5.551204e+04
   7.431596e+04  -8.838746e+04
   2.399584e+05  -4.884523e+04
