
 $NMID
 id='ANONYMOUS ', fmtdat='(2E16.6)'
 volume=1.0
 tramp=1.0
 $END
  -6.128747e+07   9.923721e+05
  -3.703100e+07  -3.829701e+07
   8.266401e+06  -4.186546e+07
   3.010621e+07  -1.539592e+07
   1.758313e+07   8.386689e+06
  -3.949855e+06   1.010552e+07
  -1.051581e+07  -1.869670e+06
  -2.526956e+06  -1.064680e+07
   6.968927e+06  -9.551498e+06
   1.034410e+07  -1.779550e+06
   7.471332e+06   6.487012e+06
   1.010071e+06   8.966810e+06
  -4.119979e+06   3.092534e+06
  -2.765382e+06  -5.360863e+06
   4.023870e+06  -6.608817e+06
   8.397098e+06   1.591162e+06
   4.714300e+06   1.091356e+07
  -4.042249e+06   1.263416e+07
  -1.080456e+07   6.515955e+06
  -1.177685e+07  -1.893446e+06
  -7.569407e+06  -7.974812e+06
  -1.086886e+06  -9.678488e+06
   3.364134e+06  -6.949561e+06
   2.655269e+06  -2.783587e+06
  -7.866399e+05  -1.639450e+06
  -5.633475e+05  -3.908994e+06
   5.094344e+06  -4.771523e+06
   9.853392e+06  -1.036340e+06
   7.592037e+06   3.997991e+06
   7.675618e+05   5.373220e+06
  -3.461298e+06   3.081212e+06
  -2.616857e+06   5.461412e+05
   5.854527e+04  -6.318879e+05
   1.737451e+06  -6.814876e+05
   2.206065e+06   9.331867e+05
   1.156078e+06   3.766581e+06
  -1.643087e+06   4.259127e+06
  -3.729320e+06   2.729735e+05
  -2.274155e+06  -3.877004e+06
   7.759386e+05  -2.505964e+06
   6.540285e+05   2.172492e+06
  -2.425346e+06   2.288503e+06
  -2.546771e+06  -3.460537e+06
   2.828676e+06  -6.634327e+06
   7.844293e+06  -1.089722e+06
   5.723090e+06   7.575492e+06
  -2.089748e+06   9.337372e+06
  -7.982646e+06   2.720811e+06
  -7.250620e+06  -4.635129e+06
  -1.782278e+06  -6.237279e+06
   3.620850e+06  -2.682072e+06
   5.296812e+06   1.707154e+06
   2.316524e+06   3.670463e+06
  -2.673777e+06   2.268898e+06
  -4.803002e+06  -1.040836e+06
  -2.013156e+06  -2.942497e+06
   1.846238e+06  -1.468045e+06
   1.726131e+06   1.080546e+06
  -1.600222e+06   8.181651e+05
  -2.623364e+06  -2.201951e+06
   9.829711e+05  -3.942009e+06
   5.286063e+06  -2.017264e+06
   5.737571e+06   1.645222e+06
   2.427904e+06   4.346393e+06
  -1.736184e+06   5.567807e+06
  -4.926313e+06   5.180839e+06
  -6.347354e+06   2.076217e+06
  -4.980886e+06  -3.079825e+06
  -1.197008e+06  -6.365286e+06
   1.978910e+06  -4.890896e+06
   1.943700e+06  -1.022362e+06
   1.025439e+04   5.720390e+05
  -4.684479e+05  -9.047629e+05
   1.243134e+06  -2.049574e+06
   2.744540e+06  -6.401303e+05
   2.194835e+06   1.601877e+06
   2.933355e+05   2.007949e+06
  -1.326862e+06   2.982449e+05
  -1.638617e+06  -1.870808e+06
  -1.423780e+05  -2.872240e+06
   2.697045e+06  -1.847203e+06
   4.679896e+06   9.684918e+05
   3.565992e+06   3.813519e+06
   1.132109e+05   4.547105e+06
  -2.413357e+06   3.009641e+06
  -2.445995e+06   1.213583e+06
  -1.938358e+06   6.233515e+05
  -2.962931e+06   4.313564e+05
  -4.362720e+06  -7.594821e+05
  -3.504834e+06  -2.735054e+06
  -1.801795e+05  -4.091334e+06
   3.076051e+06  -3.925334e+06
   4.031947e+06  -2.265627e+06
   2.670404e+06   2.346060e+05
   4.609614e+05   2.166615e+06
  -9.432258e+05   2.003147e+06
  -5.744259e+05   2.463035e+04
   1.012445e+06  -1.342585e+06
   1.918364e+06  -4.480598e+05
   1.003783e+06   1.202309e+06
  -4.458876e+05   1.109600e+06
  -3.445270e+05  -3.941132e+05
   1.180501e+06  -5.721744e+05
   1.862927e+06   1.558309e+06
   4.231882e+05   3.658179e+06
  -1.891128e+06   3.267346e+06
  -3.225803e+06   7.966046e+05
  -3.127934e+06  -1.594478e+06
  -2.070646e+06  -2.651851e+06
  -4.220520e+05  -2.463012e+06
   1.160177e+06  -1.453881e+06
   1.527097e+06  -2.848474e+05
   4.880601e+05   3.668314e+04
  -3.626417e+05  -7.430735e+05
   4.250384e+05  -1.373341e+06
   1.953476e+06  -6.072286e+05
   2.063520e+06   9.153336e+05
   3.679271e+05   1.450559e+06
  -1.172672e+06   5.612523e+05
  -8.314094e+05  -4.476431e+05
   8.762811e+05  -4.337708e+05
   2.086020e+06   4.038834e+05
   1.601405e+06   1.323325e+06
  -2.936330e+05   1.857784e+06
  -2.247782e+06   1.592295e+06
  -2.726747e+06   2.861145e+05
  -1.231943e+06  -1.270824e+06
   9.149365e+05  -1.558287e+06
   1.609633e+06  -2.252192e+05
   2.507599e+05   1.104390e+06
  -1.507900e+06   7.660916e+05
  -1.709383e+06  -7.842943e+05
  -2.958067e+05  -1.642020e+06
   1.121441e+06  -9.205741e+05
   1.232185e+06   3.697609e+05
   1.965507e+05   7.975531e+05
  -8.272995e+05   5.234959e+04
  -7.626058e+05  -1.046560e+06
   5.344363e+05  -1.434564e+06
   1.979465e+06  -5.920436e+05
   2.049169e+06   1.000322e+06
   4.123433e+05   2.064887e+06
  -1.430526e+06   1.652400e+06
  -1.720831e+06   2.072771e+05
  -4.835203e+05  -8.692221e+05
   6.574007e+05  -7.884323e+05
   5.903932e+05  -8.792595e+04
  -1.443611e+05   2.935080e+05
  -4.320331e+05   1.449300e+05
  -1.552184e+04  -4.565053e+04
   5.005001e+05   1.627537e+05
   4.896891e+05   7.348474e+05
  -2.435469e+05   1.192803e+06
  -1.379162e+06   8.909637e+05
  -2.070424e+06  -3.927946e+05
  -1.483865e+06  -1.910658e+06
   1.782985e+05  -2.386565e+06
   1.569730e+06  -1.371386e+06
   1.623295e+06   1.397603e+05
   7.854512e+05   8.282737e+05
   2.996963e+05   5.264147e+05
   5.350832e+05   1.400392e+05
   6.964878e+05   3.281807e+05
   1.107209e+05   8.026749e+05
  -8.787792e+05   8.902791e+05
  -1.414474e+06   3.011141e+05
  -9.941284e+05  -6.873755e+05
   2.632328e+05  -1.386132e+06
   1.681941e+06  -1.039684e+06
   2.204867e+06   4.599323e+05
   1.113803e+06   2.073791e+06
  -1.022689e+06   2.358207e+06
  -2.543325e+06   1.014385e+06
  -2.305446e+06  -6.810856e+05
  -8.782031e+05  -1.313296e+06
   2.368126e+05  -8.648764e+05
   3.259120e+05  -4.429739e+05
  -2.772100e+04  -7.550503e+05
   3.648144e+04  -1.352736e+06
   6.600614e+05  -1.328486e+06
   1.304817e+06  -3.493099e+05
   1.354201e+06   1.041400e+06
   5.884148e+05   1.860868e+06
  -5.833976e+05   1.430893e+06
  -1.264736e+06   5.157691e+03
  -8.052894e+05  -1.285054e+06
   4.113659e+05  -1.390723e+06
   1.196597e+06  -3.630634e+05
   8.182664e+05   7.618196e+05
  -1.644779e+05   1.112156e+06
  -5.926073e+05   7.705221e+05
  -1.076662e+05   3.822877e+05
   4.482460e+05   3.086913e+05
   7.476259e+04   3.714409e+05
  -1.158816e+06   2.155505e+05
  -2.082134e+06  -3.123795e+05
  -1.615937e+06  -1.025980e+06
   6.166164e+04  -1.454412e+06
   1.608671e+06  -1.168317e+06
   1.826431e+06  -2.689485e+05
   8.141419e+05   5.378711e+05
  -2.742944e+05   5.959311e+05
  -5.221003e+05   1.561995e+04
  -5.650066e+04  -4.541236e+05
   4.129947e+05  -2.754075e+05
   4.903761e+05   3.281339e+05
   3.121157e+05   6.971588e+05
   1.489857e+05   4.693270e+05
   1.283866e+05  -6.295073e+04
   2.335733e+05  -2.528741e+05
   2.668625e+05   2.306534e+05
  -9.811262e+04   9.615570e+05
  -8.725464e+05   1.079474e+06
  -1.401418e+06   2.302662e+05
  -9.176089e+05  -8.870216e+05
   3.893450e+05  -1.180867e+06
   1.271438e+06  -4.056874e+05
   7.447514e+05   5.360728e+05
  -6.953086e+05   6.430849e+05
  -1.548086e+06  -9.549933e+04
  -9.400817e+05  -8.483791e+05
   5.112364e+05  -9.418541e+05
   1.457012e+06  -4.253111e+05
   1.172978e+06   2.055855e+05
   1.142647e+05   4.925094e+05
  -6.426571e+05   2.516165e+05
  -4.019344e+05  -3.003918e+05
   5.425024e+05  -5.547084e+05
   1.176780e+06   1.372853e+04
   7.401441e+05   1.131645e+06
  -4.841508e+05   1.718472e+06
  -1.416715e+06   9.487343e+05
  -1.261256e+06  -6.963298e+05
  -2.500952e+05  -1.749490e+06
   6.990289e+05  -1.262358e+06
   9.043290e+05   1.895670e+05
   4.123806e+05   1.169346e+06
  -2.440618e+05   9.303325e+05
  -5.663182e+05   7.341103e+04
  -4.310784e+05  -3.524588e+05
  -1.237709e+05  -1.178558e+05
  -6.111251e+04   8.195859e+04
  -3.402471e+05  -3.140114e+05
  -5.458419e+05  -9.529274e+05
  -1.626478e+05  -1.047443e+06
   7.519695e+05  -3.945752e+05
   1.454946e+06   4.220694e+05
   1.232210e+06   7.935148e+05
   1.923262e+05   6.939529e+05
  -7.880842e+05   4.398592e+05
  -9.487354e+05   1.872375e+05
  -3.924634e+05  -7.012788e+04
   1.207909e+05  -2.311511e+05
   8.068306e+04  -1.761660e+05
  -2.092469e+05  -5.487859e+04
  -7.542437e+04  -1.270392e+05
   5.867320e+05  -2.751030e+05
   1.041281e+06  -3.750229e+04
   5.313280e+05   6.815986e+05
  -7.410483e+05   1.225233e+06
  -1.694303e+06   8.424963e+05
  -1.479676e+06  -3.494627e+05
  -3.408165e+05  -1.370760e+06
   7.287066e+05  -1.403180e+06
   1.021465e+06  -6.059474e+05
   6.478065e+05   1.751354e+05
   1.692376e+05   3.512702e+05
  -1.796680e+04   1.034374e+05
   9.754873e+04   2.052578e+04
   2.815654e+05   3.705482e+05
   2.477262e+05   7.903954e+05
  -1.420471e+05   6.903871e+05
  -6.669294e+05  -5.530024e+04
  -8.008776e+05  -8.752851e+05
  -2.172286e+05  -1.023228e+06
   7.008676e+05  -3.304147e+05
   1.070460e+06   6.208128e+05
   4.241174e+05   1.067964e+06
  -6.706953e+05   7.404770e+05
  -1.138055e+06  -1.497116e+04
  -5.812347e+05  -6.258571e+05
   2.631804e+05  -7.343658e+05
   4.092699e+05  -3.896889e+05
  -1.926799e+05   2.196042e+04
  -6.269947e+05   7.254215e+04
  -1.749524e+05  -3.096810e+05
   7.905718e+05  -6.949260e+05
   1.269753e+06  -5.404120e+05
   8.129390e+05   1.896106e+05
  -5.758475e+04   8.847785e+05
  -5.605503e+05   8.889191e+05
  -4.689847e+05   2.145393e+05
  -1.010022e+05  -4.500200e+05
   2.096125e+05  -4.696378e+05
   3.518957e+05   8.309116e+04
   2.822484e+05   5.590603e+05
  -2.247709e+04   4.695322e+05
  -3.910259e+05  -6.791867e+03
  -4.983237e+05  -2.928195e+05
  -2.437386e+05  -1.162632e+05
   6.418747e+04   1.859712e+05
   8.308693e+04   1.192370e+05
  -9.530676e+04  -3.185156e+05
  -6.990262e+04  -6.020696e+05
   2.765417e+05  -3.203931e+05
   5.361429e+05   2.977582e+05
   2.709613e+05   6.276213e+05
  -3.654168e+05   3.537795e+05
  -7.033293e+05  -2.151143e+05
  -3.019341e+05  -5.365713e+05
   5.016886e+05  -3.906395e+05
   9.068681e+05   1.433814e+04
   5.054290e+05   3.519151e+05
  -2.738353e+05   4.468281e+05
  -6.367819e+05   3.000455e+05
  -2.870888e+05   3.668912e+04
   2.840625e+05  -1.247881e+05
   3.848442e+05  -1.244278e+04
  -1.069792e+05   2.619778e+05
  -6.477961e+05   3.046518e+05
