
 $NMID
 id='ANONYMOUS ', fmtdat='(2E16.6)'
 volume=1.0
 tramp=1.0
 $END
   2.414985e+07   4.559910e+05
   1.622750e+07   1.107813e+07
   2.235453e+05   1.516152e+07
  -1.042920e+07   1.063940e+07
  -9.128850e+06   1.527009e+06
  -8.113617e+05  -4.447708e+06
   5.094464e+06  -2.580588e+06
   4.095958e+06   3.913239e+06
  -9.979679e+05   7.155912e+06
  -4.687334e+06   3.296072e+06
  -4.061784e+06  -3.308103e+06
  -4.367061e+05  -5.372077e+06
   2.496211e+06  -1.002793e+06
   1.951937e+06   4.612065e+06
  -1.477040e+06   5.358967e+06
  -4.224696e+06   5.886421e+05
  -3.163433e+06  -4.912519e+06
   1.106935e+06  -6.234628e+06
   4.759980e+06  -2.871657e+06
   4.724681e+06   1.592356e+06
   1.791070e+06   3.488653e+06
  -5.267752e+05   2.484749e+06
   6.414877e+04   1.231004e+06
   2.211031e+06   1.976443e+06
   2.466251e+06   3.988223e+06
  -8.548025e+05   4.577332e+06
  -5.463358e+06   2.332961e+06
  -7.028510e+06  -1.262007e+06
  -3.664302e+06  -3.429627e+06
   1.686363e+06  -2.749076e+06
   3.989346e+06  -1.353998e+05
   1.396527e+06   2.155282e+06
  -2.864682e+06   2.184025e+06
  -4.257914e+06  -2.713341e+05
  -1.878577e+06  -3.238474e+06
   1.181363e+06  -3.923716e+06
   1.896488e+06  -1.509983e+06
   4.554929e+05   1.510565e+06
  -8.221015e+05   1.778186e+06
  -4.863116e+05  -9.538341e+05
   9.235166e+05  -3.273094e+06
   2.015069e+06  -2.156595e+06
   1.817186e+06   1.256836e+06
   2.572992e+05   2.991475e+06
  -1.631003e+06   1.022844e+06
  -2.017985e+06  -2.409856e+06
   1.466707e+05  -3.531427e+06
   3.446742e+06  -1.177778e+06
   4.717782e+06   2.340527e+06
   2.248127e+06   3.942229e+06
  -2.038451e+06   2.634980e+06
  -4.311510e+06  -8.018316e+04
  -2.761727e+06  -1.906708e+06
   6.767445e+05  -1.681333e+06
   2.576548e+06  -9.930728e+04
   1.538525e+06   1.110460e+06
  -7.378407e+05   8.214418e+05
  -1.586833e+06  -4.880910e+05
  -2.300756e+05  -1.328835e+06
   1.541342e+06  -7.710150e+05
   1.436587e+06   6.327049e+05
  -6.976327e+05   1.420023e+06
  -2.530935e+06   5.951994e+05
  -1.726268e+06  -1.449373e+06
   1.416614e+06  -3.131705e+06
   4.185209e+06  -2.858545e+06
   4.325374e+06  -4.123265e+05
   2.234288e+06   2.638309e+06
   9.652667e+04   4.195347e+06
  -6.720306e+05   3.580881e+06
  -5.804506e+05   2.071388e+06
  -8.819747e+05   1.256446e+06
  -1.917597e+06   1.144425e+06
  -2.853144e+06   4.280376e+05
  -2.662497e+06  -1.411666e+06
  -1.100521e+06  -2.979590e+06
   1.035697e+06  -2.447635e+06
   2.342625e+06   1.319533e+05
   1.767163e+06   2.584607e+06
  -4.106865e+05   2.786842e+06
  -2.537205e+06   7.373374e+05
  -2.923798e+06  -1.677023e+06
  -1.444355e+06  -2.682368e+06
   3.849147e+05  -2.123829e+06
   1.092653e+06  -1.151917e+06
   8.430698e+05  -7.960873e+05
   1.046604e+06  -9.897117e+05
   2.405242e+06  -8.321065e+05
   3.735061e+06   3.702143e+05
   3.108229e+06   2.297801e+06
   1.572207e+05   3.727694e+06
  -3.111587e+06   3.478529e+06
  -4.113570e+06   1.467456e+06
  -2.268947e+06  -1.015997e+06
   4.361542e+05  -2.223811e+06
   1.523538e+06  -1.449279e+06
   4.437165e+05   2.580157e+05
  -1.199855e+06   1.068023e+06
  -1.593490e+06   2.576751e+05
  -5.269252e+05  -1.004383e+06
   6.960053e+05  -1.028683e+06
   7.658720e+05   3.016829e+05
  -4.047004e+05   1.230821e+06
  -1.697923e+06   1.651138e+05
  -1.757027e+06  -2.281803e+06
  -1.023153e+05  -3.727251e+06
   2.336851e+06  -2.535312e+06
   3.774816e+06   4.397571e+05
   3.025199e+06   2.775143e+06
   6.701890e+05   2.903567e+06
  -1.356804e+06   1.402630e+06
  -1.596083e+06   4.871868e+04
  -4.608333e+05  -5.198573e+04
   3.402977e+05   6.888239e+05
  -2.479116e+05   1.085937e+06
  -1.480493e+06   5.031397e+05
  -1.743493e+06  -5.712116e+05
  -4.903622e+05  -1.109813e+06
   1.018868e+06  -6.091670e+05
   1.049155e+06   4.024897e+05
  -6.367006e+05   8.552677e+05
  -2.356749e+06   1.422260e+05
  -2.195338e+06  -1.280081e+06
  -3.918515e+04  -2.233604e+06
   2.237990e+06  -1.834117e+06
   2.661864e+06  -3.246763e+05
   1.097102e+06   1.054958e+06
  -7.637033e+05   1.171437e+06
  -1.193441e+06   1.115068e+05
  -3.965596e+04  -8.635963e+05
   1.363374e+06  -6.207333e+05
   1.620826e+06   6.170015e+05
   5.388636e+05   1.519561e+06
  -8.329913e+05   1.148580e+06
  -1.249493e+06  -7.348847e+03
  -4.445253e+05  -6.375012e+05
   6.003482e+05  -9.466238e+04
   6.138312e+05   9.454399e+05
  -6.142440e+05   1.273762e+06
  -1.897872e+06   3.945319e+05
  -1.837862e+06  -1.045375e+06
  -3.334030e+05  -1.897981e+06
   1.267042e+06  -1.516465e+06
   1.576364e+06  -2.767809e+05
   5.628604e+05   7.647496e+05
  -5.681400e+05   8.115442e+05
  -7.304723e+05   5.087568e+04
   1.673424e+03  -5.844269e+05
   6.644425e+05  -4.428465e+05
   5.136010e+05   1.376036e+05
  -2.198725e+05   2.756378e+05
  -6.067102e+05  -3.539223e+05
  -5.071657e+02  -1.065016e+06
   1.227034e+06  -8.855503e+05
   1.944772e+06   3.659532e+05
   1.340838e+06   1.818333e+06
  -2.336917e+05   2.328275e+06
  -1.571451e+06   1.499367e+06
  -1.782088e+06   5.557146e+03
  -1.079279e+06  -1.032216e+06
  -3.734874e+05  -1.044945e+06
  -2.203125e+05  -4.699507e+05
  -3.228406e+05  -1.966689e+05
  -4.391440e+04  -5.443810e+05
   7.471941e+05  -8.924929e+05
   1.424348e+06  -4.388774e+05
   1.182632e+06   7.432926e+05
  -1.223905e+05   1.603848e+06
  -1.663307e+06   1.161190e+06
  -2.212665e+06  -4.317384e+05
  -1.186490e+06  -1.951139e+06
   7.671489e+05  -2.213150e+06
   2.256407e+06  -1.103805e+06
   2.324014e+06   4.205767e+05
   1.204903e+06   1.269203e+06
  -3.888369e+04   1.162417e+06
  -5.664784e+05   7.211610e+05
  -4.257223e+05   6.727031e+05
  -2.773968e+05   1.016728e+06
  -5.851615e+05   1.050088e+06
  -1.115007e+06   2.355402e+05
  -1.198629e+06  -1.058643e+06
  -4.737399e+05  -1.811759e+06
   6.379955e+05  -1.351122e+06
   1.239660e+06  -2.656478e+04
   8.167473e+05   1.122053e+06
  -2.184400e+05   1.302052e+06
  -9.153963e+05   5.721909e+05
  -7.421398e+05  -3.641026e+05
  -8.528318e+04  -8.500117e+05
   2.513775e+05  -7.759247e+05
  -2.042892e+04  -5.024667e+05
  -3.543369e+05  -3.807843e+05
  -1.852290e+04  -3.869205e+05
   9.966010e+05  -2.217303e+05
   1.817722e+06   2.808186e+05
   1.516322e+06   9.077858e+05
   1.128524e+05   1.235455e+06
  -1.322303e+06   1.007855e+06
  -1.668297e+06   3.619089e+05
  -8.483146e+05  -2.600354e+05
   1.644396e+05  -4.345028e+05
   4.276279e+05  -1.164732e+05
  -4.070747e+04   2.661328e+05
  -4.926666e+05   1.967945e+05
  -4.240327e+05  -3.351534e+05
  -6.557986e+04  -7.308993e+05
   6.863199e+04  -4.624802e+05
  -1.526777e+05   1.986776e+05
  -3.966807e+05   4.080864e+05
  -2.890805e+05  -2.065981e+05
   2.299677e+05  -9.857415e+05
   8.594899e+05  -9.658453e+05
   1.101369e+06  -4.235394e+04
   6.036126e+05   8.817077e+05
  -4.084892e+05   9.222620e+05
  -1.085007e+06   1.463511e+05
  -6.596196e+05  -6.073422e+05
   6.357970e+05  -6.386026e+05
   1.582223e+06   2.618741e+04
   1.159818e+06   7.988535e+05
  -3.207741e+05   1.072564e+06
  -1.484317e+06   6.603019e+05
  -1.321885e+06  -8.471368e+04
  -2.028570e+05  -5.329816e+05
   6.064766e+05  -3.248575e+05
   3.114712e+05   2.345914e+05
  -6.395712e+05   4.078779e+05
  -1.107947e+06  -2.179589e+05
  -4.710311e+05  -1.197554e+06
   7.667519e+05  -1.548187e+06
   1.516644e+06  -7.046430e+05
   1.177250e+06   8.147159e+05
   1.311188e+05   1.763230e+06
  -7.471713e+05   1.314399e+06
  -9.211909e+05  -9.226671e+04
  -4.952365e+05  -1.148849e+06
   1.035054e+05  -1.010257e+06
   5.070156e+05  -1.270618e+05
   5.372222e+05   4.000665e+05
   2.597081e+05   1.740842e+05
   9.510225e+03  -1.255286e+05
   1.147338e+05   2.127913e+05
   4.156076e+05   9.107277e+05
   2.884196e+05   1.074710e+06
  -5.534491e+05   3.952588e+05
  -1.436756e+06  -4.863696e+05
  -1.339606e+06  -8.410013e+05
  -1.791770e+05  -6.540537e+05
   9.380737e+05  -3.695907e+05
   9.959132e+05  -1.922858e+05
   2.615811e+05  -6.120117e+03
  -1.863850e+05   2.017421e+05
   8.075744e+04   2.630577e+05
   3.807364e+05   1.733501e+05
  -6.008498e+03   1.359491e+05
  -7.818045e+05   1.530992e+05
  -9.891761e+05  -8.246052e+04
  -2.053504e+05  -6.512640e+05
   9.675498e+05  -1.023219e+06
   1.568785e+06  -5.795321e+05
   1.180704e+06   5.291947e+05
   1.654367e+05   1.381623e+06
  -7.483251e+05   1.254820e+06
  -1.021376e+06   3.948327e+05
  -6.377598e+05  -3.173355e+05
  -6.161306e+04  -3.449276e+05
   1.764464e+05   1.698287e+04
  -4.090529e+04   1.001363e+05
  -3.361498e+05  -3.277102e+05
  -2.601790e+05  -7.862684e+05
   2.206403e+05  -6.185424e+05
   6.714410e+05   2.249761e+05
   5.991949e+05   1.019751e+06
  -6.056801e+04   9.767753e+05
  -8.008997e+05   9.191757e+04
  -9.241788e+05  -8.368263e+05
  -2.158526e+05  -1.050018e+06
   7.263794e+05  -5.353456e+05
   1.011353e+06   1.461114e+05
   4.226366e+05   5.252793e+05
  -2.893333e+05   5.334162e+05
  -2.808112e+05   3.167982e+05
   3.413393e+05   6.273289e+04
   6.523251e+05   5.094147e+03
   9.305826e+04   2.794299e+05
  -8.185103e+05   6.353011e+05
  -1.141350e+06   5.539841e+05
  -6.223031e+05  -1.122710e+05
   1.336246e+05  -7.882215e+05
   4.687234e+05  -7.604584e+05
   3.069256e+05  -6.621319e+04
  -2.434684e+04   5.035341e+05
  -2.645473e+05   3.506771e+05
  -3.349644e+05  -2.488741e+05
  -2.060513e+05  -5.671768e+05
   9.004154e+04  -3.210053e+05
   3.679228e+05   9.960594e+04
   4.144038e+05   2.212700e+05
   2.298219e+05   4.316955e+04
   1.816199e+04  -6.992755e+04
  -8.118870e+04   1.081748e+05
  -1.356171e+05   3.959893e+05
  -2.523774e+05   4.161099e+05
  -3.687181e+05   2.273651e+04
  -2.952324e+05  -4.906592e+05
   4.389033e+04  -6.372545e+05
   4.510686e+05  -2.366310e+05
   5.607218e+05   3.563032e+05
   1.700308e+05   5.971847e+05
  -4.732387e+05   3.165234e+05
  -7.861484e+05  -1.498828e+05
  -4.155826e+05  -3.837462e+05
   2.962997e+05  -3.009199e+05
   5.943523e+05  -1.060159e+05
   1.666563e+05   5.650596e+03
  -4.358817e+05  -2.827759e+04
  -4.255077e+05  -1.849254e+05
   2.601743e+05  -3.323922e+05
   8.632298e+05  -2.205873e+05
