
 $NMID
 id='ANONYMOUS ', fmtdat='(2E16.6)'
 volume=1.0
 tramp=1.0
 $END
   5.954999e+07   9.418104e+05
   3.482767e+07   3.804185e+07
  -9.110490e+06   4.026283e+07
  -2.954025e+07   1.428206e+07
  -1.686894e+07  -8.356532e+06
   3.998078e+06  -9.681825e+06
   1.015989e+07   1.924880e+06
   2.308896e+06   1.035058e+07
  -6.901487e+06   9.236383e+06
  -1.009357e+07   1.576096e+06
  -7.133619e+06  -6.553331e+06
  -7.372939e+05  -8.844480e+06
   4.150376e+06  -2.876126e+06
   2.612461e+06   5.425751e+06
  -4.057988e+06   6.456985e+06
  -8.139574e+06  -1.712778e+06
  -4.333408e+06  -1.075346e+07
   4.257389e+06  -1.220886e+07
   1.070989e+07  -6.023910e+06
   1.139292e+07   2.243292e+06
   7.041488e+06   8.010191e+06
   6.841317e+05   9.365238e+06
  -3.418589e+06   6.532906e+06
  -2.455163e+06   2.620787e+06
   8.959279e+05   1.778129e+06
   4.137910e+05   4.009757e+06
  -5.288751e+06   4.560984e+06
  -9.812092e+06   6.580686e+05
  -7.318911e+06  -4.212889e+06
  -4.721876e+05  -5.310442e+06
   3.629206e+06  -2.863840e+06
   2.617397e+06  -3.150256e+05
  -2.139778e+05   7.719771e+05
  -1.927522e+06   6.338792e+05
  -2.217582e+06  -1.125897e+06
  -9.490309e+05  -3.860571e+06
   1.800528e+06  -4.093532e+06
   3.593350e+06  -3.917415e+04
   1.991792e+06   3.875588e+06
  -8.710089e+05   2.297553e+06
  -5.377897e+05  -2.291102e+06
   2.466327e+06  -2.239595e+06
   2.413654e+06   3.418302e+06
  -2.860616e+06   6.357063e+06
  -7.553879e+06   8.326874e+05
  -5.305002e+06  -7.498914e+06
   2.273290e+06  -8.984235e+06
   7.849321e+06  -2.411862e+06
   7.018645e+06   4.720532e+06
   1.656942e+06   6.173191e+06
  -3.608591e+06   2.597297e+06
  -5.213537e+06  -1.748104e+06
  -2.253242e+06  -3.632113e+06
   2.632110e+06  -2.161974e+06
   4.664785e+06   1.116431e+06
   1.907367e+06   2.904312e+06
  -1.835230e+06   1.383905e+06
  -1.697561e+06  -1.091553e+06
   1.512860e+06  -7.920514e+05
   2.484859e+06   2.113279e+06
  -9.811297e+05   3.715399e+06
  -5.102000e+06   1.814019e+06
  -5.516799e+06  -1.693263e+06
  -2.266919e+06  -4.265388e+06
   1.881751e+06  -5.419719e+06
   5.058236e+06  -4.964613e+06
   6.339087e+06  -1.828891e+06
   4.781119e+06   3.220504e+06
   9.736414e+05   6.321576e+06
  -2.037160e+06   4.783868e+06
  -1.880144e+06   1.028259e+06
  -1.967368e+04  -4.547489e+05
   3.166308e+05   9.732630e+05
  -1.415026e+06   1.968560e+06
  -2.804863e+06   4.654403e+05
  -2.133963e+06  -1.757576e+06
  -1.814866e+05  -2.075247e+06
   1.409770e+06  -2.631407e+05
   1.630114e+06   1.958342e+06
   4.940026e+04   2.898693e+06
  -2.762026e+06   1.735556e+06
  -4.598723e+06  -1.141641e+06
  -3.367432e+06  -3.879344e+06
   4.788582e+04  -4.444113e+06
   2.442564e+06  -2.848849e+06
   2.398586e+06  -1.121029e+06
   1.905287e+06  -5.952785e+05
   2.952398e+06  -3.885338e+05
   4.333227e+06   8.408305e+05
   3.441778e+06   2.805817e+06
   9.016279e+04   4.101701e+06
  -3.186673e+06   3.862979e+06
  -4.123401e+06   2.151896e+06
  -2.672417e+06  -3.443677e+05
  -3.670110e+05  -2.208776e+06
   1.034657e+06  -1.973323e+06
   5.758302e+05   6.645511e+03
  -1.063014e+06   1.317846e+06
  -1.925106e+06   3.946110e+05
  -9.542062e+05  -1.227675e+06
   4.889460e+05  -1.107111e+06
   3.629037e+05   3.924245e+05
  -1.144333e+06   5.791403e+05
  -1.807179e+06  -1.507550e+06
  -4.081193e+05  -3.589075e+06
   1.846139e+06  -3.246211e+06
   3.183840e+06  -8.244632e+05
   3.135822e+06   1.590976e+06
   2.088135e+06   2.704532e+06
   3.958565e+05   2.510464e+06
  -1.210242e+06   1.439729e+06
  -1.550968e+06   2.421239e+05
  -4.890595e+05  -4.845613e+04
   3.477567e+05   7.530205e+05
  -4.504551e+05   1.354540e+06
  -1.953429e+06   5.574792e+05
  -2.034682e+06  -9.494030e+05
  -3.421161e+05  -1.446760e+06
   1.183233e+06  -5.417101e+05
   8.408776e+05   4.620895e+05
  -8.700442e+05   4.407007e+05
  -2.099573e+06  -4.122774e+05
  -1.619962e+06  -1.353201e+06
   3.080412e+05  -1.881596e+06
   2.291512e+06  -1.571128e+06
   2.746745e+06  -2.329301e+05
   1.202479e+06   1.294527e+06
  -9.508608e+05   1.524742e+06
  -1.602614e+06   1.798607e+05
  -2.132231e+05  -1.106610e+06
   1.528092e+06  -7.294404e+05
   1.697175e+06   8.166508e+05
   2.762013e+05   1.648579e+06
  -1.127917e+06   9.127410e+05
  -1.228717e+06  -3.763659e+05
  -1.935914e+05  -7.943952e+05
   8.204841e+05  -3.519733e+04
   7.366332e+05   1.065707e+06
  -5.743673e+05   1.425546e+06
  -2.003379e+06   5.428685e+05
  -2.030888e+06  -1.055137e+06
  -3.653348e+05  -2.078856e+06
   1.466919e+06  -1.623464e+06
   1.727203e+06  -1.746365e+05
   4.716610e+05   8.782101e+05
  -6.730130e+05   7.804351e+05
  -6.056172e+05   7.604139e+04
   1.381449e+05  -3.082136e+05
   4.472549e+05  -1.589244e+05
   4.616346e+04   4.379270e+04
  -4.766052e+05  -1.521740e+05
  -4.788777e+05  -7.249447e+05
   2.568517e+05  -1.184246e+06
   1.397538e+06  -8.661078e+05
   2.068479e+06   4.381107e+05
   1.444805e+06   1.950699e+06
  -2.328479e+05   2.396357e+06
  -1.606805e+06   1.355822e+06
  -1.638441e+06  -1.631973e+05
  -7.939160e+05  -8.576168e+05
  -3.029160e+05  -5.656400e+05
  -5.220637e+05  -1.762068e+05
  -6.702405e+05  -3.423289e+05
  -8.722616e+04  -7.956423e+05
   8.946810e+05  -8.761440e+05
   1.428141e+06  -2.827331e+05
   9.986337e+05   7.122713e+05
  -2.814154e+05   1.400551e+06
  -1.711270e+06   1.019264e+06
  -2.210285e+06  -5.062792e+05
  -1.081337e+06  -2.102327e+06
   1.065050e+06  -2.340824e+06
   2.563083e+06  -9.699588e+05
   2.304237e+06   7.174832e+05
   8.758183e+05   1.332805e+06
  -2.399664e+05   8.805703e+05
  -3.472757e+05   4.594318e+05
  -1.582212e+04   7.626852e+05
  -8.404388e+04   1.344774e+06
  -6.916979e+05   1.306169e+06
  -1.311303e+06   3.151727e+05
  -1.332975e+06  -1.079719e+06
  -5.465555e+05  -1.884460e+06
   6.213201e+05  -1.424727e+06
   1.271743e+06   1.993817e+04
   7.826310e+05   1.300513e+06
  -4.326318e+05   1.383555e+06
  -1.192364e+06   3.491782e+05
  -7.977047e+05  -7.612346e+05
   1.774748e+05  -1.096985e+06
   5.920714e+05  -7.588770e+05
   1.069370e+05  -3.879363e+05
  -4.402945e+05  -3.255330e+05
  -6.454350e+04  -3.770652e+05
   1.161150e+06  -1.911724e+05
   2.073451e+06   3.591545e+05
   1.598140e+06   1.060524e+06
  -8.473296e+04   1.447503e+06
  -1.628915e+06   1.129450e+06
  -1.833629e+06   2.363249e+05
  -8.065885e+05  -5.412952e+05
   2.842069e+05  -5.830563e+05
   5.187770e+05  -9.617873e+03
   3.896097e+04   4.483727e+05
  -4.272442e+05   2.650309e+05
  -4.829130e+05  -3.418219e+05
  -2.855783e+05  -7.137570e+05
  -1.272090e+05  -4.782967e+05
  -1.298918e+05   6.914199e+04
  -2.476859e+05   2.615560e+05
  -2.649627e+05  -2.356146e+05
   1.257885e+05  -9.692163e+05
   9.012679e+05  -1.061998e+06
   1.400402e+06  -1.876867e+05
   8.868285e+05   9.160133e+05
  -4.210766e+05   1.165691e+06
  -1.280921e+06   3.641058e+05
  -7.346215e+05  -5.604645e+05
   7.097277e+05  -6.318850e+05
   1.557455e+06   1.234332e+05
   9.412422e+05   8.672239e+05
  -5.207765e+05   9.425790e+05
  -1.473716e+06   4.125601e+05
  -1.183754e+06  -2.217100e+05
  -1.107670e+05  -4.993123e+05
   6.490227e+05  -2.439579e+05
   3.922151e+05   3.081194e+05
  -5.654817e+05   5.400307e+05
  -1.183350e+06  -5.117416e+04
  -7.067704e+05  -1.162345e+06
   5.421353e+05  -1.713983e+06
   1.455262e+06  -9.127564e+05
   1.252022e+06   7.352920e+05
   2.087903e+05   1.768894e+06
  -7.318415e+05   1.260215e+06
  -9.061081e+05  -2.033911e+05
  -3.957786e+05  -1.183286e+06
   2.552697e+05  -9.344017e+05
   5.673506e+05  -6.469566e+04
   4.338112e+05   3.650038e+05
   1.311575e+05   1.226359e+05
   5.955210e+04  -8.309985e+04
   3.212043e+05   3.203314e+05
   5.215264e+05   9.699876e+05
   1.500272e+05   1.057740e+06
  -7.533443e+05   3.789498e+05
  -1.455879e+06  -4.590143e+05
  -1.231231e+06  -8.255363e+05
  -1.779876e+05  -7.003459e+05
   8.123714e+05  -4.245069e+05
   9.617070e+05  -1.699410e+05
   3.847420e+05   7.598622e+04
  -1.307515e+05   2.293797e+05
  -7.401223e+04   1.785157e+05
   2.215032e+05   6.411663e+04
   6.867533e+04   1.311383e+05
  -6.097049e+05   2.604297e+05
  -1.047712e+06   8.445223e+03
  -5.010051e+05  -6.999828e+05
   7.877015e+05  -1.209410e+06
   1.719340e+06  -7.957809e+05
   1.467140e+06   3.972768e+05
   3.045726e+05   1.390132e+06
  -7.657389e+05   1.389059e+06
  -1.043794e+06   5.764647e+05
  -6.500438e+05  -1.982232e+05
  -1.567042e+05  -3.582886e+05
   3.138087e+04  -9.887336e+04
  -9.266764e+04  -1.627253e+04
  -2.785134e+05  -3.754930e+05
  -2.338572e+05  -8.004469e+05
   1.629531e+05  -6.890272e+05
   6.730511e+05   7.945474e+04
   7.783107e+05   9.092326e+05
   1.803461e+05   1.035824e+06
  -7.217952e+05   3.053763e+05
  -1.059221e+06  -6.620459e+05
  -3.922808e+05  -1.085779e+06
   6.966906e+05  -7.201947e+05
   1.139715e+06   4.810986e+04
   5.614108e+05   6.382745e+05
  -2.844490e+05   7.223102e+05
  -4.134327e+05   3.777768e+05
   2.044586e+05  -1.517159e+04
   6.352990e+05  -5.586598e+04
   1.644303e+05   3.147063e+05
  -8.127369e+05   6.801593e+05
  -1.281596e+06   5.168784e+05
  -8.020223e+05  -2.057409e+05
   8.213294e+04  -8.848733e+05
   5.789831e+05  -8.743772e+05
   4.689763e+05  -1.951668e+05
   8.568377e+04   4.600913e+05
  -2.256489e+05   4.621521e+05
  -3.538825e+05  -1.010310e+05
  -2.682013e+05  -5.701993e+05
   3.844254e+04  -4.643219e+05
   3.934675e+05   2.077091e+04
   4.896235e+05   3.019929e+05
   2.411030e+05   1.179047e+05
  -5.423497e+04  -1.827975e+05
  -7.784589e+04  -1.082044e+05
   7.669888e+04   3.305393e+05
   3.607654e+04   6.010419e+05
  -2.947405e+05   3.003789e+05
  -5.219685e+05  -3.257556e+05
  -2.411935e+05  -6.424714e+05
   3.819319e+05  -3.428564e+05
   6.971224e+05   2.414896e+05
   2.859175e+05   5.518844e+05
  -5.124536e+05   3.781161e+05
  -9.074054e+05  -4.291064e+04
  -4.966791e+05  -3.678795e+05
   2.883154e+05  -4.358108e+05
   6.474948e+05  -2.767428e+05
   2.831741e+05  -2.675616e+04
  -2.998247e+05   1.127926e+05
  -3.929400e+05  -6.637491e+03
   1.212640e+05  -2.679386e+05
   6.725156e+05  -2.913947e+05
