
 $NMID
 id='ANONYMOUS ', fmtdat='(2E16.6)'
 volume=1.0
 tramp=1.0
 $END
  -2.940836e+07   1.858858e+05
  -1.933344e+07  -1.523150e+07
   1.096647e+06  -1.925247e+07
   1.342743e+07  -1.102379e+07
   1.027190e+07   3.764720e+05
  -7.993365e+04   5.291153e+06
  -5.862162e+06   1.618818e+06
  -3.601583e+06  -4.971984e+06
   2.076438e+06  -7.212408e+06
   5.486300e+06  -2.838315e+06
   4.442762e+06   3.666723e+06
   5.161654e+05   5.679524e+06
  -2.609044e+06   1.325900e+06
  -1.937216e+06  -4.450993e+06
   1.888301e+06  -5.260037e+06
   4.760278e+06  -1.668821e+05
   3.284960e+06   5.709752e+06
  -1.543644e+06   7.044469e+06
  -5.539797e+06   3.403338e+06
  -5.708581e+06  -1.480457e+06
  -2.779923e+06  -4.016314e+06
   1.023636e+05  -3.623971e+06
   4.974577e+05  -2.268270e+06
  -1.150982e+06  -2.099005e+06
  -1.907528e+06  -3.341108e+06
   5.954596e+05  -4.115688e+06
   5.016209e+06  -2.564974e+06
   7.034011e+06   7.806207e+05
   4.123227e+06   3.281780e+06
  -1.103425e+06   2.995711e+06
  -3.578154e+06   6.232716e+05
  -1.463029e+06  -1.504326e+06
   2.201540e+06  -1.673670e+06
   3.488339e+06   1.638050e+05
   1.742092e+06   2.611426e+06
  -7.142654e+05   3.584446e+06
  -1.696129e+06   1.896154e+06
  -9.889868e+05  -1.030712e+06
   1.768568e+05  -1.990549e+06
   4.408676e+05   2.485112e+05
  -6.226906e+05   2.815156e+06
  -1.978846e+06   2.022116e+06
  -1.854719e+06  -1.590282e+06
   3.051903e+05  -3.521621e+06
   2.685571e+06  -1.050825e+06
   2.629352e+06   3.169228e+06
  -4.412958e+05   4.403332e+06
  -4.046607e+06   1.421922e+06
  -4.885404e+06  -2.620513e+06
  -2.006450e+06  -4.137934e+06
   2.224216e+06  -2.472582e+06
   4.233447e+06   4.072329e+05
   2.504503e+06   2.145170e+06
  -1.010131e+06   1.705275e+06
  -2.838549e+06  -1.095036e+05
  -1.543604e+06  -1.385763e+06
   8.920588e+05  -8.977110e+05
   1.512136e+06   5.802115e+05
  -1.468391e+05   1.178502e+06
  -1.696738e+06   1.695054e+05
  -9.399607e+05  -1.259616e+06
   1.508215e+06  -1.503554e+06
   3.001085e+06  -1.642303e+05
   1.773042e+06   1.898406e+06
  -1.377090e+06   3.365385e+06
  -4.038815e+06   3.065537e+06
  -4.390861e+06   6.790147e+05
  -2.573995e+06  -2.524894e+06
  -2.840468e+05  -4.302880e+06
   8.878795e+05  -3.600698e+06
   8.355558e+05  -1.755299e+06
   7.061416e+05  -8.093139e+05
   1.363787e+06  -9.631288e+05
   2.342033e+06  -6.426764e+05
   2.451173e+06   9.643082e+05
   1.175811e+06   2.519285e+06
  -7.531548e+05   2.170345e+06
  -1.989487e+06  -8.465774e+04
  -1.586390e+06  -2.300934e+06
   3.091129e+05  -2.603936e+06
   2.387946e+06  -8.696977e+05
   3.025745e+06   1.437182e+06
   1.731458e+06   2.695598e+06
  -2.508231e+05   2.420536e+06
  -1.248071e+06   1.429726e+06
  -1.086995e+06   8.372021e+05
  -1.159462e+06   8.586090e+05
  -2.364149e+06   6.848301e+05
  -3.605040e+06  -4.488059e+05
  -2.956870e+06  -2.253796e+06
  -1.161937e+05  -3.548329e+06
   2.928646e+06  -3.295131e+06
   3.827797e+06  -1.471782e+06
   2.168922e+06   8.211855e+05
  -2.654524e+05   2.045791e+06
  -1.321066e+06   1.430183e+06
  -4.313139e+05  -1.904615e+05
   1.091886e+06  -1.031914e+06
   1.547312e+06  -2.644775e+05
   5.731493e+05   9.719913e+05
  -6.124930e+05   9.641732e+05
  -6.348479e+05  -3.131607e+05
   5.452501e+05  -1.034604e+06
   1.644663e+06   1.813651e+05
   1.389790e+06   2.426094e+06
  -3.224905e+05   3.427378e+06
  -2.402210e+06   2.032722e+06
  -3.417700e+06  -6.768305e+05
  -2.614604e+06  -2.616350e+06
  -5.406579e+05  -2.639958e+06
   1.244715e+06  -1.300824e+06
   1.474040e+06  -7.087558e+04
   4.345903e+05   5.028619e+04
  -3.152307e+05  -6.561419e+05
   2.711190e+05  -1.066988e+06
   1.473201e+06  -4.807711e+05
   1.686303e+06   6.102658e+05
   4.290721e+05   1.106123e+06
  -9.862492e+05   5.513429e+05
  -9.349302e+05  -3.983438e+05
   6.546551e+05  -7.163727e+05
   2.159483e+06  -1.049649e+03
   1.925379e+06   1.236319e+06
  -5.562771e+04   2.020750e+06
  -2.114649e+06   1.642863e+06
  -2.501003e+06   2.680943e+05
  -1.041448e+06  -1.034508e+06
   7.471604e+05  -1.159621e+06
   1.190690e+06  -1.193149e+05
   7.104610e+04   8.476239e+05
  -1.303551e+06   5.940396e+05
  -1.525400e+06  -6.229008e+05
  -4.436751e+05  -1.450843e+06
   8.469001e+05  -1.025671e+06
   1.168844e+06   8.749012e+04
   3.649807e+05   6.331666e+05
  -6.035324e+05   7.756971e+04
  -5.913925e+05  -9.051569e+05
   5.698889e+05  -1.210250e+06
   1.787517e+06  -3.851987e+05
   1.742398e+06   9.840687e+05
   3.078949e+05   1.804921e+06
  -1.227313e+06   1.429725e+06
  -1.502592e+06   2.309195e+05
  -5.045052e+05  -7.404613e+05
   5.556454e+05  -7.486439e+05
   6.556670e+05  -4.462241e+04
  -3.887035e+04   4.932811e+05
  -5.862696e+05   3.468342e+05
  -3.836270e+05  -1.248023e+05
   2.674230e+05  -1.775743e+05
   5.465609e+05   4.098844e+05
  -5.478352e+04   1.021685e+06
  -1.183313e+06   8.163373e+05
  -1.834924e+06  -3.660226e+05
  -1.259564e+06  -1.726859e+06
   2.324033e+05  -2.180783e+06
   1.484990e+06  -1.358802e+06
   1.636578e+06   4.373796e+04
   9.386835e+05   9.423548e+05
   3.154478e+05   8.847542e+05
   2.536497e+05   3.751291e+05
   3.704047e+05   2.058045e+05
   5.115554e+04   5.556399e+05
  -7.320836e+05   8.264418e+05
  -1.334868e+06   3.678716e+05
  -1.059702e+06  -6.998264e+05
   1.617589e+05  -1.457594e+06
   1.570857e+06  -1.043100e+06
   2.059552e+06   4.327916e+05
   1.074504e+06   1.858038e+06
  -7.853438e+05   2.088194e+06
  -2.172804e+06   9.935903e+05
  -2.165415e+06  -4.664771e+05
  -1.051065e+06  -1.211143e+06
   9.031663e+04  -1.032564e+06
   4.964460e+05  -6.116269e+05
   3.194058e+05  -6.314654e+05
   2.201096e+05  -1.004620e+06
   5.672078e+05  -1.026654e+06
   1.076776e+06  -2.317607e+05
   1.135857e+06   9.956325e+05
   4.444697e+05   1.703622e+06
  -5.988491e+05   1.268162e+06
  -1.162335e+06   7.753324e+03
  -7.505049e+05  -1.086605e+06
   2.524786e+05  -1.232412e+06
   9.160229e+05  -4.897076e+05
   7.089751e+05   4.205140e+05
   2.806238e+04   8.467790e+05
  -3.063995e+05   7.257394e+05
  -1.194104e+04   4.489858e+05
   3.428706e+05   3.446693e+05
   2.312300e+04   3.577345e+05
  -9.629467e+05   1.973009e+05
  -1.743122e+06  -2.839886e+05
  -1.425675e+06  -8.843351e+05
  -6.286722e+04  -1.197564e+06
   1.295847e+06  -9.603781e+05
   1.591921e+06  -3.048817e+05
   7.869455e+05   3.039072e+05
  -1.761647e+05   4.353717e+05
  -4.195166e+05   8.676487e+04
   2.012734e+04  -2.814601e+05
   4.462637e+05  -1.917398e+05
   4.044354e+05   3.152746e+05
   9.835523e+04   6.731253e+05
  -2.869867e+04   4.289658e+05
   1.423518e+05  -1.582376e+05
   3.468974e+05  -3.452089e+05
   2.636165e+05   2.009735e+05
  -2.016637e+05   9.111154e+05
  -8.136363e+05   9.131838e+05
  -1.081159e+06   6.663537e+04
  -6.119183e+05  -8.259063e+05
   3.839913e+05  -9.039733e+05
   1.045063e+06  -1.755312e+05
   6.238041e+05   5.597267e+05
  -6.114979e+05   5.909369e+05
  -1.471506e+06  -5.514200e+04
  -1.033989e+06  -7.709923e+05
   3.485091e+05  -9.764325e+05
   1.391362e+06  -5.561771e+05
   1.207260e+06   1.182115e+05
   1.665134e+05   4.935845e+05
  -5.774261e+05   2.836138e+05
  -3.058873e+05  -2.331280e+05
   5.812422e+05  -3.993996e+05
   1.041445e+06   1.767127e+05
   4.754192e+05   1.106744e+06
  -6.777777e+05   1.464104e+06
  -1.401326e+06   6.849120e+05
  -1.103864e+06  -7.502371e+05
  -1.249405e+05  -1.643107e+06
   7.037466e+05  -1.208453e+06
   8.572370e+05   1.144976e+05
   4.346548e+05   1.082862e+06
  -1.348877e+05   9.291524e+05
  -4.863984e+05   1.039657e+05
  -4.766869e+05  -3.720850e+05
  -2.144956e+05  -1.569211e+05
  -2.043629e+04   1.098130e+05
  -1.480199e+05  -2.152225e+05
  -4.027661e+05  -8.605110e+05
  -2.338487e+05  -1.003190e+06
   5.576885e+05  -3.657801e+05
   1.338292e+06   4.575306e+05
   1.220720e+06   7.925355e+05
   1.631030e+05   6.197170e+05
  -8.509365e+05   3.455117e+05
  -9.231166e+05   1.669497e+05
  -2.696202e+05  -9.323846e+03
   1.635899e+05  -1.907874e+05
  -4.131603e+04  -2.328251e+05
  -3.199320e+05  -1.466300e+05
  -7.785251e+03  -1.239262e+05
   6.935268e+05  -1.539821e+05
   9.302759e+05   6.480860e+04
   2.453517e+05   6.109080e+05
  -8.694057e+05   9.785862e+05
  -1.490063e+06   5.743914e+05
  -1.149041e+06  -4.691813e+05
  -1.716057e+05  -1.286908e+06
   7.064511e+05  -1.190294e+06
   9.545931e+05  -3.964120e+05
   5.915322e+05   2.767405e+05
   7.371746e+04   3.221750e+05
  -1.333775e+05   2.108446e+03
   5.157277e+04  -7.152834e+04
   3.007113e+05   3.183217e+05
   2.320213e+05   7.376988e+05
  -1.970520e+05   5.870633e+05
  -6.208858e+05  -1.859811e+05
  -5.833611e+05  -9.286529e+05
   1.506508e+04  -9.155718e+05
   7.265390e+05  -1.197251e+05
   8.774203e+05   7.490853e+05
   2.288308e+05   9.827525e+05
  -6.705575e+05   5.289214e+05
  -9.639557e+05  -1.213074e+05
  -4.195917e+05  -5.111950e+05
   2.680885e+05  -5.315200e+05
   2.882392e+05  -3.080235e+05
  -2.892141e+05  -4.884431e+04
  -6.030355e+05   2.073383e+03
  -9.941134e+04  -2.662529e+05
   7.649425e+05  -5.947168e+05
   1.095444e+06  -5.040686e+05
   6.161297e+05   1.230720e+05
  -1.178226e+05   7.510747e+05
  -4.609411e+05   7.299007e+05
  -3.150277e+05   8.831157e+04
   5.835093e+03  -4.580126e+05
   2.388596e+05  -3.456526e+05
   3.106307e+05   2.050578e+05
   2.001208e+05   5.290669e+05
  -7.284454e+04   3.251512e+05
  -3.452518e+05  -7.946960e+04
  -4.010247e+05  -2.230629e+05
  -2.177379e+05  -5.613617e+04
  -7.486158e+02   8.531588e+04
   8.071390e+04  -5.803078e+04
   8.933313e+04  -3.503797e+05
   1.777094e+05  -4.152913e+05
   3.229468e+05  -7.092202e+04
   3.119532e+05   4.219539e+05
   1.019160e+04   5.879147e+05
  -4.060596e+05   2.363593e+05
  -5.438113e+05  -3.104877e+05
  -1.756840e+05  -5.461338e+05
   4.493853e+05  -3.044228e+05
   7.525282e+05   1.216250e+05
   3.998964e+05   3.555251e+05
  -2.735331e+05   3.043395e+05
  -5.609341e+05   1.290331e+05
  -1.771921e+05   2.543993e+03
   3.761734e+05   5.072115e+03
   3.847196e+05   1.413249e+05
  -2.191730e+05   2.921202e+05
  -7.670814e+05   2.088411e+05
