
 $NMID
 id='ANONYMOUS ', fmtdat='(2E16.6)'
 volume=1.0
 tramp=1.0
 $END
   1.084313e+07  -8.430679e+05
   5.481266e+06   8.705378e+06
  -3.577232e+06   8.030821e+06
  -6.192208e+06   2.492108e+05
  -1.841374e+06  -4.380780e+06
   2.231370e+06  -2.224075e+06
   1.810183e+06   1.570431e+06
  -7.022587e+05   2.202773e+06
  -1.960753e+06   5.066595e+05
  -1.747137e+06  -8.135414e+05
  -1.032789e+06  -1.226151e+06
   1.551344e+04  -1.268290e+06
   9.497123e+05  -8.023740e+05
   7.186959e+05  -1.172194e+04
  -4.653528e+05   5.060056e+04
  -9.354599e+05  -8.466324e+05
  -3.585617e+02  -1.506847e+06
   1.191079e+06  -1.171035e+06
   1.698937e+06  -4.110558e+05
   1.829615e+06   3.637292e+05
   1.609880e+06   1.483348e+06
   2.942231e+05   2.453363e+06
  -1.703356e+06   1.802640e+06
  -2.357005e+06  -4.278442e+05
  -8.019222e+05  -1.860865e+06
   1.036588e+06  -8.539219e+05
   9.831218e+05   1.080374e+06
  -5.293434e+05   1.429099e+06
  -1.527416e+06   1.675206e+04
  -1.235563e+06  -1.391098e+06
  -2.755053e+05  -1.764064e+06
   8.144918e+05  -1.373439e+06
   1.654064e+06  -4.913355e+05
   1.468934e+06   6.617911e+05
   1.515229e+05   1.158829e+06
  -7.785493e+05   3.350883e+05
   6.489487e+03  -7.348649e+05
   1.398051e+06  -4.239686e+05
   1.274163e+06   9.361200e+05
  -2.230924e+05   1.481755e+06
  -9.444231e+05   7.491525e+05
  -2.459949e+05   2.555743e+05
   7.327763e+04   7.778892e+05
  -1.054259e+06   1.017043e+06
  -2.065533e+06  -1.109945e+05
  -1.275422e+06  -1.527368e+06
   4.525301e+05  -1.610969e+06
   1.104588e+06  -5.578946e+05
   3.970760e+05   2.168057e+05
  -3.288557e+05   1.703676e+05
  -3.020142e+05  -1.669349e+05
   1.106343e+05  -4.281761e+05
   5.333016e+05  -5.829556e+05
   8.717587e+05  -3.461012e+05
   7.765417e+05   3.820851e+05
   8.749046e+04   8.513969e+05
  -4.250746e+05   4.112200e+05
   4.993514e+03  -2.087454e+05
   6.869885e+05   1.657169e+05
   2.900240e+05   1.163915e+06
  -9.857935e+05   1.237876e+06
  -1.526245e+06   5.269730e+04
  -7.551014e+05  -9.693826e+05
   5.786529e+04  -8.418815e+05
  -6.643564e+04  -3.198848e+05
  -3.638552e+05  -3.542381e+05
   1.035334e+05  -5.492288e+05
   7.130309e+05  -1.685189e+05
   3.748989e+05   3.292283e+05
  -4.974183e+05   5.237409e+03
  -5.194195e+05  -8.745576e+05
   5.314747e+05  -1.094717e+06
   1.404761e+06  -2.379584e+05
   1.161392e+06   8.415113e+05
   2.041309e+05   1.252518e+06
  -5.809220e+05   9.227671e+05
  -8.095869e+05   2.249034e+05
  -5.343902e+05  -4.485544e+05
   2.571907e+04  -6.525858e+05
   4.116430e+05  -1.716458e+05
   1.981103e+05   4.893140e+05
  -3.813349e+05   5.175869e+05
  -5.819787e+05  -1.267702e+05
  -1.352245e+05  -6.140594e+05
   3.928426e+05  -3.974426e+05
   4.254026e+05   1.243734e+05
   6.138535e+04   3.251739e+05
  -2.830937e+05   1.516332e+05
  -4.140549e+05  -1.092273e+05
  -2.704797e+05  -3.313062e+05
   1.941311e+05  -4.306405e+05
   6.931626e+05  -2.045421e+05
   6.510161e+05   2.786725e+05
  -9.988435e+03   5.119564e+05
  -5.517701e+05   2.131306e+05
  -3.613873e+05  -1.828679e+05
   1.786315e+05  -1.482173e+05
   2.972437e+05   1.507503e+05
  -4.013652e+04   2.023804e+05
  -2.569434e+05  -1.334296e+04
  -1.595740e+05  -1.349575e+05
  -6.437196e+04  -1.419962e+05
  -3.075743e+04  -2.821436e+05
   2.379431e+05  -3.814392e+05
   6.290640e+05   1.298409e+04
   5.270927e+05   7.177098e+05
  -2.118205e+05   8.925012e+05
  -8.361828e+05   2.169123e+05
  -6.741206e+05  -5.552864e+05
  -3.773725e+04  -6.178977e+05
   3.104593e+05  -1.575047e+05
   1.990439e+05   1.051681e+05
   4.020449e+04  -9.271957e+03
   6.089337e+04  -1.015211e+05
   9.565162e+04   2.365201e+04
   2.998008e+04   1.359708e+05
  -4.313677e+04   7.255403e+04
  -8.669350e+04  -5.288323e+04
  -1.347099e+05  -1.490431e+05
  -6.522189e+04  -2.398540e+05
   2.484441e+05  -2.299501e+05
   5.609208e+05   3.269957e+04
   4.445048e+05   3.967347e+05
  -7.118032e+04   4.780534e+05
  -4.417480e+05   1.986546e+05
  -3.262347e+05  -7.355511e+04
  -8.892156e+03  -5.434647e+04
   7.770365e+04   9.452782e+04
  -7.296794e+04   9.571119e+04
  -1.856617e+05  -3.544423e+04
  -1.588508e+05  -1.221235e+05
  -9.014264e+04  -1.331899e+05
  -2.221228e+04  -1.299944e+05
   5.669162e+04  -8.765257e+04
   7.105261e+04   2.775175e+03
  -2.773000e+04   5.016654e+03
  -8.661674e+04  -1.564601e+05
   6.573569e+04  -2.851793e+05
   3.130023e+05  -1.504510e+05
   3.637915e+05   1.507793e+05
   1.506399e+05   3.099602e+05
  -9.728766e+04   2.258737e+05
  -1.757062e+05   7.391123e+04
  -1.003569e+05   5.029149e+02
   1.903048e+04  -8.292678e+03
   9.734312e+04   2.933274e+04
   5.046642e+04   1.243237e+05
  -1.406969e+05   1.732333e+05
  -3.023594e+05   3.361048e+04
  -2.092825e+05  -1.981716e+05
   7.855055e+04  -2.290091e+05
   2.209294e+05   1.178118e+04
   3.771820e+04   2.211417e+05
  -2.410937e+05   1.253007e+05
  -2.906975e+05  -1.622361e+05
  -8.965494e+04  -3.416137e+05
   1.452121e+05  -3.100657e+05
   2.711165e+05  -1.654799e+05
   2.865749e+05   1.637799e+04
   2.041350e+05   1.920994e+05
   5.878797e+04   2.512917e+05
  -2.730055e+04   1.413107e+05
   1.379510e+04   2.595118e+04
   3.786134e+04   8.759969e+04
  -1.239688e+05   2.101232e+05
  -3.468861e+05   1.096453e+05
  -3.119226e+05  -2.091666e+05
   4.147171e+04  -3.883267e+05
   3.790342e+05  -1.911255e+05
   3.759352e+05   1.800225e+05
   8.292649e+04   3.649002e+05
  -2.139434e+05   2.671452e+05
  -3.400634e+05   5.182207e+04
  -3.047454e+05  -1.282175e+05
  -1.601769e+05  -2.275814e+05
   3.568323e+04  -2.262378e+05
   1.754674e+05  -1.356986e+05
   1.819296e+05  -5.155740e+04
   1.186362e+05  -5.122517e+04
   1.037813e+05  -6.066763e+04
   1.299600e+05   4.392056e+04
   8.422112e+04   2.183629e+05
  -5.862344e+04   2.736768e+05
  -1.787544e+05   1.287294e+05
  -1.677108e+05  -8.398933e+04
  -5.030600e+04  -1.932304e+05
   7.279420e+04  -1.636105e+05
   1.275025e+05  -6.340057e+04
   9.373279e+04   4.017954e+04
   7.070910e+03   1.033934e+05
  -4.558410e+04   1.048692e+05
  -6.087216e+03   7.565342e+04
   5.662596e+04   7.129839e+04
   7.829082e+03   7.884957e+04
  -1.589324e+05   2.023661e+04
  -2.711331e+05  -1.136755e+05
  -1.789165e+05  -2.107048e+05
   5.472210e+04  -1.765637e+05
   2.293588e+05  -5.902229e+04
   2.275115e+05   3.056367e+04
   9.994597e+04   5.667756e+04
  -2.796876e+04   4.957001e+04
  -6.859705e+04   1.954873e+04
  -1.706325e+04  -2.665205e+04
   5.327929e+04  -3.271558e+04
   5.434381e+04   3.672921e+04
  -1.190537e+04   1.004726e+05
  -3.950953e+04   5.208638e+04
   3.873567e+04  -5.900956e+04
   1.319931e+05  -6.383039e+04
   9.313699e+04   8.024298e+04
  -7.778863e+04   2.004499e+05
  -2.181167e+05   1.320272e+05
  -1.961624e+05  -6.143282e+04
  -4.459932e+04  -1.760843e+05
   1.080056e+05  -1.170649e+05
   1.597376e+05   2.525041e+04
   7.519280e+04   1.104677e+05
  -1.024971e+05   7.716279e+04
  -2.348515e+05  -4.273821e+04
  -1.728940e+05  -1.587864e+05
   6.394734e+04  -1.730133e+05
   2.549672e+05  -6.477299e+04
   2.119742e+05   6.563187e+04
   1.007212e+04   9.189852e+04
  -1.038811e+05   9.451820e+03
  -1.577330e+04  -5.939334e+04
   1.352102e+05  -1.560071e+04
   1.491733e+05   1.085208e+05
  -4.922499e+03   2.000599e+05
  -1.847110e+05   1.755961e+05
  -2.381731e+05   3.156123e+04
  -1.313841e+05  -1.554399e+05
   4.607226e+04  -2.538121e+05
   1.607644e+05  -1.668840e+05
   1.395076e+05   4.920570e+04
   2.500493e+04   2.010944e+05
  -7.511712e+04   1.542541e+05
  -9.718323e+04  -1.076122e+04
  -6.292327e+04  -1.005098e+05
  -2.275507e+04  -5.053871e+04
  -6.190058e+02   1.259409e+04
   9.226803e+02  -3.614286e+04
  -7.636524e+03  -1.450399e+05
   1.154407e+04  -1.595371e+05
   9.078206e+04  -2.919777e+04
   1.795031e+05   1.296446e+05
   1.616965e+05   1.785072e+05
   6.653154e+03   1.079291e+05
  -1.503025e+05   1.855228e+04
  -1.567962e+05  -1.271826e+04
  -4.171194e+04  -4.035970e+03
   2.853651e+04  -1.138155e+04
  -1.483808e+04  -4.363632e+04
  -5.734107e+04  -6.087368e+04
   1.411525e+04  -3.629642e+04
   1.341333e+05   1.517620e+04
   1.419808e+05   6.688191e+04
  -6.375999e+03   1.018381e+05
  -1.855235e+05   9.428120e+04
  -2.442935e+05   1.277404e+04
  -1.446243e+05  -1.214673e+05
   3.295712e+04  -2.084676e+05
   1.673662e+05  -1.589729e+05
   1.792323e+05  -1.188134e+04
   8.514709e+04   9.023754e+04
  -1.476655e+04   6.468384e+04
  -3.314856e+04  -1.435985e+04
   1.370689e+04  -1.755974e+04
   3.642704e+04   7.048923e+04
  -9.461307e+03   1.330336e+05
  -7.352045e+04   6.936510e+04
  -8.272471e+04  -8.057330e+04
  -2.363340e+04  -1.769649e+05
   5.995837e+04  -1.258092e+05
   1.118304e+05   3.039420e+04
   8.880071e+04   1.578540e+05
  -1.333508e+04   1.571197e+05
  -1.264223e+05   4.744331e+04
  -1.440245e+05  -6.627213e+04
  -3.981836e+04  -1.025498e+05
   7.375934e+04  -6.969502e+04
   6.532846e+04  -2.812010e+04
  -4.496775e+04  -1.507107e+04
  -1.001091e+05  -2.578919e+04
  -6.083629e+03  -4.420178e+04
   1.442868e+05  -5.422607e+04
   1.869264e+05  -3.034563e+04
   8.328207e+04   3.735426e+04
  -5.135269e+04   1.020546e+05
  -9.636823e+04   9.100692e+04
  -4.598801e+04   2.031019e+03
   2.287961e+04  -7.018529e+04
   5.123885e+04  -4.257976e+04
   3.762477e+04   4.800344e+04
   6.484970e+03   9.068459e+04
  -2.434832e+04   4.162223e+04
  -4.511998e+04  -3.108372e+04
  -4.829337e+04  -4.754028e+04
  -3.274905e+04  -1.289779e+04
  -6.686951e+03   9.136003e+03
   1.945993e+04  -1.314367e+04
   4.006075e+04  -4.694234e+04
   5.167397e+04  -4.143715e+04
   4.684801e+04   1.467497e+04
   1.700190e+04   7.800931e+04
  -3.315143e+04   8.522604e+04
  -7.443420e+04   1.554062e+04
  -6.684118e+04  -7.410685e+04
   1.009532e+03  -9.597282e+04
   8.367410e+04  -2.805488e+04
   1.068020e+05   5.596402e+04
   4.134745e+04   7.295990e+04
  -5.345258e+04   2.634252e+04
  -8.221985e+04  -1.242424e+04
  -1.871447e+04  -1.225890e+03
   5.648098e+04   3.304350e+04
   4.361479e+04   4.701497e+04
  -5.566895e+04   2.910909e+04
  -1.306860e+05  -1.295539e+04
