
 $NMID
 id='ANONYMOUS ', fmtdat='(2E16.6)'
 volume=1.0
 tramp=1.0
 $END
   2.358132e+07   1.890230e+04
   1.628681e+07   1.067799e+07
   5.342953e+05   1.503769e+07
  -1.029189e+07   1.063710e+07
  -9.165755e+06   1.488894e+06
  -8.247743e+05  -4.469519e+06
   5.124565e+06  -2.531702e+06
   4.067177e+06   3.939432e+06
  -1.062871e+06   7.093126e+06
  -4.673929e+06   3.250108e+06
  -3.977489e+06  -3.224832e+06
  -4.123382e+05  -5.234967e+06
   2.405304e+06  -9.738084e+05
   1.837191e+06   4.509933e+06
  -1.512850e+06   5.253749e+06
  -4.185923e+06   5.872182e+05
  -3.134774e+06  -4.820884e+06
   1.049743e+06  -6.135945e+06
   4.618465e+06  -2.860342e+06
   4.598391e+06   1.473203e+06
   1.801076e+06   3.308610e+06
  -3.876886e+05   2.393312e+06
   1.617435e+05   1.294178e+06
   2.122602e+06   2.076795e+06
   2.272489e+06   3.958520e+06
  -9.246627e+05   4.407633e+06
  -5.304606e+06   2.173280e+06
  -6.777004e+06  -1.282971e+06
  -3.530661e+06  -3.317059e+06
   1.625020e+06  -2.598212e+06
   3.818800e+06  -5.652672e+04
   1.263233e+06   2.088404e+06
  -2.855849e+06   2.007043e+06
  -4.111887e+06  -3.947759e+05
  -1.719332e+06  -3.171851e+06
   1.217001e+06  -3.744489e+06
   1.809260e+06  -1.437992e+06
   3.845053e+05   1.398968e+06
  -7.755894e+05   1.651924e+06
  -3.783000e+05  -9.207704e+05
   9.780031e+05  -3.131332e+06
   1.998304e+06  -2.073901e+06
   1.799181e+06   1.245824e+06
   2.714495e+05   2.998750e+06
  -1.623005e+06   1.109358e+06
  -2.051273e+06  -2.312923e+06
   7.822609e+04  -3.497815e+06
   3.355067e+06  -1.194127e+06
   4.612327e+06   2.311533e+06
   2.170202e+06   3.895817e+06
  -2.035383e+06   2.565530e+06
  -4.236695e+06  -1.371538e+05
  -2.693543e+06  -1.920783e+06
   6.819592e+05  -1.671815e+06
   2.543031e+06  -9.784932e+04
   1.520777e+06   1.103233e+06
  -7.220335e+05   8.136416e+05
  -1.550072e+06  -5.022852e+05
  -1.828143e+05  -1.338221e+06
   1.585672e+06  -7.389936e+05
   1.455747e+06   7.069483e+05
  -7.044336e+05   1.477126e+06
  -2.535336e+06   6.015117e+05
  -1.723430e+06  -1.434085e+06
   1.379601e+06  -3.038366e+06
   4.074150e+06  -2.732751e+06
   4.186298e+06  -3.760107e+05
   2.146622e+06   2.546682e+06
   7.223646e+04   4.067400e+06
  -6.917360e+05   3.507915e+06
  -6.294893e+05   2.034269e+06
  -9.197164e+05   1.182429e+06
  -1.885697e+06   1.025376e+06
  -2.744136e+06   3.343797e+05
  -2.521001e+06  -1.413988e+06
  -9.902185e+05  -2.891977e+06
   1.058535e+06  -2.333193e+06
   2.266099e+06   1.924340e+05
   1.657895e+06   2.549217e+06
  -4.461274e+05   2.693817e+06
  -2.458704e+06   6.795461e+05
  -2.805807e+06  -1.642596e+06
  -1.390612e+06  -2.591889e+06
   3.554812e+05  -2.056445e+06
   1.045314e+06  -1.137743e+06
   8.297562e+05  -7.981718e+05
   1.047455e+06  -9.646004e+05
   2.367563e+06  -7.793445e+05
   3.641049e+06   4.132476e+05
   2.996900e+06   2.284525e+06
   9.538165e+04   3.633014e+06
  -3.081057e+06   3.332448e+06
  -4.012829e+06   1.356264e+06
  -2.174423e+06  -1.018312e+06
   4.630245e+05  -2.136939e+06
   1.494988e+06  -1.372134e+06
   4.213201e+05   2.556701e+05
  -1.180712e+06   1.015142e+06
  -1.552920e+06   2.302520e+05
  -5.009270e+05  -9.771974e+05
   6.938253e+05  -9.835624e+05
   7.414187e+05   3.176876e+05
  -4.335622e+05   1.207354e+06
  -1.696577e+06   1.293771e+05
  -1.698103e+06  -2.287598e+06
  -1.704432e+04  -3.675370e+06
   2.362816e+06  -2.442508e+06
   3.692135e+06   5.132329e+05
   2.890619e+06   2.777237e+06
   5.902198e+05   2.843451e+06
  -1.344137e+06   1.337247e+06
  -1.549211e+06   1.811606e+04
  -4.474135e+05  -5.814936e+04
   3.204340e+05   6.765394e+05
  -2.547490e+05   1.058027e+06
  -1.449700e+06   4.746855e+05
  -1.696365e+06  -5.811455e+05
  -4.649392e+05  -1.093444e+06
   1.004882e+06  -5.784453e+05
   1.015103e+06   4.159829e+05
  -6.455547e+05   8.261527e+05
  -2.309290e+06   8.908255e+04
  -2.114353e+06  -1.299161e+06
   1.104903e+04  -2.182237e+06
   2.217319e+06  -1.745723e+06
   2.598664e+06  -2.701655e+05
   1.054695e+06   1.044316e+06
  -7.561643e+05   1.131590e+06
  -1.162662e+06   9.704901e+04
  -2.925857e+04  -8.376067e+05
   1.335816e+06  -5.839067e+05
   1.571373e+06   6.281772e+05
   4.996394e+05   1.495217e+06
  -8.377997e+05   1.109460e+06
  -1.224883e+06  -3.106534e+04
  -4.243143e+05  -6.351013e+05
   5.882350e+05  -8.674647e+04
   5.840047e+05   9.284881e+05
  -6.166550e+05   1.228302e+06
  -1.850762e+06   3.531531e+05
  -1.770672e+06  -1.045478e+06
  -2.950036e+05  -1.852697e+06
   1.258052e+06  -1.458179e+06
   1.541779e+06  -2.444385e+05
   5.364224e+05   7.569340e+05
  -5.686693e+05   7.820873e+05
  -7.110584e+05   3.322374e+04
   1.914868e+04  -5.717878e+05
   6.612031e+05  -4.134043e+05
   4.943205e+05   1.543387e+05
  -2.297846e+05   2.699192e+05
  -5.930176e+05  -3.589556e+05
   1.594464e+04  -1.042987e+06
   1.210665e+06  -8.441593e+05
   1.888160e+06   3.878681e+05
   1.275947e+06   1.791199e+06
  -2.673329e+05   2.261721e+06
  -1.559673e+06   1.431546e+06
  -1.738111e+06  -3.033885e+04
  -1.026832e+06  -1.030337e+06
  -3.327869e+05  -1.024146e+06
  -1.994372e+05  -4.531182e+05
  -3.150624e+05  -1.888040e+05
  -3.945397e+04  -5.299032e+05
   7.435516e+05  -8.588228e+05
   1.397653e+06  -4.016920e+05
   1.136553e+06   7.486298e+05
  -1.528453e+05   1.562060e+06
  -1.642860e+06   1.101399e+06
  -2.147462e+06  -4.597336e+05
  -1.123401e+06  -1.922934e+06
   7.835927e+05  -2.147794e+06
   2.219597e+06  -1.041177e+06
   2.261422e+06   4.519874e+05
   1.150714e+06   1.264959e+06
  -6.600313e+04   1.134887e+06
  -5.701163e+05   6.857256e+05
  -4.231988e+05   6.371328e+05
  -2.796238e+05   9.804067e+05
  -5.821514e+05   1.014614e+06
  -1.087768e+06   2.143090e+05
  -1.148379e+06  -1.048395e+06
  -4.306122e+05  -1.770005e+06
   6.432037e+05  -1.303238e+06
   1.208156e+06  -4.370121e+03
   7.791606e+05   1.107812e+06
  -2.343003e+05   1.268710e+06
  -9.072119e+05   5.468642e+05
  -7.257103e+05  -3.670688e+05
  -7.337519e+04  -8.357927e+05
   2.596738e+05  -7.590644e+05
  -7.745045e+03  -4.922495e+05
  -3.368323e+05  -3.745517e+05
  -1.102627e+04  -3.756366e+05
   9.748671e+05  -2.020589e+05
   1.766427e+06   2.994494e+05
   1.463436e+06   9.087873e+05
   9.261291e+04   1.209775e+06
  -1.302498e+06   9.651276e+05
  -1.633503e+06   3.261885e+05
  -8.278170e+05  -2.699136e+05
   1.643330e+05  -4.232081e+05
   4.210682e+05  -1.077639e+05
  -3.962094e+04   2.565883e+05
  -4.810217e+05   1.811655e+05
  -4.068921e+05  -3.322369e+05
  -5.081510e+04  -7.068469e+05
   7.423740e+04  -4.439653e+05
  -1.552485e+05   1.897754e+05
  -3.966261e+05   3.860977e+05
  -2.784019e+05  -2.067584e+05
   2.414254e+05  -9.525246e+05
   8.512836e+05  -9.259453e+05
   1.069625e+06  -2.946225e+04
   5.732054e+05   8.617852e+05
  -4.079023e+05   8.910846e+05
  -1.053450e+06   1.284490e+05
  -6.300347e+05  -6.008064e+05
   6.304326e+05  -6.119010e+05
   1.541583e+06   5.456696e+04
   1.115615e+06   8.036729e+05
  -3.349596e+05   1.042701e+06
  -1.462377e+06   6.152595e+05
  -1.287996e+06  -1.097777e+05
  -1.868474e+05  -5.245216e+05
   5.981469e+05  -3.061865e+05
   3.009687e+05   2.320387e+05
  -6.262322e+05   3.839889e+05
  -1.070341e+06  -2.296340e+05
  -4.366473e+05  -1.167850e+06
   7.691735e+05  -1.487652e+06
   1.483135e+06  -6.575276e+05
   1.129220e+06   8.118091e+05
   9.640624e+04   1.716249e+06
  -7.518886e+05   1.265235e+06
  -8.975538e+05  -1.068510e+05
  -4.620847e+05  -1.129414e+06
   1.209984e+05  -9.849570e+05
   4.973934e+05  -1.160069e+05
   5.145759e+05   4.014368e+05
   2.480686e+05   1.771822e+05
   1.268715e+04  -1.231333e+05
   1.110213e+05   2.041994e+05
   3.898925e+05   8.911924e+05
   2.607142e+05   1.054451e+06
  -5.465162e+05   3.797281e+05
  -1.388828e+06  -4.984448e+05
  -1.287968e+06  -8.450221e+05
  -1.638570e+05  -6.398038e+05
   9.178024e+05  -3.398710e+05
   9.730793e+05  -1.684315e+05
   2.569945e+05  -4.202037e+03
  -1.841822e+05   1.916401e+05
   7.142188e+04   2.611007e+05
   3.643536e+05   1.792324e+05
  -8.190641e+03   1.303236e+05
  -7.604653e+05   1.309717e+05
  -9.590122e+05  -9.623565e+04
  -1.900920e+05  -6.301380e+05
   9.547808e+05  -9.743565e+05
   1.531915e+06  -5.402001e+05
   1.136860e+06   5.285801e+05
   1.368470e+05   1.343987e+06
  -7.472864e+05   1.208507e+06
  -9.964885e+05   3.669914e+05
  -6.120362e+05  -3.196152e+05
  -5.437359e+04  -3.344275e+05
   1.681748e+05   2.304385e+04
  -4.462854e+04   9.776204e+04
  -3.223576e+05  -3.264681e+05
  -2.394574e+05  -7.705240e+05
   2.238888e+05  -5.967293e+05
   6.457768e+05   2.305726e+05
   5.625177e+05   9.983574e+05
  -7.439021e+04   9.435552e+05
  -7.755051e+05   7.361806e+04
  -8.803132e+05  -8.270878e+05
  -1.925887e+05  -1.021317e+06
   7.117164e+05  -5.076615e+05
   9.794127e+05   1.567957e+05
   4.050763e+05   5.154886e+05
  -2.863231e+05   5.142487e+05
  -2.777121e+05   3.067686e+05
   3.287621e+05   7.041045e+04
   6.331377e+05   1.688513e+04
   8.661667e+04   2.718628e+05
  -8.067395e+05   6.035695e+05
  -1.121843e+06   5.221528e+05
  -6.063272e+05  -1.160699e+05
   1.415833e+05  -7.635835e+05
   4.671016e+05  -7.346815e+05
   2.969784e+05  -6.331631e+04
  -3.353279e+04   4.867054e+05
  -2.608082e+05   3.358042e+05
  -3.178438e+05  -2.473619e+05
  -1.906024e+05  -5.540663e+05
   8.963966e+04  -3.097977e+05
   3.543392e+05   1.026909e+05
   4.015148e+05   2.210265e+05
   2.247751e+05   4.599756e+04
   1.592292e+04  -6.616388e+04
  -8.636973e+04   1.032512e+05
  -1.402224e+05   3.774529e+05
  -2.477466e+05   3.935873e+05
  -3.520779e+05   1.429271e+04
  -2.748942e+05  -4.766907e+05
   5.332808e+04  -6.121989e+05
   4.403520e+05  -2.207193e+05
   5.367176e+05   3.530581e+05
   1.539261e+05   5.811675e+05
  -4.647178e+05   3.006983e+05
  -7.599439e+05  -1.566111e+05
  -3.973496e+05  -3.787938e+05
   2.903180e+05  -2.876438e+05
   5.761152e+05  -9.425519e+04
   1.615125e+05   5.483719e+03
  -4.198369e+05  -3.841850e+04
  -4.062228e+05  -1.879966e+05
   2.604472e+05  -3.151860e+05
   8.417893e+05  -1.945998e+05
