
 $NMID
 id='ANONYMOUS ', fmtdat='(2E16.6)'
 volume=1.0
 tramp=1.0
 $END
   1.462149e+07   1.367735e+05
   9.856494e+06   5.975193e+06
   6.024375e+05   8.793734e+06
  -5.766391e+06   6.957672e+06
  -5.467337e+06   1.683671e+06
  -8.243508e+05  -2.593774e+06
   2.972007e+06  -2.035521e+06
   2.845232e+06   2.116305e+06
  -1.449111e+05   4.615205e+06
  -2.720029e+06   2.362550e+06
  -2.649908e+06  -1.980676e+06
  -4.203158e+05  -3.443313e+06
   1.609154e+06  -6.506325e+05
   1.460628e+06   3.002754e+06
  -6.722955e+05   3.556224e+06
  -2.578551e+06   5.865357e+05
  -2.139389e+06  -2.927670e+06
   4.792436e+05  -3.885461e+06
   2.880603e+06  -1.840420e+06
   2.920236e+06   1.005776e+06
   9.965601e+05   2.192330e+06
  -4.781130e+05   1.404829e+06
   1.241538e+05   4.897861e+05
   1.775216e+06   1.085313e+06
   1.962767e+06   2.640662e+06
  -4.218788e+05   3.177714e+06
  -3.642865e+06   1.708068e+06
  -4.706719e+06  -7.070824e+05
  -2.424428e+06  -2.209278e+06
   1.184966e+06  -1.860230e+06
   2.768730e+06  -1.443901e+05
   1.039712e+06   1.538284e+06
  -1.922632e+06   1.727324e+06
  -3.009512e+06   1.794310e+04
  -1.440675e+06  -2.205001e+06
   7.247211e+05  -2.747241e+06
   1.280892e+06  -9.786670e+05
   2.633727e+05   1.149809e+06
  -6.619217e+05   1.206555e+06
  -4.331629e+05  -7.821535e+05
   5.235478e+05  -2.326288e+06
   1.244066e+06  -1.523660e+06
   1.194404e+06   6.828266e+05
   3.615967e+05   1.768377e+06
  -7.743022e+05   6.183196e+05
  -1.182007e+06  -1.382663e+06
  -1.537378e+04  -2.077887e+06
   2.096539e+06  -7.738980e+05
   3.111143e+06   1.319483e+06
   1.655091e+06   2.438435e+06
  -1.185443e+06   1.823677e+06
  -2.822250e+06   1.861525e+05
  -1.919913e+06  -1.071678e+06
   3.066778e+05  -1.088511e+06
   1.603047e+06  -1.801224e+05
   1.019469e+06   6.082940e+05
  -4.261328e+05   5.307422e+05
  -1.068574e+06  -2.358128e+05
  -3.053782e+05  -8.657480e+05
   8.880308e+05  -6.947545e+05
   1.028074e+06   1.608028e+05
  -2.141281e+05   8.569426e+05
  -1.481158e+06   5.408589e+05
  -1.128286e+06  -7.836305e+05
   8.536276e+05  -2.050656e+06
   2.705239e+06  -1.984811e+06
   2.835386e+06  -3.478840e+05
   1.484576e+06   1.716455e+06
   1.510892e+05   2.742876e+06
  -2.651307e+05   2.348178e+06
  -2.138823e+05   1.433824e+06
  -5.347856e+05   9.847110e+05
  -1.340026e+06   9.184753e+05
  -2.008438e+06   3.773248e+05
  -1.895174e+06  -9.260181e+05
  -8.525447e+05  -2.042144e+06
   6.396533e+05  -1.741151e+06
   1.637100e+06  -1.696908e+04
   1.323518e+06   1.690376e+06
  -1.810631e+05   1.900689e+06
  -1.691526e+06   5.535023e+05
  -1.976204e+06  -1.070203e+06
  -9.680191e+05  -1.735992e+06
   2.417411e+05  -1.346357e+06
   6.652609e+05  -7.092096e+05
   4.681810e+05  -5.178742e+05
   6.114694e+05  -7.084101e+05
   1.546621e+06  -6.714903e+05
   2.490892e+06   8.033673e+04
   2.163573e+06   1.396995e+06
   2.608352e+05   2.483893e+06
  -1.950439e+06   2.456968e+06
  -2.722769e+06   1.133577e+06
  -1.569710e+06  -6.279800e+05
   2.348200e+05  -1.537349e+06
   9.997063e+05  -1.029018e+06
   3.102871e+05   1.704780e+05
  -7.749993e+05   7.630069e+05
  -1.050460e+06   2.269497e+05
  -3.723207e+05  -6.545558e+05
   4.369531e+05  -7.241092e+05
   5.458251e+05   1.564743e+05
  -1.689703e+05   8.585925e+05
  -1.089717e+06   2.598632e+05
  -1.311677e+06  -1.365526e+06
  -3.325228e+05  -2.478295e+06
   1.381167e+06  -1.866241e+06
   2.560630e+06   6.308243e+04
   2.201607e+06   1.717137e+06
   5.993722e+05   1.937143e+06
  -8.603561e+05   1.004727e+06
  -1.079201e+06   9.358612e+04
  -3.110602e+05  -1.609006e+04
   2.570495e+05   4.465892e+05
  -1.175515e+05   7.247308e+05
  -9.549821e+05   3.882761e+05
  -1.175845e+06  -2.997254e+05
  -3.761298e+05  -7.075640e+05
   6.513390e+05  -4.535344e+05
   7.328741e+05   2.181510e+05
  -3.701990e+05   6.177504e+05
  -1.578999e+06   2.306292e+05
  -1.558814e+06  -7.489639e+05
  -1.481234e+05  -1.510057e+06
   1.418477e+06  -1.342624e+06
   1.771870e+06  -3.355228e+05
   7.729905e+05   6.547155e+05
  -4.642227e+05   8.005283e+05
  -7.816112e+05   1.126979e+05
  -4.959247e+04  -5.732843e+05
   8.866398e+05  -4.677151e+05
   1.109563e+06   3.383680e+05
   4.371349e+05   9.876054e+05
  -4.921912e+05   8.128878e+05
  -8.337498e+05   6.620202e+04
  -3.344758e+05  -3.972532e+05
   3.890855e+05  -8.754977e+04
   4.463087e+05   6.075253e+05
  -3.636336e+05   8.786777e+05
  -1.259567e+06   3.387269e+05
  -1.273567e+06  -6.285753e+05
  -3.004998e+05  -1.255918e+06
   7.810884e+05  -1.065657e+06
   1.039799e+06  -2.549451e+05
   4.130271e+05   4.835880e+05
  -3.424173e+05   5.699588e+05
  -4.965968e+05   6.736176e+04
  -3.757629e+04  -4.037835e+05
   4.315065e+05  -3.461788e+05
   3.764377e+05   6.304492e+04
  -1.130245e+05   2.090940e+05
  -4.205487e+05  -1.909528e+05
  -5.591261e+04  -7.047996e+05
   7.789711e+05  -6.461503e+05
   1.317568e+06   1.616355e+05
   9.733499e+05   1.162403e+06
  -5.842012e+04   1.574308e+06
  -9.880300e+05   1.082999e+06
  -1.201882e+06   9.204652e+04
  -7.884208e+05  -6.493409e+05
  -3.113469e+05  -7.077902e+05
  -1.616236e+05  -3.277423e+05
  -2.060670e+05  -1.197975e+05
  -4.517607e+04  -3.534522e+05
   4.565539e+05  -6.301338e+05
   9.353131e+05  -3.646999e+05
   8.375876e+05   4.454757e+05
  -1.352326e+02   1.090328e+06
  -1.063339e+06   8.594077e+05
  -1.506526e+06  -1.910590e+05
  -8.846044e+05  -1.252614e+06
   4.098574e+05  -1.510121e+06
   1.453838e+06  -8.395421e+05
   1.576509e+06   1.684258e+05
   8.798184e+05   7.915153e+05
   4.030649e+04   7.925713e+05
  -3.540312e+05   5.275562e+05
  -2.788788e+05   4.770186e+05
  -1.598888e+05   6.857758e+05
  -3.498576e+05   7.176168e+05
  -7.332448e+05   1.982612e+05
  -8.459402e+05  -6.631903e+05
  -3.920925e+05  -1.197686e+06
   3.737604e+05  -9.342215e+05
   8.309617e+05  -7.286273e+04
   5.957535e+05   7.109725e+05
  -8.272075e+04   8.770823e+05
  -5.732468e+05   4.286038e+05
  -5.032619e+05  -1.957162e+05
  -1.005901e+05  -5.506867e+05
   1.193073e+05  -5.259602e+05
  -4.409020e+04  -3.397235e+05
  -2.521877e+05  -2.454948e+05
  -2.733221e+04  -2.610413e+05
   6.526820e+05  -1.899188e+05
   1.221861e+06   1.126543e+05
   1.052641e+06   5.402850e+05
   1.337052e+05   8.123484e+05
  -8.351567e+05   7.227730e+05
  -1.096824e+06   3.176286e+05
  -5.776594e+05  -1.242995e+05
   8.979028e+04  -2.897706e+05
   2.759581e+05  -9.976745e+04
  -2.397753e+04   1.740221e+05
  -3.277053e+05   1.518875e+05
  -2.968299e+05  -2.083516e+05
  -6.571832e+04  -4.950424e+05
   3.584168e+04  -3.181514e+05
  -9.205818e+04   1.469418e+05
  -2.528095e+05   3.024521e+05
  -2.040937e+05  -1.242885e+05
   1.163760e+05  -6.765978e+05
   5.368827e+05  -6.820446e+05
   7.289347e+05  -6.254668e+04
   4.304377e+05   5.723961e+05
  -2.401652e+05   6.267918e+05
  -7.199031e+05   1.305970e+05
  -4.677893e+05  -3.842636e+05
   3.967386e+05  -4.558452e+05
   1.064973e+06  -5.586100e+04
   8.238528e+05   4.791801e+05
  -1.570632e+05   7.371461e+05
  -9.652302e+05   5.205159e+05
  -8.967684e+05   9.841301e+03
  -1.647156e+05  -3.494413e+05
   3.904072e+05  -2.477276e+05
   2.143992e+05   1.429599e+05
  -4.195052e+05   2.978583e+05
  -7.557207e+05  -1.084104e+05
  -3.586160e+05  -7.930205e+05
   4.637373e+05  -1.072776e+06
   9.982588e+05  -5.314439e+05
   8.259384e+05   5.030857e+05
   1.605999e+05   1.182763e+06
  -4.456113e+05   9.199507e+05
  -6.221972e+05  -1.669449e+04
  -3.869495e+05  -7.480106e+05
   1.705099e+04  -6.846580e+05
   3.315453e+05  -1.090782e+05
   3.846933e+05   2.453128e+05
   1.896666e+05   1.054257e+05
  -2.319400e+03  -8.572263e+04
   7.424547e+04   1.380578e+05
   3.127590e+05   5.948592e+05
   2.474454e+05   7.086374e+05
  -3.457440e+05   2.860918e+05
  -9.879149e+05  -2.671107e+05
  -9.435464e+05  -5.064570e+05
  -1.478699e+05  -4.302856e+05
   6.226646e+05  -2.896343e+05
   6.631768e+05  -1.743253e+05
   1.680923e+05  -1.643612e+04
  -1.200700e+05   1.438239e+05
   7.494953e+04   1.739015e+05
   2.738892e+05   1.016108e+05
  -1.470658e+03   9.374505e+04
  -5.302417e+05   1.358573e+05
  -6.688549e+05  -1.837495e+04
  -1.513482e+05  -4.341385e+05
   6.199447e+05  -7.260312e+05
   1.028975e+06  -4.442033e+05
   8.072330e+05   3.180913e+05
   1.643179e+05   9.257182e+05
  -4.517696e+05   8.703249e+05
  -6.736341e+05   3.009309e+05
  -4.452860e+05  -1.918912e+05
  -5.167435e+04  -2.311337e+05
   1.290236e+05   5.844997e+03
  -1.804973e+04   7.345915e+04
  -2.420856e+05  -2.024767e+05
  -2.100810e+05  -5.168288e+05
   1.261839e+05  -4.240296e+05
   4.651114e+05   1.293134e+05
   4.415974e+05   6.700134e+05
  -1.132234e+04   6.630182e+05
  -5.438890e+05   8.824425e+04
  -6.559720e+05  -5.347917e+05
  -1.815203e+05  -6.999176e+05
   4.715184e+05  -3.837419e+05
   6.833563e+05   6.222328e+04
   2.980968e+05   3.332246e+05
  -1.762904e+05   3.628488e+05
  -1.705376e+05   2.195163e+05
   2.406826e+05   2.799732e+04
   4.415287e+05  -2.230668e+04
   7.053434e+04   1.840527e+05
  -5.248719e+05   4.610416e+05
  -7.369374e+05   4.207133e+05
  -4.131215e+05  -4.848147e+04
   6.059534e+04  -5.330231e+05
   2.801319e+05  -5.242286e+05
   1.990923e+05  -4.800078e+04
   1.185189e+03   3.445934e+05
  -1.673312e+05   2.431361e+05
  -2.387597e+05  -1.604547e+05
  -1.602136e+05  -3.741933e+05
   5.249931e+04  -2.144254e+05
   2.526106e+05   5.547328e+04
   2.831056e+05   1.290114e+05
   1.542920e+05   1.587797e+04
   1.522218e+04  -4.423445e+04
  -4.511532e+04   8.658983e+04
  -8.266863e+04   2.804433e+05
  -1.698041e+05   2.889986e+05
  -2.571562e+05   1.986023e+04
  -2.130745e+05  -3.305761e+05
   1.556556e+04  -4.372350e+05
   2.991286e+05  -1.753790e+05
   3.890873e+05   2.241806e+05
   1.358703e+05   3.994673e+05
  -3.044603e+05   2.297164e+05
  -5.324621e+05  -7.477333e+04
  -2.928891e+05  -2.430078e+05
   1.899853e+05  -2.092067e+05
   3.969970e+05  -8.774491e+04
   1.076767e+05   8.640003e+02
  -3.043662e+05  -3.698024e+03
  -3.001108e+05  -1.137793e+05
   1.658526e+05  -2.412724e+05
   5.822164e+05  -1.868638e+05
