
 $NMID
 id='ANONYMOUS ', fmtdat='(2E16.6)'
 volume=1.0
 tramp=1.0
 $END
  -4.323757e+07  -7.763507e+05
  -2.659538e+07  -2.502234e+07
   4.241994e+06  -2.856455e+07
   2.057449e+07  -1.332379e+07
   1.369896e+07   3.109923e+06
  -1.432205e+06   7.375163e+06
  -8.011131e+06   6.334180e+05
  -3.599756e+06  -7.382587e+06
   3.961400e+06  -8.803904e+06
   7.725283e+06  -2.750360e+06
   5.880016e+06   5.175110e+06
   5.908189e+05   7.513682e+06
  -3.509783e+06   1.975731e+06
  -2.407567e+06  -5.423712e+06
   2.882392e+06  -6.359114e+06
   6.488274e+06   4.786126e+05
   3.989004e+06   8.165616e+06
  -2.739105e+06   9.652500e+06
  -8.041279e+06   4.622015e+06
  -8.326315e+06  -2.055824e+06
  -4.454217e+06  -5.955479e+06
  -1.491653e+04  -5.989764e+06
   1.584985e+06  -3.893679e+06
  -1.601837e+05  -2.498288e+06
  -1.891526e+06  -3.311175e+06
   3.631674e+05  -4.699606e+06
   5.874265e+06  -3.561312e+06
   8.966455e+06   5.002120e+05
   5.714599e+06   4.123125e+06
  -8.139054e+05   4.196308e+06
  -4.160318e+06   1.419739e+06
  -2.076895e+06  -1.170073e+06
   1.873772e+06  -1.667437e+06
   3.514401e+06  -9.340718e+04
   2.172570e+06   2.528773e+06
  -2.985235e+05   4.223593e+06
  -2.020447e+06   2.865199e+06
  -1.979431e+06  -8.931975e+05
  -4.464492e+05  -2.921484e+06
   6.921282e+05  -5.155526e+05
  -3.367841e+05   3.079910e+06
  -2.427270e+06   2.373276e+06
  -2.263062e+06  -2.415299e+06
   1.222404e+06  -4.883255e+06
   4.620033e+06  -1.034308e+06
   3.772320e+06   5.062283e+06
  -1.183494e+06   6.462690e+06
  -5.864505e+06   1.863468e+06
  -6.228852e+06  -3.716290e+06
  -2.142005e+06  -5.380928e+06
   2.992532e+06  -2.840977e+06
   5.132446e+06   9.168902e+05
   2.755528e+06   2.926533e+06
  -1.684158e+06   2.063596e+06
  -3.810802e+06  -4.857417e+05
  -1.850485e+06  -2.078574e+06
   1.332731e+06  -1.162306e+06
   1.779372e+06   8.326105e+05
  -5.966724e+05   1.199092e+06
  -2.148234e+06  -5.495964e+05
  -4.148112e+05  -2.186231e+06
   2.877676e+06  -1.747528e+06
   4.199474e+06   4.554275e+05
   2.138419e+06   2.937863e+06
  -1.781064e+06   4.495496e+06
  -4.989327e+06   4.090104e+06
  -5.670849e+06   1.100230e+06
  -3.632804e+06  -3.158783e+06
  -4.998234e+05  -5.582821e+06
   1.409216e+06  -4.475116e+06
   1.275516e+06  -1.756907e+06
   5.651946e+05  -5.381137e+05
   1.028540e+06  -1.138931e+06
   2.414973e+06  -1.174000e+06
   2.947487e+06   6.595530e+05
   1.663509e+06   2.663658e+06
  -5.663580e+05   2.473069e+06
  -2.101208e+06   2.255403e+04
  -1.834794e+06  -2.529115e+06
   2.490219e+05  -3.082493e+06
   2.871822e+06  -1.260986e+06
   3.969276e+06   1.586357e+06
   2.476409e+06   3.497223e+06
  -2.652874e+05   3.418625e+06
  -1.838188e+06   2.063327e+06
  -1.667768e+06   1.021991e+06
  -1.560352e+06   8.838191e+05
  -2.889344e+06   6.762814e+05
  -4.351948e+06  -6.563725e+05
  -3.527253e+06  -2.768965e+06
  -1.102574e+05  -4.239214e+06
   3.450535e+06  -3.946293e+06
   4.492567e+06  -1.891908e+06
   2.652422e+06   8.013960e+05
  -1.085391e+05   2.407066e+06
  -1.434294e+06   1.814419e+06
  -5.431814e+05  -1.635152e+05
   1.248417e+06  -1.272053e+06
   1.895128e+06  -3.346275e+05
   7.710608e+05   1.202834e+06
  -6.665560e+05   1.151053e+06
  -6.388106e+05  -3.796977e+05
   8.073536e+05  -1.027854e+06
   1.909194e+06   6.342987e+05
   1.254169e+06   3.130124e+06
  -8.536544e+05   3.836907e+06
  -2.977607e+06   1.925943e+06
  -3.805389e+06  -1.063348e+06
  -2.822368e+06  -3.016336e+06
  -5.730582e+05  -2.979799e+06
   1.418415e+06  -1.533268e+06
   1.715812e+06  -1.324752e+05
   5.148539e+05   5.853284e+04
  -3.687254e+05  -7.833955e+05
   3.745489e+05  -1.309685e+06
   1.842100e+06  -5.637605e+05
   2.034559e+06   8.158179e+05
   4.553849e+05   1.374117e+06
  -1.193086e+06   6.233164e+05
  -1.039445e+06  -4.760753e+05
   8.136410e+05  -7.283917e+05
   2.446278e+06   1.309591e+05
   2.104611e+06   1.449030e+06
  -1.432440e+05   2.265125e+06
  -2.478323e+06   1.853027e+06
  -2.941843e+06   2.882902e+05
  -1.237408e+06  -1.271743e+06
   9.290814e+05  -1.439135e+06
   1.495854e+06  -1.461966e+05
   1.202918e+05   1.056117e+06
  -1.567788e+06   7.174616e+05
  -1.797053e+06  -7.801700e+05
  -4.491874e+05  -1.721659e+06
   1.058369e+06  -1.132117e+06
   1.351902e+06   1.948203e+05
   3.593679e+05   7.737497e+05
  -7.599230e+05   7.055692e+04
  -7.197792e+05  -1.091404e+06
   6.594914e+05  -1.454228e+06
   2.119439e+06  -4.854540e+05
   2.084906e+06   1.157041e+06
   3.635807e+05   2.155629e+06
  -1.487086e+06   1.692844e+06
  -1.791204e+06   2.403209e+05
  -5.634873e+05  -8.918421e+05
   6.754226e+05  -8.644952e+05
   7.357936e+05  -6.103919e+04
  -7.307230e+04   5.045280e+05
  -6.242013e+05   3.398424e+05
  -3.338402e+05  -1.110473e+05
   3.663714e+05  -9.451543e+04
   5.980170e+05   5.685134e+05
  -1.309049e+05   1.217739e+06
  -1.424940e+06   9.455271e+05
  -2.173956e+06  -4.483729e+05
  -1.495349e+06  -2.053652e+06
   2.727266e+05  -2.565684e+06
   1.740693e+06  -1.551139e+06
   1.872313e+06   8.982741e+04
   1.029428e+06   1.050264e+06
   3.624254e+05   9.116459e+05
   3.792988e+05   3.716549e+05
   5.167870e+05   2.851161e+05
   6.509184e+04   7.132337e+05
  -8.915659e+05   9.584312e+05
  -1.556918e+06   3.914237e+05
  -1.193360e+06  -8.049359e+05
   2.233670e+05  -1.648613e+06
   1.844055e+06  -1.182930e+06
   2.404758e+06   5.238530e+05
   1.226173e+06   2.206836e+06
  -9.953907e+05   2.465685e+06
  -2.613071e+06   1.120582e+06
  -2.518658e+06  -6.190480e+05
  -1.144273e+06  -1.423475e+06
   1.492098e+05  -1.131197e+06
   5.187881e+05  -6.543893e+05
   2.724162e+05  -7.703690e+05
   2.164080e+05  -1.260996e+06
   6.956207e+05  -1.261580e+06
   1.309561e+06  -2.862876e+05
   1.360815e+06   1.171940e+06
   5.361890e+05   2.010969e+06
  -6.973532e+05   1.501039e+06
  -1.365460e+06  -3.304537e+03
  -8.644932e+05  -1.313884e+06
   3.506472e+05  -1.455747e+06
   1.134808e+06  -5.098866e+05
   8.332532e+05   5.923702e+05
  -3.886978e+04   1.045457e+06
  -4.431795e+05   8.359597e+05
  -4.326831e+04   4.929281e+05
   4.236328e+05   3.907150e+05
   3.899245e+04   4.165499e+05
  -1.165814e+06   2.193117e+05
  -2.099567e+06  -3.570803e+05
  -1.683317e+06  -1.073542e+06
  -1.905235e+04  -1.448339e+06
   1.594205e+06  -1.145979e+06
   1.899002e+06  -3.210019e+05
   9.026545e+05   4.248289e+05
  -2.393289e+05   5.433359e+05
  -5.106145e+05   7.253472e+04
   7.630173e+03  -3.763885e+05
   5.064485e+05  -2.426898e+05
   4.871912e+05   3.713326e+05
   1.707055e+05   7.872763e+05
   1.532807e+04   5.097858e+05
   1.574800e+05  -1.529734e+05
   3.644962e+05  -3.703205e+05
   3.016092e+05   2.413341e+05
  -2.086643e+05   1.063084e+06
  -9.633283e+05   1.090757e+06
  -1.342080e+06   1.078501e+05
  -7.857205e+05  -9.802319e+05
   4.573523e+05  -1.117399e+06
   1.275478e+06  -2.555153e+05
   7.489687e+05   6.439143e+05
  -7.328790e+05   6.872139e+05
  -1.711046e+06  -8.805333e+04
  -1.151936e+06  -9.128462e+05
   4.542660e+05  -1.103767e+06
   1.617411e+06  -5.881966e+05
   1.372984e+06   1.691428e+05
   1.723074e+05   5.662035e+05
  -6.836473e+05   3.101975e+05
  -3.761445e+05  -2.928287e+05
   6.636908e+05  -5.018373e+05
   1.239972e+06   1.662036e+05
   6.158066e+05   1.289936e+06
  -7.392616e+05   1.757895e+06
  -1.626851e+06   8.542517e+05
  -1.310640e+06  -8.583300e+05
  -1.656089e+05  -1.923278e+06
   8.171013e+05  -1.399028e+06
   9.954513e+05   1.612265e+05
   4.823634e+05   1.271769e+06
  -1.938841e+05   1.063384e+06
  -5.821921e+05   1.045780e+05
  -5.320088e+05  -4.235877e+05
  -2.195991e+05  -1.675247e+05
  -3.549336e+04   1.164854e+05
  -2.224455e+05  -2.832900e+05
  -4.960296e+05  -1.022924e+06
  -2.389645e+05  -1.164895e+06
   7.015630e+05  -4.188226e+05
   1.569417e+06   5.280837e+05
   1.399764e+06   9.196109e+05
   1.893661e+05   7.357616e+05
  -9.639939e+05   4.205671e+05
  -1.069624e+06   1.904134e+05
  -3.441414e+05  -3.429502e+04
   1.778294e+05  -2.311555e+05
  -1.136570e+04  -2.472167e+05
  -3.364641e+05  -1.401826e+05
  -2.806950e+04  -1.453734e+05
   7.696648e+05  -2.110227e+05
   1.103994e+06   5.409784e+04
   3.600021e+05   7.329284e+05
  -9.749663e+05   1.194621e+06
  -1.784030e+06   7.223242e+05
  -1.417842e+06  -5.215317e+05
  -2.355098e+05  -1.509183e+06
   8.328145e+05  -1.424470e+06
   1.125308e+06  -5.085958e+05
   6.972070e+05   2.936466e+05
   1.098367e+05   3.820764e+05
  -1.220768e+05   3.496129e+04
   7.059005e+04  -5.316759e+04
   3.359162e+05   3.826480e+05
   2.643230e+05   8.650831e+05
  -2.173732e+05   7.051713e+05
  -7.294157e+05  -1.807511e+05
  -7.294017e+05  -1.061560e+06
  -4.166493e+04  -1.090333e+06
   8.340547e+05  -1.954376e+05
   1.063389e+06   8.344561e+05
   3.110662e+05   1.161443e+06
  -7.803061e+05   6.653387e+05
  -1.161030e+06  -1.199124e+05
  -5.227512e+05  -6.289167e+05
   3.163002e+05  -6.688230e+05
   3.715725e+05  -3.723385e+05
  -3.053138e+05  -3.432087e+04
  -7.018205e+05   1.825119e+04
  -1.333496e+05  -3.216122e+05
   8.934228e+05  -7.064963e+05
   1.314487e+06  -5.766615e+05
   7.630468e+05   1.713521e+05
  -1.268791e+05   9.031902e+05
  -5.688768e+05   8.791308e+05
  -4.117955e+05   1.319567e+05
  -2.189475e+04  -5.268225e+05
   2.718409e+05  -4.328747e+05
   3.711619e+05   2.028528e+05
   2.494910e+05   6.204223e+05
  -7.539117e+04   4.171831e+05
  -4.117008e+05  -7.360563e+04
  -4.857222e+05  -2.826410e+05
  -2.555711e+05  -8.460826e+04
   1.475273e+04   1.297379e+05
   8.852266e+04  -1.351998e+04
   4.949825e+04  -3.978837e+05
   1.393631e+05  -5.384085e+05
   3.651450e+05  -1.543800e+05
   4.253529e+05   4.568025e+05
   8.351883e+04   6.948675e+05
  -4.595381e+05   3.045507e+05
  -6.724582e+05  -3.370149e+05
  -2.355617e+05  -6.294587e+05
   5.363724e+05  -3.704104e+05
   9.123619e+05   1.179138e+05
   4.881176e+05   4.132922e+05
  -3.207089e+05   3.897700e+05
  -6.727625e+05   1.925302e+05
  -2.370653e+05   8.462305e+03
   4.086642e+05  -3.266604e+04
   4.454957e+05   1.195823e+05
  -2.197309e+05   3.283873e+05
  -8.500960e+05   2.662975e+05
