
 $NMID
 id='ANONYMOUS ', fmtdat='(2E16.6)'
 volume=1.0
 tramp=1.0
 $END
   2.622665e+07   2.994875e+05
   1.749753e+07   1.201322e+07
   1.715972e+05   1.639238e+07
  -1.116155e+07   1.139236e+07
  -9.662917e+06   1.597474e+06
  -8.285067e+05  -4.729415e+06
   5.377331e+06  -2.730881e+06
   4.340470e+06   4.139662e+06
  -1.005419e+06   7.587859e+06
  -4.963716e+06   3.523521e+06
  -4.404476e+06  -3.500865e+06
  -5.587690e+05  -5.751204e+06
   2.674392e+06  -1.134456e+06
   2.186549e+06   4.872165e+06
  -1.491205e+06   5.715566e+06
  -4.508191e+06   6.475570e+05
  -3.433122e+06  -5.244692e+06
   1.137875e+06  -6.706689e+06
   5.112239e+06  -3.150199e+06
   5.154863e+06   1.658947e+06
   2.021140e+06   3.791883e+06
  -5.572062e+05   2.775886e+06
  -1.867881e+04   1.349792e+06
   2.315076e+06   1.998185e+06
   2.720058e+06   4.118605e+06
  -7.657754e+05   4.888116e+06
  -5.767183e+06   2.652296e+06
  -7.562980e+06  -1.167293e+06
  -4.025074e+06  -3.607579e+06
   1.720281e+06  -3.027844e+06
   4.261077e+06  -2.895104e+05
   1.585273e+06   2.229795e+06
  -2.928807e+06   2.398626e+06
  -4.500453e+06  -1.401268e+05
  -2.104337e+06  -3.359779e+06
   1.121601e+06  -4.216713e+06
   2.003105e+06  -1.691875e+06
   5.881199e+05   1.604176e+06
  -8.085338e+05   1.975175e+06
  -5.843339e+05  -9.523825e+05
   8.638297e+05  -3.499712e+06
   2.093553e+06  -2.336620e+06
   1.944496e+06   1.331515e+06
   2.571805e+05   3.189328e+06
  -1.801238e+06   1.055121e+06
  -2.198104e+06  -2.630640e+06
   1.651657e+05  -3.819254e+06
   3.717162e+06  -1.306515e+06
   5.078960e+06   2.433158e+06
   2.450358e+06   4.159557e+06
  -2.124530e+06   2.829340e+06
  -4.575427e+06  -1.596271e+04
  -2.949925e+06  -1.977543e+06
   7.162036e+05  -1.785574e+06
   2.753220e+06  -1.238355e+05
   1.644334e+06   1.174763e+06
  -7.889641e+05   8.862324e+05
  -1.691157e+06  -4.906235e+05
  -2.536953e+05  -1.375950e+06
   1.599384e+06  -7.979684e+05
   1.464750e+06   6.592027e+05
  -7.823706e+05   1.480955e+06
  -2.694279e+06   6.234759e+05
  -1.845378e+06  -1.547577e+06
   1.458648e+06  -3.392216e+06
   4.409364e+06  -3.164203e+06
   4.630783e+06  -5.462768e+05
   2.472844e+06   2.783828e+06
   1.966774e+05   4.496159e+06
  -6.602556e+05   3.821500e+06
  -5.724843e+05   2.180710e+06
  -8.694193e+05   1.338227e+06
  -1.968365e+06   1.287360e+06
  -3.014027e+06   5.686578e+05
  -2.887456e+06  -1.403595e+06
  -1.273804e+06  -3.129238e+06
   1.015603e+06  -2.633059e+06
   2.480879e+06   6.530290e+04
   1.945619e+06   2.689517e+06
  -3.611251e+05   2.976636e+06
  -2.691211e+06   8.594006e+05
  -3.179575e+06  -1.718455e+06
  -1.617741e+06  -2.853213e+06
   3.767441e+05  -2.305678e+06
   1.172115e+06  -1.262240e+06
   9.034281e+05  -8.539449e+05
   1.095590e+06  -1.061165e+06
   2.537101e+06  -9.307665e+05
   3.979910e+06   3.135263e+05
   3.357704e+06   2.373847e+06
   2.549389e+05   3.959862e+06
  -3.222539e+06   3.777401e+06
  -4.339264e+06   1.672080e+06
  -2.448847e+06  -1.016460e+06
   3.947271e+05  -2.381541e+06
   1.580107e+06  -1.590414e+06
   4.825322e+05   2.613435e+05
  -1.248835e+06   1.169766e+06
  -1.693126e+06   3.109068e+05
  -5.884043e+05  -1.062531e+06
   7.120905e+05  -1.112816e+06
   8.136050e+05   2.991840e+05
  -4.043606e+05   1.298583e+06
  -1.782500e+06   1.892042e+05
  -1.886137e+06  -2.384993e+06
  -1.754029e+05  -3.925050e+06
   2.412166e+06  -2.713122e+06
   3.995268e+06   3.835956e+05
   3.266916e+06   2.858935e+06
   7.843537e+05   3.056780e+06
  -1.403368e+06   1.525501e+06
  -1.694722e+06   9.505501e+04
  -4.908644e+05  -4.399815e+04
   3.779748e+05   7.244660e+05
  -2.429041e+05   1.161805e+06
  -1.568461e+06   5.665110e+05
  -1.866190e+06  -5.734022e+05
  -5.414065e+05  -1.170873e+06
   1.069810e+06  -6.693449e+05
   1.120830e+06   4.006468e+05
  -6.539205e+05   9.158002e+05
  -2.489202e+06   2.044805e+05
  -2.353551e+06  -1.299087e+06
  -9.591554e+04  -2.361513e+06
   2.328632e+06  -1.998802e+06
   2.818715e+06  -4.085928e+05
   1.189880e+06   1.098169e+06
  -7.892665e+05   1.266428e+06
  -1.272023e+06   1.440892e+05
  -6.331000e+04  -9.224244e+05
   1.436673e+06  -6.930151e+05
   1.735597e+06   6.192610e+05
   6.039565e+05   1.599550e+06
  -8.586272e+05   1.233050e+06
  -1.322758e+06   1.690537e+04
  -4.816692e+05  -6.663927e+05
   6.390278e+05  -1.124405e+05
   6.770197e+05   9.923313e+05
  -6.211582e+05   1.371703e+06
  -2.009120e+06   4.682587e+05
  -1.981089e+06  -1.066346e+06
  -3.999455e+05  -2.010512e+06
   1.312165e+06  -1.641287e+06
   1.668130e+06  -3.294104e+05
   6.134151e+05   7.992967e+05
  -5.851062e+05   8.742362e+05
  -7.730644e+05   7.346935e+04
  -1.361414e+04  -6.154765e+05
   6.882881e+05  -4.852522e+05
   5.428961e+05   1.266190e+05
  -2.256881e+05   2.890209e+05
  -6.471813e+05  -3.646410e+05
  -2.227420e+04  -1.129914e+06
   1.283012e+06  -9.692351e+05
   2.075594e+06   3.420826e+05
   1.469771e+06   1.900401e+06
  -1.905850e+05   2.479120e+06
  -1.630153e+06   1.628475e+06
  -1.887742e+06   4.921459e+04
  -1.168663e+06  -1.062894e+06
  -4.264631e+05  -1.091294e+06
  -2.537387e+05  -4.916356e+05
  -3.520030e+05  -2.064785e+05
  -5.872268e+04  -5.811303e+05
   7.726076e+05  -9.645978e+05
   1.499368e+06  -4.997875e+05
   1.271892e+06   7.563815e+05
  -8.958706e+04   1.700938e+06
  -1.735938e+06   1.272313e+06
  -2.359571e+06  -4.038099e+05
  -1.305654e+06  -2.043538e+06
   7.653798e+05  -2.368454e+06
   2.372049e+06  -1.223199e+06
   2.474820e+06   3.932012e+05
   1.305019e+06   1.315228e+06
  -1.256961e+04   1.228579e+06
  -5.770798e+05   7.779594e+05
  -4.294317e+05   7.306977e+05
  -2.694243e+05   1.093844e+06
  -5.995311e+05   1.132661e+06
  -1.182124e+06   2.772393e+05
  -1.301243e+06  -1.095889e+06
  -5.487966e+05  -1.913971e+06
   6.442424e+05  -1.452061e+06
   1.315868e+06  -5.806826e+04
   8.930314e+05   1.173675e+06
  -2.037314e+05   1.387223e+06
  -9.600194e+05   6.240326e+05
  -7.940928e+05  -3.750719e+05
  -1.050764e+05  -9.018526e+05
   2.529385e+05  -8.265837e+05
  -3.322492e+04  -5.298500e+05
  -3.876941e+05  -3.951804e+05
  -3.034287e+04  -4.104910e+05
   1.054863e+06  -2.583898e+05
   1.940506e+06   2.561997e+05
   1.632726e+06   9.292055e+05
   1.454698e+05   1.310738e+06
  -1.385124e+06   1.102342e+06
  -1.763919e+06   4.222267e+05
  -9.038331e+05  -2.592037e+05
   1.671011e+05  -4.667218e+05
   4.515255e+05  -1.317812e+05
  -3.696442e+04   2.871229e+05
  -5.175503e+05   2.228563e+05
  -4.593428e+05  -3.458372e+05
  -9.167123e+04  -7.760729e+05
   5.827954e+04  -4.948751e+05
  -1.553504e+05   2.128988e+05
  -4.070507e+05   4.425144e+05
  -3.116933e+05  -2.120348e+05
   2.172217e+05  -1.053102e+06
   8.898260e+05  -1.048541e+06
   1.174752e+06  -7.239109e+04
   6.674613e+05   9.242674e+05
  -4.130818e+05   9.934137e+05
  -1.153596e+06   1.843220e+05
  -7.171953e+05  -6.282237e+05
   6.601683e+05  -6.930659e+05
   1.679126e+06  -1.045801e+04
   1.247173e+06   8.180558e+05
  -3.156616e+05   1.142688e+06
  -1.556827e+06   7.343076e+05
  -1.402095e+06  -5.771988e+04
  -2.275458e+05  -5.594024e+05
   6.358377e+05  -3.583761e+05
   3.373047e+05   2.433661e+05
  -6.689613e+05   4.520853e+05
  -1.184786e+06  -2.016533e+05
  -5.343429e+05  -1.261448e+06
   7.732726e+05  -1.667836e+06
   1.593607e+06  -7.900478e+05
   1.272232e+06   8.349692e+05
   1.845317e+05   1.869591e+06
  -7.596244e+05   1.413501e+06
  -9.791070e+05  -7.655264e+04
  -5.526916e+05  -1.207059e+06
   8.636562e+04  -1.072701e+06
   5.356290e+05  -1.461183e+05
   5.791432e+05   4.097977e+05
   2.785326e+05   1.763567e+05
   7.423892e+03  -1.323188e+05
   1.295727e+05   2.267888e+05
   4.652400e+05   9.586097e+05
   3.309368e+05   1.132359e+06
  -5.809225e+05   4.313747e+05
  -1.538214e+06  -4.802264e+05
  -1.441734e+06  -8.581495e+05
  -2.062019e+05  -6.906706e+05
   9.851553e+05  -4.179469e+05
   1.051830e+06  -2.290535e+05
   2.788313e+05  -1.057853e+04
  -1.922383e+05   2.197870e+05
   9.056133e+04   2.743779e+05
   4.070791e+05   1.712101e+05
  -1.598820e+03   1.451539e+05
  -8.244266e+05   1.855588e+05
  -1.054213e+06  -6.182643e+04
  -2.387632e+05  -6.899186e+05
   1.000514e+06  -1.115362e+06
   1.655673e+06  -6.567280e+05
   1.272783e+06   5.328015e+05
   2.124591e+05   1.464221e+06
  -7.646109e+05   1.353143e+06
  -1.076632e+06   4.476620e+05
  -6.864919e+05  -3.190867e+05
  -7.556970e+04  -3.658423e+05
   1.864621e+05   1.031931e+04
  -4.068616e+04   1.049663e+05
  -3.637719e+05  -3.397933e+05
  -2.954001e+05  -8.283975e+05
   2.185539e+05  -6.640486e+05
   7.200172e+05   2.197143e+05
   6.657115e+05   1.067675e+06
  -3.650612e+04   1.041859e+06
  -8.487693e+05   1.218405e+05
  -1.006015e+06  -8.637874e+05
  -2.580240e+05  -1.111676e+06
   7.590453e+05  -5.899069e+05
   1.080509e+06   1.293633e+05
   4.631934e+05   5.502867e+05
  -2.954834e+05   5.768280e+05
  -2.930211e+05   3.432473e+05
   3.623882e+05   5.552783e+04
   6.930045e+05  -1.211570e+04
   1.066553e+05   2.955706e+05
  -8.534986e+05   6.958052e+05
  -1.199965e+06   6.148444e+05
  -6.656284e+05  -1.068400e+05
   1.222274e+05  -8.423061e+05
   4.815069e+05  -8.200031e+05
   3.280560e+05  -7.862323e+04
  -1.104078e+04   5.355199e+05
  -2.724714e+05   3.811456e+05
  -3.635357e+05  -2.535913e+05
  -2.339691e+05  -5.976657e+05
   8.803733e+04  -3.459142e+05
   3.942892e+05   9.550549e+04
   4.460241e+05   2.266055e+05
   2.445782e+05   4.141595e+04
   1.737392e+04  -7.723943e+04
  -8.145006e+04   1.133568e+05
  -1.299998e+05   4.247251e+05
  -2.545249e+05   4.538133e+05
  -3.922568e+05   3.859367e+04
  -3.309732e+05  -5.129552e+05
   2.601733e+04  -6.804093e+05
   4.728337e+05  -2.649191e+05
   6.075710e+05   3.636250e+05
   1.978221e+05   6.301291e+05
  -4.957467e+05   3.485840e+05
  -8.414448e+05  -1.388157e+05
  -4.523363e+05  -3.975446e+05
   3.082028e+05  -3.292087e+05
   6.308653e+05  -1.297212e+05
   1.792734e+05   2.391447e+03
  -4.626141e+05  -1.557110e+04
  -4.575211e+05  -1.825125e+05
   2.650851e+05  -3.596599e+05
   9.085660e+05  -2.587077e+05
