
 $NMID
 id='ANONYMOUS ', fmtdat='(2E16.6)'
 volume=1.0
 tramp=1.0
 $END
   3.769054e+07   1.143284e+06
   2.295440e+07   2.229566e+07
  -4.109593e+06   2.499291e+07
  -1.825504e+07   1.127667e+07
  -1.195775e+07  -3.077926e+06
   1.422897e+06  -6.467149e+06
   7.049665e+06  -3.407881e+05
   2.971165e+06   6.565377e+06
  -3.688693e+06   7.577073e+06
  -6.815567e+06   2.218023e+06
  -5.021376e+06  -4.590692e+06
  -3.827520e+05  -6.513007e+06
   3.060743e+06  -1.671499e+06
   1.961224e+06   4.705349e+06
  -2.651502e+06   5.434754e+06
  -5.653576e+06  -5.505874e+05
  -3.329072e+06  -7.179270e+06
   2.547697e+06  -8.355955e+06
   7.059988e+06  -3.911163e+06
   7.214923e+06   1.870347e+06
   3.842229e+06   5.210902e+06
   3.942564e+02   5.245372e+06
  -1.440465e+06   3.455702e+06
  -1.406766e+04   2.224166e+06
   1.468537e+06   2.850802e+06
  -4.033165e+05   3.975670e+06
  -5.066571e+06   2.950300e+06
  -7.684042e+06  -5.557106e+05
  -4.880320e+06  -3.623147e+06
   7.097638e+05  -3.594863e+06
   3.544184e+06  -1.171558e+06
   1.738336e+06   9.782611e+05
  -1.607680e+06   1.311061e+06
  -2.943370e+06  -2.232653e+04
  -1.767150e+06  -2.166828e+06
   3.183079e+05  -3.569745e+06
   1.757033e+06  -2.450993e+06
   1.713109e+06   7.333868e+05
   4.036805e+05   2.510486e+06
  -5.608250e+05   4.987864e+05
   3.460138e+05  -2.581122e+06
   2.139323e+06  -1.978303e+06
   1.924159e+06   2.156818e+06
  -1.172131e+06   4.266873e+06
  -4.100860e+06   8.650678e+05
  -3.255574e+06  -4.470447e+06
   1.120787e+06  -5.643303e+06
   5.128489e+06  -1.549748e+06
   5.321989e+06   3.336585e+06
   1.725767e+06   4.706394e+06
  -2.660741e+06   2.382613e+06
  -4.412504e+06  -9.270754e+05
  -2.301826e+06  -2.615767e+06
   1.525732e+06  -1.769652e+06
   3.313023e+06   4.985530e+05
   1.569828e+06   1.857433e+06
  -1.182661e+06   9.944105e+05
  -1.514939e+06  -7.666883e+05
   5.842650e+05  -1.030605e+06
   1.891445e+06   5.663160e+05
   3.030196e+05   1.984373e+06
  -2.586835e+06   1.504690e+06
  -3.677456e+06  -4.911296e+05
  -1.812775e+06  -2.612895e+06
   1.604409e+06  -3.852500e+06
   4.347403e+06  -3.430927e+06
   4.892124e+06  -8.643823e+05
   3.090695e+06   2.759353e+06
   3.438335e+05   4.815408e+06
  -1.323976e+06   3.838540e+06
  -1.178822e+06   1.467723e+06
  -5.054924e+05   3.930747e+05
  -8.599977e+05   9.079442e+05
  -2.035301e+06   9.565738e+05
  -2.476889e+06  -5.905763e+05
  -1.362268e+06  -2.274903e+06
   5.231429e+05  -2.075662e+06
   1.772701e+06   3.584294e+04
   1.497278e+06   2.195478e+06
  -2.749035e+05   2.625750e+06
  -2.474949e+06   1.034418e+06
  -3.381778e+06  -1.413918e+06
  -2.091017e+06  -3.044064e+06
   2.663258e+05  -2.958574e+06
   1.622505e+06  -1.774708e+06
   1.476969e+06  -8.630843e+05
   1.378200e+06  -7.225677e+05
   2.502981e+06  -5.085787e+05
   3.722403e+06   6.648760e+05
   2.962717e+06   2.455950e+06
  -2.049382e+03   3.634478e+06
  -3.037959e+06   3.299378e+06
  -3.874585e+06   1.524018e+06
  -2.247125e+06  -7.281663e+05
   1.331293e+05  -2.042690e+06
   1.252326e+06  -1.520931e+06
   4.613361e+05   1.455172e+05
  -1.090437e+06   1.062214e+06
  -1.634503e+06   2.501452e+05
  -6.442075e+05  -1.045594e+06
   5.926530e+05  -9.689408e+05
   5.323525e+05   3.470033e+05
  -7.388697e+05   8.591271e+05
  -1.645478e+06  -6.183935e+05
  -9.902785e+05  -2.753106e+06
   8.692575e+05  -3.280516e+06
   2.635426e+06  -1.552986e+06
   3.231433e+06   1.034678e+06
   2.319187e+06   2.659713e+06
   4.065737e+05   2.556692e+06
  -1.245615e+06   1.274446e+06
  -1.466318e+06   7.485631e+04
  -4.393496e+05  -6.237026e+04
   2.984931e+05   6.795109e+05
  -3.503519e+05   1.120107e+06
  -1.597299e+06   4.478944e+05
  -1.733537e+06  -7.486265e+05
  -3.606622e+05  -1.196173e+06
   1.038933e+06  -5.081089e+05
   8.755081e+05   4.344726e+05
  -7.218266e+05   5.984570e+05
  -2.089849e+06  -1.843652e+05
  -1.753694e+06  -1.298092e+06
   1.883708e+05  -1.930644e+06
   2.167436e+06  -1.520499e+06
   2.525138e+06  -1.756272e+05
   1.033919e+06   1.120710e+06
  -8.270515e+05   1.219293e+06
  -1.290646e+06   9.744080e+04
  -8.606451e+04  -9.087023e+05
   1.358964e+06  -5.818565e+05
   1.523143e+06   7.123209e+05
   3.403002e+05   1.490068e+06
  -9.417746e+05   9.437379e+05
  -1.157828e+06  -2.058965e+05
  -2.879178e+05  -6.778771e+05
   6.557212e+05  -4.647433e+04
   5.942918e+05   9.485238e+05
  -5.934170e+05   1.228944e+06
  -1.821555e+06   3.696070e+05
  -1.758290e+06  -1.035120e+06
  -2.631447e+05  -1.854362e+06
   1.314139e+06  -1.417218e+06
   1.542583e+06  -1.627708e+05
   4.614177e+05   7.807158e+05
  -6.005067e+05   7.254112e+05
  -6.287029e+05   3.414157e+04
   7.974607e+04  -4.261423e+05
   5.404255e+05  -2.674543e+05
   2.719190e+05   1.070024e+05
  -3.259590e+05   6.677217e+04
  -4.995168e+05  -5.091059e+05
   1.444183e+05  -1.042865e+06
   1.243367e+06  -7.756794e+05
   1.850139e+06   4.343558e+05
   1.232815e+06   1.791424e+06
  -2.935702e+05   2.187655e+06
  -1.528258e+06   1.281994e+06
  -1.598214e+06  -1.275777e+05
  -8.460744e+05  -9.243218e+05
  -2.783513e+05  -7.803685e+05
  -3.158057e+05  -3.164338e+05
  -4.430297e+05  -2.530472e+05
  -4.251420e+04  -6.143871e+05
   7.879941e+05  -7.984129e+05
   1.341166e+06  -2.933035e+05
   9.949868e+05   7.185346e+05
  -2.369665e+05   1.400996e+06
  -1.606528e+06   9.640126e+05
  -2.042998e+06  -5.065371e+05
  -9.957691e+05  -1.919413e+06
   9.126685e+05  -2.090605e+06
   2.267857e+06  -8.978764e+05
   2.142494e+06   5.951540e+05
   9.390655e+05   1.250615e+06
  -1.627424e+05   9.612655e+05
  -4.591007e+05   5.384291e+05
  -2.422379e+05   6.470613e+05
  -2.064929e+05   1.075755e+06
  -6.228019e+05   1.068193e+06
  -1.128555e+06   2.180075e+05
  -1.137950e+06  -1.032406e+06
  -4.128716e+05  -1.731800e+06
   6.303340e+05  -1.267589e+06
   1.168424e+06   3.545279e+04
   7.098755e+05   1.147235e+06
  -3.370025e+05   1.240762e+06
  -9.905811e+05   4.091772e+05
  -7.052078e+05  -5.323365e+05
   5.896471e+04  -9.010946e+05
   4.049009e+05  -7.090275e+05
   5.287156e+04  -4.204811e+05
  -3.528840e+05  -3.418669e+05
  -2.359944e+04  -3.557907e+05
   1.004760e+06  -1.611747e+05
   1.791014e+06   3.528995e+05
   1.416714e+06   9.589965e+05
  -1.804922e+04   1.245022e+06
  -1.393141e+06   9.483948e+05
  -1.635859e+06   2.294966e+05
  -7.653154e+05  -3.901875e+05
   2.173224e+05  -4.630129e+05
   4.413263e+05  -4.921509e+04
  -1.181120e+04   3.232642e+05
  -4.369083e+05   1.949533e+05
  -4.084275e+05  -3.286450e+05
  -1.300570e+05  -6.732896e+05
  -4.328657e+03  -4.333364e+05
  -1.399057e+05   1.240637e+05
  -3.197169e+05   3.027380e+05
  -2.512982e+05  -2.138965e+05
   2.025106e+05  -9.008082e+05
   8.480608e+05  -9.109396e+05
   1.151653e+06  -6.728236e+04
   6.531013e+05   8.524131e+05
  -4.139449e+05   9.481126e+05
  -1.095967e+06   1.943254e+05
  -6.250270e+05  -5.665023e+05
   6.444368e+05  -5.706742e+05
   1.461428e+06   1.187397e+05
   9.597445e+05   8.126350e+05
  -4.204628e+05   9.332370e+05
  -1.400256e+06   4.593013e+05
  -1.169146e+06  -1.820484e+05
  -1.316001e+05  -4.889616e+05
   5.937396e+05  -2.482317e+05
   3.171660e+05   2.590460e+05
  -5.757104e+05   4.140700e+05
  -1.054357e+06  -1.676458e+05
  -4.987622e+05  -1.112899e+06
   6.678139e+05  -1.483929e+06
   1.406865e+06  -6.933906e+05
   1.099536e+06   7.628583e+05
   9.646892e+04   1.646769e+06
  -7.327265e+05   1.174895e+06
  -8.483727e+05  -1.638079e+05
  -3.806286e+05  -1.100584e+06
   1.947195e+05  -9.053086e+05
   5.018546e+05  -7.545371e+04
   4.422868e+05   3.757069e+05
   1.808859e+05   1.495427e+05
   3.469670e+04  -9.890713e+04
   1.884346e+05   2.458581e+05
   4.021658e+05   8.855357e+05
   1.738414e+05   1.003473e+06
  -6.132329e+05   3.441153e+05
  -1.328662e+06  -4.884061e+05
  -1.172256e+06  -8.211929e+05
  -1.447684e+05  -6.341073e+05
   8.311940e+05  -3.350520e+05
   9.185671e+05  -1.360818e+05
   2.965536e+05   3.699138e+04
  -1.563155e+05   1.929622e+05
  -2.401214e+02   2.126998e+05
   2.797929e+05   1.284948e+05
   2.169712e+04   1.234316e+05
  -6.582725e+05   1.608263e+05
  -9.417346e+05  -7.025013e+04
  -2.956548e+05  -6.311293e+05
   8.561792e+05  -9.978225e+05
   1.541220e+06  -5.803750e+05
   1.201776e+06   4.732313e+05
   1.673039e+05   1.293464e+06
  -7.441362e+05   1.199775e+06
  -9.712976e+05   4.108980e+05
  -5.870411e+05  -2.654510e+05
  -8.652663e+04  -3.277332e+05
   1.009022e+05  -2.650190e+04
  -6.426871e+04   4.266807e+04
  -2.777382e+05  -3.367153e+05
  -2.050901e+05  -7.463058e+05
   2.005115e+05  -5.978178e+05
   6.168348e+05   1.694553e+05
   5.992039e+05   9.201885e+05
   1.428002e+04   9.301472e+05
  -7.129856e+05   1.492141e+05
  -8.882648e+05  -7.338886e+05
  -2.413057e+05  -9.979641e+05
   6.795165e+05  -5.523477e+05
   9.898758e+05   1.267742e+05
   4.356852e+05   5.495725e+05
  -2.831994e+05   5.669042e+05
  -3.275289e+05   3.124840e+05
   2.567226e+05   3.775955e+04
   5.989678e+05   6.284770e+02
   1.078829e+05   2.775084e+05
  -7.798234e+05   5.830133e+05
  -1.140240e+06   4.629412e+05
  -6.524547e+05  -1.634737e+05
   1.278207e+05  -7.697052e+05
   5.073461e+05  -7.412964e+05
   3.556553e+05  -1.074689e+05
   7.058775e+03   4.483674e+05
  -2.403724e+05   3.645489e+05
  -3.102771e+05  -1.796873e+05
  -1.993416e+05  -5.353365e+05
   7.137525e+04  -3.562174e+05
   3.493007e+05   7.114061e+04
   4.108800e+05   2.533621e+05
   2.177727e+05   7.951134e+04
  -1.247201e+04  -1.118728e+05
  -7.938369e+04   5.921378e+03
  -4.951667e+04   3.344816e+05
  -1.245378e+05   4.552232e+05
  -3.102530e+05   1.264132e+05
  -3.535704e+05  -3.944659e+05
  -5.927522e+04  -5.914758e+05
   3.973032e+05  -2.498139e+05
   5.669570e+05   3.002259e+05
   1.873059e+05   5.410589e+05
  -4.669674e+05   3.052702e+05
  -7.771830e+05  -1.190706e+05
  -4.083219e+05  -3.634362e+05
   2.812201e+05  -3.274996e+05
   5.778514e+05  -1.519725e+05
   2.042225e+05  -3.837338e+03
  -3.457098e+05   1.826763e+04
  -3.746316e+05  -1.105928e+05
   1.944916e+05  -2.722278e+05
   7.288727e+05  -2.053078e+05
