
 $NMID
 id='ANONYMOUS ', fmtdat='(2E16.6)'
 volume=1.0
 tramp=1.0
 $END
  -2.278722e+07  -1.092009e+06
  -1.446937e+07  -1.108841e+07
   6.316959e+05  -1.408323e+07
   9.858778e+06  -9.220758e+06
   8.054908e+06  -9.730982e+05
   4.841904e+05   3.972944e+06
  -4.516904e+06   2.098018e+06
  -3.471973e+06  -3.565043e+06
   1.002633e+06  -6.292684e+06
   4.242872e+06  -2.810918e+06
   3.699889e+06   3.082967e+06
   4.017936e+05   4.923209e+06
  -2.330708e+06   9.591186e+05
  -1.843892e+06  -4.132579e+06
   1.325777e+06  -4.776063e+06
   3.819141e+06  -4.100609e+05
   2.779558e+06   4.559946e+06
  -1.160645e+06   5.694811e+06
  -4.501170e+06   2.577671e+06
  -4.463581e+06  -1.568481e+06
  -1.702049e+06  -3.411864e+06
   6.099918e+05  -2.507005e+06
   2.132980e+05  -1.158931e+06
  -1.843101e+06  -1.580667e+06
  -2.318090e+06  -3.384354e+06
   6.001119e+05  -4.138025e+06
   4.905308e+06  -2.290225e+06
   6.475031e+06   1.002211e+06
   3.450933e+06   3.137541e+06
  -1.462212e+06   2.657226e+06
  -3.647237e+06   3.145496e+05
  -1.423141e+06  -1.855565e+06
   2.376509e+06  -2.060960e+06
   3.767556e+06   3.755191e+04
   1.836079e+06   2.795580e+06
  -8.957137e+05   3.606837e+06
  -1.747865e+06   1.482953e+06
  -5.995028e+05  -1.396448e+06
   6.727799e+05  -1.775808e+06
   5.802980e+05   7.461882e+05
  -6.702706e+05   2.965504e+06
  -1.772278e+06   1.961585e+06
  -1.599916e+06  -1.176866e+06
  -7.741269e+04  -2.677217e+06
   1.628826e+06  -7.430528e+05
   1.796155e+06   2.393883e+06
  -3.095432e+05   3.273181e+06
  -3.247026e+06   1.022085e+06
  -4.268924e+06  -2.146606e+06
  -2.003285e+06  -3.531066e+06
   1.816226e+06  -2.347921e+06
   3.832201e+06   6.223351e+04
   2.436984e+06   1.684793e+06
  -6.503571e+05   1.468782e+06
  -2.331634e+06   3.415591e+04
  -1.352212e+06  -1.032227e+06
   6.980117e+05  -7.329513e+05
   1.413614e+06   4.253857e+05
   1.950720e+05   1.106250e+06
  -1.295055e+06   5.949228e+05
  -1.112819e+06  -5.552753e+05
   7.538415e+05  -1.148972e+06
   2.272981e+06  -4.101666e+05
   1.498671e+06   1.371020e+06
  -1.290852e+06   2.893969e+06
  -3.781002e+06   2.691483e+06
  -3.975918e+06   4.444088e+05
  -2.123316e+06  -2.416589e+06
  -1.369460e+05  -3.852172e+06
   6.082175e+05  -3.212057e+06
   4.810917e+05  -1.786256e+06
   6.733478e+05  -1.115310e+06
   1.608605e+06  -1.137098e+06
   2.546832e+06  -5.477785e+05
   2.482251e+06   1.144875e+06
   1.127664e+06   2.635064e+06
  -8.181828e+05   2.241900e+06
  -2.080870e+06  -2.050074e+04
  -1.655508e+06  -2.246954e+06
   2.934606e+05  -2.521753e+06
   2.294902e+06  -7.422205e+05
   2.727560e+06   1.474014e+06
   1.375715e+06   2.473079e+06
  -3.647634e+05   1.997884e+06
  -1.054913e+06   1.065714e+06
  -7.996250e+05   6.887217e+05
  -9.294106e+05   8.661723e+05
  -2.136175e+06   7.646513e+05
  -3.353441e+06  -2.837501e+05
  -2.825694e+06  -2.014356e+06
  -2.090633e+05  -3.341366e+06
   2.721207e+06  -3.191703e+06
   3.670649e+06  -1.427388e+06
   2.088974e+06   8.493713e+05
  -3.129055e+05   2.026055e+06
  -1.332062e+06   1.364839e+06
  -4.158556e+05  -2.170437e+05
   1.053425e+06  -9.954293e+05
   1.435693e+06  -2.594387e+05
   5.006151e+05   9.089081e+05
  -5.954970e+05   9.456120e+05
  -6.754227e+05  -2.420699e+05
   3.370904e+05  -1.063125e+06
   1.461892e+06  -1.259053e+05
   1.532922e+06   1.999755e+06
   1.258279e+05   3.249322e+06
  -2.003789e+06   2.233869e+06
  -3.325765e+06  -3.258521e+05
  -2.739123e+06  -2.380513e+06
  -6.686601e+05  -2.559811e+06
   1.178681e+06  -1.291268e+06
   1.431778e+06  -8.725338e+04
   4.144563e+05   3.708303e+04
  -3.179451e+05  -6.110175e+05
   2.134157e+05  -9.791860e+05
   1.330951e+06  -4.689706e+05
   1.569456e+06   4.946698e+05
   4.470720e+05   9.882608e+05
  -9.011239e+05   5.600311e+05
  -9.386908e+05  -3.314334e+05
   5.439749e+05  -7.575508e+05
   2.077466e+06  -1.702547e+05
   1.970718e+06   1.078734e+06
   8.543270e+04   1.973547e+06
  -1.953784e+06   1.680159e+06
  -2.373668e+06   3.439866e+05
  -1.000387e+06  -9.309007e+05
   6.753742e+05  -1.070542e+06
   1.081272e+06  -1.147525e+05
   5.236602e+04   7.858301e+05
  -1.215022e+06   5.838849e+05
  -1.459551e+06  -5.250139e+05
  -5.028241e+05  -1.342744e+06
   7.214081e+05  -1.028203e+06
   1.104752e+06  -9.678629e+03
   3.982247e+05   5.571754e+05
  -5.403155e+05   8.878138e+04
  -5.704114e+05  -8.401356e+05
   5.246644e+05  -1.159670e+06
   1.697451e+06  -3.968679e+05
   1.673614e+06   9.008763e+05
   3.356315e+05   1.697560e+06
  -1.109906e+06   1.381694e+06
  -1.405596e+06   2.742243e+05
  -5.137066e+05  -6.723451e+05
   4.926001e+05  -7.341649e+05
   6.490999e+05  -6.696560e+04
   1.653477e+04   5.089988e+05
  -5.674591e+05   4.090141e+05
  -4.500987e+05  -9.243333e+04
   1.844306e+05  -2.283931e+05
   5.336484e+05   3.110255e+05
   1.162384e+04   9.478329e+05
  -1.082800e+06   8.131419e+05
  -1.749526e+06  -2.904367e+05
  -1.239099e+06  -1.604521e+06
   1.592682e+05  -2.090278e+06
   1.368523e+06  -1.370379e+06
   1.583468e+06  -4.403270e+04
   9.848759e+05   8.836962e+05
   3.713634e+05   9.079488e+05
   2.276556e+05   4.158798e+05
   2.998316e+05   1.853608e+05
   4.433835e+04   4.957859e+05
  -6.527533e+05   8.094270e+05
  -1.258997e+06   4.190903e+05
  -1.069339e+06  -6.310565e+05
   7.197621e+04  -1.425125e+06
   1.458593e+06  -1.069540e+06
   1.986316e+06   3.390760e+05
   1.096386e+06   1.720290e+06
  -6.510116e+05   1.991081e+06
  -1.999477e+06   1.022990e+06
  -2.077601e+06  -3.335096e+05
  -1.093064e+06  -1.099362e+06
   5.918318e+03  -1.024440e+06
   4.743621e+05  -6.564773e+05
   3.551268e+05  -6.282409e+05
   2.301081e+05  -9.332711e+05
   5.122564e+05  -9.573866e+05
   1.001438e+06  -2.316313e+05
   1.099695e+06   9.254673e+05
   4.642855e+05   1.615023e+06
  -5.424407e+05   1.225963e+06
  -1.107854e+06   4.886735e+04
  -7.485318e+05  -9.902602e+05
   1.762051e+05  -1.165082e+06
   8.077419e+05  -5.154708e+05
   6.603792e+05   3.242518e+05
   7.813734e+04   7.577823e+05
  -2.183014e+05   6.875862e+05
   2.914127e+04   4.408820e+05
   3.301992e+05   3.337658e+05
   2.708043e+04   3.469031e+05
  -8.909636e+05   2.140121e+05
  -1.638144e+06  -2.218299e+05
  -1.374265e+06  -7.859949e+05
  -1.148211e+05  -1.103020e+06
   1.174670e+06  -9.248113e+05
   1.485547e+06  -3.512526e+05
   7.537447e+05   2.216152e+05
  -1.464206e+05   3.932408e+05
  -3.793262e+05   1.070878e+05
   3.402305e+04  -2.477336e+05
   4.364535e+05  -1.915092e+05
   3.885197e+05   2.925664e+05
   8.289803e+04   6.592401e+05
  -4.506824e+04   4.224215e+05
   1.269582e+05  -1.775722e+05
   3.357361e+05  -3.741040e+05
   2.613973e+05   1.784304e+05
  -1.796081e+05   8.898527e+05
  -7.518432e+05   8.849945e+05
  -9.991350e+05   5.725222e+04
  -5.679525e+05  -7.859522e+05
   3.534506e+05  -8.418159e+05
   9.812162e+05  -1.557836e+05
   6.077138e+05   5.295271e+05
  -5.567092e+05   5.827230e+05
  -1.411806e+06   9.532434e+03
  -1.045736e+06  -6.835268e+05
   2.652237e+05  -9.554759e+05
   1.304241e+06  -6.159452e+05
   1.175111e+06   4.609256e+04
   1.914565e+05   4.679890e+05
  -5.339336e+05   3.000342e+05
  -2.840878e+05  -2.080723e+05
   5.650029e+05  -3.861014e+05
   1.004158e+06   1.671800e+05
   4.571958e+05   1.067554e+06
  -6.494192e+05   1.415210e+06
  -1.345968e+06   6.732492e+05
  -1.076492e+06  -7.023780e+05
  -1.590959e+05  -1.577171e+06
   6.366384e+05  -1.191196e+06
   8.218269e+05   6.512533e+04
   4.642233e+05   1.014382e+06
  -7.246201e+04   8.983597e+05
  -4.505886e+05   1.208935e+05
  -4.872668e+05  -3.411742e+05
  -2.336900e+05  -1.438410e+05
  -5.936548e+03   1.093955e+05
  -1.106279e+05  -1.983674e+05
  -3.936673e+05  -8.109646e+05
  -2.780018e+05  -9.496790e+05
   4.923549e+05  -3.586318e+05
   1.297681e+06   4.026969e+05
   1.214049e+06   7.181684e+05
   1.732921e+05   5.825628e+05
  -8.285564e+05   3.576717e+05
  -8.846848e+05   1.946910e+05
  -2.351690e+05   4.412328e+03
   1.613143e+05  -1.874440e+05
  -7.582440e+04  -2.254404e+05
  -3.428639e+05  -1.375008e+05
  -3.297038e+02  -1.241073e+05
   6.938313e+05  -1.638509e+05
   8.917368e+05   5.059321e+04
   2.064535e+05   5.896388e+05
  -8.429634e+05   9.492500e+05
  -1.402735e+06   5.555868e+05
  -1.082027e+06  -4.523103e+05
  -1.832238e+05  -1.237216e+06
   6.464709e+05  -1.143093e+06
   9.117251e+05  -3.813268e+05
   5.820474e+05   2.660431e+05
   6.555458e+04   3.108366e+05
  -1.573109e+05  -2.464843e+03
   3.212471e+04  -8.485872e+04
   3.044919e+05   2.852632e+05
   2.489798e+05   6.971123e+05
  -1.840035e+05   5.625637e+05
  -6.106620e+05  -1.814341e+05
  -5.685319e+05  -9.012106e+05
   2.632134e+04  -8.852668e+05
   7.189955e+05  -1.099220e+05
   8.558517e+05   7.266775e+05
   2.212250e+05   9.416316e+05
  -6.430838e+05   5.022877e+05
  -9.155561e+05  -1.091743e+05
  -3.906041e+05  -4.688916e+05
   2.531231e+05  -4.900866e+05
   2.505895e+05  -2.872136e+05
  -3.048249e+05  -4.126064e+04
  -5.851381e+05   1.263558e+04
  -9.066856e+04  -2.514718e+05
   7.193171e+05  -5.882942e+05
   1.012011e+06  -5.150917e+05
   5.619994e+05   9.572576e+04
  -1.034755e+05   7.130512e+05
  -4.098238e+05   6.907936e+05
  -2.828405e+05   6.488810e+04
   5.388174e+03  -4.532593e+05
   2.312909e+05  -3.246356e+05
   3.108434e+05   2.108601e+05
   1.989684e+05   5.049624e+05
  -7.651076e+04   2.956851e+05
  -3.348752e+05  -7.911791e+04
  -3.754173e+05  -1.939093e+05
  -2.043900e+05  -3.635071e+04
  -1.609768e+04   6.917118e+04
   6.275983e+04  -9.149272e+04
   1.031742e+05  -3.622837e+05
   2.131298e+05  -3.938086e+05
   3.362799e+05  -4.033085e+04
   2.882062e+05   4.345160e+05
  -1.570278e+04   5.808716e+05
  -3.995077e+05   2.276400e+05
  -5.179857e+05  -3.069922e+05
  -1.708464e+05  -5.328222e+05
   4.196446e+05  -2.944443e+05
   7.142562e+05   1.170473e+05
   3.835751e+05   3.362067e+05
  -2.626345e+05   2.805738e+05
  -5.368660e+05   1.120044e+05
  -1.541852e+05  -4.207241e+03
   3.908082e+05   6.236223e+03
   3.897368e+05   1.488741e+05
  -2.184968e+05   3.057266e+05
  -7.633205e+05   2.254508e+05
