
 $NMID
 id='ANONYMOUS ', fmtdat='(2E16.6)'
 volume=1.0
 tramp=1.0
 $END
   1.837822e+07   1.602309e+06
   1.113774e+07   9.420306e+06
  -1.073231e+06   1.123443e+07
  -8.105937e+06   6.988636e+06
  -6.312796e+06   5.237716e+05
  -2.392049e+05  -3.124732e+06
   3.572195e+06  -1.524889e+06
   2.622034e+06   2.877941e+06
  -9.163556e+05   4.920861e+06
  -3.406814e+06   2.108694e+06
  -2.893755e+06  -2.552015e+06
  -2.326856e+05  -3.951353e+06
   1.903915e+06  -7.344733e+05
   1.431565e+06   3.318343e+06
  -1.123668e+06   3.758668e+06
  -3.033440e+06   2.205342e+05
  -2.095345e+06  -3.709449e+06
   1.081948e+06  -4.517143e+06
   3.694463e+06  -1.947642e+06
   3.580081e+06   1.391664e+06
   1.296214e+06   2.845398e+06
  -6.057259e+05   2.060795e+06
  -2.889544e+05   9.024816e+05
   1.412596e+06   1.199183e+06
   1.847391e+06   2.668082e+06
  -4.870085e+05   3.306542e+06
  -3.955075e+06   1.809096e+06
  -5.198759e+06  -8.726090e+05
  -2.739468e+06  -2.585664e+06
   1.207864e+06  -2.158854e+06
   2.947087e+06  -2.514327e+05
   1.169404e+06   1.488676e+06
  -1.863413e+06   1.657713e+06
  -2.996799e+06  -1.052690e+04
  -1.479886e+06  -2.227898e+06
   7.205826e+05  -2.899443e+06
   1.442600e+06  -1.189034e+06
   5.157460e+05   1.155505e+06
  -5.613366e+05   1.469976e+06
  -5.127242e+05  -5.807623e+05
   5.268360e+05  -2.372881e+06
   1.428482e+06  -1.542885e+06
   1.234749e+06   9.726889e+05
  -3.356794e+04   2.104905e+06
  -1.340994e+06   4.826060e+05
  -1.354339e+06  -2.007761e+06
   3.725647e+05  -2.607929e+06
   2.643311e+06  -7.289321e+05
   3.361488e+06   1.791923e+06
   1.530422e+06   2.830567e+06
  -1.472045e+06   1.830958e+06
  -3.029318e+06  -1.018046e+05
  -1.896893e+06  -1.361410e+06
   5.492557e+05  -1.136320e+06
   1.851330e+06   3.112965e+04
   1.042905e+06   8.494769e+05
  -5.775045e+05   5.648595e+05
  -1.113346e+06  -3.541360e+05
  -1.441749e+05  -8.495339e+05
   9.945292e+05  -4.288270e+05
   8.144331e+05   4.320704e+05
  -6.458273e+05   8.405205e+05
  -1.796225e+06   2.461949e+05
  -1.141796e+06  -1.130430e+06
   1.087532e+06  -2.303975e+06
   3.068388e+06  -2.118217e+06
   3.205502e+06  -3.045870e+05
   1.682920e+06   1.983551e+06
   5.497582e+04   3.096907e+06
  -5.349599e+05   2.539208e+06
  -3.871743e+05   1.390072e+06
  -5.093716e+05   8.851724e+05
  -1.269298e+06   9.296395e+05
  -2.045814e+06   4.535033e+05
  -1.999885e+06  -9.167941e+05
  -9.073664e+05  -2.113131e+06
   6.514187e+05  -1.796241e+06
   1.655946e+06   1.217585e+04
   1.311995e+06   1.792889e+06
  -2.489392e+05   2.013662e+06
  -1.849599e+06   5.790022e+05
  -2.182120e+06  -1.214999e+06
  -1.072928e+06  -2.017763e+06
   3.390829e+05  -1.610124e+06
   8.842342e+05  -8.315207e+05
   6.576315e+05  -5.199072e+05
   7.453841e+05  -6.664554e+05
   1.702270e+06  -5.822789e+05
   2.664167e+06   2.614359e+05
   2.229987e+06   1.631450e+06
   1.375056e+05   2.662788e+06
  -2.194289e+06   2.524021e+06
  -2.942673e+06   1.116481e+06
  -1.671016e+06  -6.917958e+05
   2.565928e+05  -1.623651e+06
   1.074442e+06  -1.089274e+06
   3.345776e+05   1.758668e+05
  -8.482691e+05   7.893298e+05
  -1.149128e+06   1.924975e+05
  -3.918388e+05  -7.353806e+05
   4.800770e+05  -7.526364e+05
   5.315846e+05   1.912809e+05
  -2.701358e+05   8.272061e+05
  -1.138009e+06   7.658860e+04
  -1.175835e+06  -1.589496e+06
  -7.229490e+04  -2.552106e+06
   1.588166e+06  -1.738693e+06
   2.621849e+06   2.794405e+05
   2.158930e+06   1.897422e+06
   5.196116e+05   2.034826e+06
  -9.464282e+05   1.022678e+06
  -1.143129e+06   6.204428e+04
  -3.299308e+05  -3.270624e+04
   2.479939e+05   4.890807e+05
  -1.822755e+05   7.766214e+05
  -1.066857e+06   3.570677e+05
  -1.241885e+06  -4.117074e+05
  -3.426840e+05  -7.896072e+05
   7.211079e+05  -4.365448e+05
   7.424667e+05   2.671501e+05
  -4.330461e+05   5.925697e+05
  -1.643959e+06   1.218034e+05
  -1.556172e+06  -8.630246e+05
  -5.804457e+04  -1.563349e+06
   1.562570e+06  -1.321610e+06
   1.890883e+06  -2.559285e+05
   7.869547e+05   7.511094e+05
  -5.518498e+05   8.471266e+05
  -8.655053e+05   7.794793e+04
  -3.370599e+04  -6.304325e+05
   9.740217e+05  -4.547362e+05
   1.155587e+06   4.303470e+05
   3.872855e+05   1.068818e+06
  -5.793711e+05   8.071086e+05
  -8.732513e+05  -1.992876e+03
  -3.088700e+05  -4.431769e+05
   4.313081e+05  -6.298285e+04
   4.473282e+05   6.754838e+05
  -4.276289e+05   9.213560e+05
  -1.357061e+06   3.038942e+05
  -1.327439e+06  -7.315326e+05
  -2.531025e+05  -1.355351e+06
   8.959076e+05  -1.089944e+06
   1.120106e+06  -2.057213e+05
   4.019083e+05   5.379165e+05
  -3.972529e+05   5.791444e+05
  -5.166114e+05   5.117994e+04
  -1.324135e+04  -4.010416e+05
   4.482611e+05  -3.232498e+05
   3.558116e+05   6.831281e+04
  -1.432469e+05   1.733010e+05
  -4.157667e+05  -2.517650e+05
   8.900024e+02  -7.512642e+05
   8.683027e+05  -6.371305e+05
   1.390449e+06   2.454343e+05
   9.742231e+05   1.288176e+06
  -1.418403e+05   1.663349e+06
  -1.096424e+06   1.080099e+06
  -1.256974e+06   2.561634e+04
  -7.788877e+05  -7.040783e+05
  -2.968893e+05  -7.206002e+05
  -1.854370e+05  -3.353766e+05
  -2.375845e+05  -1.562964e+05
  -2.820411e+04  -3.975083e+05
   5.258280e+05  -6.374695e+05
   1.002511e+06  -3.240148e+05
   8.462155e+05   5.062732e+05
  -6.464898e+04   1.129918e+06
  -1.166278e+06   8.398365e+05
  -1.577670e+06  -2.836918e+05
  -8.580166e+05  -1.376098e+06
   5.357746e+05  -1.576648e+06
   1.598492e+06  -7.949810e+05
   1.646585e+06   2.811803e+05
   8.593330e+05   8.774910e+05
  -8.405375e+03   8.101060e+05
  -3.761238e+05   5.210889e+05
  -2.853830e+05   5.050707e+05
  -1.933559e+05   7.469011e+05
  -4.191104e+05   7.587928e+05
  -8.014340e+05   1.750652e+05
  -8.698267e+05  -7.463828e+05
  -3.581313e+05  -1.290406e+06
   4.410627e+05  -9.730680e+05
   8.816665e+05  -3.063206e+04
   5.860623e+05   7.940059e+05
  -1.509316e+05   9.233406e+05
  -6.447870e+05   3.987811e+05
  -5.174233e+05  -2.663177e+05
  -5.119068e+04  -6.012331e+05
   1.805654e+05  -5.401785e+05
  -2.120277e+04  -3.482262e+05
  -2.621580e+05  -2.688957e+05
  -1.974273e+04  -2.770148e+05
   7.113634e+05  -1.615036e+05
   1.303112e+06   1.922751e+05
   1.086795e+06   6.373008e+05
   7.911833e+04   8.771046e+05
  -9.454606e+05   7.241907e+05
  -1.184013e+06   2.660667e+05
  -5.936071e+05  -1.828062e+05
   1.224807e+05  -3.111761e+05
   3.015869e+05  -8.044563e+04
  -3.112585e+04   1.996128e+05
  -3.493393e+05   1.511146e+05
  -3.076457e+05  -2.364868e+05
  -6.348211e+04  -5.287987e+05
   3.752320e+04  -3.392732e+05
  -9.996706e+04   1.399406e+05
  -2.662826e+05   2.969213e+05
  -2.062489e+05  -1.436169e+05
   1.478892e+05  -7.087494e+05
   6.062901e+05  -6.994776e+05
   8.002887e+05  -3.506066e+04
   4.483610e+05   6.343198e+05
  -2.910533e+05   6.693173e+05
  -7.871057e+05   1.158433e+05
  -4.815381e+05  -4.264554e+05
   4.474685e+05  -4.588917e+05
   1.122126e+06   2.131094e+03
   8.251633e+05   5.480058e+05
  -2.168297e+05   7.545991e+05
  -1.038190e+06   4.799732e+05
  -9.318616e+05  -4.327508e+04
  -1.491588e+05  -3.720557e+05
   4.260106e+05  -2.339787e+05
   2.241300e+05   1.693864e+05
  -4.539592e+05   3.057450e+05
  -8.014930e+05  -1.398048e+05
  -3.591053e+05  -8.564489e+05
   5.274694e+05  -1.127088e+06
   1.078867e+06  -5.294650e+05
   8.540714e+05   5.669316e+05
   1.165978e+05   1.257837e+06
  -5.137287e+05   9.438279e+05
  -6.518316e+05  -5.789137e+04
  -3.614704e+05  -8.091960e+05
   6.355094e+04  -7.115925e+05
   3.589097e+05  -9.177805e+04
   3.854143e+05   2.728909e+05
   1.849609e+05   1.135826e+05
   5.124053e+03  -8.591144e+04
   8.648402e+04   1.628087e+05
   3.077561e+05   6.503369e+05
   2.142232e+05   7.554270e+05
  -3.955101e+05   2.788004e+05
  -1.030881e+06  -3.293271e+05
  -9.610793e+05  -5.778928e+05
  -1.332918e+05  -4.652112e+05
   6.619169e+05  -2.816465e+05
   7.049137e+05  -1.494711e+05
   1.867870e+05   6.724107e+02
  -1.297029e+05   1.492439e+05
   5.911061e+04   1.768123e+05
   2.726344e+05   1.083436e+05
   5.403758e+01   9.998618e+04
  -5.539019e+05   1.293977e+05
  -7.114197e+05  -4.652266e+04
  -1.617674e+05  -4.759388e+05
   6.790852e+05  -7.543000e+05
   1.124954e+06  -4.320134e+05
   8.625521e+05   3.709935e+05
   1.384716e+05   9.884151e+05
  -5.245619e+05   9.063113e+05
  -7.314402e+05   2.984180e+05
  -4.635866e+05  -2.149973e+05
  -5.058019e+04  -2.495273e+05
   1.260451e+05  -2.075758e+02
  -2.461238e+04   6.563762e+04
  -2.392741e+05  -2.285164e+05
  -1.931112e+05  -5.562515e+05
   1.509607e+05  -4.480393e+05
   4.872797e+05   1.474689e+05
   4.496618e+05   7.233009e+05
  -2.606724e+04   7.088871e+05
  -5.759829e+05   8.555578e+04
  -6.802737e+05  -5.850943e+05
  -1.705206e+05  -7.541848e+05
   5.180703e+05  -3.973782e+05
   7.306180e+05   9.440176e+04
   3.069636e+05   3.789557e+05
  -2.078230e+05   3.898913e+05
  -2.033619e+05   2.252268e+05
   2.426478e+05   3.206506e+04
   4.667431e+05  -6.877598e+03
   7.044147e+04   2.022093e+05
  -5.772098e+05   4.639165e+05
  -8.094373e+05   4.007030e+05
  -4.465085e+05  -8.357419e+04
   8.833213e+04  -5.684618e+05
   3.335089e+05  -5.461801e+05
   2.288766e+05  -4.805588e+04
  -5.797495e+03   3.622524e+05
  -1.878199e+05   2.583266e+05
  -2.485903e+05  -1.691521e+05
  -1.554184e+05  -4.043289e+05
   6.484611e+04  -2.367537e+05
   2.675162e+05   6.505617e+04
   2.967741e+05   1.586821e+05
   1.613160e+05   3.103014e+04
   1.459497e+04  -5.696451e+04
  -4.700252e+04   7.088444e+04
  -8.192361e+04   2.906933e+05
  -1.732018e+05   3.181306e+05
  -2.719580e+05   3.310108e+04
  -2.308754e+05  -3.503124e+05
   1.437706e+04  -4.669863e+05
   3.207699e+05  -1.804491e+05
   4.131567e+05   2.492233e+05
   1.340301e+05   4.268454e+05
  -3.373073e+05   2.313923e+05
  -5.704201e+05  -9.914256e+04
  -3.039424e+05  -2.713992e+05
   2.130842e+05  -2.227058e+05
   4.312855e+05  -8.595342e+04
   1.240884e+05   6.046133e+03
  -3.123625e+05  -4.315800e+03
  -3.119233e+05  -1.192708e+05
   1.738979e+05  -2.437074e+05
   6.088876e+05  -1.780081e+05
