
 $NMID
 id='ANONYMOUS ', fmtdat='(2E16.6)'
 volume=1.0
 tramp=1.0
 $END
  -3.663710e+07  -1.330412e+06
  -2.249818e+07  -2.034988e+07
   3.038033e+06  -2.362796e+07
   1.696114e+07  -1.217964e+07
   1.190296e+07   1.406479e+06
  -6.501033e+05   6.202632e+06
  -6.860493e+06   1.327036e+06
  -3.733870e+06  -6.063663e+06
   2.846592e+06  -8.178431e+06
   6.593841e+06  -2.933783e+06
   5.230196e+06   4.564045e+06
   5.214517e+05   6.808211e+06
  -3.198014e+06   1.609079e+06
  -2.289656e+06  -5.210674e+06
   2.363160e+06  -6.046937e+06
   5.669622e+06   1.175629e+05
   3.666139e+06   7.052163e+06
  -2.219065e+06   8.459356e+06
  -6.961596e+06   3.957612e+06
  -7.093857e+06  -2.016943e+06
  -3.431946e+06  -5.218459e+06
   3.411640e+05  -4.767712e+06
   1.076430e+06  -2.830959e+06
  -1.003833e+06  -2.206589e+06
  -2.277708e+06  -3.600676e+06
   5.056218e+05  -4.810306e+06
   5.886529e+06  -3.215352e+06
   8.459995e+06   8.172208e+05
   5.030478e+06   3.989484e+06
  -1.225062e+06   3.767821e+06
  -4.249433e+06   9.720901e+05
  -1.929431e+06  -1.612417e+06
   2.255429e+06  -2.009773e+06
   3.920871e+06  -6.153757e+04
   2.208665e+06   2.846545e+06
  -5.920024e+05   4.263705e+06
  -2.052182e+06   2.421781e+06
  -1.468220e+06  -1.222892e+06
   8.558715e+04  -2.606900e+06
   7.224186e+05   6.508730e+04
  -5.167204e+05   3.279113e+06
  -2.297706e+06   2.359251e+06
  -2.092172e+06  -1.997312e+06
   7.213681e+05  -4.153044e+06
   3.521200e+06  -9.119828e+05
   3.047842e+06   4.193857e+06
  -9.119110e+05   5.396485e+06
  -5.064336e+06   1.554406e+06
  -5.738146e+06  -3.269689e+06
  -2.221167e+06  -4.894702e+06
   2.647698e+06  -2.801918e+06
   4.876975e+06   5.797935e+05
   2.797938e+06   2.528850e+06
  -1.307094e+06   1.896550e+06
  -3.361015e+06  -2.925845e+05
  -1.726254e+06  -1.718221e+06
   1.129529e+06  -1.019865e+06
   1.726493e+06   6.954885e+05
  -2.520843e+05   1.218121e+06
  -1.862443e+06  -4.565182e+04
  -7.477723e+05  -1.529822e+06
   2.073574e+06  -1.545180e+06
   3.565695e+06   9.308477e+04
   1.970184e+06   2.406560e+06
  -1.695836e+06   4.071429e+06
  -4.806323e+06   3.735094e+06
  -5.303818e+06   8.573838e+05
  -3.181469e+06  -3.063859e+06
  -3.499531e+05  -5.179613e+06
   1.128519e+06  -4.193606e+06
   9.652511e+05  -1.902496e+06
   6.406432e+05  -8.837554e+05
   1.396494e+06  -1.258331e+06
   2.692717e+06  -9.727876e+05
   2.971610e+06   9.554043e+05
   1.539105e+06   2.868066e+06
  -7.324711e+05   2.558175e+06
  -2.254311e+06   6.191510e+03
  -1.889955e+06  -2.586509e+06
   2.922070e+05  -3.048718e+06
   2.820964e+06  -1.102148e+06
   3.678555e+06   1.667798e+06
   2.127221e+06   3.284717e+06
  -3.495671e+05   2.996902e+06
  -1.612110e+06   1.732138e+06
  -1.377458e+06   9.325415e+05
  -1.372882e+06   9.407252e+05
  -2.748570e+06   7.686778e+05
  -4.208059e+06  -5.305265e+05
  -3.461789e+06  -2.620411e+06
  -1.639513e+05  -4.134980e+06
   3.370976e+06  -3.890886e+06
   4.449483e+06  -1.816163e+06
   2.587569e+06   8.906202e+05
  -2.183395e+05   2.415127e+06
  -1.496676e+06   1.737616e+06
  -5.184595e+05  -2.047683e+05
   1.255158e+06  -1.232919e+06
   1.815204e+06  -3.157725e+05
   6.920912e+05   1.154683e+06
  -6.830508e+05   1.133340e+06
  -6.984944e+05  -3.438192e+05
   6.413678e+05  -1.113768e+06
   1.826816e+06   3.227353e+05
   1.475796e+06   2.814565e+06
  -4.385577e+05   3.830958e+06
  -2.720586e+06   2.219401e+06
  -3.860795e+06  -7.763519e+05
  -3.005885e+06  -2.929524e+06
  -6.700429e+05  -3.005871e+06
   1.410987e+06  -1.539591e+06
   1.711023e+06  -1.239937e+05
   5.053583e+05   5.087820e+04
  -3.696184e+05  -7.617747e+05
   3.317247e+05  -1.247440e+06
   1.737642e+06  -5.527539e+05
   1.957623e+06   7.287179e+05
   4.761839e+05   1.288778e+06
  -1.146244e+06   6.311596e+05
  -1.066424e+06  -4.482242e+05
   7.504427e+05  -7.987319e+05
   2.458919e+06  -4.372876e+03
   2.204258e+06   1.380599e+06
  -4.201221e+04   2.298562e+06
  -2.415410e+06   1.913091e+06
  -2.892640e+06   3.378024e+05
  -1.214155e+06  -1.203450e+06
   8.810540e+05  -1.366919e+06
   1.407896e+06  -1.370173e+05
   9.056188e+04   1.006762e+06
  -1.520177e+06   7.034301e+05
  -1.768525e+06  -7.191539e+05
  -5.060134e+05  -1.666669e+06
   9.748368e+05  -1.161956e+06
   1.329200e+06   1.141967e+05
   3.977637e+05   7.253884e+05
  -7.170802e+05   7.670970e+04
  -7.019653e+05  -1.063217e+06
   6.518835e+05  -1.429544e+06
   2.086592e+06  -4.794617e+05
   2.049884e+06   1.126403e+06
   3.764682e+05   2.102022e+06
  -1.419889e+06   1.670980e+06
  -1.738709e+06   2.744966e+05
  -5.775638e+05  -8.505391e+05
   6.403230e+05  -8.624266e+05
   7.475119e+05  -6.569224e+04
  -3.937803e+04   5.456109e+05
  -6.476720e+05   3.990863e+05
  -4.170114e+05  -1.110235e+05
   3.074422e+05  -1.674517e+05
   6.152167e+05   4.881662e+05
  -7.139297e+04   1.184161e+06
  -1.372289e+06   9.574750e+05
  -2.140833e+06  -4.072832e+05
  -1.489614e+06  -1.998252e+06
   2.372796e+05  -2.535707e+06
   1.692560e+06  -1.583993e+06
   1.875193e+06   2.876676e+04
   1.089612e+06   1.044126e+06
   4.011737e+05   9.751417e+05
   3.417076e+05   4.220255e+05
   4.556884e+05   2.627441e+05
   6.238132e+04   6.675106e+05
  -8.443305e+05   9.652842e+05
  -1.536560e+06   4.403967e+05
  -1.232355e+06  -7.806926e+05
   1.631462e+05  -1.671063e+06
   1.802215e+06  -1.224457e+06
   2.392623e+06   4.738918e+05
   1.258394e+06   2.144641e+06
  -9.096392e+05   2.427847e+06
  -2.520561e+06   1.158143e+06
  -2.498220e+06  -5.295680e+05
  -1.205833e+06  -1.373908e+06
   9.003606e+04  -1.163996e+06
   5.336511e+05  -7.071597e+05
   3.309955e+05  -7.657736e+05
   2.399603e+05  -1.203936e+06
   6.625592e+05  -1.213390e+06
   1.264088e+06  -2.817109e+05
   1.341710e+06   1.144515e+06
   5.436848e+05   1.976774e+06
  -6.767853e+05   1.485153e+06
  -1.346848e+06   2.055005e+04
  -8.742680e+05  -1.261071e+06
   2.954265e+05  -1.427560e+06
   1.065582e+06  -5.484556e+05
   8.127595e+05   5.126122e+05
   1.102053e+04   9.883610e+05
  -3.722119e+05   8.268363e+05
  -1.175105e+04   5.032734e+05
   4.145352e+05   3.925447e+05
   3.874298e+04   4.160788e+05
  -1.125522e+06   2.348698e+05
  -2.044257e+06  -3.196584e+05
  -1.666066e+06  -1.019626e+06
  -6.289730e+04  -1.395683e+06
   1.519685e+06  -1.128212e+06
   1.846708e+06  -3.586772e+05
   8.978388e+05   3.621509e+05
  -2.147710e+05   5.143508e+05
  -4.872754e+05   9.402712e+04
   1.910533e+04  -3.461199e+05
   5.096042e+05  -2.397784e+05
   4.786424e+05   3.606215e+05
   1.464484e+05   7.870648e+05
  -9.587429e+03   5.082817e+05
   1.534798e+05  -1.766919e+05
   3.773313e+05  -4.015107e+05
   3.083203e+05   2.306882e+05
  -2.072030e+05   1.065557e+06
  -9.379828e+05   1.080108e+06
  -1.287937e+06   9.299748e+04
  -7.468884e+05  -9.650705e+05
   4.436537e+05  -1.075399e+06
   1.236439e+06  -2.307073e+05
   7.412670e+05   6.371753e+05
  -7.040733e+05   6.905855e+05
  -1.698172e+06  -4.581602e+04
  -1.188661e+06  -8.703928e+05
   3.976191e+05  -1.115836e+06
   1.589125e+06  -6.467161e+05
   1.381890e+06   1.220873e+05
   1.945355e+05   5.615009e+05
  -6.643019e+05   3.280208e+05
  -3.612194e+05  -2.766433e+05
   6.679132e+05  -4.877833e+05
   1.224977e+06   1.773164e+05
   5.915428e+05   1.283404e+06
  -7.491911e+05   1.733102e+06
  -1.616316e+06   8.383244e+05
  -1.301563e+06  -8.467437e+05
  -1.791111e+05  -1.905207e+06
   7.907869e+05  -1.407604e+06
   9.883250e+05   1.275826e+05
   5.108579e+05   1.245909e+06
  -1.515804e+05   1.064764e+06
  -5.650612e+05   1.196607e+05
  -5.510048e+05  -4.155645e+05
  -2.417267e+05  -1.677980e+05
  -2.412154e+04   1.208033e+05
  -1.882010e+05  -2.672596e+05
  -4.868480e+05  -1.000896e+06
  -2.751605e+05  -1.149419e+06
   6.572803e+05  -4.210966e+05
   1.560556e+06   5.063229e+05
   1.418142e+06   8.909123e+05
   1.972266e+05   7.194747e+05
  -9.710649e+05   4.258785e+05
  -1.062454e+06   2.084847e+05
  -3.197230e+05  -1.973152e+04
   1.824542e+05  -2.284877e+05
  -4.243109e+04  -2.533474e+05
  -3.646292e+05  -1.472618e+05
  -1.809040e+04  -1.476129e+05
   7.911179e+05  -2.083883e+05
   1.088919e+06   5.481711e+04
   3.186198e+05   7.230038e+05
  -9.840207e+05   1.173543e+06
  -1.740957e+06   7.019946e+05
  -1.371454e+06  -5.265651e+05
  -2.325361e+05  -1.495682e+06
   8.070909e+05  -1.402442e+06
   1.111083e+06  -4.906824e+05
   6.974559e+05   3.011366e+05
   9.856281e+04   3.786702e+05
  -1.474118e+05   2.250810e+04
   5.754456e+04  -7.069049e+04
   3.461202e+05   3.656170e+05
   2.773518e+05   8.512437e+05
  -2.176443e+05   6.924141e+05
  -7.298303e+05  -1.928320e+05
  -7.122844e+05  -1.065397e+06
  -1.622020e+04  -1.077907e+06
   8.428670e+05  -1.737276e+05
   1.049492e+06   8.439587e+05
   2.956796e+05   1.146567e+06
  -7.744811e+05   6.422641e+05
  -1.135540e+06  -1.220531e+05
  -5.017410e+05  -6.029282e+05
   3.111350e+05  -6.380804e+05
   3.446273e+05  -3.604187e+05
  -3.269595e+05  -3.740145e+04
  -7.002278e+05   1.904817e+04
  -1.245425e+05  -3.135211e+05
   8.779552e+05  -7.058188e+05
   1.271532e+06  -5.914836e+05
   7.273720e+05   1.497688e+05
  -1.242096e+05   8.831219e+05
  -5.375221e+05   8.580209e+05
  -3.846758e+05   1.114372e+05
  -1.317570e+04  -5.320770e+05
   2.728607e+05  -4.166454e+05
   3.723383e+05   2.196678e+05
   2.461573e+05   6.129223e+05
  -8.137388e+04   3.935214e+05
  -4.073903e+05  -8.049162e+04
  -4.709398e+05  -2.628836e+05
  -2.504408e+05  -6.869038e+04
   1.467648e+03   1.128492e+05
   8.148010e+04  -4.894613e+04
   7.512947e+04  -4.118540e+05
   1.817949e+05  -5.150753e+05
   3.797742e+05  -1.164926e+05
   3.971418e+05   4.796903e+05
   4.738606e+04   6.954213e+05
  -4.653953e+05   2.937472e+05
  -6.533842e+05  -3.468984e+05
  -2.254885e+05  -6.314874e+05
   5.222520e+05  -3.638889e+05
   8.902118e+05   1.247503e+05
   4.772383e+05   4.078550e+05
  -3.178306e+05   3.696083e+05
  -6.607538e+05   1.715169e+05
  -2.172026e+05   3.222017e+03
   4.303425e+05  -1.958810e+04
   4.535308e+05   1.395834e+05
  -2.333503e+05   3.427731e+05
  -8.711119e+05   2.702714e+05
