
 $NMID
 id='ANONYMOUS ', fmtdat='(2E16.6)'
 volume=1.0
 tramp=1.0
 $END
   3.928575e+06  -1.584807e+06
   2.741580e+06   2.748359e+06
  -7.516434e+05   3.285529e+06
  -2.267142e+06   4.045736e+05
  -8.356458e+05  -1.747262e+06
   8.958749e+05  -1.108145e+06
   8.998520e+05   5.178290e+05
  -1.296513e+05   9.598674e+05
  -7.575996e+05   3.266638e+05
  -7.366751e+05  -2.422817e+05
  -4.546701e+05  -4.330486e+05
  -1.964010e+04  -4.830527e+05
   4.004117e+05  -3.577122e+05
   3.682154e+05  -6.518907e+04
  -9.665000e+04   1.867436e+04
  -3.472644e+05  -2.417786e+05
  -6.854727e+04  -4.412532e+05
   3.123136e+05  -3.337316e+05
   4.648195e+05  -1.700087e+05
   5.947660e+05  -3.305042e+04
   7.042134e+05   3.786941e+05
   3.026728e+05   9.186990e+05
  -6.066038e+05   8.027551e+05
  -1.075679e+06  -1.586068e+05
  -4.638730e+05  -9.166297e+05
   4.958837e+05  -5.300609e+05
   6.502889e+05   4.515006e+05
  -3.435104e+04   7.685564e+05
  -6.438524e+05   1.570536e+05
  -6.369401e+05  -5.726263e+05
  -2.175514e+05  -8.203048e+05
   3.099025e+05  -6.738691e+05
   7.490276e+05  -3.013844e+05
   7.633593e+05   2.317612e+05
   2.239633e+05   5.652975e+05
  -2.835446e+05   3.064513e+05
  -7.695756e+04  -2.198002e+05
   5.393427e+05  -2.413633e+05
   6.158758e+05   3.109986e+05
   6.590977e+03   6.709929e+05
  -4.152162e+05   4.435457e+05
  -1.824807e+05   1.635102e+05
   5.252035e+04   3.040916e+05
  -3.221428e+05   4.727875e+05
  -8.298069e+05   1.330263e+05
  -6.880920e+05  -4.553267e+05
  -4.773839e+04  -6.476492e+05
   3.060748e+05  -3.773573e+05
   1.325351e+05  -9.866226e+04
  -1.090735e+05  -3.750316e+04
  -8.533963e+04  -6.906589e+04
   8.893234e+04  -1.388082e+05
   2.619730e+05  -2.562732e+05
   3.963103e+05  -2.223340e+05
   3.545185e+05   1.026612e+05
   5.949670e+04   3.867782e+05
  -1.746263e+05   2.347951e+05
   2.427627e+03  -9.444489e+04
   3.273743e+05   4.752976e+03
   2.058091e+05   4.830010e+05
  -3.329258e+05   6.217565e+05
  -6.000282e+05   1.455063e+05
  -3.079850e+05  -3.366078e+05
  -4.716981e+03  -2.885855e+05
  -1.457229e+05  -1.851939e+04
  -3.635978e+05  -5.401979e+04
  -1.503812e+05  -2.723485e+05
   2.394801e+05  -2.294061e+05
   2.048805e+05  -3.669769e+03
  -1.827202e+05  -6.371002e+04
  -2.585313e+05  -4.306742e+05
   2.100637e+05  -5.795796e+05
   6.889618e+05  -2.139180e+05
   6.523557e+05   3.406830e+05
   2.052817e+05   6.159998e+05
  -2.151982e+05   4.997162e+05
  -3.695802e+05   1.590970e+05
  -2.689300e+05  -1.929599e+05
  -1.629449e+04  -3.337635e+05
   1.981848e+05  -1.357587e+05
   1.693520e+05   2.103722e+05
  -6.955542e+04   3.164408e+05
  -2.274324e+05   7.863318e+04
  -1.238532e+05  -1.760533e+05
   7.949577e+04  -1.482766e+05
   1.274042e+05   5.439869e+04
  -1.385483e+04   1.458426e+05
  -1.992302e+05   5.234982e+04
  -2.911544e+05  -1.068106e+05
  -1.924843e+05  -2.419923e+05
   1.154641e+05  -2.944799e+05
   4.298869e+05  -1.735663e+05
   4.221026e+05   9.114429e+04
   5.815059e+04   2.595459e+05
  -2.607362e+05   1.609847e+05
  -1.916635e+05  -3.859469e+04
   8.852940e+04  -6.627984e+04
   1.699449e+05   6.054993e+04
   1.794575e+03   1.082202e+05
  -1.215862e+05   1.670170e+04
  -7.025986e+04  -6.067524e+04
  -4.733406e+03  -6.811796e+04
   2.901243e+03  -9.736110e+04
   9.081209e+04  -1.127823e+05
   2.522600e+05   5.383975e+04
   2.154548e+05   3.422670e+05
  -1.246825e+05   4.052681e+05
  -4.371314e+05   8.669735e+04
  -3.691618e+05  -2.914820e+05
  -3.405245e+04  -3.410824e+05
   1.766005e+05  -1.161131e+05
   1.300644e+05   3.625538e+04
   2.999553e+04  -8.317592e+03
   3.469055e+04  -6.353542e+04
   7.438580e+04   1.200364e+03
   5.092010e+04   8.446084e+04
  -1.272844e+04   6.691358e+04
  -6.365647e+04  -1.996680e+04
  -8.178929e+04  -9.603565e+04
  -1.976362e+04  -1.328146e+05
   1.515173e+05  -9.825204e+04
   3.033416e+05   4.410256e+04
   2.330699e+05   2.176054e+05
  -4.536322e+04   2.548134e+05
  -2.572476e+05   1.152237e+05
  -2.058749e+05  -3.640546e+04
  -1.648932e+04  -4.799017e+04
   6.434873e+04   2.993251e+04
  -1.101846e+04   5.594458e+04
  -1.008522e+05   3.410081e+02
  -1.081372e+05  -6.273841e+04
  -5.940506e+04  -8.724899e+04
  -2.466517e+03  -7.671667e+04
   3.814825e+04  -3.337567e+04
   2.822288e+04   1.631918e+04
  -3.468906e+04  -2.045559e+03
  -6.131410e+04  -1.080314e+05
   3.559577e+04  -1.841176e+05
   1.905053e+05  -1.051031e+05
   2.354682e+05   7.763946e+04
   1.136466e+05   1.891924e+05
  -5.157258e+04   1.535460e+05
  -1.182012e+05   5.759839e+04
  -7.092397e+04   1.227297e+03
   1.298454e+04  -4.250659e+03
   5.709499e+04   1.973370e+04
   1.956792e+04   6.104882e+04
  -8.322891e+04   7.461427e+04
  -1.535275e+05   6.783641e+03
  -9.285479e+04  -9.425638e+04
   5.364707e+04  -9.546602e+04
   1.135366e+05   3.267809e+04
   9.758223e+02   1.379532e+05
  -1.597710e+05   7.511523e+04
  -1.898162e+05  -1.016712e+05
  -6.933945e+04  -2.201051e+05
   7.828424e+04  -2.018665e+05
   1.570308e+05  -1.027452e+05
   1.630933e+05   5.963557e+03
   1.215156e+05   8.994210e+04
   5.877476e+04   1.165438e+05
   2.178594e+04   7.788922e+04
   3.016615e+04   4.224034e+04
   1.684330e+04   7.863396e+04
  -8.786361e+04   1.279440e+05
  -2.108424e+05   5.955238e+04
  -1.842501e+05  -1.189440e+05
   2.489408e+04  -2.214203e+05
   2.302431e+05  -1.129877e+05
   2.336272e+05   1.070351e+05
   4.827625e+04   2.273305e+05
  -1.481219e+05   1.678762e+05
  -2.233311e+05   2.358873e+04
  -1.797166e+05  -8.662985e+04
  -8.082530e+04  -1.251403e+05
   1.850573e+04  -1.109617e+05
   7.708866e+04  -7.694357e+04
   8.081632e+04  -5.954452e+04
   6.566900e+04  -6.876490e+04
   7.698037e+04  -5.837770e+04
   9.860679e+04   2.183801e+04
   6.939375e+04   1.358115e+05
  -2.176608e+04   1.764086e+05
  -1.038198e+05   9.117102e+04
  -1.041755e+05  -4.866877e+04
  -2.797770e+04  -1.272747e+05
   5.713580e+04  -1.006626e+05
   8.749873e+04  -1.591298e+04
   4.734189e+04   5.421366e+04
  -2.195247e+04   7.168079e+04
  -4.912767e+04   5.002025e+04
  -4.579808e+03   3.277424e+04
   4.727044e+04   4.366097e+04
   1.025827e+04   5.179681e+04
  -1.109209e+05   8.018157e+03
  -1.881256e+05  -7.940811e+04
  -1.166301e+05  -1.380835e+05
   5.151714e+04  -1.158275e+05
   1.660623e+05  -4.033990e+04
   1.469880e+05   2.459065e+04
   4.805711e+04   4.905698e+04
  -3.137843e+04   3.827672e+04
  -4.482353e+04   1.983508e+03
  -9.238001e+03  -3.674006e+04
   3.225241e+04  -3.330045e+04
   4.187371e+04   2.456938e+04
   1.532061e+04   7.337270e+04
  -6.954373e+03   4.425424e+04
   1.620645e+04  -2.857783e+04
   6.164828e+04  -3.646483e+04
   5.416449e+04   5.170608e+04
  -3.653784e+04   1.308074e+05
  -1.395379e+05   9.140577e+04
  -1.521464e+05  -3.675964e+04
  -5.297058e+04  -1.234318e+05
   7.516616e+04  -9.400610e+04
   1.258094e+05   1.845769e+03
   5.975852e+04   6.574460e+04
  -6.634432e+04   4.916910e+04
  -1.424276e+05  -2.314801e+04
  -9.381984e+04  -8.807559e+04
   4.348675e+04  -9.178299e+04
   1.439490e+05  -3.142462e+04
   1.163251e+05   3.694906e+04
   4.307549e+03   4.930326e+04
  -6.180491e+04   1.755547e+03
  -1.365762e+04  -4.403170e+04
   8.245647e+04  -2.713732e+04
   1.084536e+05   5.150904e+04
   2.480087e+04   1.311734e+05
  -9.646080e+04   1.398482e+05
  -1.511864e+05   4.973210e+04
  -9.866837e+04  -8.775556e+04
   1.134010e+04  -1.639837e+05
   8.890621e+04  -1.068474e+05
   8.167052e+04   3.300543e+04
   1.349148e+04   1.207879e+05
  -4.852258e+04   8.336650e+04
  -6.117558e+04  -1.192521e+04
  -3.532695e+04  -5.153542e+04
  -7.801425e+03  -1.903470e+04
  -1.050650e+03   2.542651e+03
  -1.121273e+04  -4.040373e+04
  -1.640098e+04  -9.798221e+04
   9.248909e+03  -8.996735e+04
   6.885135e+04  -1.097692e+04
   1.194287e+05   7.057083e+04
   1.000139e+05   9.686676e+04
   5.759482e+03   7.056280e+04
  -8.565822e+04   2.862382e+04
  -9.374883e+04  -1.481471e+03
  -3.166008e+04  -1.361120e+04
   1.344971e+04  -1.384576e+04
  -3.328883e+03  -1.317042e+04
  -2.971814e+04  -1.942747e+04
   2.669958e+03  -2.578685e+04
   7.543951e+04  -1.213549e+04
   9.852761e+04   3.144372e+04
   2.062660e+04   8.128839e+04
  -1.052037e+05   8.945081e+04
  -1.724971e+05   2.781330e+04
  -1.236084e+05  -7.308545e+04
   1.357812e+03  -1.380663e+05
   1.055234e+05  -1.141705e+05
   1.209833e+05  -2.646479e+04
   6.196564e+04   4.411871e+04
  -8.110008e+02   4.564983e+04
  -1.553939e+04   8.114426e+03
   6.111636e+03   4.300652e+02
   1.789361e+04   4.278846e+04
  -3.561869e+03   8.106660e+04
  -4.065364e+04   5.300437e+04
  -6.041891e+04  -3.470585e+04
  -4.121793e+04  -1.072577e+05
   1.510210e+04  -9.628522e+04
   7.442175e+04  -7.098356e+03
   8.110539e+04   8.641831e+04
   1.049267e+04   1.093689e+05
  -8.330615e+04   5.047518e+04
  -1.063967e+05  -3.417272e+04
  -3.303844e+04  -7.741857e+04
   5.225996e+04  -6.005368e+04
   5.185272e+04  -1.705567e+04
  -2.269906e+04   5.720332e+03
  -6.496258e+04  -6.627980e+03
  -9.301175e+03  -3.377538e+04
   8.836956e+04  -4.349727e+04
   1.228138e+05  -1.689136e+04
   6.242985e+04   3.567543e+04
  -2.780181e+04   7.537725e+04
  -6.994190e+04   6.370259e+04
  -4.777250e+04   4.866901e+03
   3.503654e+02  -4.681940e+04
   3.282619e+04  -3.915686e+04
   3.450617e+04   1.768764e+04
   1.249466e+04   5.919822e+04
  -1.656927e+04   4.053641e+04
  -3.509981e+04  -1.220482e+04
  -3.365279e+04  -3.710695e+04
  -1.807601e+04  -1.296694e+04
  -3.971093e+03   1.816122e+04
   1.860575e+02   7.675758e+03
   2.747379e+03  -3.627706e+04
   1.687952e+04  -5.694002e+04
   3.794701e+04  -1.859719e+04
   4.009997e+04   4.604896e+04
   5.134110e+03   6.908479e+04
  -4.549927e+04   2.451811e+04
  -6.085726e+04  -4.118923e+04
  -1.445867e+04  -6.175483e+04
   5.681498e+04  -2.344709e+04
   8.301032e+04   2.796650e+04
   3.568952e+04   4.600325e+04
  -3.777795e+04   2.946981e+04
  -6.390318e+04   6.898442e+03
  -2.276010e+04  -3.012537e+03
   3.222926e+04  -2.557415e+02
   3.542528e+04   1.098887e+04
  -1.851327e+04   2.223225e+04
  -6.960420e+04   1.311497e+04
