
 $NMID
 id='ANONYMOUS ', fmtdat='(2E16.6)'
 volume=1.0
 tramp=1.0
 $END
   1.969054e+07   1.137386e+06
   1.221779e+07   1.018857e+07
  -1.076964e+06   1.232018e+07
  -8.800714e+06   7.383097e+06
  -6.763939e+06   2.355329e+05
  -1.249173e+05  -3.400312e+06
   3.841131e+06  -1.413201e+06
   2.638324e+06   3.162255e+06
  -1.133610e+06   5.082061e+06
  -3.646905e+06   2.108533e+06
  -3.044859e+06  -2.635908e+06
  -2.794997e+05  -4.072244e+06
   1.935727e+06  -8.223166e+05
   1.448105e+06   3.338086e+06
  -1.223445e+06   3.827979e+06
  -3.216133e+06   1.789190e+05
  -2.210488e+06  -3.918255e+06
   1.128498e+06  -4.782531e+06
   3.874549e+06  -2.141322e+06
   3.831106e+06   1.324208e+06
   1.553295e+06   2.933222e+06
  -4.555280e+05   2.296686e+06
  -3.390348e+05   1.160643e+06
   1.233497e+06   1.307985e+06
   1.729484e+06   2.614577e+06
  -4.666311e+05   3.252659e+06
  -3.912347e+06   1.863537e+06
  -5.255717e+06  -7.810005e+05
  -2.871376e+06  -2.564131e+06
   1.091037e+06  -2.208625e+06
   2.881236e+06  -3.326559e+05
   1.163276e+06   1.376274e+06
  -1.790447e+06   1.544231e+06
  -2.885316e+06  -3.247236e+04
  -1.441525e+06  -2.145410e+06
   6.551759e+05  -2.851505e+06
   1.400008e+06  -1.275969e+06
   6.030148e+05   1.043876e+06
  -4.253714e+05   1.496740e+06
  -4.685657e+05  -4.513286e+05
   5.000734e+05  -2.302098e+06
   1.450517e+06  -1.541386e+06
   1.285337e+06   1.050569e+06
  -1.092229e+05   2.280446e+06
  -1.570738e+06   5.647640e+05
  -1.549650e+06  -2.151101e+06
   3.781822e+05  -2.843460e+06
   2.789502e+06  -8.317340e+05
   3.470320e+06   1.860702e+06
   1.524307e+06   2.928403e+06
  -1.540053e+06   1.842803e+06
  -3.083950e+06  -1.682473e+05
  -1.894331e+06  -1.444179e+06
   6.207556e+05  -1.181937e+06
   1.947036e+06   5.317932e+04
   1.080263e+06   9.159875e+05
  -6.115445e+05   6.001679e+05
  -1.123178e+06  -3.808620e+05
  -6.365583e+04  -8.568955e+05
   1.078877e+06  -3.275170e+05
   7.690589e+05   5.938833e+05
  -8.113662e+05   9.229799e+05
  -1.946255e+06   1.968449e+05
  -1.200028e+06  -1.233743e+06
   1.079021e+06  -2.387803e+06
   3.073009e+06  -2.190259e+06
   3.253860e+06  -3.723597e+05
   1.774615e+06   1.969177e+06
   1.055401e+05   3.157277e+06
  -5.811286e+05   2.599469e+06
  -4.621753e+05   1.366709e+06
  -5.096244e+05   8.002285e+05
  -1.189482e+06   8.757004e+05
  -1.962733e+06   4.748374e+05
  -1.963529e+06  -8.523010e+05
  -9.119024e+05  -2.049213e+06
   6.197303e+05  -1.753458e+06
   1.609311e+06   2.210866e+04
   1.282615e+06   1.774384e+06
  -2.405615e+05   2.004012e+06
  -1.840572e+06   6.088071e+05
  -2.225201e+06  -1.176724e+06
  -1.152219e+06  -2.033581e+06
   2.964238e+05  -1.688009e+06
   9.110027e+05  -9.119729e+05
   7.138360e+05  -5.530688e+05
   7.873142e+05  -6.594555e+05
   1.730123e+06  -5.625661e+05
   2.687062e+06   2.851999e+05
   2.236170e+06   1.655120e+06
   1.247843e+05   2.672748e+06
  -2.200859e+06   2.520746e+06
  -2.931490e+06   1.122651e+06
  -1.667270e+06  -6.674617e+05
   2.350129e+05  -1.604236e+06
   1.050744e+06  -1.092513e+06
   3.336085e+05   1.652095e+05
  -8.412881e+05   7.896306e+05
  -1.157752e+06   1.962652e+05
  -4.068085e+05  -7.371706e+05
   4.737013e+05  -7.476978e+05
   5.150060e+05   2.037732e+05
  -3.133611e+05   8.106462e+05
  -1.167336e+06   7.218960e+03
  -1.133386e+06  -1.665306e+06
   2.579651e+04  -2.560449e+06
   1.655767e+06  -1.673495e+06
   2.608824e+06   3.493893e+05
   2.105535e+06   1.918867e+06
   4.891241e+05   2.022679e+06
  -9.442209e+05   1.013653e+06
  -1.135996e+06   6.183640e+04
  -3.300878e+05  -3.396441e+04
   2.457985e+05   4.915963e+05
  -1.896685e+05   7.871673e+05
  -1.083459e+06   3.598219e+05
  -1.253824e+06  -4.274886e+05
  -3.372979e+05  -8.047958e+05
   7.289666e+05  -4.312584e+05
   7.317563e+05   2.764111e+05
  -4.514188e+05   5.761027e+05
  -1.639909e+06   8.583862e+04
  -1.526242e+06  -8.826761e+05
  -2.931765e+04  -1.552124e+06
   1.573169e+06  -1.299862e+06
   1.892744e+06  -2.419865e+05
   7.887757e+05   7.613635e+05
  -5.567283e+05   8.585220e+05
  -8.784199e+05   8.221354e+04
  -4.068073e+04  -6.353858e+05
   9.787471e+05  -4.547325e+05
   1.156454e+06   4.424660e+05
   3.722017e+05   1.077760e+06
  -5.977774e+05   7.976184e+05
  -8.763293e+05  -2.144396e+04
  -2.985726e+05  -4.537950e+05
   4.397335e+05  -6.140233e+04
   4.485352e+05   6.790592e+05
  -4.282784e+05   9.214702e+05
  -1.357203e+06   3.022089e+05
  -1.327362e+06  -7.350065e+05
  -2.485967e+05  -1.360032e+06
   9.061454e+05  -1.089469e+06
   1.126199e+06  -1.973201e+05
   3.963279e+05   5.446882e+05
  -4.040303e+05   5.759042e+05
  -5.102901e+05   4.708599e+04
  -9.918813e+02  -3.914814e+05
   4.453264e+05  -3.050606e+05
   3.348236e+05   7.439869e+04
  -1.610136e+05   1.596107e+05
  -4.144095e+05  -2.702721e+05
   1.354348e+04  -7.583667e+05
   8.771061e+05  -6.323415e+05
   1.391612e+06   2.541023e+05
   9.702758e+05   1.294451e+06
  -1.503494e+05   1.661249e+06
  -1.104028e+06   1.066142e+06
  -1.251525e+06   9.231920e+03
  -7.592106e+05  -7.051287e+05
  -2.814631e+05  -7.035699e+05
  -1.898124e+05  -3.196250e+05
  -2.517598e+05  -1.574387e+05
  -3.135878e+04  -4.058648e+05
   5.346281e+05  -6.346201e+05
   1.005034e+06  -3.110565e+05
   8.336031e+05   5.123079e+05
  -8.094938e+04   1.121772e+06
  -1.172952e+06   8.260285e+05
  -1.573389e+06  -2.955827e+05
  -8.460548e+05  -1.385534e+06
   5.533847e+05  -1.579370e+06
   1.613430e+06  -7.833251e+05
   1.645095e+06   3.020776e+05
   8.404904e+05   8.883317e+05
  -2.552670e+04   8.005925e+05
  -3.742251e+05   5.040104e+05
  -2.705613e+05   4.989947e+05
  -1.846240e+05   7.534838e+05
  -4.226037e+05   7.660891e+05
  -8.068484e+05   1.760892e+05
  -8.688003e+05  -7.484831e+05
  -3.535185e+05  -1.291118e+06
   4.440009e+05  -9.706764e+05
   8.817018e+05  -2.401633e+04
   5.814531e+05   8.030360e+05
  -1.630252e+05   9.268391e+05
  -6.598732e+05   3.898604e+05
  -5.231127e+05  -2.831782e+05
  -4.131987e+04  -6.138360e+05
   1.967403e+05  -5.426078e+05
  -1.237617e+04  -3.451866e+05
  -2.623792e+05  -2.664319e+05
  -1.960059e+04  -2.754536e+05
   7.175712e+05  -1.582718e+05
   1.310031e+06   1.986876e+05
   1.085983e+06   6.469334e+05
   6.943314e+04   8.867633e+05
  -9.574220e+05   7.263464e+05
  -1.191176e+06   2.561982e+05
  -5.940004e+05  -1.973674e+05
   1.263134e+05  -3.173441e+05
   3.066047e+05  -7.578161e+04
  -2.629978e+04   2.047941e+05
  -3.459154e+05   1.503350e+05
  -3.079602e+05  -2.371311e+05
  -6.836464e+04  -5.238758e+05
   3.167786e+04  -3.357762e+05
  -1.018254e+05   1.336779e+05
  -2.640967e+05   2.865465e+05
  -2.043664e+05  -1.461694e+05
   1.482219e+05  -7.039758e+05
   6.092687e+05  -6.984650e+05
   8.078203e+05  -4.036703e+04
   4.548850e+05   6.324166e+05
  -2.910652e+05   6.755570e+05
  -7.900962e+05   1.223020e+05
  -4.800343e+05  -4.253992e+05
   4.521617e+05  -4.561011e+05
   1.120183e+06   1.298716e+04
   8.126892e+05   5.578444e+05
  -2.306450e+05   7.497911e+05
  -1.042248e+06   4.629474e+05
  -9.263236e+05  -5.624884e+04
  -1.425076e+05  -3.722589e+05
   4.293117e+05  -2.284412e+05
   2.268207e+05   1.718535e+05
  -4.497987e+05   3.061678e+05
  -7.990204e+05  -1.367050e+05
  -3.616230e+05  -8.515330e+05
   5.217547e+05  -1.124156e+06
   1.073926e+06  -5.288335e+05
   8.503654e+05   5.665155e+05
   1.118780e+05   1.254671e+06
  -5.184906e+05   9.362708e+05
  -6.511645e+05  -6.619358e+04
  -3.524786e+05  -8.123985e+05
   7.472302e+04  -7.090105e+05
   3.619179e+05  -8.792230e+04
   3.783262e+05   2.748626e+05
   1.780765e+05   1.144592e+05
   8.200938e+03  -8.485363e+04
   9.492148e+04   1.638211e+05
   3.081549e+05   6.512684e+05
   2.036405e+05   7.564790e+05
  -4.041928e+05   2.783147e+05
  -1.026848e+06  -3.333832e+05
  -9.510067e+05  -5.834456e+05
  -1.308659e+05  -4.667608e+05
   6.564104e+05  -2.771705e+05
   7.032354e+05  -1.434963e+05
   1.923875e+05   3.017002e+03
  -1.277051e+05   1.483261e+05
   5.064377e+04   1.759796e+05
   2.634863e+05   1.080631e+05
   2.204041e+03   9.838594e+04
  -5.451081e+05   1.271631e+05
  -7.102984e+05  -4.628109e+04
  -1.706591e+05  -4.730256e+05
   6.721922e+05  -7.528150e+05
   1.127337e+06  -4.349595e+05
   8.672867e+05   3.657429e+05
   1.376996e+05   9.851248e+05
  -5.273773e+05   9.065021e+05
  -7.295597e+05   3.006373e+05
  -4.597959e+05  -2.125369e+05
  -5.279736e+04  -2.482595e+05
   1.183604e+05  -1.601188e+03
  -2.877647e+04   6.167536e+04
  -2.358716e+05  -2.321721e+05
  -1.885221e+05  -5.570597e+05
   1.499572e+05  -4.478676e+05
   4.830071e+05   1.444327e+05
   4.494212e+05   7.172363e+05
  -2.005268e+04   7.055634e+05
  -5.687615e+05   8.887636e+04
  -6.776496e+05  -5.789776e+05
  -1.729519e+05  -7.520795e+05
   5.152244e+05  -3.999946e+05
   7.317612e+05   9.279817e+04
   3.110685e+05   3.820908e+05
  -2.065448e+05   3.949051e+05
  -2.083689e+05   2.278854e+05
   2.354407e+05   3.259800e+04
   4.641106e+05  -6.122790e+03
   7.236282e+04   2.024124e+05
  -5.777340e+05   4.610249e+05
  -8.159461e+05   3.957112e+05
  -4.533624e+05  -8.682106e+04
   8.802829e+04  -5.695324e+05
   3.384647e+05  -5.490410e+05
   2.328498e+05  -5.407225e+04
  -4.409406e+03   3.579958e+05
  -1.857015e+05   2.602823e+05
  -2.454165e+05  -1.642803e+05
  -1.550716e+05  -4.034753e+05
   6.188318e+04  -2.405193e+05
   2.662522e+05   6.307414e+04
   2.993013e+05   1.620099e+05
   1.623739e+05   3.462087e+04
   1.035144e+04  -5.994057e+04
  -5.059100e+04   6.207284e+04
  -7.634443e+04   2.836798e+05
  -1.607144e+05   3.189384e+05
  -2.643267e+05   4.091008e+04
  -2.343738e+05  -3.409897e+05
   6.104679e+03  -4.615532e+05
   3.167949e+05  -1.811070e+05
   4.141522e+05   2.445813e+05
   1.348957e+05   4.231113e+05
  -3.384656e+05   2.318155e+05
  -5.714909e+05  -9.632365e+04
  -3.044822e+05  -2.707107e+05
   2.114950e+05  -2.259750e+05
   4.301637e+05  -9.057847e+04
   1.277470e+05   3.689138e+03
  -3.041556e+05  -2.887955e+03
  -3.064359e+05  -1.145100e+05
   1.706206e+05  -2.374392e+05
   6.001039e+05  -1.736803e+05
