
 $NMID
 id='ANONYMOUS ', fmtdat='(2E16.6)'
 volume=1.0
 tramp=1.0
 $END
  -4.998441e+07   1.853464e+06
  -3.215660e+07  -2.824557e+07
   3.816997e+06  -3.375616e+07
   2.355633e+07  -1.580156e+07
   1.587408e+07   3.880554e+06
  -1.720079e+06   8.662394e+06
  -9.235446e+06   4.872582e+05
  -3.997823e+06  -8.565594e+06
   4.611182e+06  -9.841170e+06
   8.802390e+06  -3.083238e+06
   6.836909e+06   5.549885e+06
   1.011410e+06   8.285460e+06
  -3.752576e+06   2.483361e+06
  -2.783081e+06  -5.678919e+06
   3.141610e+06  -6.978762e+06
   7.419853e+06   4.652129e+05
   4.800274e+06   9.158486e+06
  -2.763794e+06   1.109990e+07
  -8.937819e+06   5.731678e+06
  -9.680190e+06  -1.715285e+06
  -5.722628e+06  -6.477671e+06
  -6.464000e+05  -7.132443e+06
   1.787670e+06  -4.982083e+06
   3.719274e+05  -2.898859e+06
  -1.750359e+06  -3.175206e+06
   1.068883e+05  -4.781216e+06
   5.913614e+06  -4.168546e+06
   9.665099e+06  -1.012992e+05
   6.605973e+06   4.095554e+06
  -3.308106e+05   4.653794e+06
  -4.134567e+06   1.947160e+06
  -2.254798e+06  -7.760967e+05
   1.614299e+06  -1.480057e+06
   3.308489e+06  -2.098733e+05
   2.286215e+06   2.279263e+06
   8.703180e+04   4.312255e+06
  -1.904329e+06   3.390717e+06
  -2.446828e+06  -5.292366e+05
  -1.019524e+06  -3.197070e+06
   6.158864e+05  -1.015666e+06
  -1.148591e+05   3.024941e+06
  -2.527929e+06   2.573037e+06
  -2.603721e+06  -2.728206e+06
   1.419773e+06  -5.726369e+06
   5.608461e+06  -1.441042e+06
   4.746227e+06   5.728709e+06
  -1.108929e+06   7.613389e+06
  -6.615013e+06   2.465407e+06
  -7.019441e+06  -3.934092e+06
  -2.398053e+06  -5.889142e+06
   3.263294e+06  -3.109780e+06
   5.578588e+06   1.007218e+06
   2.961454e+06   3.238787e+06
  -1.947920e+06   2.351262e+06
  -4.328833e+06  -4.780721e+05
  -2.116635e+06  -2.348090e+06
   1.484585e+06  -1.374091e+06
   1.921330e+06   8.990766e+05
  -8.521213e+05   1.272399e+06
  -2.514047e+06  -8.667222e+05
  -2.999441e+05  -2.798215e+06
   3.538380e+06  -2.150832e+06
   4.903338e+06   5.415472e+05
   2.509252e+06   3.368186e+06
  -1.700408e+06   5.071118e+06
  -5.123268e+06   4.726774e+06
  -6.100013e+06   1.581569e+06
  -4.247801e+06  -3.165778e+06
  -8.840872e+05  -6.063574e+06
   1.483954e+06  -4.932650e+06
   1.507839e+06  -1.783580e+06
   5.345200e+05  -3.053377e+05
   7.469258e+05  -1.093167e+06
   2.225148e+06  -1.435026e+06
   3.029697e+06   3.484427e+05
   1.893080e+06   2.523889e+06
  -3.767406e+05   2.491523e+06
  -2.048322e+06   9.137125e+04
  -1.935755e+06  -2.512213e+06
   1.105864e+05  -3.218762e+06
   2.950077e+06  -1.538170e+06
   4.388853e+06   1.402771e+06
   2.992442e+06   3.661215e+06
  -3.665989e+04   3.875475e+06
  -1.971388e+06   2.493279e+06
  -1.910339e+06   1.224599e+06
  -1.739357e+06   9.487129e+05
  -3.091931e+06   7.469231e+05
  -4.662107e+06  -6.065166e+05
  -3.823206e+06  -2.850425e+06
  -2.354136e+05  -4.475627e+06
   3.489566e+06  -4.266371e+06
   4.609616e+06  -2.187579e+06
   2.814688e+06   6.567605e+05
   5.916085e+04   2.477461e+06
  -1.359133e+06   1.981276e+06
  -5.781270e+05  -1.163428e+05
   1.239600e+06  -1.388849e+06
   2.008318e+06  -4.329785e+05
   9.048032e+05   1.246414e+06
  -6.337372e+05   1.220603e+06
  -6.263334e+05  -4.097988e+05
   9.450668e+05  -1.038941e+06
   2.099344e+06   8.336711e+05
   1.267368e+06   3.471684e+06
  -1.075383e+06   4.049162e+06
  -3.248232e+06   1.894674e+06
  -3.964621e+06  -1.193727e+06
  -2.895432e+06  -3.105541e+06
  -6.224998e+05  -3.053753e+06
   1.418102e+06  -1.636508e+06
   1.772572e+06  -2.080763e+05
   5.425798e+05   4.570716e+04
  -4.096166e+05  -8.163302e+05
   3.716746e+05  -1.422629e+06
   1.969707e+06  -6.659458e+05
   2.201883e+06   8.359661e+05
   5.067187e+05   1.474791e+06
  -1.254278e+06   6.806233e+05
  -1.072167e+06  -4.867361e+05
   8.800141e+05  -7.361685e+05
   2.546669e+06   1.583317e+05
   2.160395e+06   1.492077e+06
  -1.521557e+05   2.335774e+06
  -2.556546e+06   1.966688e+06
  -3.078570e+06   3.703861e+05
  -1.350347e+06  -1.322449e+06
   9.412408e+05  -1.583220e+06
   1.610069e+06  -2.198445e+05
   1.880597e+05   1.124535e+06
  -1.634952e+06   8.127166e+05
  -1.915801e+06  -7.903290e+05
  -4.846365e+05  -1.814439e+06
   1.125346e+06  -1.190961e+06
   1.430041e+06   2.185758e+05
   3.685982e+05   8.307794e+05
  -8.239944e+05   9.577595e+04
  -8.025512e+05  -1.130843e+06
   6.373405e+05  -1.554346e+06
   2.206964e+06  -5.880541e+05
   2.233616e+06   1.144892e+06
   4.492331e+05   2.263472e+06
  -1.529588e+06   1.829926e+06
  -1.888302e+06   2.912110e+05
  -6.044865e+05  -9.355350e+05
   6.977646e+05  -9.208211e+05
   7.484165e+05  -8.105610e+04
  -9.366689e+04   4.972658e+05
  -6.256786e+05   3.231685e+05
  -2.837997e+05  -1.151259e+05
   4.337837e+05  -6.180788e+04
   6.384970e+05   6.334923e+05
  -1.338061e+05   1.302137e+06
  -1.486091e+06   1.029796e+06
  -2.301017e+06  -4.143869e+05
  -1.635449e+06  -2.117035e+06
   2.132983e+05  -2.694384e+06
   1.786876e+06  -1.647331e+06
   1.944632e+06   7.338287e+04
   1.055711e+06   1.057920e+06
   3.713821e+05   8.799203e+05
   4.335702e+05   3.243669e+05
   6.006798e+05   2.880003e+05
   1.040684e+05   7.747895e+05
  -9.257453e+05   1.028383e+06
  -1.621984e+06   4.289590e+05
  -1.240527e+06  -8.123052e+05
   2.199318e+05  -1.706092e+06
   1.906034e+06  -1.266612e+06
   2.526882e+06   4.929926e+05
   1.331036e+06   2.296024e+06
  -1.008095e+06   2.630766e+06
  -2.745277e+06   1.234672e+06
  -2.655954e+06  -6.204109e+05
  -1.190327e+06  -1.478758e+06
   1.656177e+05  -1.155398e+06
   5.060409e+05  -6.514305e+05
   2.041453e+05  -8.051553e+05
   1.514009e+05  -1.357801e+06
   6.955224e+05  -1.374821e+06
   1.382344e+06  -3.532436e+05
   1.470709e+06   1.183880e+06
   6.262668e+05   2.091324e+06
  -6.824077e+05   1.594522e+06
  -1.431770e+06   2.798259e+04
  -9.406464e+05  -1.374162e+06
   3.527182e+05  -1.549452e+06
   1.218533e+06  -5.445224e+05
   9.108366e+05   6.475553e+05
  -3.735877e+04   1.137563e+06
  -4.873658e+05   8.973184e+05
  -5.451378e+04   5.058225e+05
   4.617099e+05   3.851522e+05
   5.757857e+04   4.302867e+05
  -1.234655e+06   2.631420e+05
  -2.239115e+06  -3.159906e+05
  -1.803482e+06  -1.092799e+06
  -4.112213e+04  -1.548891e+06
   1.669649e+06  -1.268808e+06
   2.001665e+06  -3.758955e+05
   9.604314e+05   4.594973e+05
  -2.449326e+05   5.990106e+05
  -5.481857e+05   7.887226e+04
  -2.103235e+04  -4.141685e+05
   5.101886e+05  -2.730340e+05
   5.266266e+05   3.728907e+05
   2.281648e+05   8.049303e+05
   5.683164e+04   5.250152e+05
   1.630060e+05  -1.452284e+05
   3.569236e+05  -3.696493e+05
   3.192515e+05   2.488147e+05
  -1.760751e+05   1.108153e+06
  -9.777524e+05   1.179038e+06
  -1.431951e+06   1.814837e+05
  -8.861487e+05  -9.941107e+05
   4.383925e+05  -1.212043e+06
   1.341256e+06  -3.389671e+05
   8.068993e+05   6.424316e+05
  -7.570080e+05   7.391464e+05
  -1.789219e+06  -6.075742e+04
  -1.199969e+06  -9.412560e+05
   4.777901e+05  -1.155445e+06
   1.682214e+06  -6.228011e+05
   1.424945e+06   1.648482e+05
   1.808805e+05   5.859648e+05
  -7.147383e+05   3.328824e+05
  -4.146763e+05  -3.019932e+05
   6.633749e+05  -5.560585e+05
   1.301376e+06   1.144705e+05
   7.074509e+05   1.314610e+06
  -6.869366e+05   1.866831e+06
  -1.657614e+06   9.603225e+05
  -1.397338e+06  -8.469074e+05
  -2.347482e+05  -2.000266e+06
   8.160178e+05  -1.473886e+06
   1.046230e+06   1.575768e+05
   5.253277e+05   1.323725e+06
  -1.980967e+05   1.111605e+06
  -6.158742e+05   1.189033e+05
  -5.509412e+05  -4.278652e+05
  -2.139113e+05  -1.678265e+05
  -4.266293e+04   1.190181e+05
  -2.725777e+05  -2.950677e+05
  -5.619611e+05  -1.057772e+06
  -2.608247e+05  -1.213446e+06
   7.489922e+05  -4.625793e+05
   1.653466e+06   5.049095e+05
   1.470023e+06   9.254187e+05
   2.191279e+05   7.692365e+05
  -9.754450e+05   4.663656e+05
  -1.107711e+06   2.225976e+05
  -3.805126e+05  -3.224192e+04
   1.706836e+05  -2.472351e+05
   6.388648e+03  -2.532141e+05
  -3.283879e+05  -1.297025e+05
  -4.310146e+04  -1.469646e+05
   7.695248e+05  -2.475349e+05
   1.157582e+06   1.213908e+04
   4.375516e+05   7.487171e+05
  -9.530777e+05   1.289959e+06
  -1.853566e+06   8.374601e+05
  -1.526646e+06  -4.758593e+05
  -3.051854e+05  -1.563820e+06
   8.276875e+05  -1.527914e+06
   1.155864e+06  -5.864249e+05
   7.318204e+05   2.712264e+05
   1.383205e+05   3.933994e+05
  -1.015779e+05   4.893154e+04
   8.452895e+04  -4.390432e+04
   3.551182e+05   3.995336e+05
   2.959587e+05   8.990182e+05
  -1.971369e+05   7.487819e+05
  -7.598082e+05  -1.494438e+05
  -8.088626e+05  -1.065556e+06
  -1.078132e+05  -1.134093e+06
   8.450029e+05  -2.515540e+05
   1.142533e+06   8.129013e+05
   3.810901e+05   1.200884e+06
  -7.843963e+05   7.389254e+05
  -1.228005e+06  -7.521203e+04
  -5.862654e+05  -6.516085e+05
   3.031746e+05  -7.319062e+05
   3.931799e+05  -4.127678e+05
  -2.974856e+05  -2.331167e+04
  -7.269698e+05   4.521098e+04
  -1.590026e+05  -3.337027e+05
   9.109257e+05  -7.669713e+05
   1.377368e+06  -6.381028e+05
   8.295764e+05   1.631598e+05
  -9.708950e+04   9.568680e+05
  -5.802282e+05   9.531290e+05
  -4.424773e+05   1.734719e+05
  -4.982490e+04  -5.384290e+05
   2.619228e+05  -4.724054e+05
   3.886903e+05   1.809467e+05
   2.854624e+05   6.385387e+05
  -5.414275e+04   4.545578e+05
  -4.315827e+05  -5.403714e+04
  -5.283256e+05  -2.896647e+05
  -2.738939e+05  -9.115203e+04
   3.375853e+04   1.470773e+05
   1.013308e+05   1.304987e+04
   1.522731e+04  -3.981585e+05
   8.367855e+04  -5.777632e+05
   3.544686e+05  -2.051765e+05
   4.794351e+05   4.328899e+05
   1.445582e+05   7.109053e+05
  -4.573753e+05   3.413839e+05
  -7.241642e+05  -3.121563e+05
  -2.762822e+05  -6.393602e+05
   5.525330e+05  -4.109938e+05
   9.670403e+05   7.884264e+04
   5.307444e+05   4.125928e+05
  -3.172221e+05   4.332896e+05
  -6.965993e+05   2.443890e+05
  -2.615590e+05   2.477247e+04
   4.008632e+05  -5.796975e+04
   4.557139e+05   9.025427e+04
  -2.046736e+05   3.335923e+05
  -8.511405e+05   3.015534e+05
