
 $NMID
 id='ANONYMOUS ', fmtdat='(2E16.6)'
 volume=1.0
 tramp=1.0
 $END
   1.408335e+07   6.872512e+05
   9.052113e+06   6.682963e+06
  -2.239464e+05   8.675289e+06
  -6.060231e+06   5.911526e+06
  -5.104659e+06   7.931049e+05
  -3.952237e+05  -2.498302e+06
   2.859650e+06  -1.437666e+06
   2.286308e+06   2.213875e+06
  -5.644099e+05   4.052451e+06
  -2.667606e+06   1.848150e+06
  -2.333741e+06  -1.947198e+06
  -2.385200e+05  -3.126610e+06
   1.481746e+06  -5.798336e+05
   1.167694e+06   2.669023e+06
  -8.283262e+05   3.074160e+06
  -2.407541e+06   3.023582e+05
  -1.771965e+06  -2.850482e+06
   7.022000e+05  -3.573980e+06
   2.803107e+06  -1.601469e+06
   2.755623e+06   1.005698e+06
   9.991295e+05   2.115397e+06
  -4.090836e+05   1.487423e+06
  -6.460498e+04   6.606859e+05
   1.270660e+06   1.031433e+06
   1.505244e+06   2.242868e+06
  -4.309790e+05   2.679824e+06
  -3.179231e+06   1.419079e+06
  -4.128934e+06  -7.038568e+05
  -2.155851e+06  -2.022623e+06
   9.905581e+05  -1.663637e+06
   2.362871e+06  -1.387394e+05
   8.849093e+05   1.248804e+06
  -1.599879e+06   1.341309e+06
  -2.476934e+06  -6.600585e+04
  -1.158944e+06  -1.856230e+06
   6.399940e+05  -2.323466e+06
   1.133739e+06  -9.006665e+05
   3.186726e+05   9.282294e+05
  -4.892704e+05   1.100103e+06
  -3.547215e+05  -5.438081e+05
   4.770368e+05  -1.928685e+06
   1.146338e+06  -1.259660e+06
   1.025461e+06   7.286050e+05
   1.067585e+05   1.681573e+06
  -9.484530e+05   4.966536e+05
  -1.108410e+06  -1.451618e+06
   1.560344e+05  -2.021996e+06
   2.018764e+06  -6.387124e+05
   2.717175e+06   1.355246e+06
   1.297882e+06   2.253612e+06
  -1.157972e+06   1.516945e+06
  -2.468497e+06  -2.458183e+04
  -1.582511e+06  -1.073734e+06
   3.931036e+05  -9.474443e+05
   1.476702e+06  -3.987583e+04
   8.692069e+05   6.433050e+05
  -4.345332e+05   4.663393e+05
  -9.134497e+05  -2.716216e+05
  -1.505578e+05  -7.343837e+05
   8.343094e+05  -4.348275e+05
   7.730609e+05   3.175746e+05
  -4.100738e+05   7.478197e+05
  -1.424067e+06   3.059888e+05
  -9.614129e+05  -8.399605e+05
   8.326869e+05  -1.822854e+06
   2.434467e+06  -1.684490e+06
   2.530742e+06  -2.480565e+05
   1.315791e+06   1.554147e+06
   5.982844e+04   2.450386e+06
  -3.813139e+05   2.056568e+06
  -3.004344e+05   1.174419e+06
  -4.617816e+05   7.441960e+05
  -1.085462e+06   7.229543e+05
  -1.669803e+06   3.108667e+05
  -1.591896e+06  -7.846164e+05
  -6.954484e+05  -1.729262e+06
   5.632004e+05  -1.451053e+06
   1.363385e+06   3.225093e+04
   1.062415e+06   1.473822e+06
  -2.096870e+05   1.627517e+06
  -1.481361e+06   4.521306e+05
  -1.724805e+06  -9.711203e+05
  -8.455598e+05  -1.578134e+06
   2.450858e+05  -1.246009e+06
   6.569901e+05  -6.559060e+05
   4.899636e+05  -4.393039e+05
   5.897322e+05  -5.654230e+05
   1.375507e+06  -4.950156e+05
   2.156890e+06   1.876893e+05
   1.813070e+06   1.304873e+06
   1.227160e+05   2.155066e+06
  -1.771136e+06   2.044739e+06
  -2.378225e+06   8.935371e+05
  -1.338498e+06  -5.704544e+05
   2.262908e+05  -1.307397e+06
   8.764673e+05  -8.659331e+05
   2.662867e+05   1.469415e+05
  -6.877330e+05   6.351881e+05
  -9.247595e+05   1.603738e+05
  -3.132707e+05  -5.857156e+05
   3.942025e+05  -6.085198e+05
   4.453840e+05   1.588595e+05
  -2.104537e+05   7.020005e+05
  -9.498120e+05   1.079150e+05
  -1.011957e+06  -1.279913e+06
  -1.011733e+05  -2.117724e+06
   1.295754e+06  -1.470227e+06
   2.164409e+06   2.071799e+05
   1.777308e+06   1.556989e+06
   4.244681e+05   1.666742e+06
  -7.709373e+05   8.280495e+05
  -9.269546e+05   4.552378e+04
  -2.673723e+05  -2.629401e+04
   2.035509e+05   3.954793e+05
  -1.372706e+05   6.287431e+05
  -8.544706e+05   2.986916e+05
  -1.010119e+06  -3.190859e+05
  -2.896880e+05  -6.367914e+05
   5.827959e+05  -3.618094e+05
   6.112543e+05   2.171887e+05
  -3.505566e+05   4.964608e+05
  -1.350213e+06   1.114403e+05
  -1.280933e+06  -7.062712e+05
  -5.225117e+04  -1.284469e+06
   1.270963e+06  -1.083161e+06
   1.535890e+06  -2.135162e+05
   6.419016e+05   6.025806e+05
  -4.374615e+05   6.840820e+05
  -6.929282e+05   6.934937e+04
  -2.843347e+04  -5.041676e+05
   7.853396e+05  -3.714294e+05
   9.416017e+05   3.421775e+05
   3.248582e+05   8.700105e+05
  -4.669970e+05   6.681462e+05
  -7.174016e+05   8.409180e+03
  -2.614932e+05  -3.608984e+05
   3.455426e+05  -5.842064e+04
   3.639910e+05   5.419378e+05
  -3.434848e+05   7.443583e+05
  -1.096258e+06   2.470928e+05
  -1.074654e+06  -5.889069e+05
  -2.095330e+05  -1.095992e+06
   7.203182e+05  -8.874633e+05
   9.086401e+05  -1.730368e+05
   3.319058e+05   4.364211e+05
  -3.202743e+05   4.746818e+05
  -4.234830e+05   3.998472e+04
  -1.140843e+04  -3.353228e+05
   3.731532e+05  -2.675904e+05
   2.995874e+05   6.418605e+04
  -1.157318e+05   1.555721e+05
  -3.464929e+05  -1.963122e+05
  -8.568138e+03  -6.106647e+05
   7.000787e+05  -5.214571e+05
   1.127434e+06   1.937152e+05
   7.922691e+05   1.040020e+06
  -1.125610e+05   1.349713e+06
  -8.914958e+05   8.828866e+05
  -1.027744e+06   2.361977e+04
  -6.374656e+05  -5.810530e+05
  -2.351446e+05  -5.989508e+05
  -1.378549e+05  -2.747620e+05
  -1.861385e+05  -1.168356e+05
  -2.590843e+04  -3.149292e+05
   4.227678e+05  -5.202447e+05
   8.154032e+05  -2.677733e+05
   6.909918e+05   4.138099e+05
  -5.072505e+04   9.248591e+05
  -9.468641e+05   6.874008e+05
  -1.282671e+06  -2.266947e+05
  -7.039540e+05  -1.114520e+06
   4.232891e+05  -1.283174e+06
   1.292026e+06  -6.563731e+05
   1.343748e+06   2.193627e+05
   7.088386e+05   7.160889e+05
  -5.464051e+03   6.689557e+05
  -3.151221e+05   4.267888e+05
  -2.405349e+05   4.013552e+05
  -1.559915e+05   5.952576e+05
  -3.327685e+05   6.120647e+05
  -6.445077e+05   1.443057e+05
  -7.043483e+05  -6.026491e+05
  -2.917423e+05  -1.044914e+06
   3.564816e+05  -7.889956e+05
   7.163578e+05  -2.781623e+04
   4.810598e+05   6.402232e+05
  -1.145616e+05   7.518297e+05
  -5.198445e+05   3.353696e+05
  -4.258443e+05  -2.042174e+05
  -5.344134e+04  -4.862119e+05
   1.371844e+05  -4.453403e+05
  -1.898967e+04  -2.882762e+05
  -2.096312e+05  -2.182280e+05
  -1.465149e+04  -2.242527e+05
   5.735833e+05  -1.352621e+05
   1.052817e+06   1.484333e+05
   8.838885e+05   5.109688e+05
   7.443463e+04   7.101012e+05
  -7.568679e+05   5.913671e+05
  -9.595348e+05   2.236332e+05
  -4.885633e+05  -1.410240e+05
   9.343680e+04  -2.508570e+05
   2.441884e+05  -7.000605e+04
  -2.452545e+04   1.557165e+05
  -2.845272e+05   1.197155e+05
  -2.484711e+05  -1.909188e+05
  -4.544230e+04  -4.262539e+05
   3.534589e+04  -2.719399e+05
  -8.383807e+04   1.166800e+05
  -2.222218e+05   2.428792e+05
  -1.683686e+05  -1.156172e+05
   1.225888e+05  -5.739317e+05
   4.885471e+05  -5.666471e+05
   6.389157e+05  -3.057217e+04
   3.575429e+05   5.088395e+05
  -2.311915e+05   5.374086e+05
  -6.300956e+05   9.208419e+04
  -3.885870e+05  -3.460959e+05
   3.613137e+05  -3.745240e+05
   9.138985e+05  -1.271848e+03
   6.777865e+05   4.463696e+05
  -1.723637e+05   6.200097e+05
  -8.474632e+05   3.973130e+05
  -7.631229e+05  -3.289728e+04
  -1.234766e+05  -3.046204e+05
   3.461147e+05  -1.935832e+05
   1.814567e+05   1.338713e+05
  -3.681090e+05   2.439869e+05
  -6.463205e+05  -1.159787e+05
  -2.854706e+05  -6.923451e+05
   4.309314e+05  -9.077135e+05
   8.742504e+05  -4.241907e+05
   6.908784e+05   4.609073e+05
   9.361239e+04   1.020319e+06
  -4.179406e+05   7.683867e+05
  -5.318639e+05  -4.362719e+04
  -2.977574e+05  -6.577234e+05
   4.789104e+04  -5.828539e+05
   2.907374e+05  -7.778265e+04
   3.156622e+05   2.239633e+05
   1.531753e+05   9.568106e+04
   3.492863e+03  -7.190047e+04
   6.656034e+04   1.255892e+05
   2.487651e+05   5.246407e+05
   1.783307e+05   6.165199e+05
  -3.158195e+05   2.308128e+05
  -8.368419e+05  -2.671351e+05
  -7.840288e+05  -4.709824e+05
  -1.094571e+05  -3.764796e+05
   5.400827e+05  -2.255985e+05
   5.738574e+05  -1.220598e+05
   1.496752e+05  -4.013631e+03
  -1.064124e+05   1.196938e+05
   5.091257e+04   1.486154e+05
   2.241000e+05   9.342098e+04
  -1.944719e+03   7.991730e+04
  -4.527180e+05   9.965533e+04
  -5.747842e+05  -3.858970e+04
  -1.244568e+05  -3.800284e+05
   5.528635e+05  -6.051498e+05
   9.056429e+05  -3.485180e+05
   6.907520e+05   2.994313e+05
   1.095709e+05   8.002025e+05
  -4.224830e+05   7.332089e+05
  -5.900457e+05   2.384051e+05
  -3.743627e+05  -1.772219e+05
  -3.898053e+04  -2.005461e+05
   1.043834e+05   5.445161e+03
  -2.047126e+04   5.747771e+04
  -1.970384e+05  -1.850206e+05
  -1.584972e+05  -4.517521e+05
   1.225256e+05  -3.612735e+05
   3.935050e+05   1.232694e+05
   3.591737e+05   5.872192e+05
  -2.623862e+04   5.702201e+05
  -4.664604e+05   6.270463e+04
  -5.464127e+05  -4.773533e+05
  -1.348409e+05  -6.085241e+05
   4.181714e+05  -3.175616e+05
   5.883013e+05   7.655304e+04
   2.477881e+05   3.019310e+05
  -1.652510e+05   3.115162e+05
  -1.601395e+05   1.838300e+05
   1.996426e+05   3.050043e+04
   3.785364e+05  -3.965712e+03
   5.596860e+04   1.619757e+05
  -4.679338e+05   3.760528e+05
  -6.539848e+05   3.297257e+05
  -3.594134e+05  -6.181304e+04
   7.106364e+04  -4.583491e+05
   2.654330e+05  -4.427179e+05
   1.791050e+05  -3.838635e+04
  -8.268935e+03   2.936176e+05
  -1.515278e+05   2.061881e+05
  -1.989933e+05  -1.410518e+05
  -1.249107e+05  -3.271814e+05
   5.145413e+04  -1.874796e+05
   2.153381e+05   5.438963e+04
   2.405523e+05   1.251088e+05
   1.320489e+05   2.280345e+04
   1.186364e+04  -4.186489e+04
  -4.195838e+04   6.364186e+04
  -7.338346e+04   2.344222e+05
  -1.453551e+05   2.484547e+05
  -2.182284e+05   1.804711e+04
  -1.786620e+05  -2.851421e+05
   1.920619e+04  -3.743321e+05
   2.605408e+05  -1.426806e+05
   3.300268e+05   2.029753e+05
   1.052177e+05   3.458909e+05
  -2.716393e+05   1.872107e+05
  -4.582414e+05  -8.093897e+04
  -2.446298e+05  -2.192677e+05
   1.708257e+05  -1.772255e+05
   3.459261e+05  -6.633931e+04
   9.701607e+04   3.759177e+03
  -2.552058e+05  -9.481902e+03
  -2.514214e+05  -1.022033e+05
   1.460709e+05  -1.976129e+05
   4.986885e+05  -1.398970e+05
