
 $NMID
 id='ANONYMOUS ', fmtdat='(2E16.6)'
 volume=1.0
 tramp=1.0
 $END
  -3.876523e+07  -1.419108e+06
  -2.286918e+07  -2.306801e+07
   4.717302e+06  -2.529784e+07
   1.838070e+07  -1.105715e+07
   1.160893e+07   3.233300e+06
  -1.568503e+06   6.332821e+06
  -6.819272e+06   2.352307e+05
  -2.812942e+06  -6.428976e+06
   3.554473e+06  -7.384005e+06
   6.691841e+06  -2.164368e+06
   5.143695e+06   4.583418e+06
   5.468668e+05   6.585602e+06
  -3.127043e+06   1.796762e+06
  -2.203289e+06  -4.624089e+06
   2.466641e+06  -5.408924e+06
   5.620173e+06   5.656682e+05
   3.369231e+06   7.219963e+06
  -2.558649e+06   8.446745e+06
  -7.215629e+06   4.008964e+06
  -7.481968e+06  -1.917469e+06
  -4.003785e+06  -5.488174e+06
   1.351135e+05  -5.551764e+06
   1.732981e+06  -3.456759e+06
   8.799985e+04  -1.885297e+06
  -1.749575e+06  -2.542368e+06
   6.070781e+04  -4.049639e+06
   5.006626e+06  -3.344240e+06
   7.909703e+06   2.047736e+05
   5.146821e+06   3.588665e+06
  -5.913012e+05   3.863764e+06
  -3.633418e+06   1.509267e+06
  -2.014426e+06  -8.634234e+05
   1.311418e+06  -1.549535e+06
   2.907109e+06  -3.729224e+05
   2.066208e+06   1.984731e+06
  -1.451641e+03   3.720823e+06
  -1.775239e+06   2.649369e+06
  -1.977312e+06  -7.940046e+05
  -5.058190e+05  -2.752596e+06
   7.831314e+05  -6.206954e+05
  -5.299278e+04   2.659061e+06
  -2.022016e+06   2.071054e+06
  -1.906676e+06  -2.141695e+06
   1.261514e+06  -4.199734e+06
   4.220806e+06  -6.667702e+05
   3.253514e+06   4.667855e+06
  -1.244988e+06   5.717033e+06
  -5.250616e+06   1.578540e+06
  -5.403028e+06  -3.237922e+06
  -1.823473e+06  -4.602519e+06
   2.544868e+06  -2.414438e+06
   4.347332e+06   7.695290e+05
   2.303906e+06   2.472811e+06
  -1.507976e+06   1.720241e+06
  -3.303368e+06  -4.866308e+05
  -1.553850e+06  -1.834166e+06
   1.192790e+06  -9.973962e+05
   1.510002e+06   6.944375e+05
  -5.382940e+05   9.068433e+05
  -1.729984e+06  -6.193690e+05
  -1.044130e+05  -1.880701e+06
   2.665372e+06  -1.341163e+06
   3.621165e+06   5.612647e+05
   1.775617e+06   2.623400e+06
  -1.536167e+06   3.979610e+06
  -4.289449e+06   3.698951e+06
  -4.984834e+06   1.072092e+06
  -3.295896e+06  -2.755916e+06
  -5.216842e+05  -4.903482e+06
   1.208703e+06  -3.837562e+06
   1.043944e+06  -1.398688e+06
   3.161613e+05  -4.281715e+05
   7.037678e+05  -1.119991e+06
   2.026189e+06  -1.242734e+06
   2.643921e+06   3.731760e+05
   1.625345e+06   2.205693e+06
  -3.160319e+05   2.170305e+06
  -1.756840e+06   1.596769e+05
  -1.666343e+06  -2.051835e+06
   9.827749e+04  -2.662291e+06
   2.474566e+06  -1.203393e+06
   3.549713e+06   1.294877e+06
   2.251908e+06   3.077619e+06
  -2.367438e+05   3.065847e+06
  -1.674720e+06   1.828290e+06
  -1.493593e+06   8.482097e+05
  -1.325507e+06   7.273242e+05
  -2.441764e+06   6.067927e+05
  -3.727703e+06  -4.863602e+05
  -3.073787e+06  -2.295088e+06
  -1.978699e+05  -3.619212e+06
   2.840485e+06  -3.479039e+06
   3.803257e+06  -1.784296e+06
   2.342051e+06   5.861539e+05
   2.736207e+04   2.096273e+06
  -1.167367e+06   1.644787e+06
  -4.890805e+05  -1.161118e+05
   1.029766e+06  -1.142114e+06
   1.628369e+06  -3.309185e+05
   7.036602e+05   1.036949e+06
  -5.248293e+05   1.015796e+06
  -5.270983e+05  -2.852821e+05
   6.592240e+05  -8.193947e+05
   1.552487e+06   5.816789e+05
   1.010503e+06   2.619318e+06
  -6.908265e+05   3.149261e+06
  -2.422146e+06   1.583393e+06
  -3.166033e+06  -8.159769e+05
  -2.443683e+06  -2.420810e+06
  -5.857228e+05  -2.478665e+06
   1.153342e+06  -1.357883e+06
   1.463861e+06  -1.785331e+05
   4.414254e+05   3.552704e+04
  -3.342759e+05  -6.591053e+05
   3.055341e+05  -1.128823e+06
   1.579381e+06  -5.114392e+05
   1.749908e+06   6.699981e+05
   4.013811e+05   1.165365e+06
  -1.001186e+06   5.533786e+05
  -8.835846e+05  -3.644648e+05
   6.587606e+05  -6.076157e+05
   2.037911e+06   5.283455e+04
   1.797615e+06   1.138797e+06
  -5.174410e+04   1.890898e+06
  -2.038939e+06   1.633793e+06
  -2.492668e+06   3.249299e+05
  -1.083272e+06  -1.063493e+06
   7.773211e+05  -1.261450e+06
   1.294843e+06  -1.501075e+05
   1.302650e+05   9.184074e+05
  -1.327130e+06   6.547183e+05
  -1.545001e+06  -6.243557e+05
  -4.123094e+05  -1.442673e+06
   8.686197e+05  -9.648409e+05
   1.133295e+06   1.440603e+05
   3.060740e+05   6.415545e+05
  -6.532065e+05   6.728128e+04
  -6.456336e+05  -9.200743e+05
   5.228630e+05  -1.267895e+06
   1.802225e+06  -4.799955e+05
   1.818879e+06   9.320255e+05
   3.664113e+05   1.834283e+06
  -1.230531e+06   1.479617e+06
  -1.518670e+06   2.445247e+05
  -4.947370e+05  -7.425306e+05
   5.522406e+05  -7.481236e+05
   6.184643e+05  -8.300294e+04
  -3.833976e+04   4.079848e+05
  -4.918106e+05   3.048188e+05
  -2.665073e+05  -5.182527e+04
   2.982794e+05  -5.265671e+04
   4.972524e+05   4.786243e+05
  -9.545510e+04   1.031401e+06
  -1.191383e+06   8.367388e+05
  -1.865372e+06  -3.260681e+05
  -1.332720e+06  -1.714325e+06
   1.574629e+05  -2.194252e+06
   1.426740e+06  -1.362229e+06
   1.577222e+06   2.042569e+04
   9.015391e+05   8.354454e+05
   3.597655e+05   7.331665e+05
   3.678868e+05   3.053707e+05
   4.593443e+05   2.549245e+05
   6.507384e+04   6.211504e+05
  -7.362304e+05   8.328398e+05
  -1.303198e+06   3.714974e+05
  -1.030886e+06  -6.355944e+05
   1.367190e+05  -1.388190e+06
   1.526556e+06  -1.051650e+06
   2.056712e+06   3.760406e+05
   1.095638e+06   1.841810e+06
  -7.953396e+05   2.117416e+06
  -2.197652e+06   1.007620e+06
  -2.142707e+06  -4.651241e+05
  -9.944600e+05  -1.160253e+06
   8.736707e+04  -9.391306e+05
   3.937447e+05  -5.703267e+05
   1.902750e+05  -6.922598e+05
   1.536212e+05  -1.108696e+06
   5.738812e+05  -1.102445e+06
   1.120661e+06  -2.766239e+05
   1.199495e+06   9.640853e+05
   5.173578e+05   1.702213e+06
  -5.505497e+05   1.303028e+06
  -1.160541e+06   3.444475e+04
  -7.631645e+05  -1.099091e+06
   2.705013e+05  -1.241010e+06
   9.522556e+05  -4.397801e+05
   7.069504e+05   5.038775e+05
  -3.015430e+04   8.890380e+05
  -3.695458e+05   7.038846e+05
  -2.230609e+04   4.067569e+05
   3.802183e+05   3.211787e+05
   4.904369e+04   3.551350e+05
  -9.922405e+05   2.109147e+05
  -1.806355e+06  -2.586747e+05
  -1.460205e+06  -8.748835e+05
  -3.713017e+04  -1.231732e+06
   1.345075e+06  -1.012491e+06
   1.607315e+06  -3.144048e+05
   7.620985e+05   3.471508e+05
  -2.022464e+05   4.708360e+05
  -4.309904e+05   6.601894e+04
   1.046052e+03  -3.351418e+05
   4.235544e+05  -2.294308e+05
   4.285738e+05   3.047042e+05
   1.825584e+05   6.760446e+05
   3.869278e+04   4.452738e+05
   1.204792e+05  -1.289285e+05
   2.818147e+05  -3.264665e+05
   2.608495e+05   1.961980e+05
  -1.381258e+05   9.155232e+05
  -7.937906e+05   9.600992e+05
  -1.163267e+06   1.236965e+05
  -7.121259e+05  -8.278884e+05
   3.695571e+05  -9.772370e+05
   1.100499e+06  -2.572084e+05
   6.635452e+05   5.264371e+05
  -6.060655e+05   6.021781e+05
  -1.450854e+06  -2.667362e+04
  -9.913158e+05  -7.323799e+05
   3.563629e+05  -9.337229e+05
   1.342685e+06  -5.363256e+05
   1.157173e+06   1.016343e+05
   1.606047e+05   4.690709e+05
  -5.696834e+05   2.777068e+05
  -3.291654e+05  -2.463439e+05
   5.525682e+05  -4.587915e+05
   1.073502e+06   9.843513e+04
   5.784126e+05   1.089856e+06
  -5.719671e+05   1.539880e+06
  -1.366043e+06   7.914221e+05
  -1.149638e+06  -6.898069e+05
  -2.036123e+05  -1.635412e+06
   6.481985e+05  -1.212614e+06
   8.442640e+05   1.120805e+05
   4.415172e+05   1.063059e+06
  -1.365473e+05   8.972973e+05
  -4.917326e+05   9.976385e+04
  -4.616198e+05  -3.360568e+05
  -1.876377e+05  -1.254690e+05
  -2.700360e+04   9.488250e+04
  -2.032447e+05  -2.520770e+05
  -4.556408e+05  -8.642579e+05
  -2.320110e+05  -9.744917e+05
   5.941615e+05  -3.651883e+05
   1.353519e+06   4.007554e+05
   1.213339e+06   7.322300e+05
   1.807880e+05   6.224775e+05
  -8.030970e+05   3.974436e+05
  -9.006502e+05   1.953278e+05
  -2.959094e+05  -3.036366e+04
   1.426576e+05  -2.067788e+05
  -1.338531e+04  -1.962232e+05
  -2.877915e+05  -9.361387e+04
  -3.280470e+04  -1.268059e+05
   6.446379e+05  -2.189346e+05
   9.490974e+05   1.054408e+04
   3.423625e+05   6.321118e+05
  -7.933207e+05   1.066593e+06
  -1.516119e+06   6.722737e+05
  -1.245444e+06  -4.093361e+05
  -2.537145e+05  -1.284806e+06
   6.734724e+05  -1.243438e+06
   9.532171e+05  -4.758403e+05
   6.094828e+05   2.224414e+05
   1.096710e+05   3.278172e+05
  -1.012776e+05   4.833735e+04
   5.460614e+04  -3.785198e+04
   2.913889e+05   3.145264e+05
   2.489404e+05   7.269380e+05
  -1.641501e+05   6.136667e+05
  -6.343578e+05  -1.233540e+05
  -6.691994e+05  -8.846670e+05
  -7.886363e+04  -9.432309e+05
   7.112322e+05  -2.082350e+05
   9.475219e+05   6.751679e+05
   3.078730e+05   9.904416e+05
  -6.522832e+05   6.017738e+05
  -1.003935e+06  -6.840422e+04
  -4.650851e+05  -5.332418e+05
   2.591717e+05  -5.893703e+05
   3.155988e+05  -3.238097e+05
  -2.574989e+05  -7.608773e+03
  -5.988662e+05   4.136676e+04
  -1.252068e+05  -2.755368e+05
   7.405105e+05  -6.309925e+05
   1.106058e+06  -5.204152e+05
   6.588875e+05   1.380324e+05
  -8.300179e+04   7.804065e+05
  -4.697173e+05   7.650904e+05
  -3.627158e+05   1.227069e+05
  -4.339260e+04  -4.512731e+05
   2.222050e+05  -3.849476e+05
   3.314339e+05   1.539689e+05
   2.344499e+05   5.237773e+05
  -5.673512e+04   3.681250e+05
  -3.583655e+05  -4.707007e+04
  -4.212981e+05  -2.344124e+05
  -2.162637e+05  -6.899964e+04
   1.407491e+04   1.203995e+05
   6.221730e+04  -2.241043e+03
   1.424809e+04  -3.484583e+05
   9.653619e+04  -4.891633e+05
   3.176728e+05  -1.623013e+05
   3.979355e+05   3.793087e+05
   1.079634e+05   6.051290e+05
  -3.837551e+05   2.829948e+05
  -5.964714e+05  -2.674884e+05
  -2.286849e+05  -5.322682e+05
   4.506010e+05  -3.326051e+05
   7.925097e+05   7.339109e+04
   4.332219e+05   3.403651e+05
  -2.681748e+05   3.493204e+05
  -5.791090e+05   1.908125e+05
  -2.097674e+05   9.537263e+03
   3.470531e+05  -5.602762e+04
   3.909805e+05   7.620960e+04
  -1.653318e+05   2.903831e+05
  -7.082189e+05   2.674075e+05
