
 $NMID
 id='ANONYMOUS ', fmtdat='(2E16.6)'
 volume=1.0
 tramp=1.0
 $END
   3.691262e+07  -2.428097e+06
   2.535003e+07   1.889019e+07
  -7.315958e+05   2.490303e+07
  -1.686910e+07   1.388351e+07
  -1.288068e+07  -1.053823e+06
   3.171939e+05  -6.767462e+06
   7.348960e+06  -1.605705e+06
   4.198959e+06   6.350788e+06
  -2.816733e+06   8.610978e+06
  -6.803362e+06   3.307177e+06
  -5.519905e+06  -4.243249e+06
  -8.609978e+05  -6.701392e+06
   2.979295e+06  -1.813782e+06
   2.325104e+06   4.987346e+06
  -2.286783e+06   6.139751e+06
  -5.879874e+06   1.807125e+05
  -4.174657e+06  -6.936954e+06
   1.680884e+06  -8.726854e+06
   6.649003e+06  -4.544884e+06
   7.186139e+06   1.291034e+06
   4.005875e+06   4.679000e+06
   4.491746e+05   4.778161e+06
  -6.495372e+05   3.346749e+06
   7.837899e+05   2.651469e+06
   1.849805e+06   3.514229e+06
  -4.954380e+05   4.443336e+06
  -5.402672e+06   3.162401e+06
  -8.051361e+06  -4.079749e+05
  -5.095654e+06  -3.494555e+06
   7.974728e+05  -3.528081e+06
   3.778706e+06  -1.036435e+06
   1.652494e+06   1.295825e+06
  -2.190910e+06   1.571278e+06
  -3.551312e+06  -1.636795e+05
  -1.887774e+06  -2.611937e+06
   5.050526e+05  -3.864670e+06
   1.709631e+06  -2.426107e+06
   1.396801e+06   7.783434e+05
   2.746546e+05   2.308630e+06
  -3.595931e+05   1.363726e+05
   5.407430e+05  -2.938262e+06
   2.224865e+06  -2.303902e+06
   2.268093e+06   1.970944e+06
  -4.853589e+05   4.489175e+06
  -3.687403e+06   1.501577e+06
  -3.629052e+06  -3.916749e+06
   3.928526e+05  -5.664295e+06
   4.936315e+06  -2.015298e+06
   5.863549e+06   3.013211e+06
   2.328845e+06   4.873453e+06
  -2.633253e+06   2.854299e+06
  -4.908181e+06  -5.542184e+05
  -2.840314e+06  -2.589169e+06
   1.311351e+06  -2.070585e+06
   3.471225e+06   1.207014e+05
   1.872114e+06   1.716613e+06
  -1.082044e+06   1.134792e+06
  -1.732971e+06  -6.942512e+05
   3.878811e+05  -1.343672e+06
   2.154966e+06   8.435110e+04
   9.404217e+05   1.889864e+06
  -2.161327e+06   1.977506e+06
  -3.813634e+06   1.085128e+05
  -2.210714e+06  -2.394326e+06
   1.420971e+06  -4.051990e+06
   4.440129e+06  -3.749739e+06
   5.032102e+06  -1.083208e+06
   3.222983e+06   2.705343e+06
   5.847650e+05   4.982131e+06
  -1.042654e+06   4.228364e+06
  -1.120303e+06   1.906272e+06
  -7.661110e+05   6.557328e+05
  -1.247563e+06   9.427002e+05
  -2.339656e+06   8.453665e+05
  -2.648875e+06  -8.128073e+05
  -1.390566e+06  -2.584740e+06
   6.890922e+05  -2.309390e+06
   2.079863e+06   7.654180e+04
   1.737951e+06   2.472959e+06
  -2.539691e+05   2.885300e+06
  -2.615925e+06   1.123989e+06
  -3.547783e+06  -1.407388e+06
  -2.248293e+06  -3.012012e+06
   8.378325e+04  -2.949181e+06
   1.437272e+06  -1.878332e+06
   1.364742e+06  -1.066668e+06
   1.402125e+06  -9.676982e+05
   2.708737e+06  -7.654429e+05
   4.107998e+06   4.805614e+05
   3.378701e+06   2.512830e+06
   1.818638e+05   3.989909e+06
  -3.204770e+06   3.744687e+06
  -4.200393e+06   1.760370e+06
  -2.430449e+06  -7.865556e+05
   1.775583e+05  -2.230608e+06
   1.365523e+06  -1.639107e+06
   4.835325e+05   1.703739e+05
  -1.172232e+06   1.181414e+06
  -1.748975e+06   3.453804e+05
  -7.107141e+05  -1.077276e+06
   6.418437e+05  -1.076242e+06
   6.667539e+05   3.744696e+05
  -7.184305e+05   1.119832e+06
  -1.935586e+06  -3.754686e+05
  -1.483731e+06  -2.910010e+06
   5.780019e+05  -3.862552e+06
   2.841449e+06  -2.129330e+06
   3.792581e+06   8.855619e+05
   2.819275e+06   2.921113e+06
   5.762408e+05   2.895848e+06
  -1.348880e+06   1.455667e+06
  -1.621019e+06   1.155515e+05
  -4.864882e+05  -4.913984e+04
   3.622475e+05   7.330623e+05
  -2.986718e+05   1.232239e+06
  -1.685361e+06   5.834082e+05
  -1.936603e+06  -6.886408e+05
  -4.899846e+05  -1.273377e+06
   1.113825e+06  -6.252195e+05
   1.022764e+06   4.510480e+05
  -7.697408e+05   7.678377e+05
  -2.399997e+06  -5.394644e+04
  -2.089559e+06  -1.392463e+06
   9.955374e+04  -2.223725e+06
   2.352319e+06  -1.821269e+06
   2.791386e+06  -3.196520e+05
   1.194455e+06   1.160840e+06
  -8.203799e+05   1.349360e+06
  -1.366893e+06   1.763105e+05
  -1.223658e+05  -9.608538e+05
   1.455839e+06  -6.969018e+05
   1.722404e+06   6.948245e+05
   4.850539e+05   1.637447e+06
  -9.781541e+05   1.137636e+06
  -1.318204e+06  -1.294558e+05
  -3.915537e+05  -7.326944e+05
   6.997659e+05  -9.865743e+04
   6.893447e+05   1.006651e+06
  -6.060572e+05   1.367582e+06
  -1.986346e+06   4.721355e+05
  -1.970960e+06  -1.064245e+06
  -3.762739e+05  -2.022043e+06
   1.365750e+06  -1.626277e+06
   1.690775e+06  -2.693097e+05
   5.641386e+05   8.361938e+05
  -6.237139e+05   8.404976e+05
  -7.123689e+05   5.276702e+04
   6.889979e+04  -5.239570e+05
   6.376578e+05  -3.468511e+05
   3.674772e+05   1.489454e+05
  -3.489069e+05   1.640974e+05
  -6.173280e+05  -4.999333e+05
   7.293261e+04  -1.164109e+06
   1.326694e+06  -9.277633e+05
   2.061785e+06   3.874677e+05
   1.438902e+06   1.914491e+06
  -2.298344e+05   2.433877e+06
  -1.647091e+06   1.511431e+06
  -1.811275e+06  -5.831398e+04
  -1.009775e+06  -1.031728e+06
  -3.251659e+05  -9.265263e+05
  -3.054059e+05  -3.621680e+05
  -4.632128e+05  -2.221627e+05
  -8.239812e+04  -6.438440e+05
   8.221145e+05  -9.326756e+05
   1.487768e+06  -4.058270e+05
   1.161749e+06   7.716815e+05
  -1.931183e+05   1.605948e+06
  -1.746933e+06   1.162831e+06
  -2.297258e+06  -4.663731e+05
  -1.211089e+06  -2.076316e+06
   8.772458e+05  -2.361198e+06
   2.447132e+06  -1.129884e+06
   2.425748e+06   5.303595e+05
   1.146085e+06   1.360007e+06
  -1.283213e+05   1.126247e+06
  -5.333505e+05   6.419599e+05
  -2.941940e+05   6.930508e+05
  -1.921021e+05   1.146872e+06
  -6.171142e+05   1.183476e+06
  -1.212755e+06   2.900492e+05
  -1.290510e+06  -1.088575e+06
  -5.257899e+05  -1.892684e+06
   6.451401e+05  -1.423793e+06
   1.298046e+06  -1.799398e+04
   8.522379e+05   1.222090e+06
  -2.874991e+05   1.393995e+06
  -1.057723e+06   5.436137e+05
  -8.214234e+05  -5.031755e+05
  -2.348094e+04  -9.846166e+05
   3.735942e+05  -8.270615e+05
   2.980180e+04  -4.926542e+05
  -3.918500e+05  -3.676260e+05
  -3.464870e+04  -3.933331e+05
   1.088824e+06  -2.357384e+05
   1.974702e+06   2.906571e+05
   1.612483e+06   9.800262e+05
   7.197071e+04   1.366351e+06
  -1.458598e+06   1.113490e+06
  -1.792225e+06   3.510739e+05
  -8.888051e+05  -3.645603e+05
   1.966418e+05  -5.100592e+05
   4.819266e+05  -9.362692e+04
   4.594117e+02   3.298768e+05
  -4.820444e+05   2.222674e+05
  -4.601349e+05  -3.432448e+05
  -1.418410e+05  -7.323017e+05
   3.046041e+03  -4.677870e+05
  -1.608869e+05   1.607835e+05
  -3.720868e+05   3.618921e+05
  -2.940258e+05  -2.248369e+05
   2.021792e+05  -1.006682e+06
   8.930947e+05  -1.037736e+06
   1.227729e+06  -1.205215e+05
   7.247543e+05   8.988047e+05
  -4.041760e+05   1.038306e+06
  -1.170074e+06   2.436335e+05
  -7.056042e+05  -6.051232e+05
   6.819361e+05  -6.667990e+05
   1.638146e+06   5.767366e+04
   1.135515e+06   8.654178e+05
  -4.072296e+05   1.084686e+06
  -1.552421e+06   6.037153e+05
  -1.334163e+06  -1.417396e+05
  -1.777822e+05  -5.477978e+05
   6.480921e+05  -3.144985e+05
   3.563111e+05   2.597796e+05
  -6.251269e+05   4.618783e+05
  -1.158769e+06  -1.606139e+05
  -5.666381e+05  -1.206962e+06
   7.007541e+05  -1.641375e+06
   1.530371e+06  -7.978691e+05
   1.239277e+06   8.076362e+05
   1.667392e+05   1.820573e+06
  -7.696332e+05   1.343372e+06
  -9.582986e+05  -1.315602e+05
  -4.853727e+05  -1.208029e+06
   1.616197e+05  -1.033637e+06
   5.499707e+05  -1.171215e+05
   5.197090e+05   4.097699e+05
   2.220490e+05   1.731722e+05
   2.983282e+04  -1.200540e+05
   1.974271e+05   2.385185e+05
   4.730917e+05   9.526993e+05
   2.537545e+05   1.117964e+06
  -6.401652e+05   4.220972e+05
  -1.492900e+06  -4.890742e+05
  -1.351605e+06  -8.712278e+05
  -1.906865e+05  -6.922659e+05
   9.236395e+05  -3.928188e+05
   1.021057e+06  -1.913039e+05
   3.188872e+05   1.004916e+04
  -1.715364e+05   2.139298e+05
   2.540554e+04   2.569618e+05
   3.321745e+05   1.553806e+05
   1.868477e+04   1.328087e+05
  -7.424333e+05   1.818791e+05
  -1.036220e+06  -4.746187e+04
  -3.172229e+05  -6.650774e+05
   9.232677e+05  -1.108964e+06
   1.654802e+06  -6.890635e+05
   1.308401e+06   4.765980e+05
   2.220713e+05   1.421125e+06
  -7.660030e+05   1.347403e+06
  -1.048574e+06   4.740103e+05
  -6.551442e+05  -2.860191e+05
  -9.759923e+04  -3.533586e+05
   1.244522e+05  -9.351930e+03
  -6.920395e+04   6.923500e+04
  -3.336396e+05  -3.592273e+05
  -2.638436e+05  -8.203047e+05
   2.015594e+05  -6.596740e+05
   6.840089e+05   1.823674e+05
   6.735920e+05   1.002165e+06
   2.534615e+04   1.010883e+06
  -7.845361e+05   1.619295e+05
  -9.894165e+05  -7.942053e+05
  -2.881789e+05  -1.083642e+06
   7.251503e+05  -6.154108e+05
   1.082086e+06   1.050726e+05
   4.948293e+05   5.687735e+05
  -2.805858e+05   6.157028e+05
  -3.290481e+05   3.602924e+05
   3.012676e+05   4.960258e+04
   6.645469e+05  -1.533847e+04
   1.238852e+05   2.948345e+05
  -8.400758e+05   6.743881e+05
  -1.230246e+06   5.759631e+05
  -7.125363e+05  -1.307061e+05
   1.109397e+05  -8.443947e+05
   5.105580e+05  -8.359196e+05
   3.608782e+05  -1.260976e+05
   9.196166e+03   4.975997e+05
  -2.505922e+05   3.977176e+05
  -3.412990e+05  -2.058092e+05
  -2.358252e+05  -5.824545e+05
   6.306290e+04  -3.761237e+05
   3.830778e+05   7.366755e+04
   4.615765e+05   2.486450e+05
   2.481306e+05   6.812911e+04
  -1.509460e+04  -1.040523e+05
  -1.009090e+05   3.961894e+04
  -7.394630e+04   3.705618e+05
  -1.482280e+05   4.689517e+05
  -3.335639e+05   1.110413e+05
  -3.688074e+05  -4.330125e+05
  -5.191554e+04  -6.375944e+05
   4.343350e+05  -2.758254e+05
   6.173527e+05   3.175724e+05
   2.124887e+05   5.929283e+05
  -4.970470e+05   3.528191e+05
  -8.458138e+05  -1.071627e+05
  -4.570317e+05  -3.840845e+05
   2.919434e+05  -3.567375e+05
   6.184553e+05  -1.728505e+05
   2.087807e+05  -1.522851e+04
  -3.939992e+05   7.545606e+03
  -4.151258e+05  -1.335152e+05
   2.275106e+05  -3.115751e+05
   8.234668e+05  -2.382174e+05
