
 $NMID
 id='ANONYMOUS ', fmtdat='(2E16.6)'
 volume=1.0
 tramp=1.0
 $END
  -4.532302e+07  -4.369837e+05
  -2.788115e+07  -2.665452e+07
   4.730200e+06  -3.021818e+07
   2.176846e+07  -1.348936e+07
   1.416277e+07   3.880735e+06
  -1.793004e+06   7.717436e+06
  -8.324420e+06   2.376774e+05
  -3.396407e+06  -7.813373e+06
   4.402420e+06  -8.818810e+06
   8.045206e+06  -2.561639e+06
   6.027459e+06   5.307338e+06
   6.250901e+05   7.621023e+06
  -3.544152e+06   2.104688e+06
  -2.392806e+06  -5.345337e+06
   3.048352e+06  -6.308395e+06
   6.701229e+06   6.458304e+05
   4.041544e+06   8.475595e+06
  -2.901157e+06   9.971999e+06
  -8.337389e+06   4.843941e+06
  -8.714291e+06  -1.989388e+06
  -4.863127e+06  -6.147318e+06
  -2.065828e+05  -6.444575e+06
   1.802014e+06  -4.322598e+06
   2.789185e+05  -2.554419e+06
  -1.648896e+06  -3.039311e+06
   2.581559e+05  -4.494001e+06
   5.671612e+06  -3.646127e+06
   8.942765e+06   2.976350e+05
   5.890072e+06   4.046832e+06
  -5.681222e+05   4.282365e+06
  -3.975048e+06   1.613824e+06
  -2.092395e+06  -8.963948e+05
   1.599148e+06  -1.443682e+06
   3.183917e+06  -1.300176e+05
   2.103164e+06   2.260978e+06
  -1.060464e+05   4.064626e+06
  -1.925760e+06   3.016248e+06
  -2.190083e+06  -6.845234e+05
  -7.164039e+05  -2.995339e+06
   6.635149e+05  -8.079429e+05
  -2.151617e+05   2.878531e+06
  -2.407013e+06   2.312047e+06
  -2.276862e+06  -2.547784e+06
   1.447760e+06  -5.099990e+06
   5.048976e+06  -1.056619e+06
   4.028638e+06   5.360275e+06
  -1.292146e+06   6.816148e+06
  -6.098360e+06   1.969672e+06
  -6.289095e+06  -3.821333e+06
  -2.039880e+06  -5.452391e+06
   3.064653e+06  -2.768794e+06
   5.091666e+06   1.051508e+06
   2.643704e+06   3.020923e+06
  -1.820031e+06   2.071232e+06
  -3.913321e+06  -5.693646e+05
  -1.849990e+06  -2.188201e+06
   1.393982e+06  -1.192562e+06
   1.744551e+06   8.701120e+05
  -7.551604e+05   1.137534e+06
  -2.214873e+06  -7.979379e+05
  -2.131606e+05  -2.448808e+06
   3.208264e+06  -1.788364e+06
   4.390418e+06   6.275711e+05
   2.158783e+06   3.116848e+06
  -1.755464e+06   4.582247e+06
  -4.911764e+06   4.166743e+06
  -5.680875e+06   1.211644e+06
  -3.765338e+06  -3.098660e+06
  -5.793344e+05  -5.611499e+06
   1.494415e+06  -4.474600e+06
   1.380980e+06  -1.623352e+06
   4.940185e+05  -3.486873e+05
   7.964206e+05  -1.055639e+06
   2.194157e+06  -1.256343e+06
   2.848306e+06   4.733182e+05
   1.686155e+06   2.464838e+06
  -4.507093e+05   2.348547e+06
  -1.948935e+06   3.785069e+04
  -1.752034e+06  -2.407284e+06
   2.081178e+05  -2.997839e+06
   2.801216e+06  -1.311732e+06
   3.999816e+06   1.480518e+06
   2.591113e+06   3.490051e+06
  -2.041872e+05   3.532291e+06
  -1.894218e+06   2.176525e+06
  -1.764111e+06   1.040292e+06
  -1.604759e+06   8.291804e+05
  -2.867155e+06   6.140460e+05
  -4.288977e+06  -6.873772e+05
  -3.456370e+06  -2.744609e+06
  -9.208163e+04  -4.155186e+06
   3.367184e+06  -3.859874e+06
   4.362289e+06  -1.887197e+06
   2.602289e+06   7.192276e+05
  -3.890669e+04   2.325432e+06
  -1.346554e+06   1.799591e+06
  -5.357763e+05  -1.357786e+05
   1.201226e+06  -1.253050e+06
   1.871610e+06  -3.358221e+05
   7.879219e+05   1.186225e+06
  -6.315348e+05   1.120081e+06
  -5.831200e+05  -3.859340e+05
   8.668690e+05  -9.458948e+05
   1.887670e+06   7.776315e+05
   1.100913e+06   3.187181e+06
  -1.031489e+06   3.708124e+06
  -3.003336e+06   1.713555e+06
  -3.650390e+06  -1.162524e+06
  -2.643290e+06  -2.946831e+06
  -5.154986e+05  -2.864231e+06
   1.368856e+06  -1.486281e+06
   1.660308e+06  -1.402934e+05
   5.024805e+05   5.786190e+04
  -3.572147e+05  -7.684708e+05
   3.836156e+05  -1.299428e+06
   1.835379e+06  -5.532900e+05
   2.006686e+06   8.311033e+05
   4.283863e+05   1.370603e+06
  -1.178223e+06   5.975551e+05
  -9.900002e+05  -4.751256e+05
   8.209508e+05  -6.701044e+05
   2.360718e+06   1.907762e+05
   1.987501e+06   1.430174e+06
  -1.843202e+05   2.172605e+06
  -2.423044e+06   1.768309e+06
  -2.868457e+06   2.627484e+05
  -1.211056e+06  -1.260738e+06
   9.201517e+05  -1.430728e+06
   1.491111e+06  -1.490250e+05
   1.328109e+05   1.046912e+06
  -1.539747e+06   7.042616e+05
  -1.753414e+06  -7.818520e+05
  -4.076849e+05  -1.690242e+06
   1.063410e+06  -1.078448e+06
   1.316323e+06   2.290241e+05
   3.250847e+05   7.716552e+05
  -7.605316e+05   6.372024e+04
  -7.093086e+05  -1.072561e+06
   6.396412e+05  -1.424760e+06
   2.068782e+06  -4.802300e+05
   2.040165e+06   1.129276e+06
   3.516028e+05   2.112131e+06
  -1.467741e+06   1.652572e+06
  -1.756597e+06   2.198676e+05
  -5.372588e+05  -8.805122e+05
   6.697568e+05  -8.361994e+05
   7.032029e+05  -5.703054e+04
  -8.959587e+04   4.665217e+05
  -5.917398e+05   2.986169e+05
  -2.792067e+05  -1.071519e+05
   3.864379e+05  -5.468081e+04
   5.727768e+05   5.906588e+05
  -1.532982e+05   1.197641e+06
  -1.403735e+06   9.147924e+05
  -2.123426e+06  -4.476820e+05
  -1.457791e+06  -2.011122e+06
   2.724629e+05  -2.498172e+06
   1.701831e+06  -1.488220e+06
   1.807727e+06   1.114637e+05
   9.672039e+05   1.011589e+06
   3.352985e+05   8.429517e+05
   3.911873e+05   3.302666e+05
   5.359241e+05   2.870763e+05
   6.887536e+04   7.159141e+05
  -8.831531e+05   9.289539e+05
  -1.516486e+06   3.609225e+05
  -1.139246e+06  -7.855007e+05
   2.400941e+05  -1.584337e+06
   1.802034e+06  -1.130862e+06
   2.335641e+06   5.238183e+05
   1.176475e+06   2.164001e+06
  -1.001352e+06   2.408811e+06
  -2.573330e+06   1.072053e+06
  -2.447571e+06  -6.380352e+05
  -1.077070e+06  -1.397744e+06
   1.717947e+05  -1.075167e+06
   4.895844e+05  -6.063014e+05
   2.275259e+05  -7.498777e+05
   1.915048e+05  -1.252224e+06
   6.862465e+05  -1.248920e+06
   1.290502e+06  -2.841388e+05
   1.331123e+06   1.143176e+06
   5.221118e+05   1.961376e+06
  -6.799576e+05   1.462704e+06
  -1.330422e+06  -1.170278e+04
  -8.350435e+05  -1.296721e+06
   3.644066e+05  -1.424071e+06
   1.133592e+06  -4.748800e+05
   8.188076e+05   6.146698e+05
  -6.213300e+04   1.042723e+06
  -4.655726e+05   8.143063e+05
  -5.739617e+04   4.699496e+05
   4.175041e+05   3.744353e+05
   4.073732e+04   4.031445e+05
  -1.149208e+06   2.088965e+05
  -2.063852e+06  -3.572635e+05
  -1.641922e+06  -1.061704e+06
   1.619955e+03  -1.430203e+06
   1.579650e+06  -1.124171e+06
   1.863517e+06  -2.962065e+05
   8.759363e+05   4.428200e+05
  -2.432803e+05   5.428278e+05
  -5.064792e+05   6.016992e+04
  -1.625869e+03  -3.814154e+05
   4.855603e+05  -2.394253e+05
   4.776371e+05   3.620654e+05
   1.835825e+05   7.603953e+05
   3.177085e+04   4.938020e+05
   1.532790e+05  -1.356364e+05
   3.436306e+05  -3.426878e+05
   2.905623e+05   2.384270e+05
  -1.965651e+05   1.029032e+06
  -9.419505e+05   1.066349e+06
  -1.330152e+06   1.186551e+05
  -7.872620e+05  -9.538306e+05
   4.454869e+05  -1.107146e+06
   1.255051e+06  -2.674443e+05
   7.318080e+05   6.225142e+05
  -7.213185e+05   6.656881e+05
  -1.661174e+06  -1.007331e+05
  -1.096669e+06  -9.004076e+05
   4.657003e+05  -1.061687e+06
   1.576116e+06  -5.427023e+05
   1.322523e+06   1.838419e+05
   1.563695e+05   5.489312e+05
  -6.705141e+05   2.921524e+05
  -3.732014e+05  -2.914679e+05
   6.375490e+05  -4.966564e+05
   1.208713e+06   1.488249e+05
   6.155561e+05   1.248403e+06
  -7.005045e+05   1.717499e+06
  -1.574441e+06   8.430534e+05
  -1.276228e+06  -8.296783e+05
  -1.618356e+05  -1.868403e+06
   7.979010e+05  -1.351166e+06
   9.668938e+05   1.705956e+05
   4.556312e+05   1.241972e+06
  -2.073150e+05   1.027772e+06
  -5.726408e+05   9.478688e+04
  -5.052674e+05  -4.116332e+05
  -1.999659e+05  -1.606875e+05
  -4.023663e+04   1.098246e+05
  -2.362075e+05  -2.828909e+05
  -4.893338e+05  -9.994334e+05
  -2.149935e+05  -1.133117e+06
   7.020214e+05  -4.061077e+05
   1.524359e+06   5.154593e+05
   1.346456e+06   8.983396e+05
   1.821483e+05   7.198024e+05
  -9.253083e+05   4.085866e+05
  -1.036961e+06   1.788094e+05
  -3.470501e+05  -4.025114e+04
   1.679162e+05  -2.256885e+05
   5.601129e+03  -2.346450e+05
  -3.098505e+05  -1.295211e+05
  -3.376254e+04  -1.397565e+05
   7.306798e+05  -2.098920e+05
   1.076526e+06   4.681188e+04
   3.758017e+05   7.132922e+05
  -9.314925e+05   1.172057e+06
  -1.746469e+06   7.184139e+05
  -1.400577e+06  -4.946188e+05
  -2.369616e+05  -1.465668e+06
   8.134101e+05  -1.394049e+06
   1.094295e+06  -5.077990e+05
   6.757503e+05   2.762470e+05
   1.145943e+05   3.713880e+05
  -1.033303e+05   4.220452e+04
   7.540925e+04  -4.131027e+04
   3.204381e+05   3.782618e+05
   2.516750e+05   8.431364e+05
  -2.070811e+05   6.901382e+05
  -7.060071e+05  -1.643924e+05
  -7.201952e+05  -1.020706e+06
  -6.031568e+04  -1.061277e+06
   8.002677e+05  -2.058667e+05
   1.040296e+06   7.957969e+05
   3.154348e+05   1.130055e+06
  -7.546736e+05   6.606849e+05
  -1.138132e+06  -1.091842e+05
  -5.205760e+05  -6.212265e+05
   3.061432e+05  -6.664180e+05
   3.737706e+05  -3.683085e+05
  -2.824335e+05  -2.917290e+04
  -6.793673e+05   2.086328e+04
  -1.357283e+05  -3.150987e+05
   8.691338e+05  -6.875245e+05
   1.292752e+06  -5.545469e+05
   7.590609e+05   1.750151e+05
  -1.199740e+05   8.853318e+05
  -5.642050e+05   8.646056e+05
  -4.137127e+05   1.414394e+05
  -2.916128e+04  -5.061174e+05
   2.601646e+05  -4.295055e+05
   3.594017e+05   1.841527e+05
   2.461990e+05   6.029216e+05
  -6.757822e+04   4.177040e+05
  -4.009168e+05  -6.510473e+04
  -4.792598e+05  -2.826370e+05
  -2.502254e+05  -8.988745e+04
   2.244102e+04   1.355695e+05
   8.908753e+04   7.508862e+03
   3.052427e+04  -3.769727e+05
   1.072826e+05  -5.354964e+05
   3.440283e+05  -1.736536e+05
   4.304280e+05   4.262478e+05
   1.056411e+05   6.714438e+05
  -4.393445e+05   3.032455e+05
  -6.632177e+05  -3.167811e+05
  -2.369365e+05  -6.062917e+05
   5.250691e+05  -3.644738e+05
   8.957331e+05   1.056918e+05
   4.802108e+05   4.004252e+05
  -3.100585e+05   3.901340e+05
  -6.566070e+05   2.016241e+05
  -2.407579e+05   1.226610e+04
   3.822178e+05  -4.147875e+04
   4.266007e+05   1.014720e+05
  -2.025644e+05   3.101141e+05
  -8.078244e+05   2.595541e+05
