
 $NMID
 id='ANONYMOUS ', fmtdat='(2E16.6)'
 volume=1.0
 tramp=1.0
 $END
   2.683871e+07  -3.588815e+05
   1.623320e+07   1.673841e+07
  -3.586805e+06   1.831850e+07
  -1.319557e+07   6.809306e+06
  -7.758920e+06  -3.607567e+06
   1.697711e+06  -4.443031e+06
   4.640335e+06   7.699358e+05
   1.158047e+06   4.676655e+06
  -3.045652e+06   4.252005e+06
  -4.557713e+06   8.163316e+05
  -3.283070e+06  -2.869573e+06
  -4.236773e+05  -3.964205e+06
   1.824122e+06  -1.340582e+06
   1.209918e+06   2.405079e+06
  -1.780929e+06   2.945409e+06
  -3.700072e+06  -6.858577e+05
  -2.076410e+06  -4.802400e+06
   1.778927e+06  -5.555399e+06
   4.748489e+06  -2.845999e+06
   5.152202e+06   8.575359e+05
   3.281676e+06   3.500222e+06
   4.543681e+05   4.208485e+06
  -1.445412e+06   3.017205e+06
  -1.106084e+06   1.249315e+06
   3.688292e+05   7.945802e+05
   2.069028e+05   1.766816e+06
  -2.306004e+06   2.076666e+06
  -4.370141e+06   3.954373e+05
  -3.324795e+06  -1.799016e+06
  -2.876643e+05  -2.357004e+06
   1.566137e+06  -1.311477e+06
   1.142259e+06  -1.877422e+05
  -9.185839e+04   3.005753e+05
  -8.288173e+05   2.682587e+05
  -9.699605e+05  -4.717962e+05
  -4.577498e+05  -1.689484e+06
   7.472465e+05  -1.853324e+06
   1.604939e+06  -8.883012e+04
   9.568299e+05   1.696635e+06
  -3.361479e+05   1.057833e+06
  -2.490961e+05  -9.935726e+05
   1.091229e+06  -1.019154e+06
   1.128185e+06   1.520295e+06
  -1.220512e+06   2.917465e+06
  -3.411165e+06   4.887259e+05
  -2.497799e+06  -3.311146e+06
   9.099369e+05  -4.088377e+06
   3.505249e+06  -1.184804e+06
   3.205252e+06   2.056325e+06
   7.974615e+05   2.770247e+06
  -1.608608e+06   1.198863e+06
  -2.364783e+06  -7.526374e+05
  -1.044215e+06  -1.628266e+06
   1.170773e+06  -1.008194e+06
   2.118762e+06   4.545900e+05
   8.930399e+05   1.293986e+06
  -8.120841e+05   6.458566e+05
  -7.722566e+05  -4.810826e+05
   6.904104e+05  -3.809432e+05
   1.165187e+06   9.377915e+05
  -3.942641e+05   1.717194e+06
  -2.293258e+06   8.977836e+05
  -2.522616e+06  -7.031349e+05
  -1.075434e+06  -1.904470e+06
   7.844106e+05  -2.451124e+06
   2.209933e+06  -2.268734e+06
   2.815150e+06  -8.861369e+05
   2.176423e+06   1.382684e+06
   5.020452e+05   2.819771e+06
  -8.778031e+05   2.172569e+06
  -8.568093e+05   4.788747e+05
  -2.797472e+04  -2.262677e+05
   1.596626e+05   4.018151e+05
  -5.908141e+05   8.776361e+05
  -1.225547e+06   2.373549e+05
  -9.526212e+05  -7.511127e+05
  -9.535829e+04  -9.065739e+05
   6.161509e+05  -1.151486e+05
   7.285697e+05   8.630934e+05
   4.188616e+04   1.288277e+06
  -1.212080e+06   7.990635e+05
  -2.063203e+06  -4.595378e+05
  -1.552694e+06  -1.696737e+06
  -3.508780e+04  -1.995607e+06
   1.062189e+06  -1.314174e+06
   1.071290e+06  -5.358983e+05
   8.585774e+05  -2.843587e+05
   1.325539e+06  -1.930510e+05
   1.949033e+06   3.479961e+05
   1.560040e+06   1.233544e+06
   6.618423e+04   1.833891e+06
  -1.397656e+06   1.744625e+06
  -1.820268e+06   9.869642e+05
  -1.188541e+06  -1.297085e+05
  -1.807452e+05  -9.732059e+05
   4.411494e+05  -8.833703e+05
   2.546396e+05  -3.556542e+03
  -4.633269e+05   5.937116e+05
  -8.577239e+05   1.915749e+05
  -4.382905e+05  -5.388677e+05
   2.099748e+05  -4.945264e+05
   1.624447e+05   1.792597e+05
  -5.215844e+05   2.698066e+05
  -8.375750e+05  -6.736531e+05
  -2.089534e+05  -1.626973e+06
   8.270537e+05  -1.481262e+06
   1.445538e+06  -3.840336e+05
   1.418939e+06   7.103016e+05
   9.387518e+05   1.208307e+06
   1.826658e+05   1.119447e+06
  -5.311839e+05   6.472765e+05
  -6.881522e+05   1.169220e+05
  -2.187053e+05  -1.867441e+04
   1.600682e+05   3.346519e+05
  -1.918198e+05   6.115392e+05
  -8.715964e+05   2.657248e+05
  -9.202392e+05  -4.118984e+05
  -1.637320e+05  -6.483127e+05
   5.273598e+05  -2.497051e+05
   3.770963e+05   2.050506e+05
  -3.932000e+05   2.014772e+05
  -9.449288e+05  -1.803455e+05
  -7.271377e+05  -6.037366e+05
   1.347751e+05  -8.436693e+05
   1.018526e+06  -7.121545e+05
   1.226657e+06  -1.188140e+05
   5.474378e+05   5.718156e+05
  -4.130613e+05   6.905144e+05
  -7.163508e+05   9.458529e+04
  -1.054039e+05  -4.922162e+05
   6.779749e+05  -3.365320e+05
   7.650212e+05   3.560294e+05
   1.317955e+05   7.388249e+05
  -5.038856e+05   4.156022e+05
  -5.551963e+05  -1.644155e+05
  -9.091277e+04  -3.580088e+05
   3.683682e+05  -2.251398e+04
   3.368248e+05   4.710459e+05
  -2.466359e+05   6.398354e+05
  -8.901641e+05   2.552149e+05
  -9.135043e+05  -4.578692e+05
  -1.765634e+05  -9.268585e+05
   6.462698e+05  -7.357326e+05
   7.724681e+05  -8.827673e+04
   2.160047e+05   3.915424e+05
  -2.974730e+05   3.530590e+05
  -2.687259e+05   3.562326e+04
   6.467910e+04  -1.381894e+05
   2.010773e+05  -6.840485e+04
   1.633121e+04   2.487855e+04
  -2.210201e+05  -6.499629e+04
  -2.215920e+05  -3.253772e+05
   1.086710e+05  -5.342073e+05
   6.207394e+05  -3.960344e+05
   9.274113e+05   1.836123e+05
   6.575868e+05   8.627211e+05
  -9.050809e+04   1.071338e+06
  -7.123038e+05   6.130637e+05
  -7.334523e+05  -6.737427e+04
  -3.545532e+05  -3.812558e+05
  -1.312952e+05  -2.485139e+05
  -2.321386e+05  -6.986963e+04
  -3.053141e+05  -1.456935e+05
  -4.673298e+04  -3.558660e+05
   3.960297e+05  -3.976047e+05
   6.381088e+05  -1.326210e+05
   4.477843e+05   3.149605e+05
  -1.221178e+05   6.273365e+05
  -7.607596e+05   4.635527e+05
  -9.902205e+05  -2.149964e+05
  -4.949352e+05  -9.352152e+05
   4.635492e+05  -1.055284e+06
   1.142926e+06  -4.494983e+05
   1.036102e+06   3.105529e+05
   3.964599e+05   5.951708e+05
  -1.076639e+05   3.950309e+05
  -1.545753e+05   2.021524e+05
   9.669505e+02   3.356895e+05
  -2.477974e+04   6.004102e+05
  -2.992611e+05   5.898443e+05
  -5.839822e+05   1.506989e+05
  -6.018513e+05  -4.733484e+05
  -2.552815e+05  -8.378447e+05
   2.688000e+05  -6.394881e+05
   5.686112e+05   2.152883e+03
   3.582724e+05   5.781138e+05
  -1.862902e+05   6.232526e+05
  -5.353027e+05   1.642270e+05
  -3.657180e+05  -3.376449e+05
   7.202837e+04  -4.958000e+05
   2.629123e+05  -3.462469e+05
   4.811577e+04  -1.746211e+05
  -1.980957e+05  -1.414821e+05
  -3.096668e+04  -1.672933e+05
   5.188540e+05  -9.337415e+04
   9.302188e+05   1.466293e+05
   7.214990e+05   4.650105e+05
  -2.881280e+04   6.506638e+05
  -7.217090e+05   5.175835e+05
  -8.200602e+05   1.163937e+05
  -3.663165e+05  -2.399130e+05
   1.226714e+05  -2.643685e+05
   2.335715e+05  -7.472771e+03
   2.271050e+04   2.001438e+05
  -1.879639e+05   1.201375e+05
  -2.178417e+05  -1.493204e+05
  -1.325011e+05  -3.140624e+05
  -6.085132e+04  -2.103367e+05
  -5.918534e+04   3.033768e+04
  -1.101084e+05   1.150414e+05
  -1.197177e+05  -1.043120e+05
   5.058577e+04  -4.317836e+05
   3.957635e+05  -4.799711e+05
   6.242581e+05  -9.607768e+04
   4.030593e+05   4.007184e+05
  -1.787164e+05   5.243852e+05
  -5.683257e+05   1.733343e+05
  -3.307370e+05  -2.450145e+05
   3.141041e+05  -2.866984e+05
   6.969679e+05   4.796819e+04
   4.240624e+05   3.855710e+05
  -2.306559e+05   4.252173e+05
  -6.588906e+05   1.899885e+05
  -5.304128e+05  -9.557237e+04
  -5.096297e+04  -2.232906e+05
   2.898009e+05  -1.122892e+05
   1.782206e+05   1.349220e+05
  -2.473195e+05   2.439376e+05
  -5.267817e+05  -1.450041e+04
  -3.227198e+05  -5.117619e+05
   2.292745e+05  -7.660636e+05
   6.416223e+05  -4.156561e+05
   5.621677e+05   3.201265e+05
   1.030510e+05   7.874961e+05
  -3.207048e+05   5.657632e+05
  -4.068948e+05  -8.702811e+04
  -1.826102e+05  -5.276778e+05
   1.111279e+05  -4.199128e+05
   2.541581e+05  -3.221008e+04
   1.943607e+05   1.617930e+05
   5.760744e+04   5.540832e+04
   2.706004e+04  -3.777571e+04
   1.479134e+05   1.393081e+05
   2.393837e+05   4.292508e+05
   7.130549e+04   4.730823e+05
  -3.358957e+05   1.756326e+05
  -6.520262e+05  -1.968416e+05
  -5.529370e+05  -3.633983e+05
  -8.371312e+04  -3.120210e+05
   3.587973e+05  -1.924386e+05
   4.284487e+05  -8.026868e+04
   1.740817e+05   3.084044e+04
  -5.641108e+04   1.025232e+05
  -3.430428e+04   8.154309e+04
   9.664700e+04   2.882291e+04
   3.179339e+04   5.714988e+04
  -2.681700e+05   1.178873e+05
  -4.668190e+05   1.065169e+04
  -2.299906e+05  -3.062388e+05
   3.415628e+05  -5.428580e+05
   7.614731e+05  -3.676969e+05
   6.571955e+05   1.649428e+05
   1.442915e+05   6.171298e+05
  -3.328831e+05   6.251959e+05
  -4.606459e+05   2.643265e+05
  -2.896946e+05  -8.409526e+04
  -7.265683e+04  -1.579377e+05
   1.094200e+04  -4.317221e+04
  -4.335732e+04  -6.899570e+03
  -1.265159e+05  -1.672525e+05
  -1.085728e+05  -3.565215e+05
   6.779965e+04  -3.081331e+05
   2.989187e+05   3.091853e+04
   3.519363e+05   3.986372e+05
   8.837011e+04   4.586231e+05
  -3.172028e+05   1.405108e+05
  -4.748741e+05  -2.869742e+05
  -1.824740e+05  -4.805108e+05
   3.045546e+05  -3.260002e+05
   5.085725e+05   1.313424e+04
   2.563967e+05   2.809125e+05
  -1.206500e+05   3.251490e+05
  -1.826800e+05   1.729746e+05
   8.919824e+04  -6.559884e+03
   2.823570e+05  -2.845134e+04
   7.600515e+04   1.389121e+05
  -3.585916e+05   3.080817e+05
  -5.708331e+05   2.390203e+05
  -3.615646e+05  -8.590581e+04
   3.039648e+04  -3.953956e+05
   2.531239e+05  -3.955772e+05
   2.077274e+05  -9.261723e+04
   4.083572e+04   2.031577e+05
  -9.655608e+04   2.077257e+05
  -1.566545e+05  -4.197054e+04
  -1.231666e+05  -2.523129e+05
   1.246954e+04  -2.077688e+05
   1.748689e+05   6.329024e+03
   2.217266e+05   1.318030e+05
   1.093095e+05   5.173887e+04
  -2.716792e+04  -8.113255e+04
  -3.816862e+04  -4.943984e+04
   3.656628e+04   1.438628e+05
   2.370636e+04   2.655452e+05
  -1.257869e+05   1.365635e+05
  -2.340731e+05  -1.385194e+05
  -1.130662e+05  -2.817634e+05
   1.667988e+05  -1.548532e+05
   3.118551e+05   1.015408e+05
   1.307091e+05   2.429946e+05
  -2.262218e+05   1.724052e+05
  -4.046809e+05  -1.205878e+04
  -2.239758e+05  -1.604269e+05
   1.245688e+05  -1.968691e+05
   2.856742e+05  -1.288042e+05
   1.266389e+05  -1.519742e+04
  -1.304214e+05   5.108303e+04
  -1.728330e+05  -1.052162e+02
   5.262157e+04  -1.179372e+05
   2.964017e+05  -1.315367e+05
