
 $NMID
 id='ANONYMOUS ', fmtdat='(2E16.6)'
 volume=1.0
 tramp=1.0
 $END
  -5.775573e+07  -6.685234e+04
  -3.457593e+07  -3.632075e+07
   8.066626e+06  -3.929507e+07
   2.858910e+07  -1.451481e+07
   1.676897e+07   7.778216e+06
  -3.671286e+06   9.567838e+06
  -1.005767e+07  -1.638522e+06
  -2.515396e+06  -1.012710e+07
   6.638168e+06  -9.257170e+06
   9.899538e+06  -1.745340e+06
   7.026703e+06   6.326691e+06
   7.706087e+05   8.638023e+06
  -4.007076e+06   2.807832e+06
  -2.542080e+06  -5.351002e+06
   3.952344e+06  -6.427626e+06
   8.005611e+06   1.536452e+06
   4.383918e+06   1.044552e+07
  -3.985789e+06   1.197291e+07
  -1.033298e+07   5.991956e+06
  -1.105455e+07  -2.042748e+06
  -6.892677e+06  -7.631095e+06
  -8.225013e+05  -8.989265e+06
   3.108604e+06  -6.392490e+06
   2.263741e+06  -2.745316e+06
  -8.338204e+05  -1.920682e+06
  -2.961990e+05  -3.948098e+06
   5.206321e+06  -4.376072e+06
   9.553569e+06  -5.929678e+05
   7.110468e+06   4.073954e+06
   4.391544e+05   5.085858e+06
  -3.528245e+06   2.684930e+06
  -2.449804e+06   2.443940e+05
   3.779656e+05  -7.035555e+05
   1.966108e+06  -4.759267e+05
   2.085040e+06   1.204311e+06
   8.177204e+05   3.751070e+06
  -1.724515e+06   3.940281e+06
  -3.382551e+06   7.493853e+04
  -1.917794e+06  -3.668722e+06
   7.372064e+05  -2.165142e+06
   4.131094e+05   2.252363e+06
  -2.449791e+06   2.210088e+06
  -2.425686e+06  -3.311008e+06
   2.648356e+06  -6.280375e+06
   7.289131e+06  -1.000962e+06
   5.272982e+06   7.167040e+06
  -2.042812e+06   8.772948e+06
  -7.595154e+06   2.446995e+06
  -6.924378e+06  -4.572027e+06
  -1.692227e+06  -6.082108e+06
   3.550246e+06  -2.604227e+06
   5.188200e+06   1.690320e+06
   2.286641e+06   3.584104e+06
  -2.541210e+06   2.180386e+06
  -4.588103e+06  -1.024610e+06
  -1.922124e+06  -2.819113e+06
   1.770701e+06  -1.378164e+06
   1.693014e+06   1.073934e+06
  -1.467132e+06   8.625715e+05
  -2.528219e+06  -1.976222e+06
   7.937110e+05  -3.662076e+06
   4.899751e+06  -1.915004e+06
   5.438694e+06   1.528405e+06
   2.300621e+06   4.127519e+06
  -1.811034e+06   5.289072e+06
  -4.948609e+06   4.827253e+06
  -6.171728e+06   1.777545e+06
  -4.636752e+06  -3.116416e+06
  -9.542992e+05  -6.163800e+06
   1.970908e+06  -4.735023e+06
   1.871730e+06  -1.092556e+06
   1.186529e+05   4.245532e+05
  -2.138437e+05  -8.804949e+05
   1.412482e+06  -1.819272e+06
   2.701979e+06  -3.679747e+05
   2.007439e+06   1.767504e+06
   9.686371e+04   2.022344e+06
  -1.418680e+06   1.917859e+05
  -1.573999e+06  -1.988562e+06
  -5.336442e+03  -2.851528e+06
   2.707356e+06  -1.663802e+06
   4.463499e+06   1.131018e+06
   3.276727e+06   3.758080e+06
  -1.021036e+04   4.306542e+06
  -2.331576e+06   2.792820e+06
  -2.319520e+06   1.139241e+06
  -1.880715e+06   6.204246e+05
  -2.930385e+06   3.927831e+05
  -4.285596e+06  -8.380920e+05
  -3.391692e+06  -2.786785e+06
  -6.326511e+04  -4.057385e+06
   3.182821e+06  -3.785121e+06
   4.082982e+06  -2.064383e+06
   2.603161e+06   3.782094e+05
   3.097615e+05   2.160981e+06
  -1.043377e+06   1.905688e+06
  -5.555529e+05  -1.653674e+04
   1.062898e+06  -1.280390e+06
   1.895345e+06  -3.794569e+05
   9.266427e+05   1.201520e+06
  -5.012265e+05   1.081039e+06
  -3.744293e+05  -4.066842e+05
   1.141169e+06  -6.172541e+05
   1.842299e+06   1.448045e+06
   4.708267e+05   3.572111e+06
  -1.814216e+06   3.299086e+06
  -3.207063e+06   8.820022e+05
  -3.164515e+06  -1.596135e+06
  -2.072976e+06  -2.746719e+06
  -3.588897e+05  -2.519846e+06
   1.219571e+06  -1.406999e+06
   1.534151e+06  -2.142265e+05
   4.832606e+05   5.231134e+04
  -3.391652e+05  -7.478009e+05
   4.425004e+05  -1.337002e+06
   1.923394e+06  -5.496756e+05
   2.012682e+06   9.372263e+05
   3.433664e+05   1.432248e+06
  -1.175976e+06   5.339077e+05
  -8.391267e+05  -4.738438e+05
   8.763167e+05  -4.527577e+05
   2.110389e+06   4.218797e+05
   1.616100e+06   1.380955e+06
  -3.278378e+05   1.890168e+06
  -2.298472e+06   1.545161e+06
  -2.727062e+06   2.082054e+05
  -1.184652e+06  -1.283470e+06
   9.376149e+05  -1.496596e+06
   1.573221e+06  -1.757575e+05
   2.033468e+05   1.083405e+06
  -1.512549e+06   7.097813e+05
  -1.679791e+06  -8.175935e+05
  -2.712186e+05  -1.644148e+06
   1.127446e+06  -9.141163e+05
   1.230775e+06   3.737395e+05
   1.993406e+05   7.946784e+05
  -8.083432e+05   3.759327e+04
  -7.195038e+05  -1.055060e+06
   5.799926e+05  -1.400084e+06
   1.982289e+06  -5.156320e+05
   1.995752e+06   1.059768e+06
   3.462344e+05   2.057401e+06
  -1.460348e+06   1.598504e+06
  -1.713441e+06   1.646013e+05
  -4.664125e+05  -8.756861e+05
   6.732740e+05  -7.722653e+05
   6.049828e+05  -6.269110e+04
  -1.468603e+05   3.201085e+05
  -4.651855e+05   1.541224e+05
  -5.862144e+04  -6.705903e+04
   4.794797e+05   1.294517e+05
   4.873449e+05   7.157285e+05
  -2.529947e+05   1.177959e+06
  -1.389713e+06   8.516108e+05
  -2.044872e+06  -4.489491e+05
  -1.413322e+06  -1.940729e+06
   2.540241e+05  -2.371239e+06
   1.612822e+06  -1.333883e+06
   1.635414e+06   1.794224e+05
   7.811545e+05   8.775834e+05
   2.766081e+05   5.849238e+05
   4.922024e+05   1.785234e+05
   6.541885e+05   3.266630e+05
   8.684296e+04   7.787710e+05
  -8.919209e+05   8.658912e+05
  -1.425646e+06   2.707885e+05
  -9.879890e+05  -7.260303e+05
   2.969450e+05  -1.399962e+06
   1.712168e+06  -9.994353e+05
   2.189508e+06   5.233213e+05
   1.059799e+06   2.095274e+06
  -1.065057e+06   2.317553e+06
  -2.546444e+06   9.519918e+05
  -2.290469e+06  -7.262855e+05
  -8.689314e+05  -1.342688e+06
   2.519478e+05  -8.895281e+05
   3.685065e+05  -4.522586e+05
   3.532716e+04  -7.355030e+05
   9.122637e+04  -1.312319e+06
   6.853167e+05  -1.282775e+06
   1.293125e+06  -3.036720e+05
   1.306050e+06   1.078675e+06
   5.219532e+05   1.868856e+06
  -6.290618e+05   1.402663e+06
  -1.261671e+06  -3.045458e+04
  -7.708031e+05  -1.292935e+06
   4.326228e+05  -1.373321e+06
   1.185325e+06  -3.532988e+05
   7.974862e+05   7.464463e+05
  -1.677129e+05   1.087824e+06
  -5.834272e+05   7.611293e+05
  -1.103605e+05   3.931624e+05
   4.275473e+05   3.260045e+05
   5.777982e+04   3.730220e+05
  -1.148689e+06   1.850536e+05
  -2.046019e+06  -3.649206e+05
  -1.576692e+06  -1.059842e+06
   8.341306e+04  -1.434952e+06
   1.611018e+06  -1.110797e+06
   1.820036e+06  -2.261249e+05
   8.074075e+05   5.368380e+05
  -2.774381e+05   5.746439e+05
  -5.156687e+05   1.171934e+04
  -3.849241e+04  -4.349199e+05
   4.261067e+05  -2.528735e+05
   4.732606e+05   3.414804e+05
   2.665554e+05   7.022355e+05
   1.143620e+05   4.668261e+05
   1.358657e+05  -7.098350e+04
   2.601371e+05  -2.558224e+05
   2.622805e+05   2.364355e+05
  -1.398063e+05   9.559249e+05
  -8.996010e+05   1.041526e+06
  -1.373465e+06   1.781793e+05
  -8.604183e+05  -9.047205e+05
   4.194390e+05  -1.142870e+06
   1.257688e+06  -3.473633e+05
   7.176358e+05   5.623169e+05
  -7.081889e+05   6.222725e+05
  -1.548114e+06  -1.367323e+05
  -9.349527e+05  -8.768666e+05
   5.247147e+05  -9.423055e+05
   1.476710e+06  -4.018706e+05
   1.182352e+06   2.334328e+05
   1.064249e+05   5.014723e+05
  -6.480739e+05   2.396901e+05
  -3.857125e+05  -3.036475e+05
   5.637633e+05  -5.213590e+05
   1.163058e+06   6.656524e+04
   6.780333e+05   1.151635e+06
  -5.575152e+05   1.678141e+06
  -1.446484e+06   8.790336e+05
  -1.227454e+06  -7.425125e+05
  -1.852210e+05  -1.752878e+06
   7.422393e+05  -1.243104e+06
   9.015724e+05   2.080235e+05
   3.847895e+05   1.180593e+06
  -2.608203e+05   9.330384e+05
  -5.636897e+05   6.287288e+04
  -4.285856e+05  -3.723106e+05
  -1.313369e+05  -1.303621e+05
  -5.989139e+04   8.545070e+04
  -3.119245e+05  -3.084228e+05
  -5.052281e+05  -9.608584e+05
  -1.417347e+05  -1.056999e+06
   7.444208e+05  -3.766635e+05
   1.436868e+06   4.711650e+05
   1.215356e+06   8.371277e+05
   1.709022e+05   6.947463e+05
  -8.125285e+05   4.048023e+05
  -9.577175e+05   1.574806e+05
  -3.795921e+05  -7.127532e+04
   1.330472e+05  -2.226745e+05
   7.315855e+04  -1.858934e+05
  -2.202514e+05  -7.674970e+04
  -6.370744e+04  -1.278019e+05
   6.092797e+05  -2.403937e+05
   1.033029e+06   3.878248e+03
   4.803114e+05   6.852677e+05
  -7.930386e+05   1.176258e+06
  -1.698870e+06   7.688196e+05
  -1.434360e+06  -4.026641e+05
  -2.821499e+05  -1.375617e+06
   7.680732e+05  -1.364888e+06
   1.032804e+06  -5.545334e+05
   6.369703e+05   2.075060e+05
   1.485484e+05   3.524729e+05
  -3.268057e+04   8.728172e+04
   9.470724e+04   1.063533e+04
   2.762712e+05   3.760259e+05
   2.248094e+05   7.968680e+05
  -1.682162e+05   6.764518e+05
  -6.603601e+05  -9.141023e+04
  -7.506404e+05  -9.066040e+05
  -1.611633e+05  -1.016759e+06
   7.129981e+05  -2.837381e+05
   1.030798e+06   6.687799e+05
   3.721902e+05   1.072176e+06
  -6.919689e+05   6.985025e+05
  -1.120756e+06  -5.827887e+04
  -5.494149e+05  -6.289618e+05
   2.820999e+05  -7.059635e+05
   4.065643e+05  -3.734749e+05
  -2.047077e+05   4.151616e+03
  -6.286467e+05   4.552890e+04
  -1.584808e+05  -3.095333e+05
   8.116333e+05  -6.637543e+05
   1.272840e+06  -5.059650e+05
   7.903592e+05   2.016573e+05
  -8.886909e+04   8.708235e+05
  -5.747162e+05   8.612142e+05
  -4.557082e+05   1.905021e+05
  -7.405917e+04  -4.541407e+05
   2.255099e+05  -4.500579e+05
   3.428834e+05   1.087141e+05
   2.575974e+05   5.656015e+05
  -3.901995e+04   4.525223e+05
  -3.856769e+05  -2.671023e+04
  -4.828721e+05  -2.986020e+05
  -2.405446e+05  -1.162822e+05
   5.387798e+04   1.746087e+05
   8.528046e+04   1.002500e+05
  -6.182934e+04  -3.220749e+05
  -2.635575e+04  -5.773647e+05
   2.865600e+05  -2.812402e+05
   4.986932e+05   3.252422e+05
   2.218468e+05   6.274851e+05
  -3.805367e+05   3.289856e+05
  -6.787619e+05  -2.455311e+05
  -2.713289e+05  -5.471560e+05
   5.082086e+05  -3.687669e+05
   8.903329e+05   5.123900e+04
   4.848582e+05   3.673516e+05
  -2.852302e+05   4.236977e+05
  -6.359023e+05   2.633158e+05
  -2.754038e+05   2.717567e+04
   2.976389e+05  -9.762238e+04
   3.832692e+05   1.883533e+04
  -1.310315e+05   2.609163e+05
  -6.741441e+05   2.709914e+05
