
 $NMID
 id='ANONYMOUS ', fmtdat='(2E16.6)'
 volume=1.0
 tramp=1.0
 $END
  -2.299778e+07   4.504860e+05
  -1.565883e+07  -1.029586e+07
  -4.549850e+05  -1.447134e+07
   9.610750e+06  -1.007225e+07
   8.378167e+06  -1.416335e+06
   7.075552e+05   4.064934e+06
  -4.638982e+06   2.289306e+06
  -3.715503e+06  -3.590324e+06
   8.705801e+05  -6.499462e+06
   4.262162e+06  -3.048037e+06
   3.833917e+06   2.913061e+06
   5.860900e+05   4.874314e+06
  -2.222948e+06   1.010192e+06
  -1.889421e+06  -4.115376e+06
   1.247243e+06  -4.906391e+06
   3.917177e+06  -6.103265e+05
   3.090855e+06   4.495358e+06
  -8.224268e+05   5.872058e+06
  -4.338896e+06   2.915701e+06
  -4.533279e+06  -1.228122e+06
  -1.937858e+06  -3.194330e+06
   3.194122e+05  -2.472129e+06
  -1.548473e+04  -1.273656e+06
  -1.948395e+06  -1.721079e+06
  -2.344261e+06  -3.447624e+06
   5.669576e+05  -4.156404e+06
   4.854770e+06  -2.369117e+06
   6.466553e+06   8.440424e+05
   3.504438e+06   2.987242e+06
  -1.389994e+06   2.580689e+06
  -3.581641e+06   2.990667e+05
  -1.353739e+06  -1.835906e+06
   2.430461e+06  -2.018768e+06
   3.770676e+06   5.748446e+04
   1.829691e+06   2.747055e+06
  -8.218663e+05   3.540788e+06
  -1.611121e+06   1.511365e+06
  -5.390790e+05  -1.270268e+06
   5.958748e+05  -1.682602e+06
   4.862030e+05   7.381217e+05
  -6.672871e+05   2.954564e+06
  -1.749127e+06   2.032290e+06
  -1.690040e+06  -1.127914e+06
  -2.197553e+05  -2.797370e+06
   1.640043e+06  -9.691893e+05
   2.012205e+06   2.290639e+06
  -9.025358e+04   3.395349e+06
  -3.230355e+06   1.231688e+06
  -4.428663e+06  -2.033446e+06
  -2.154205e+06  -3.553271e+06
   1.793800e+06  -2.434624e+06
   3.911050e+06  -2.169143e+04
   2.526215e+06   1.648541e+06
  -6.171476e+05   1.510137e+06
  -2.365383e+06   1.225934e+05
  -1.407835e+06  -9.834841e+05
   6.800602e+05  -7.570656e+05
   1.433213e+06   4.021170e+05
   1.838055e+05   1.147990e+06
  -1.378126e+06   6.401136e+05
  -1.209426e+06  -6.166066e+05
   7.372518e+05  -1.314606e+06
   2.358224e+06  -5.605626e+05
   1.634402e+06   1.332773e+06
  -1.155844e+06   2.967199e+06
  -3.679152e+06   2.829249e+06
  -3.951093e+06   5.995319e+05
  -2.205850e+06  -2.304260e+06
  -2.812101e+05  -3.837508e+06
   5.017905e+05  -3.280423e+06
   4.616887e+05  -1.855832e+06
   6.981521e+05  -1.130480e+06
   1.617029e+06  -1.121540e+06
   2.531892e+06  -5.476365e+05
   2.469454e+06   1.124842e+06
   1.125431e+06   2.613317e+06
  -8.181498e+05   2.221645e+06
  -2.083499e+06  -3.896194e+04
  -1.668017e+06  -2.252026e+06
   2.624446e+05  -2.523098e+06
   2.265631e+06  -7.823419e+05
   2.750279e+06   1.382544e+06
   1.471322e+06   2.393168e+06
  -2.436616e+05   2.002654e+06
  -9.743504e+05   1.146388e+06
  -7.754197e+05   7.760871e+05
  -9.373192e+05   9.292980e+05
  -2.167483e+06   8.311781e+05
  -3.418113e+06  -2.054600e+05
  -2.910771e+06  -1.972548e+06
  -2.778710e+05  -3.376489e+06
   2.685878e+06  -3.276790e+06
   3.656725e+06  -1.501561e+06
   2.089251e+06   8.149968e+05
  -2.921247e+05   2.019746e+06
  -1.300439e+06   1.367198e+06
  -4.001734e+05  -2.181414e+05
   1.048446e+06  -1.007334e+06
   1.434477e+06  -2.789232e+05
   5.127543e+05   8.942210e+05
  -5.902358e+05   9.352654e+05
  -6.794752e+05  -2.660375e+05
   3.636006e+05  -1.101118e+06
   1.544364e+06  -1.393610e+05
   1.627254e+06   2.048189e+06
   1.592950e+05   3.343736e+06
  -2.048939e+06   2.318239e+06
  -3.402867e+06  -2.882764e+05
  -2.800700e+06  -2.383592e+06
  -7.042581e+05  -2.582552e+06
   1.162440e+06  -1.320353e+06
   1.429801e+06  -1.112612e+05
   4.150317e+05   2.691931e+04
  -3.282224e+05  -6.164090e+05
   2.007067e+05  -9.989977e+05
   1.338863e+06  -5.010243e+05
   1.595861e+06   4.768554e+05
   4.593782e+05   9.965587e+05
  -9.175136e+05   5.702549e+05
  -9.527270e+05  -3.471217e+05
   5.677941e+05  -7.925291e+05
   2.130406e+06  -1.935339e+05
   2.014744e+06   1.086539e+06
   1.009758e+05   2.008964e+06
  -1.958953e+06   1.728807e+06
  -2.390468e+06   3.858746e+05
  -1.025029e+06  -9.177159e+05
   6.557940e+05  -1.090004e+06
   1.081421e+06  -1.399489e+05
   6.365353e+04   7.862541e+05
  -1.218674e+06   6.070458e+05
  -1.484342e+06  -5.110888e+05
  -5.235326e+05  -1.355100e+06
   7.262489e+05  -1.048732e+06
   1.122799e+06  -1.342078e+04
   4.005921e+05   5.702403e+05
  -5.628934e+05   9.826756e+04
  -5.999529e+05  -8.510069e+05
   5.124503e+05  -1.191800e+06
   1.713573e+06  -4.358789e+05
   1.710176e+06   8.788247e+05
   3.710203e+05   1.709107e+06
  -1.095062e+06   1.416291e+06
  -1.410512e+06   3.002746e+05
  -5.201218e+05  -6.721805e+05
   4.953043e+05  -7.432384e+05
   6.498981e+05  -6.080117e+04
   1.709499e+03   5.267967e+05
  -5.898258e+05   4.127901e+05
  -4.565678e+05  -1.129472e+05
   2.050962e+05  -2.531279e+05
   5.689769e+05   3.086744e+05
   3.832783e+04   9.745417e+05
  -1.083000e+06   8.543120e+05
  -1.781467e+06  -2.573601e+05
  -1.288487e+06  -1.597744e+06
   1.215053e+05  -2.112469e+06
   1.362706e+06  -1.403795e+06
   1.599910e+06  -6.532613e+04
   9.967906e+05   8.785843e+05
   3.697845e+05   9.014183e+05
   2.304658e+05   3.959844e+05
   3.222898e+05   1.662279e+05
   7.445256e+04   5.017239e+05
  -6.404855e+05   8.436296e+05
  -1.274360e+06   4.567606e+05
  -1.099105e+06  -6.200890e+05
   5.016884e+04  -1.451378e+06
   1.462840e+06  -1.116150e+06
   2.020989e+06   3.062044e+05
   1.143428e+06   1.729346e+06
  -6.252090e+05   2.040045e+06
  -2.014018e+06   1.077811e+06
  -2.114809e+06  -3.083921e+05
  -1.117835e+06  -1.107380e+06
   5.232359e+03  -1.039534e+06
   4.764529e+05  -6.578267e+05
   3.377396e+05  -6.225354e+05
   1.983653e+05  -9.400334e+05
   4.902643e+05  -9.820902e+05
   1.006121e+06  -2.603158e+05
   1.128428e+06   9.105904e+05
   4.989801e+05   1.621124e+06
  -5.252934e+05   1.246126e+06
  -1.121408e+06   6.574394e+04
  -7.800043e+05  -9.940642e+05
   1.589221e+05  -1.191102e+06
   8.237295e+05  -5.429656e+05
   6.940637e+05   3.210577e+05
   9.929963e+04   7.822424e+05
  -2.176955e+05   7.154256e+05
   2.758325e+04   4.472694e+05
   3.402621e+05   3.226252e+05
   3.754175e+04   3.467301e+05
  -9.002250e+05   2.431261e+05
  -1.670114e+06  -1.804669e+05
  -1.412306e+06  -7.696357e+05
  -1.395765e+05  -1.129339e+06
   1.172491e+06  -9.726434e+05
   1.502998e+06  -3.834719e+05
   7.771746e+05   2.209208e+05
  -1.350706e+05   4.095144e+05
  -3.885994e+05   1.184518e+05
   1.460684e+04  -2.485768e+05
   4.269260e+05  -1.995645e+05
   3.979489e+05   2.820529e+05
   1.016173e+05   6.486770e+05
  -3.231449e+04   4.155531e+05
   1.299991e+05  -1.793423e+05
   3.389227e+05  -3.753069e+05
   2.750052e+05   1.767831e+05
  -1.587573e+05   8.995760e+05
  -7.405485e+05   9.171465e+05
  -1.011821e+06   9.827209e+04
  -5.988935e+05  -7.692269e+05
   3.283486e+05  -8.644926e+05
   9.800536e+05  -1.927448e+05
   6.220527e+05   5.165304e+05
  -5.517319e+05   6.015598e+05
  -1.427265e+06   3.290284e+04
  -1.066534e+06  -6.826812e+05
   2.601865e+05  -9.765641e+05
   1.317399e+06  -6.392276e+05
   1.191286e+06   3.623107e+04
   1.971684e+05   4.731467e+05
  -5.401780e+05   3.111974e+05
  -2.963348e+05  -2.046452e+05
   5.559179e+05  -3.996745e+05
   1.010115e+06   1.435027e+05
   4.842224e+05   1.055558e+06
  -6.145387e+05   1.430210e+06
  -1.330779e+06   7.047869e+05
  -1.094733e+06  -6.815600e+05
  -1.916773e+05  -1.582193e+06
   6.227267e+05  -1.210494e+06
   8.365912e+05   5.456699e+04
   4.861286e+05   1.022631e+06
  -6.694927e+04   9.158576e+05
  -4.598150e+05   1.320632e+05
  -4.935840e+05  -3.417752e+05
  -2.314508e+05  -1.484093e+05
  -7.969860e+03   1.111934e+05
  -1.273442e+05  -1.900328e+05
  -4.169106e+05  -8.070951e+05
  -2.907062e+05  -9.601954e+05
   4.973067e+05  -3.808632e+05
   1.314158e+06   3.813904e+05
   1.233064e+06   7.082719e+05
   1.888549e+05   5.858835e+05
  -8.215920e+05   3.701822e+05
  -8.892023e+05   2.098117e+05
  -2.457183e+05   1.394542e+04
   1.560348e+05  -1.882908e+05
  -7.187322e+04  -2.316009e+05
  -3.387872e+05  -1.393378e+05
  -5.145257e+03  -1.224702e+05
   6.864605e+05  -1.715680e+05
   8.977997e+05   2.970303e+04
   2.302600e+05   5.756945e+05
  -8.175781e+05   9.668738e+05
  -1.396636e+06   6.001692e+05
  -1.100077e+06  -4.157422e+05
  -2.119918e+05  -1.236611e+06
   6.241910e+05  -1.170741e+06
   9.040755e+05  -4.087187e+05
   5.867816e+05   2.543860e+05
   7.553248e+04   3.087360e+05
  -1.482294e+05  -4.280276e+03
   3.932416e+04  -8.607265e+04
   3.138180e+05   2.877621e+05
   2.629272e+05   7.021482e+05
  -1.715122e+05   5.696325e+05
  -6.114958e+05  -1.692383e+05
  -5.873422e+05  -8.863391e+05
   1.248296e+03  -8.806471e+05
   7.081240e+05  -1.245596e+05
   8.692417e+05   7.045423e+05
   2.473435e+05   9.361996e+05
  -6.276788e+05   5.221524e+05
  -9.241064e+05  -8.308426e+04
  -4.139548e+05  -4.620443e+05
   2.357726e+05  -5.054967e+05
   2.495569e+05  -3.040901e+05
  -2.985233e+05  -4.113605e+04
  -5.860800e+05   2.470903e+04
  -1.006089e+05  -2.486423e+05
   7.122519e+05  -6.068869e+05
   1.018048e+06  -5.442817e+05
   5.791910e+05   7.871363e+04
  -8.465565e+04   7.204316e+05
  -3.975152e+05   7.138811e+05
  -2.812721e+05   8.443755e+04
  -3.666454e+03  -4.491190e+05
   2.193587e+05  -3.329217e+05
   3.090275e+05   2.011245e+05
   2.118641e+05   5.021142e+05
  -6.174313e+04   3.008939e+05
  -3.350913e+05  -7.015059e+04
  -3.888715e+05  -1.870370e+05
  -2.114123e+05  -3.441610e+04
  -6.185796e+03   6.947294e+04
   7.440613e+04  -8.655090e+04
   9.523145e+04  -3.525523e+05
   1.882103e+05  -3.891786e+05
   3.193630e+05  -5.053943e+04
   2.952432e+05   4.144158e+05
   3.612727e+03   5.691499e+05
  -3.903261e+05   2.360173e+05
  -5.254829e+05  -2.885751e+05
  -1.829700e+05  -5.262860e+05
   4.156093e+05  -3.089831e+05
   7.200412e+05   9.492339e+04
   3.942717e+05   3.271296e+05
  -2.518492e+05   2.909673e+05
  -5.306473e+05   1.303411e+05
  -1.565544e+05   6.553879e+03
   3.818837e+05   3.968299e+03
   3.835605e+05   1.402378e+05
  -2.150697e+05   3.016447e+05
  -7.558015e+05   2.311698e+05
