
 $NMID
 id='ANONYMOUS ', fmtdat='(2E16.6)'
 volume=1.0
 tramp=1.0
 $END
  -4.595724e+07   9.486187e+05
  -2.888825e+07  -2.687718e+07
   4.425677e+06  -3.107162e+07
   2.203452e+07  -1.367409e+07
   1.429235e+07   4.302077e+06
  -1.945925e+06   7.895516e+06
  -8.387274e+06  -5.979596e+03
  -3.240760e+06  -7.946067e+06
   4.542060e+06  -8.637126e+06
   8.070069e+06  -2.445403e+06
   6.099077e+06   5.140623e+06
   8.033131e+05   7.468381e+06
  -3.417074e+06   2.259978e+06
  -2.409421e+06  -5.012135e+06
   2.990410e+06  -6.092359e+06
   6.713079e+06   6.663967e+05
   4.127218e+06   8.432144e+06
  -2.781124e+06   1.002483e+07
  -8.271836e+06   5.077652e+06
  -8.866262e+06  -1.670595e+06
  -5.263991e+06  -6.031963e+06
  -5.537952e+05  -6.706230e+06
   1.879565e+06  -4.691427e+06
   7.158872e+05  -2.552985e+06
  -1.355104e+06  -2.601997e+06
   5.327119e+04  -4.094562e+06
   5.155606e+06  -3.709108e+06
   8.585439e+06  -1.217634e+05
   5.959325e+06   3.685836e+06
  -1.698398e+05   4.232037e+06
  -3.578203e+06   1.858306e+06
  -2.043427e+06  -5.078628e+05
   1.212729e+06  -1.161595e+06
   2.695908e+06  -2.113703e+05
   1.979582e+06   1.854265e+06
   1.758982e+05   3.745382e+06
  -1.696221e+06   3.110265e+06
  -2.358185e+06  -3.801798e+05
  -1.057824e+06  -2.945883e+06
   5.766782e+05  -1.115951e+06
  -2.500781e+04   2.546385e+06
  -2.255800e+06   2.201782e+06
  -2.270411e+06  -2.558856e+06
   1.528123e+06  -5.192949e+06
   5.314655e+06  -1.164558e+06
   4.285728e+06   5.395113e+06
  -1.210090e+06   6.980305e+06
  -6.084129e+06   2.144596e+06
  -6.200147e+06  -3.666744e+06
  -1.960710e+06  -5.294644e+06
   2.980821e+06  -2.655385e+06
   4.889393e+06   1.061496e+06
   2.493313e+06   2.976625e+06
  -1.859503e+06   2.061253e+06
  -3.905482e+06  -5.514342e+05
  -1.841638e+06  -2.198605e+06
   1.381621e+06  -1.221934e+06
   1.667021e+06   8.463419e+05
  -8.782760e+05   1.057191e+06
  -2.239658e+06  -9.918551e+05
  -5.207685e+04  -2.656188e+06
   3.415865e+06  -1.848159e+06
   4.463075e+06   7.025429e+05
   2.170143e+06   3.159794e+06
  -1.576662e+06   4.539584e+06
  -4.567590e+06   4.182838e+06
  -5.455604e+06   1.395388e+06
  -3.829361e+06  -2.842270e+06
  -7.546428e+05  -5.426711e+06
   1.451946e+06  -4.348530e+06
   1.431971e+06  -1.448790e+06
   4.080604e+05  -1.254980e+05
   4.928281e+05  -9.198290e+05
   1.832408e+06  -1.330368e+06
   2.628780e+06   1.950205e+05
   1.690686e+06   2.116249e+06
  -2.606210e+05   2.129803e+06
  -1.706535e+06   9.034067e+04
  -1.641501e+06  -2.150222e+06
   9.699741e+04  -2.798022e+06
   2.592077e+06  -1.374217e+06
   3.911851e+06   1.230112e+06
   2.689805e+06   3.301888e+06
  -5.850156e+04   3.531762e+06
  -1.843695e+06   2.259278e+06
  -1.788385e+06   1.056737e+06
  -1.581875e+06   7.677719e+05
  -2.725116e+06   5.743072e+05
  -4.071408e+06  -6.190499e+05
  -3.299118e+06  -2.554142e+06
  -1.445857e+05  -3.905638e+06
   3.078765e+06  -3.679165e+06
   4.020609e+06  -1.889858e+06
   2.463150e+06   5.512859e+05
   8.366380e+04   2.146542e+06
  -1.165756e+06   1.743434e+06
  -5.131172e+05  -8.578989e+04
   1.077319e+06  -1.209131e+06
   1.770526e+06  -3.658674e+05
   8.044789e+05   1.107063e+06
  -5.455773e+05   1.061462e+06
  -5.095481e+05  -3.633250e+05
   8.803354e+05  -8.396318e+05
   1.810786e+06   8.679938e+05
   9.534694e+05   3.116074e+06
  -1.123625e+06   3.456873e+06
  -2.896774e+06   1.473284e+06
  -3.370927e+06  -1.169262e+06
  -2.401007e+06  -2.720598e+06
  -4.818997e+05  -2.622936e+06
   1.238603e+06  -1.402537e+06
   1.536675e+06  -1.730792e+05
   4.726418e+05   4.656517e+04
  -3.466469e+05  -7.151794e+05
   3.514174e+05  -1.247129e+06
   1.747557e+06  -5.594309e+05
   1.920603e+06   7.749998e+05
   4.152593e+05   1.307468e+06
  -1.102121e+06   5.730972e+05
  -9.072084e+05  -4.328715e+05
   7.836987e+05  -5.923620e+05
   2.179291e+06   2.084820e+05
   1.808456e+06   1.320698e+06
  -1.842071e+05   1.992802e+06
  -2.240285e+06   1.652997e+06
  -2.677873e+06   2.776772e+05
  -1.163603e+06  -1.179911e+06
   8.472588e+05  -1.388176e+06
   1.429053e+06  -1.780435e+05
   1.649507e+05   9.941891e+05
  -1.436422e+06   6.941589e+05
  -1.656279e+06  -7.202877e+05
  -3.811563e+05  -1.586742e+06
   1.008575e+06  -1.003050e+06
   1.235056e+06   2.300140e+05
   2.947212e+05   7.333849e+05
  -7.261634e+05   7.007332e+04
  -6.882063e+05  -9.937156e+05
   5.663815e+05  -1.345705e+06
   1.923362e+06  -4.921630e+05
   1.933362e+06   1.018660e+06
   3.644031e+05   1.978668e+06
  -1.361473e+06   1.575180e+06
  -1.652063e+06   2.232384e+05
  -5.091641e+05  -8.258912e+05
   6.204196e+05  -7.891106e+05
   6.404717e+05  -6.693035e+04
  -9.343406e+04   4.060653e+05
  -5.254413e+05   2.515055e+05
  -2.082728e+05  -9.282724e+04
   3.932912e+05  -1.299697e+04
   5.320699e+05   5.845286e+05
  -1.531058e+05   1.132484e+06
  -1.311786e+06   8.695038e+05
  -1.994845e+06  -3.932456e+05
  -1.396526e+06  -1.862933e+06
   2.180478e+05  -2.336226e+06
   1.570300e+06  -1.395386e+06
   1.673557e+06   9.935771e+04
   8.823464e+05   9.176471e+05
   3.074780e+05   7.339984e+05
   3.934608e+05   2.674200e+05
   5.393593e+05   2.692950e+05
   8.004452e+04   6.904466e+05
  -8.271224e+05   8.752992e+05
  -1.409144e+06   3.365016e+05
  -1.048191e+06  -7.180104e+05
   2.246854e+05  -1.458201e+06
   1.669045e+06  -1.060204e+06
   2.180265e+06   4.643218e+05
   1.115976e+06   2.013936e+06
  -9.260316e+05   2.272840e+06
  -2.413186e+06   1.025214e+06
  -2.290437e+06  -5.901396e+05
  -9.900351e+05  -1.298253e+06
   1.703058e+05  -9.778237e+05
   4.296679e+05  -5.402460e+05
   1.580908e+05  -7.030714e+05
   1.355116e+05  -1.198716e+06
   6.279103e+05  -1.200355e+06
   1.215797e+06  -2.940121e+05
   1.268794e+06   1.045167e+06
   5.220855e+05   1.824114e+06
  -6.090387e+05   1.378178e+06
  -1.242020e+06   4.175438e+03
  -7.946671e+05  -1.213288e+06
   3.395334e+05  -1.342188e+06
   1.079810e+06  -4.398356e+05
   7.822877e+05   5.998814e+05
  -6.600240e+04   1.000258e+06
  -4.562143e+05   7.677954e+05
  -6.122040e+04   4.291333e+05
   4.009010e+05   3.368923e+05
   4.677378e+04   3.732206e+05
  -1.084016e+06   2.085561e+05
  -1.951825e+06  -3.092874e+05
  -1.552763e+06  -9.794794e+05
  -2.171822e+03  -1.354472e+06
   1.482909e+06  -1.084738e+06
   1.748994e+06  -2.920663e+05
   8.218603e+05   4.282745e+05
  -2.289211e+05   5.251359e+05
  -4.814041e+05   5.326751e+04
  -1.632047e+04  -3.726796e+05
   4.427049e+05  -2.353055e+05
   4.559219e+05   3.312694e+05
   2.023275e+05   7.012607e+05
   5.597034e+04   4.582799e+05
   1.410175e+05  -1.145244e+05
   3.020072e+05  -3.057882e+05
   2.696444e+05   2.216817e+05
  -1.605934e+05   9.562085e+05
  -8.647413e+05   1.013664e+06
  -1.262607e+06   1.462786e+05
  -7.734342e+05  -8.762784e+05
   3.974988e+05  -1.060353e+06
   1.181007e+06  -2.898546e+05
   6.964443e+05   5.643235e+05
  -6.703866e+05   6.300276e+05
  -1.547327e+06  -8.171316e+04
  -1.012278e+06  -8.339117e+05
   4.415573e+05  -9.847858e+05
   1.462730e+06  -5.015806e+05
   1.221758e+06   1.688845e+05
   1.434675e+05   5.068375e+05
  -6.251669e+05   2.740492e+05
  -3.603687e+05  -2.716398e+05
   5.769644e+05  -4.826786e+05
   1.131824e+06   1.042589e+05
   6.127881e+05   1.146730e+06
  -6.043224e+05   1.621809e+06
  -1.445769e+06   8.260543e+05
  -1.206048e+06  -7.465705e+05
  -1.836315e+05  -1.737209e+06
   7.239724e+05  -1.263250e+06
   9.023817e+05   1.569434e+05
   4.315565e+05   1.154505e+06
  -1.946518e+05   9.536966e+05
  -5.379516e+05   9.054531e+04
  -4.650336e+05  -3.739556e+05
  -1.750576e+05  -1.431220e+05
  -4.139566e+04   9.959721e+04
  -2.453713e+05  -2.676473e+05
  -4.806251e+05  -9.279590e+05
  -2.022915e+05  -1.052226e+06
   6.676913e+05  -3.889480e+05
   1.427918e+06   4.561259e+05
   1.255013e+06   8.180754e+05
   1.795606e+05   6.722419e+05
  -8.431470e+05   3.965634e+05
  -9.599207e+05   1.778221e+05
  -3.367430e+05  -3.929392e+04
   1.474351e+05  -2.147186e+05
   1.850294e+04  -2.126693e+05
  -2.727082e+05  -1.076852e+05
  -4.029175e+04  -1.276646e+05
   6.589116e+05  -2.132369e+05
   1.007029e+06   1.912367e+04
   3.890891e+05   6.596137e+05
  -8.310657e+05   1.119769e+06
  -1.628007e+06   7.158297e+05
  -1.336903e+06  -4.248959e+05
  -2.540774e+05  -1.360329e+06
   7.383256e+05  -1.321861e+06
   1.011305e+06  -5.052669e+05
   6.319801e+05   2.360598e+05
   1.210575e+05   3.437768e+05
  -7.975306e+04   4.991220e+04
   7.623624e+04  -2.870689e+04
   2.982924e+05   3.530516e+05
   2.435347e+05   7.827883e+05
  -1.763074e+05   6.513049e+05
  -6.574369e+05  -1.287897e+05
  -7.006355e+05  -9.268838e+05
  -9.522526e+04  -9.898415e+05
   7.317241e+05  -2.225803e+05
   9.903920e+05   7.078653e+05
   3.267095e+05   1.049027e+06
  -6.883503e+05   6.429110e+05
  -1.072115e+06  -7.501122e+04
  -5.078493e+05  -5.802381e+05
   2.728891e+05  -6.425416e+05
   3.546466e+05  -3.555278e+05
  -2.492794e+05  -1.772879e+04
  -6.296925e+05   3.415649e+04
  -1.379429e+05  -2.940942e+05
   7.986322e+05  -6.562820e+05
   1.210125e+06  -5.322113e+05
   7.279005e+05   1.593638e+05
  -9.327279e+04   8.347479e+05
  -5.228012e+05   8.252067e+05
  -3.973962e+05   1.518644e+05
  -4.411474e+04  -4.652211e+05
   2.312394e+05  -4.136813e+05
   3.370448e+05   1.520245e+05
   2.434674e+05   5.574716e+05
  -5.036193e+04   4.030889e+05
  -3.756387e+05  -4.707104e+04
  -4.585010e+05  -2.634411e+05
  -2.363124e+05  -8.747393e+04
   3.127809e+04   1.358715e+05
   8.554198e+04   2.688381e+04
   3.399896e+03  -3.422454e+05
   6.206498e+04  -5.143474e+05
   3.071958e+05  -1.924995e+05
   4.265534e+05   3.720135e+05
   1.352946e+05   6.205340e+05
  -3.968343e+05   2.976920e+05
  -6.334849e+05  -2.730188e+05
  -2.394232e+05  -5.552632e+05
   4.868901e+05  -3.528730e+05
   8.457087e+05   7.420938e+04
   4.602407e+05   3.636073e+05
  -2.807456e+05   3.805570e+05
  -6.115818e+05   2.141393e+05
  -2.351084e+05   1.935107e+04
   3.401148e+05  -5.603348e+04
   3.932052e+05   7.154778e+04
  -1.715014e+05   2.834751e+05
  -7.290416e+05   2.572326e+05
