
 $NMID
 id='ANONYMOUS ', fmtdat='(2E16.6)'
 volume=1.0
 tramp=1.0
 $END
  -2.762388e+07   3.836560e+05
  -1.759564e+07  -1.460767e+07
   1.573161e+06  -1.792908e+07
   1.238230e+07  -9.628874e+06
   8.926855e+06   8.228623e+05
  -3.712912e+05   4.757014e+06
  -5.135224e+06   1.201686e+06
  -2.987494e+06  -4.455317e+06
   1.876961e+06  -6.219090e+06
   4.863398e+06  -2.392685e+06
   4.102913e+06   3.274960e+06
   6.207737e+05   5.122244e+06
  -2.399125e+06   1.353016e+06
  -1.965876e+06  -3.797276e+06
   1.525688e+06  -4.586097e+06
   4.233864e+06  -8.703905e+04
   2.956468e+06   5.143461e+06
  -1.405045e+06   6.361136e+06
  -5.087564e+06   3.154704e+06
  -5.387217e+06  -1.288695e+06
  -2.770676e+06  -3.822765e+06
   9.930440e+04  -3.650000e+06
   7.967585e+05  -2.193905e+06
  -7.093997e+05  -1.542943e+06
  -1.797544e+06  -2.473185e+06
   1.273858e+05  -3.546268e+06
   4.193254e+06  -2.674961e+06
   6.346440e+06   2.093098e+05
   3.973299e+06   2.787695e+06
  -7.123719e+05   2.950107e+06
  -3.134064e+06   9.985022e+05
  -1.562533e+06  -1.061967e+06
   1.511798e+06  -1.580475e+06
   2.845157e+06  -2.369376e+05
   1.733085e+06   1.991348e+06
  -2.700593e+05   3.186033e+06
  -1.460070e+06   1.891702e+06
  -1.207702e+06  -8.697513e+05
  -8.316812e+04  -2.001942e+06
   5.615228e+05  -4.236852e+04
  -2.068289e+05   2.424633e+06
  -1.595694e+06   1.818622e+06
  -1.627369e+06  -1.443185e+06
   4.164608e+05  -3.144156e+06
   2.653603e+06  -7.958439e+05
   2.469792e+06   3.050539e+06
  -4.806028e+05   4.085012e+06
  -3.727851e+06   1.365627e+06
  -4.387816e+06  -2.196645e+06
  -1.819373e+06  -3.537176e+06
   1.868571e+06  -2.176358e+06
   3.633834e+06   2.559403e+05
   2.142377e+06   1.806976e+06
  -9.491165e+05   1.491950e+06
  -2.551423e+06  -1.053255e+05
  -1.353058e+06  -1.267081e+06
   8.239535e+05  -8.336671e+05
   1.315114e+06   4.639325e+05
  -1.666867e+05   9.188061e+05
  -1.397461e+06  -8.879081e+03
  -5.769244e+05  -1.159771e+06
   1.533011e+06  -1.220545e+06
   2.664722e+06  -1.638547e+04
   1.535793e+06   1.740753e+06
  -1.106586e+06   3.076092e+06
  -3.403485e+06   2.944473e+06
  -3.895364e+06   8.476117e+05
  -2.494627e+06  -2.148801e+06
  -4.603102e+05  -3.842231e+06
   7.107173e+05  -3.145632e+06
   6.727281e+05  -1.392886e+06
   4.139541e+05  -6.157713e+05
   9.123990e+05  -9.740416e+05
   1.898418e+06  -8.746654e+05
   2.236410e+06   5.261642e+05
   1.292338e+06   2.029549e+06
  -4.024494e+05   1.932316e+06
  -1.659044e+06   1.262231e+05
  -1.518531e+06  -1.816103e+06
   7.688627e+04  -2.273853e+06
   2.046888e+06  -9.517916e+05
   2.808897e+06   1.078484e+06
   1.716362e+06   2.365548e+06
  -1.532088e+05   2.256295e+06
  -1.151042e+06   1.345816e+06
  -9.990201e+05   7.215333e+05
  -9.746360e+05   7.285251e+05
  -1.982377e+06   6.708470e+05
  -3.106488e+06  -2.201876e+05
  -2.646990e+06  -1.786752e+06
  -2.952403e+05  -3.032748e+06
   2.306345e+06  -3.002082e+06
   3.196873e+06  -1.531410e+06
   1.961371e+06   5.379727e+05
  -3.919709e+04   1.795721e+06
  -1.034659e+06   1.361839e+06
  -4.129519e+05  -1.256874e+05
   8.670441e+05  -9.790799e+05
   1.343731e+06  -3.208735e+05
   5.762477e+05   8.356598e+05
  -4.594148e+05   8.880458e+05
  -5.415239e+05  -2.123007e+05
   4.192197e+05  -8.455167e+05
   1.347635e+06   1.662955e+05
   1.176774e+06   2.011780e+06
  -1.883809e+05   2.818542e+06
  -1.906224e+06   1.713040e+06
  -2.845702e+06  -4.307769e+05
  -2.311857e+06  -2.026051e+06
  -6.152687e+05  -2.171041e+06
   9.719679e+05  -1.185914e+06
   1.257530e+06  -1.603561e+05
   3.753593e+05   2.125273e+04
  -3.112118e+05  -5.439812e+05
   1.865199e+05  -9.408767e+05
   1.264160e+06  -4.902662e+05
   1.489117e+06   4.555202e+05
   4.180947e+05   9.439549e+05
  -8.153205e+05   5.336745e+05
  -8.145965e+05  -2.674455e+05
   4.970819e+05  -6.119020e+05
   1.786097e+06  -1.133457e+05
   1.669361e+06   9.071408e+05
   7.088755e+04   1.680650e+06
  -1.689414e+06   1.506636e+06
  -2.116464e+06   3.685116e+05
  -9.490713e+05  -8.448913e+05
   5.968624e+05  -1.055932e+06
   1.046071e+06  -1.617947e+05
   1.197369e+05   7.479582e+05
  -1.090908e+06   5.924346e+05
  -1.338771e+06  -4.538502e+05
  -4.452522e+05  -1.211943e+06
   6.725622e+05  -9.035510e+05
   9.926803e+05   2.524987e+04
   3.356867e+05   5.232779e+05
  -5.172201e+05   1.028289e+05
  -5.675256e+05  -7.351614e+05
   4.029980e+05  -1.072659e+06
   1.502043e+06  -4.465208e+05
   1.553675e+06   7.353185e+05
   3.676364e+05   1.530757e+06
  -9.781027e+05   1.291722e+06
  -1.277435e+06   2.714721e+05
  -4.689307e+05  -6.121250e+05
   4.341801e+05  -6.739912e+05
   5.562918e+05  -9.013021e+04
   1.124969e+04   3.988921e+05
  -4.427607e+05   3.279115e+05
  -3.075322e+05  -4.765442e+04
   2.065683e+05  -1.233023e+05
   4.567087e+05   3.306679e+05
  -7.556023e+03   8.606895e+05
  -9.614181e+05   7.528493e+05
  -1.582134e+06  -2.079436e+05
  -1.174574e+06  -1.401486e+06
   7.041764e+04  -1.871996e+06
   1.179735e+06  -1.234074e+06
   1.378609e+06  -5.328786e+04
   8.406826e+05   7.270581e+05
   3.322075e+05   7.034909e+05
   2.651957e+05   2.981184e+05
   3.378712e+05   1.737146e+05
   6.424297e+04   4.802403e+05
  -5.797219e+05   7.300322e+05
  -1.096150e+06   3.773515e+05
  -9.219495e+05  -5.181499e+05
   5.244855e+04  -1.220437e+06
   1.262126e+06  -9.649692e+05
   1.767599e+06   2.465744e+05
   1.013968e+06   1.515791e+06
  -5.608986e+05   1.817500e+06
  -1.799022e+06   9.566094e+05
  -1.857255e+06  -2.829803e+05
  -9.456395e+05  -9.580400e+05
   1.458561e+04  -8.587562e+05
   3.612436e+05  -5.426550e+05
   2.132698e+05  -5.779742e+05
   1.299646e+05  -8.952042e+05
   4.383413e+05  -9.181430e+05
   9.165471e+05  -2.586918e+05
   1.032994e+06   7.844740e+05
   4.828354e+05   1.428966e+06
  -4.342435e+05   1.120696e+06
  -9.886542e+05   7.489384e+04
  -6.957238e+05  -8.860500e+05
   1.551110e+05  -1.059096e+06
   7.551638e+05  -4.488720e+05
   6.143838e+05   3.377944e+05
   5.093161e+04   7.202170e+05
  -2.330412e+05   6.210802e+05
   1.436831e+04   3.725734e+05
   3.156918e+05   2.733626e+05
   4.149907e+04   3.020079e+05
  -8.118826e+05   2.147004e+05
  -1.504578e+06  -1.514295e+05
  -1.262189e+06  -6.757534e+05
  -1.095080e+05  -1.016512e+06
   1.062861e+06  -8.890157e+05
   1.339997e+06  -3.425046e+05
   6.754787e+05   2.235108e+05
  -1.358201e+05   3.825748e+05
  -3.509315e+05   8.898093e+04
   6.942629e+03  -2.514904e+05
   3.698123e+05  -1.922789e+05
   3.637223e+05   2.490033e+05
   1.322539e+05   5.745060e+05
   9.173759e+03   3.754317e+05
   1.048213e+05  -1.354412e+05
   2.578791e+05  -3.122359e+05
   2.292922e+05   1.518123e+05
  -1.117751e+05   7.840880e+05
  -6.384079e+05   8.249304e+05
  -9.303144e+05   1.174210e+05
  -5.801094e+05  -6.761424e+05
   2.818569e+05  -8.007953e+05
   8.946100e+05  -2.126384e+05
   5.677048e+05   4.402370e+05
  -4.890084e+05   5.342817e+05
  -1.248649e+06   3.465222e+04
  -9.096083e+05  -5.891182e+05
   2.440372e+05  -8.348813e+05
   1.138906e+06  -5.425466e+05
   1.020375e+06   2.968923e+04
   1.679275e+05   4.043750e+05
  -4.727861e+05   2.712558e+05
  -2.761296e+05  -1.853728e+05
   4.704617e+05  -3.837186e+05
   9.055997e+05   8.215627e+04
   4.825271e+05   9.197902e+05
  -4.860912e+05   1.301344e+06
  -1.157048e+06   6.763192e+05
  -9.890130e+05  -5.731616e+05
  -2.053780e+05  -1.393040e+06
   5.243986e+05  -1.066465e+06
   7.298436e+05   5.092049e+04
   4.280024e+05   8.914117e+05
  -6.169623e+04   7.881565e+05
  -4.060682e+05   1.130816e+05
  -4.242495e+05  -2.811693e+05
  -1.889636e+05  -1.126754e+05
  -1.193355e+04   9.129244e+04
  -1.437943e+05  -1.864525e+05
  -3.964915e+05  -7.146605e+05
  -2.534846e+05  -8.338787e+05
   4.607227e+05  -3.360413e+05
   1.167145e+06   3.097127e+05
   1.080327e+06   5.969135e+05
   1.728258e+05   5.185079e+05
  -6.998588e+05   3.505385e+05
  -7.722341e+05   1.966962e+05
  -2.314316e+05  -4.933848e+02
   1.272069e+05  -1.758270e+05
  -4.444937e+04  -1.858628e+05
  -2.775179e+05  -9.354132e+04
  -1.800739e+04  -1.061618e+05
   5.761885e+05  -1.832418e+05
   8.004228e+05  -2.525900e+03
   2.557852e+05   5.181049e+05
  -6.807500e+05   8.987701e+05
  -1.247770e+06   5.799273e+05
  -1.021587e+06  -3.367063e+05
  -2.272087e+05  -1.089281e+06
   5.354277e+05  -1.057809e+06
   7.946173e+05  -4.003701e+05
   5.238224e+05   1.943461e+05
   8.601291e+04   2.727242e+05
  -1.109294e+05   2.035456e+04
   3.706797e+04  -5.672314e+04
   2.702040e+05   2.519256e+05
   2.404075e+05   6.124780e+05
  -1.319257e+05   5.168321e+05
  -5.449139e+05  -1.138891e+05
  -5.640063e+05  -7.569846e+05
  -4.972567e+04  -7.918545e+05
   6.160233e+05  -1.572248e+05
   8.030313e+05   5.830801e+05
   2.585097e+05   8.303386e+05
  -5.445970e+05   4.979365e+05
  -8.353163e+05  -4.670902e+04
  -3.884234e+05  -4.189447e+05
   2.025609e+05  -4.753954e+05
   2.337522e+05  -2.770373e+05
  -2.460403e+05  -1.681077e+04
  -5.135738e+05   4.038458e+04
  -1.015023e+05  -2.245741e+05
   6.167170e+05  -5.530556e+05
   9.060572e+05  -4.865120e+05
   5.351118e+05   7.929890e+04
  -5.746808e+04   6.518938e+05
  -3.578779e+05   6.482026e+05
  -2.741845e+05   9.249936e+04
  -2.809542e+04  -3.921311e+05
   1.853264e+05  -3.137526e+05
   2.824944e+05   1.507356e+05
   2.037707e+05   4.403954e+05
  -4.614508e+04   2.886499e+05
  -3.025345e+05  -4.480455e+04
  -3.543534e+05  -1.723005e+05
  -1.859447e+05  -3.862903e+04
   3.271342e+03   7.999171e+04
   5.668534e+04  -4.520008e+04
   4.373775e+04  -3.087799e+05
   1.217854e+05  -3.826421e+05
   2.783097e+05  -9.376643e+04
   3.060375e+05   3.424284e+05
   5.494512e+04   5.104891e+05
  -3.324067e+05   2.318581e+05
  -4.905044e+05  -2.322643e+05
  -1.881512e+05  -4.561578e+05
   3.678058e+05  -2.862417e+05
   6.559990e+05   5.898027e+04
   3.651119e+05   2.810337e+05
  -2.195017e+05   2.811297e+05
  -4.785348e+05   1.480396e+05
  -1.568875e+05   9.007305e+03
   3.202708e+05  -2.965878e+04
   3.415757e+05   8.872507e+04
  -1.606488e+05   2.644965e+05
  -6.348799e+05   2.335568e+05
