
 $NMID
 id='ANONYMOUS ', fmtdat='(2E16.6)'
 volume=1.0
 tramp=1.0
 $END
   3.606283e+07   5.718468e+05
   2.233602e+07   2.031674e+07
  -3.109070e+06   2.361225e+07
  -1.685277e+07   1.161106e+07
  -1.154285e+07  -2.004759e+06
   9.181407e+05  -6.146731e+06
   6.697373e+06  -9.135953e+05
   3.334467e+06   6.042755e+06
  -3.017127e+06   7.656584e+06
  -6.432826e+06   2.596618e+06
  -5.049879e+06  -4.343233e+06
  -5.648526e+05  -6.445720e+06
   3.011820e+06  -1.657173e+06
   2.170397e+06   4.745671e+06
  -2.306110e+06   5.587291e+06
  -5.475069e+06  -2.315017e+05
  -3.500810e+06  -6.823697e+06
   2.169781e+06  -8.171169e+06
   6.728873e+06  -3.923990e+06
   6.974884e+06   1.766318e+06
   3.621988e+06   5.009228e+06
  -9.195255e+04   4.879801e+06
  -1.200587e+06   3.067542e+06
   4.914512e+05   2.096604e+06
   1.882304e+06   3.041356e+06
  -3.251898e+05   4.249670e+06
  -5.222040e+06   3.114315e+06
  -7.831466e+06  -4.814164e+05
  -4.888482e+06  -3.588234e+06
   8.499752e+05  -3.610054e+06
   3.752730e+06  -1.149226e+06
   1.826263e+06   1.198987e+06
  -1.798967e+06   1.656525e+06
  -3.301948e+06   1.170666e+05
  -1.986579e+06  -2.366687e+06
   3.438016e+05  -3.804485e+06
   1.803438e+06  -2.406462e+06
   1.587116e+06   9.238069e+05
   2.149134e+05   2.497788e+06
  -6.371197e+05   2.404261e+05
   3.339377e+05  -2.839200e+06
   2.092902e+06  -2.137790e+06
   1.974907e+06   1.975914e+06
  -8.538656e+05   4.082323e+06
  -3.686520e+06   9.063545e+05
  -3.126570e+06  -4.153051e+06
   8.972409e+05  -5.361402e+06
   4.909455e+06  -1.592775e+06
   5.405513e+06   3.084337e+06
   1.995078e+06   4.592248e+06
  -2.510196e+06   2.552299e+06
  -4.492811e+06  -6.353367e+05
  -2.504388e+06  -2.434124e+06
   1.340981e+06  -1.797335e+06
   3.236096e+06   3.242142e+05
   1.624004e+06   1.704371e+06
  -1.102539e+06   9.986344e+05
  -1.579200e+06  -6.734942e+05
   3.836388e+05  -1.084051e+06
   1.807140e+06   2.734839e+05
   5.171285e+05   1.687065e+06
  -2.238328e+06   1.499333e+06
  -3.501257e+06  -2.324390e+05
  -1.865062e+06  -2.396881e+06
   1.520475e+06  -3.864745e+06
   4.351362e+06  -3.560732e+06
   4.915869e+06  -9.383678e+05
   3.099277e+06   2.757070e+06
   4.374079e+05   4.830325e+06
  -1.109998e+06   3.899702e+06
  -1.000258e+06   1.633057e+06
  -5.239759e+05   6.197627e+05
  -1.047193e+06   1.080241e+06
  -2.255708e+06   1.002896e+06
  -2.656651e+06  -6.709416e+05
  -1.473403e+06  -2.445992e+06
   5.418804e+05  -2.256906e+06
   1.940951e+06  -4.245169e+04
   1.693773e+06   2.262709e+06
  -2.060062e+05   2.748060e+06
  -2.537863e+06   1.095955e+06
  -3.452649e+06  -1.414003e+06
  -2.107621e+06  -3.024020e+06
   2.443439e+05  -2.893608e+06
   1.539480e+06  -1.726303e+06
   1.366788e+06  -8.873454e+05
   1.308948e+06  -8.240163e+05
   2.515802e+06  -6.693659e+05
   3.835017e+06   4.923929e+05
   3.152284e+06   2.378975e+06
   1.642146e+05   3.744771e+06
  -3.009502e+06   3.540196e+06
  -3.979581e+06   1.708701e+06
  -2.357620e+06  -7.240164e+05
   1.129869e+05  -2.159151e+06
   1.290362e+06  -1.610293e+06
   4.814853e+05   1.565881e+05
  -1.104687e+06   1.137571e+06
  -1.661371e+06   3.129952e+05
  -6.724206e+05  -1.050535e+06
   5.907785e+05  -1.033464e+06
   6.010440e+05   3.148063e+05
  -6.403930e+05   9.601318e+05
  -1.673687e+06  -4.210309e+05
  -1.236679e+06  -2.653336e+06
   5.566663e+05  -3.428627e+06
   2.532223e+06  -1.864801e+06
   3.428187e+06   7.957444e+05
   2.625776e+06   2.628530e+06
   5.832631e+05   2.665399e+06
  -1.248644e+06   1.387327e+06
  -1.531492e+06   1.327499e+05
  -4.572844e+05  -4.464785e+04
   3.391963e+05   6.872080e+05
  -3.031487e+05   1.150022e+06
  -1.599297e+06   5.195202e+05
  -1.797770e+06  -6.728225e+05
  -4.317209e+05  -1.190485e+06
   1.039825e+06  -5.759258e+05
   9.464058e+05   3.995378e+05
  -6.893295e+05   6.860637e+05
  -2.187747e+06  -3.476276e+04
  -1.934849e+06  -1.241199e+06
   6.135783e+04  -2.036767e+06
   2.168169e+06  -1.706207e+06
   2.606573e+06  -3.084425e+05
   1.110393e+06   1.097686e+06
  -7.972916e+05   1.268453e+06
  -1.302342e+06   1.422741e+05
  -1.078948e+05  -9.245881e+05
   1.374700e+06  -6.534926e+05
   1.603497e+06   6.533782e+05
   4.431336e+05   1.512086e+06
  -8.998711e+05   1.035847e+06
  -1.201768e+06  -1.262182e+05
  -3.468473e+05  -6.681718e+05
   6.593015e+05  -7.552822e+04
   6.479147e+05   9.537128e+05
  -5.688709e+05   1.295346e+06
  -1.873993e+06   4.542074e+05
  -1.860929e+06  -9.990793e+05
  -3.528466e+05  -1.901077e+06
   1.284756e+06  -1.519837e+06
   1.578480e+06  -2.468617e+05
   5.201048e+05   7.756830e+05
  -5.798000e+05   7.807595e+05
  -6.631453e+05   6.644187e+04
   4.277255e+04  -4.670790e+05
   5.602477e+05  -3.358720e+05
   3.327566e+05   9.189667e+04
  -2.995182e+05   1.150692e+05
  -5.438063e+05  -4.686468e+05
   8.128509e+04  -1.073324e+06
   1.241037e+06  -8.628681e+05
   1.932448e+06   3.613641e+05
   1.354493e+06   1.796630e+06
  -2.029424e+05   2.283372e+06
  -1.519750e+06   1.417719e+06
  -1.674941e+06  -3.604177e+04
  -9.555223e+05  -9.255550e+05
  -3.500215e+05  -8.373622e+05
  -3.277362e+05  -3.499720e+05
  -4.381862e+05  -2.412804e+05
  -6.214610e+04  -6.171177e+05
   7.676857e+05  -8.658753e+05
   1.376421e+06  -3.840352e+05
   1.088146e+06   6.962014e+05
  -1.579725e+05   1.482130e+06
  -1.616586e+06   1.091384e+06
  -2.147684e+06  -4.225448e+05
  -1.131447e+06  -1.932479e+06
   8.281757e+05  -2.196858e+06
   2.284626e+06  -1.043276e+06
   2.248113e+06   4.900101e+05
   1.062818e+06   1.238839e+06
  -9.614576e+04   1.025249e+06
  -4.619436e+05   6.124455e+05
  -2.598481e+05   6.907764e+05
  -1.913029e+05   1.106565e+06
  -5.960064e+05   1.114639e+06
  -1.148907e+06   2.669821e+05
  -1.220413e+06  -1.022188e+06
  -5.032011e+05  -1.777620e+06
   5.991039e+05  -1.342466e+06
   1.212496e+06  -2.156961e+04
   7.898729e+05   1.142811e+06
  -2.754624e+05   1.292164e+06
  -9.791409e+05   4.826986e+05
  -7.406610e+05  -4.875316e+05
   3.932442e+03  -9.097695e+05
   3.573626e+05  -7.466497e+05
   1.996956e+04  -4.452012e+05
  -3.782830e+05  -3.461989e+05
  -3.836344e+04  -3.715312e+05
   1.022271e+06  -2.131939e+05
   1.855541e+06   2.830916e+05
   1.507293e+06   9.194533e+05
   5.021624e+04   1.270976e+06
  -1.381583e+06   1.032052e+06
  -1.671700e+06   3.219536e+05
  -8.084282e+05  -3.436636e+05
   1.985672e+05  -4.752025e+05
   4.452476e+05  -7.855830e+04
  -9.330637e+03   3.238627e+05
  -4.525310e+05   2.204293e+05
  -4.353586e+05  -3.232637e+05
  -1.496260e+05  -7.028296e+05
  -8.025768e+03  -4.556822e+05
  -1.370938e+05   1.479551e+05
  -3.262705e+05   3.480593e+05
  -2.734870e+05  -2.074727e+05
   1.755533e+05  -9.523663e+05
   8.386325e+05  -9.789779e+05
   1.174626e+06  -1.025398e+05
   6.949671e+05   8.622387e+05
  -3.923764e+05   9.849090e+05
  -1.121301e+06   2.295565e+05
  -6.725265e+05  -5.656356e+05
   6.361317e+05  -6.225917e+05
   1.524425e+06   4.393622e+04
   1.053786e+06   7.857185e+05
  -3.707429e+05   9.952772e+05
  -1.426796e+06   5.666222e+05
  -1.231989e+06  -1.168511e+05
  -1.693243e+05  -5.019966e+05
   5.992837e+05  -2.919098e+05
   3.327298e+05   2.509134e+05
  -5.900088e+05   4.494493e+05
  -1.103935e+06  -1.408352e+05
  -5.530977e+05  -1.144656e+06
   6.481464e+05  -1.568798e+06
   1.442069e+06  -7.730151e+05
   1.176439e+06   7.497651e+05
   1.726757e+05   1.710111e+06
  -7.050775e+05   1.262278e+06
  -8.877911e+05  -1.196782e+05
  -4.559647e+05  -1.120229e+06
   1.438308e+05  -9.523176e+05
   5.113270e+05  -1.057164e+05
   4.880297e+05   3.692062e+05
   2.078743e+05   1.470133e+05
   2.559157e+04  -1.063403e+05
   1.865200e+05   2.446148e+05
   4.495789e+05   9.002484e+05
   2.411277e+05   1.031924e+06
  -6.037189e+05   3.818058e+05
  -1.404484e+06  -4.471689e+05
  -1.268316e+06  -7.954225e+05
  -1.796233e+05  -6.486329e+05
   8.608758e+05  -3.880345e+05
   9.509869e+05  -1.886869e+05
   2.970020e+05   2.140839e+04
  -1.588992e+05   2.076054e+05
   2.612227e+04   2.231025e+05
   3.145187e+05   1.242557e+05
   2.226935e+04   1.305075e+05
  -6.953189e+05   1.956034e+05
  -9.809924e+05  -3.772742e+04
  -3.109679e+05  -6.481620e+05
   8.641977e+05  -1.069049e+06
   1.569602e+06  -6.540339e+05
   1.252767e+06   4.553907e+05
   2.240112e+05   1.341242e+06
  -7.195117e+05   1.271658e+06
  -9.949362e+05   4.578062e+05
  -6.264044e+05  -2.586138e+05
  -9.711925e+04  -3.389772e+05
   1.200129e+05  -2.750289e+04
  -5.647623e+04   5.561626e+04
  -3.082971e+05  -3.309604e+05
  -2.506956e+05  -7.643647e+05
   1.873524e+05  -6.272598e+05
   6.544549e+05   1.592690e+05
   6.557000e+05   9.438196e+05
   3.692150e+04   9.697618e+05
  -7.482577e+05   1.738824e+05
  -9.534293e+05  -7.400333e+05
  -2.826783e+05  -1.029265e+06
   6.890087e+05  -5.924240e+05
   1.028100e+06   9.704973e+04
   4.639155e+05   5.459333e+05
  -2.742938e+05   5.874307e+05
  -3.166459e+05   3.309698e+05
   2.830154e+05   2.878097e+04
   6.265574e+05  -2.354695e+04
   1.183240e+05   2.828744e+05
  -7.850716e+05   6.401202e+05
  -1.150505e+06   5.345136e+05
  -6.679715e+05  -1.368656e+05
   1.036575e+05  -8.001339e+05
   4.865865e+05  -7.819039e+05
   3.553838e+05  -1.124552e+05
   2.104000e+04   4.733785e+05
  -2.395667e+05   3.825933e+05
  -3.347472e+05  -1.851275e+05
  -2.276475e+05  -5.490575e+05
   6.637017e+04  -3.635065e+05
   3.671726e+05   6.479542e+04
   4.303264e+05   2.394983e+05
   2.268098e+05   6.626154e+04
  -8.346617e+03  -1.086636e+05
  -7.521841e+04   2.841843e+04
  -5.124875e+04   3.629746e+05
  -1.383941e+05   4.734905e+05
  -3.322471e+05   1.253300e+05
  -3.730010e+05  -4.149235e+05
  -6.570344e+04  -6.215185e+05
   4.106819e+05  -2.722409e+05
   5.964255e+05   2.993946e+05
   2.124951e+05   5.615423e+05
  -4.698069e+05   3.333719e+05
  -8.073751e+05  -9.975234e+04
  -4.357439e+05  -3.625019e+05
   2.820197e+05  -3.428889e+05
   5.949111e+05  -1.694642e+05
   2.033747e+05  -7.144460e+03
  -3.749525e+05   2.814079e+04
  -4.036467e+05  -1.110763e+05
   1.988417e+05  -3.025569e+05
   7.667259e+05  -2.488931e+05
