
 $NMID
 id='ANONYMOUS ', fmtdat='(2E16.6)'
 volume=1.0
 tramp=1.0
 $END
  -1.970426e+07   9.775942e+04
  -1.397076e+07  -7.488285e+06
  -1.541872e+06  -1.198596e+07
   7.798796e+06  -1.018862e+07
   7.968760e+06  -2.802895e+06
   1.421615e+06   3.720502e+06
  -4.322831e+06   3.139477e+06
  -4.278930e+06  -2.987435e+06
   1.298635e+05  -6.763096e+06
   3.881582e+06  -3.516660e+06
   3.707760e+06   2.778155e+06
   5.263961e+05   4.858860e+06
  -2.241390e+06   8.347883e+05
  -1.963871e+06  -4.368812e+06
   1.011213e+06  -5.146763e+06
   3.667362e+06  -9.289669e+05
   3.070384e+06   4.072529e+06
  -5.896127e+05   5.447054e+06
  -3.930880e+06   2.559465e+06
  -3.922199e+06  -1.388723e+06
  -1.242922e+06  -2.889400e+06
   6.181147e+05  -1.689504e+06
  -4.525650e+05  -5.943434e+05
  -2.730952e+06  -1.770260e+06
  -2.712300e+06  -4.063861e+06
   8.413801e+05  -4.570217e+06
   5.307224e+06  -2.192627e+06
   6.612205e+06   1.260946e+06
   3.272837e+06   3.183730e+06
  -1.824253e+06   2.466751e+06
  -3.953759e+06  -5.242098e+04
  -1.307225e+06  -2.348122e+06
   3.023845e+06  -2.389645e+06
   4.434349e+06   2.301854e+05
   1.903396e+06   3.348923e+06
  -1.279481e+06   3.889546e+06
  -1.837245e+06   1.244466e+06
  -1.500433e+05  -1.654599e+06
   1.076748e+06  -1.546777e+06
   4.789929e+05   1.280856e+06
  -9.652815e+05   3.344032e+06
  -1.858837e+06   2.154438e+06
  -1.734382e+06  -9.414395e+05
  -6.634259e+05  -2.527621e+06
   9.086265e+05  -1.034283e+06
   1.649709e+06   1.753713e+06
   1.627702e+05   2.841338e+06
  -2.855766e+06   1.088929e+06
  -4.411919e+06  -1.902520e+06
  -2.363972e+06  -3.539725e+06
   1.743954e+06  -2.630272e+06
   4.108972e+06  -2.245560e+05
   2.801079e+06   1.592046e+06
  -4.008145e+05   1.599709e+06
  -2.279131e+06   2.933256e+05
  -1.485040e+06  -8.462553e+05
   5.801950e+05  -7.563871e+05
   1.550141e+06   3.660363e+05
   4.587579e+05   1.342841e+06
  -1.364587e+06   1.111883e+06
  -1.673150e+06  -2.230229e+05
   1.559719e+05  -1.339986e+06
   2.113825e+06  -8.906338e+05
   1.653269e+06   1.058946e+06
  -1.256995e+06   2.846051e+06
  -3.925399e+06   2.675998e+06
  -4.002195e+06   3.584081e+05
  -1.974552e+06  -2.465791e+06
  -1.048625e+05  -3.868967e+06
   4.108000e+05  -3.379377e+06
   3.586955e+05  -2.149387e+06
   9.118546e+05  -1.447404e+06
   2.087979e+06  -1.205474e+06
   2.945131e+06  -3.384195e+05
   2.638938e+06   1.512217e+06
   1.054383e+06   3.023250e+06
  -1.075231e+06   2.471666e+06
  -2.400413e+06  -1.000750e+05
  -1.821144e+06  -2.545385e+06
   3.733436e+05  -2.727328e+06
   2.440808e+06  -6.819308e+05
   2.724505e+06   1.625018e+06
   1.268996e+06   2.459940e+06
  -3.664106e+05   1.832462e+06
  -8.955872e+05   9.615625e+05
  -6.309010e+05   7.572736e+05
  -8.973845e+05   1.036343e+06
  -2.264540e+06   9.286801e+05
  -3.593412e+06  -2.059960e+05
  -3.064988e+06  -2.103112e+06
  -2.660102e+05  -3.598465e+06
   2.936322e+06  -3.447398e+06
   3.982891e+06  -1.476878e+06
   2.207069e+06   1.005195e+06
  -4.514999e+05   2.193379e+06
  -1.505659e+06   1.405636e+06
  -4.284988e+05  -2.683314e+05
   1.159227e+06  -1.052166e+06
   1.515224e+06  -2.806987e+05
   4.956212e+05   9.450088e+05
  -6.748106e+05   1.018747e+06
  -8.021680e+05  -2.606092e+05
   2.745851e+05  -1.283467e+06
   1.633949e+06  -3.952633e+05
   1.925465e+06   2.028051e+06
   4.254749e+05   3.683719e+06
  -2.108549e+06   2.730655e+06
  -3.767503e+06  -1.907070e+05
  -3.141554e+06  -2.629297e+06
  -7.711564e+05  -2.861751e+06
   1.302881e+06  -1.406930e+06
   1.565383e+06  -7.204968e+04
   4.489659e+05   3.829565e+04
  -3.514755e+05  -6.567267e+05
   1.902154e+05  -1.038237e+06
   1.381256e+06  -5.259428e+05
   1.687140e+06   4.683318e+05
   5.260827e+05   1.033349e+06
  -9.603049e+05   6.319244e+05
  -1.060601e+06  -3.554262e+05
   5.693267e+05  -8.993145e+05
   2.325429e+06  -2.699507e+05
   2.246694e+06   1.177033e+06
   1.430396e+05   2.219862e+06
  -2.128173e+06   1.886463e+06
  -2.583574e+06   4.034276e+05
  -1.089996e+06  -9.743377e+05
   6.945620e+05  -1.127297e+06
   1.119047e+06  -1.333154e+05
   4.306993e+04   8.175791e+05
  -1.297749e+06   6.332815e+05
  -1.593125e+06  -5.351314e+05
  -5.989287e+05  -1.454796e+06
   7.476887e+05  -1.171675e+06
   1.222501e+06  -6.971037e+04
   4.801721e+05   5.920543e+05
  -5.595036e+05   1.155926e+05
  -6.132900e+05  -8.938277e+05
   5.689351e+05  -1.246435e+06
   1.833279e+06  -4.233554e+05
   1.805543e+06   9.692851e+05
   3.759130e+05   1.826392e+06
  -1.173937e+06   1.506162e+06
  -1.516310e+06   3.261756e+05
  -5.818892e+05  -7.188449e+05
   5.205371e+05  -8.129794e+05
   7.270921e+05  -6.872626e+04
   3.220394e+04   6.014836e+05
  -6.592493e+05   4.850801e+05
  -5.586237e+05  -1.272921e+05
   1.758483e+05  -3.217530e+05
   6.152082e+05   2.865711e+05
   5.895821e+04   1.026363e+06
  -1.155111e+06   9.021420e+05
  -1.897736e+06  -2.946306e+05
  -1.350840e+06  -1.725219e+06
   1.622658e+05  -2.275623e+06
   1.488882e+06  -1.526804e+06
   1.757311e+06  -7.595836e+04
   1.117404e+06   9.962664e+05
   4.054888e+05   1.063928e+06
   1.968725e+05   4.874917e+05
   2.817399e+05   1.686892e+05
   5.220767e+04   5.030984e+05
  -6.884052e+05   8.947591e+05
  -1.378425e+06   4.871569e+05
  -1.197928e+06  -6.950922e+05
   5.486082e+04  -1.593082e+06
   1.586623e+06  -1.198423e+06
   2.175499e+06   3.503072e+05
   1.226952e+06   1.856225e+06
  -6.540970e+05   2.170087e+06
  -2.139717e+06   1.157183e+06
  -2.284991e+06  -3.114841e+05
  -1.250767e+06  -1.197588e+06
  -1.924302e+04  -1.167923e+06
   5.561138e+05  -7.516674e+05
   4.430619e+05  -6.622128e+05
   2.654531e+05  -9.666750e+05
   5.316620e+05  -1.014449e+06
   1.062082e+06  -2.523243e+05
   1.187279e+06   9.991350e+05
   5.066769e+05   1.750220e+06
  -5.873305e+05   1.331326e+06
  -1.207553e+06   6.657620e+04
  -8.336165e+05  -1.053608e+06
   1.528470e+05  -1.269119e+06
   8.465661e+05  -6.090410e+05
   7.276839e+05   2.907819e+05
   1.356701e+05   7.996921e+05
  -1.854625e+05   7.659194e+05
   4.917605e+04   5.028073e+05
   3.479910e+05   3.687784e+05
   2.406247e+04   3.790526e+05
  -9.494888e+05   2.477961e+05
  -1.756273e+06  -2.151266e+05
  -1.498643e+06  -8.275035e+05
  -1.667095e+05  -1.180024e+06
   1.230453e+06  -1.008148e+06
   1.601762e+06  -4.147854e+05
   8.400671e+05   1.983610e+05
  -1.357911e+05   4.123090e+05
  -4.040005e+05   1.375288e+05
   4.215555e+04  -2.414332e+05
   4.837937e+05  -1.991575e+05
   4.175353e+05   3.151964e+05
   6.052276e+04   7.158638e+05
  -7.581750e+04   4.534742e+05
   1.453937e+05  -2.131382e+05
   3.918711e+05  -4.275307e+05
   2.909822e+05   1.902005e+05
  -2.081139e+05   9.726255e+05
  -8.083946e+05   9.579725e+05
  -1.042939e+06   5.519671e+04
  -5.836319e+05  -8.424315e+05
   3.728599e+05  -8.861768e+05
   1.035956e+06  -1.487809e+05
   6.541851e+05   5.805921e+05
  -5.951028e+05   6.429122e+05
  -1.549980e+06   3.063183e+04
  -1.180846e+06  -7.390471e+05
   2.599280e+05  -1.071240e+06
   1.432193e+06  -7.157830e+05
   1.309544e+06   2.891788e+04
   2.240731e+05   5.185687e+05
  -5.785012e+05   3.438431e+05
  -3.019052e+05  -2.126531e+05
   6.225970e+05  -4.028092e+05
   1.082035e+06   2.003500e+05
   4.687502e+05   1.162621e+06
  -7.313437e+05   1.518420e+06
  -1.470732e+06   7.094703e+05
  -1.166457e+06  -7.721940e+05
  -1.699474e+05  -1.720042e+06
   6.943387e+05  -1.312666e+06
   9.044033e+05   5.133775e+04
   5.280529e+05   1.104694e+06
  -5.485455e+04   9.983961e+05
  -4.849814e+05   1.454369e+05
  -5.484819e+05  -3.790969e+05
  -2.735879e+05  -1.678080e+05
   9.383565e+01   1.274911e+05
  -9.464959e+04  -1.938620e+05
  -4.203188e+05  -8.725336e+05
  -3.283453e+05  -1.043730e+06
   5.074134e+05  -4.030757e+05
   1.416748e+06   4.375808e+05
   1.346071e+06   7.850818e+05
   1.937877e+05   6.291711e+05
  -9.209618e+05   3.827488e+05
  -9.719424e+05   2.192037e+05
  -2.413702e+05   2.197961e+04
   1.828538e+05  -1.998189e+05
  -1.042046e+05  -2.634972e+05
  -3.955999e+05  -1.698897e+05
   1.026809e+04  -1.339953e+05
   7.797997e+05  -1.610264e+05
   9.634806e+05   6.273774e+04
   1.861510e+05   6.270391e+05
  -9.378249e+05   1.008348e+06
  -1.501644e+06   5.865953e+05
  -1.138290e+06  -4.999017e+05
  -1.857197e+05  -1.345936e+06
   6.944946e+05  -1.233219e+06
   9.857754e+05  -3.948953e+05
   6.319200e+05   3.053407e+05
   5.945534e+04   3.344804e+05
  -1.898191e+05  -2.370729e+04
   3.070894e+04  -1.118034e+05
   3.442448e+05   3.051229e+05
   2.798139e+05   7.595929e+05
  -2.048130e+05   6.035726e+05
  -6.635724e+05  -2.169699e+05
  -5.956924e+05  -9.932219e+05
   5.847600e+04  -9.515090e+05
   7.904592e+05  -8.939099e+04
   9.134442e+05   8.120151e+05
   2.212058e+05   1.017434e+06
  -6.991983e+05   5.237327e+05
  -9.792079e+05  -1.255299e+05
  -4.121691e+05  -4.895817e+05
   2.691482e+05  -5.087467e+05
   2.509734e+05  -3.102944e+05
  -3.512517e+05  -5.956325e+04
  -6.401694e+05   6.974252e+03
  -9.081304e+04  -2.669841e+05
   7.830008e+05  -6.396295e+05
   1.084231e+06  -5.777416e+05
   5.910917e+05   8.248354e+04
  -1.143618e+05   7.640017e+05
  -4.248163e+05   7.436379e+05
  -2.807785e+05   5.823770e+04
   2.145851e+04  -4.984739e+05
   2.535650e+05  -3.381910e+05
   3.333122e+05   2.503754e+05
   2.107442e+05   5.486528e+05
  -8.538476e+04   3.007022e+05
  -3.601670e+05  -9.580219e+04
  -4.026882e+05  -1.958694e+05
  -2.242798e+05  -2.734382e+04
  -2.444571e+04   5.666613e+04
   7.549544e+04  -1.322922e+05
   1.446340e+05  -3.995254e+05
   2.680842e+05  -3.949705e+05
   3.696345e+05  -2.155080e+03
   2.782631e+05   4.909473e+05
  -5.655914e+04   6.252859e+05
  -4.425534e+05   2.327784e+05
  -5.438162e+05  -3.458824e+05
  -1.706415e+05  -5.847059e+05
   4.495873e+05  -3.159356e+05
   7.599735e+05   1.366378e+05
   4.083538e+05   3.655183e+05
  -2.827135e+05   2.876880e+05
  -5.730906e+05   1.013124e+05
  -1.502699e+05  -5.018077e+03
   4.429754e+05   3.018436e+04
   4.259559e+05   1.883815e+05
  -2.600455e+05   3.404157e+05
  -8.594175e+05   2.335202e+05
