
 $NMID
 id='ANONYMOUS ', fmtdat='(2E16.6)'
 volume=1.0
 tramp=1.0
 $END
   2.379744e+07   1.209484e+06
   1.503775e+07   1.219080e+07
  -1.079612e+06   1.500373e+07
  -1.070528e+07   9.143740e+06
  -8.382631e+06   3.613260e+05
  -2.081910e+05  -4.201249e+06
   4.765251e+06  -1.773589e+06
   3.287624e+06   3.902077e+06
  -1.408341e+06   6.280945e+06
  -4.492022e+06   2.610939e+06
  -3.701533e+06  -3.213598e+06
  -3.118463e+05  -4.958913e+06
   2.344130e+06  -9.773814e+05
   1.713638e+06   4.101910e+06
  -1.536340e+06   4.697168e+06
  -3.946525e+06   2.376814e+05
  -2.712929e+06  -4.773859e+06
   1.354037e+06  -5.833204e+06
   4.684801e+06  -2.612839e+06
   4.617059e+06   1.585257e+06
   1.870559e+06   3.498884e+06
  -5.031556e+05   2.724034e+06
  -3.225940e+05   1.424930e+06
   1.535048e+06   1.696357e+06
   2.043408e+06   3.281208e+06
  -6.570262e+05   3.958880e+06
  -4.795079e+06   2.181879e+06
  -6.367011e+06  -1.034418e+06
  -3.446326e+06  -3.133779e+06
   1.359270e+06  -2.627032e+06
   3.496147e+06  -3.197312e+05
   1.346916e+06   1.711388e+06
  -2.270331e+06   1.824591e+06
  -3.538602e+06  -1.439542e+05
  -1.683829e+06  -2.669334e+06
   8.806506e+05  -3.444203e+06
   1.699390e+06  -1.509454e+06
   6.644172e+05   1.253871e+06
  -5.419794e+05   1.761064e+06
  -5.085913e+05  -5.840175e+05
   6.876042e+05  -2.794260e+06
   1.802214e+06  -1.865104e+06
   1.582788e+06   1.284832e+06
  -9.830762e+04   2.813276e+06
  -1.887577e+06   7.584075e+05
  -1.909805e+06  -2.568824e+06
   4.128319e+05  -3.463282e+06
   3.375365e+06  -1.023987e+06
   4.232339e+06   2.290871e+06
   1.849405e+06   3.607941e+06
  -1.911092e+06   2.251825e+06
  -3.793512e+06  -2.396948e+05
  -2.322646e+06  -1.801068e+06
   7.609569e+05  -1.462856e+06
   2.386099e+06   6.076474e+04
   1.329962e+06   1.123249e+06
  -7.434473e+05   7.359687e+05
  -1.376832e+06  -4.827832e+05
  -6.615297e+04  -1.084251e+06
   1.367377e+06  -4.190723e+05
   1.000848e+06   7.566632e+05
  -9.682396e+05   1.182858e+06
  -2.399136e+06   2.700678e+05
  -1.485961e+06  -1.502102e+06
   1.328114e+06  -2.890006e+06
   3.765444e+06  -2.616045e+06
   3.951800e+06  -4.108639e+05
   2.120929e+06   2.400938e+06
   9.212684e+04   3.836238e+06
  -7.333644e+05   3.183417e+06
  -5.994441e+05   1.693907e+06
  -6.749989e+05   9.698643e+05
  -1.495895e+06   1.013730e+06
  -2.400723e+06   5.058653e+05
  -2.356272e+06  -1.097131e+06
  -1.046847e+06  -2.522361e+06
   8.114328e+05  -2.118908e+06
   1.972821e+06   7.835168e+04
   1.526229e+06   2.207344e+06
  -3.375980e+05   2.441485e+06
  -2.248725e+06   7.034117e+05
  -2.678349e+06  -1.463689e+06
  -1.372690e+06  -2.472192e+06
   3.623902e+05  -2.035578e+06
   1.094614e+06  -1.105556e+06
   8.662990e+05  -6.853200e+05
   9.763360e+05  -8.092304e+05
   2.132764e+06  -6.671167e+05
   3.287704e+06   3.893592e+05
   2.710758e+06   2.062249e+06
   1.056993e+05   3.273971e+06
  -2.739327e+06   3.041003e+06
  -3.601852e+06   1.310032e+06
  -2.014289e+06  -8.506820e+05
   3.275041e+05  -1.947384e+06
   1.305119e+06  -1.304246e+06
   4.003148e+05   2.095424e+05
  -1.043758e+06   9.460437e+05
  -1.417398e+06   2.210470e+05
  -4.833026e+05  -9.026429e+05
   5.964533e+05  -9.023433e+05
   6.321746e+05   2.660816e+05
  -4.045433e+05   1.004793e+06
  -1.456742e+06   1.865825e+03
  -1.387776e+06  -2.073231e+06
   7.437943e+04  -3.171594e+06
   2.082354e+06  -2.044964e+06
   3.212277e+06   4.810716e+05
   2.546822e+06   2.408650e+06
   5.541870e+05   2.495077e+06
  -1.177511e+06   1.219589e+06
  -1.389787e+06   5.017451e+04
  -4.032138e+05  -4.794471e+04
   2.922573e+05   6.065438e+05
  -2.420723e+05   9.615932e+05
  -1.329626e+06   4.262211e+05
  -1.531090e+06  -5.411822e+05
  -4.036641e+05  -9.926233e+05
   9.017048e+05  -5.171737e+05
   8.940588e+05   3.563015e+05
  -5.689752e+05   7.043973e+05
  -2.021678e+06   7.311643e+04
  -1.857973e+06  -1.120528e+06
  -1.998376e+03  -1.910498e+06
   1.956917e+06  -1.563594e+06
   2.323956e+06  -2.602482e+05
   9.536470e+05   9.448945e+05
  -6.920732e+05   1.040380e+06
  -1.073117e+06   8.886754e+04
  -3.945086e+04  -7.744177e+05
   1.204989e+06  -5.390986e+05
   1.410306e+06   5.624503e+05
   4.384358e+05   1.331035e+06
  -7.499059e+05   9.718868e+05
  -1.079499e+06  -4.127760e+04
  -3.614057e+05  -5.650617e+05
   5.391471e+05  -7.093328e+04
   5.370599e+05   8.375494e+05
  -5.406092e+05   1.118229e+06
  -1.664956e+06   3.435406e+05
  -1.609506e+06  -9.236246e+05
  -2.797599e+05  -1.668747e+06
   1.128468e+06  -1.318442e+06
   1.383841e+06  -2.220552e+05
   4.770077e+05   6.760408e+05
  -5.063804e+05   6.994447e+05
  -6.270056e+05   4.499434e+04
   9.782039e+03  -4.845400e+05
   5.581753e+05  -3.639631e+05
   4.114203e+05   1.062213e+05
  -2.048897e+05   2.003745e+05
  -5.092569e+05  -3.379053e+05
   2.744968e+04  -9.315425e+05
   1.085590e+06  -7.598202e+05
   1.699335e+06   3.364257e+05
   1.163581e+06   1.601977e+06
  -2.165824e+05   2.030963e+06
  -1.375860e+06   1.285285e+06
  -1.537035e+06  -1.495917e+04
  -9.150255e+05  -8.852968e+05
  -3.229607e+05  -8.727858e+05
  -2.183393e+05  -3.927809e+05
  -3.044493e+05  -1.906288e+05
  -3.406369e+04  -4.944726e+05
   6.662830e+05  -7.688727e+05
   1.239369e+06  -3.622615e+05
   1.011566e+06   6.472527e+05
  -1.235503e+05   1.376474e+06
  -1.454876e+06   9.901443e+05
  -1.922241e+06  -3.929499e+05
  -1.011861e+06  -1.714392e+06
   7.047398e+05  -1.927151e+06
   1.991422e+06  -9.332344e+05
   2.013972e+06   4.009058e+05
   1.015486e+06   1.109993e+06
  -5.035256e+04   9.859464e+05
  -4.748405e+05   6.084038e+05
  -3.436138e+05   5.980050e+05
  -2.376146e+05   9.129240e+05
  -5.278551e+05   9.292307e+05
  -9.886825e+05   2.019581e+05
  -1.048145e+06  -9.318241e+05
  -4.075083e+05  -1.586630e+06
   5.623393e+05  -1.179014e+06
   1.080955e+06  -1.260432e+04
   6.993226e+05   9.942524e+05
  -2.150656e+05   1.134781e+06
  -8.173450e+05   4.708961e+05
  -6.411973e+05  -3.528148e+05
  -4.480176e+04  -7.548412e+05
   2.490876e+05  -6.665678e+05
  -7.360541e+03  -4.262508e+05
  -3.141621e+05  -3.305844e+05
  -1.785045e+04  -3.369540e+05
   8.809472e+05  -1.824208e+05
   1.599352e+06   2.646319e+05
   1.318882e+06   8.114225e+05
   7.263350e+04   1.088962e+06
  -1.182402e+06   8.744436e+05
  -1.464776e+06   2.936678e+05
  -7.287422e+05  -2.519007e+05
   1.574719e+05  -3.867759e+05
   3.779895e+05  -8.915132e+04
  -3.402529e+04   2.471433e+05
  -4.261083e+05   1.752439e+05
  -3.718538e+05  -2.956060e+05
  -7.075054e+04  -6.393309e+05
   4.714827e+04  -4.071030e+05
  -1.297622e+05   1.624243e+05
  -3.330094e+05   3.444878e+05
  -2.480491e+05  -1.830796e+05
   1.968530e+05  -8.574165e+05
   7.580944e+05  -8.430191e+05
   9.848671e+05  -3.705455e+04
   5.423477e+05   7.784872e+05
  -3.657854e+05   8.194659e+05
  -9.645428e+05   1.351673e+05
  -5.777774e+05  -5.298429e+05
   5.624321e+05  -5.507386e+05
   1.373497e+06   3.811897e+04
   9.871792e+05   7.027117e+05
  -2.980063e+05   9.181780e+05
  -1.290128e+06   5.480028e+05
  -1.136971e+06  -8.868608e+04
  -1.672887e+05  -4.606896e+05
   5.314435e+05  -2.726155e+05
   2.749080e+05   2.130043e+05
  -5.554699e+05   3.634570e+05
  -9.723101e+05  -1.837825e+05
  -4.229242e+05  -1.046502e+06
   6.609897e+05  -1.360856e+06
   1.322972e+06  -6.229441e+05
   1.027920e+06   7.105072e+05
   1.109861e+05   1.537492e+06
  -6.550151e+05   1.136413e+06
  -7.982039e+05  -9.344628e+04
  -4.168160e+05  -1.003473e+06
   1.056931e+05  -8.701939e+05
   4.455351e+05  -1.020479e+05
   4.581911e+05   3.463609e+05
   2.161366e+05   1.464815e+05
   1.205332e+04  -1.050138e+05
   1.128982e+05   1.979992e+05
   3.642920e+05   8.015192e+05
   2.350949e+05   9.331945e+05
  -4.991016e+05   3.362954e+05
  -1.250233e+06  -4.290189e+05
  -1.153666e+06  -7.358121e+05
  -1.516477e+05  -5.738628e+05
   8.097431e+05  -3.234843e+05
   8.648719e+05  -1.611461e+05
   2.358163e+05   4.690286e+03
  -1.594814e+05   1.778573e+05
   5.842131e+04   2.199814e+05
   3.201365e+05   1.413927e+05
  -1.323448e+01   1.192795e+05
  -6.699110e+05   1.407798e+05
  -8.668993e+05  -7.084956e+04
  -1.975500e+05  -5.772299e+05
   8.369589e+05  -9.035839e+05
   1.384362e+06  -5.104958e+05
   1.049841e+06   4.617631e+05
   1.475749e+05   1.206805e+06
  -6.617092e+05   1.098608e+06
  -8.962195e+05   3.521838e+05
  -5.566830e+05  -2.704487e+05
  -5.903509e+04  -3.033480e+05
   1.443315e+05   3.995571e+03
  -3.800712e+04   7.693442e+04
  -2.855678e+05  -2.896526e+05
  -2.201603e+05  -6.864061e+05
   1.920298e+05  -5.438888e+05
   5.861563e+05   1.879630e+05
   5.323807e+05   8.854812e+05
  -4.006274e+04   8.590474e+05
  -6.954569e+05   9.398774e+04
  -8.139580e+05  -7.221146e+05
  -1.955771e+05  -9.212137e+05
   6.361775e+05  -4.772271e+05
   8.914421e+05   1.271272e+05
   3.739341e+05   4.707765e+05
  -2.576931e+05   4.776478e+05
  -2.575078e+05   2.766537e+05
   2.876001e+05   4.780226e+04
   5.676212e+05   2.740039e+03
   8.446956e+04   2.477893e+05
  -7.161808e+05   5.524342e+05
  -1.006664e+06   4.709130e+05
  -5.534295e+05  -1.115327e+05
   1.181530e+05  -6.939622e+05
   4.226381e+05  -6.664233e+05
   2.825188e+05  -6.310857e+04
  -1.442532e+04   4.368572e+05
  -2.311259e+05   3.132990e+05
  -2.945054e+05  -2.072167e+05
  -1.812337e+05  -4.961800e+05
   7.865910e+04  -2.910888e+05
   3.232190e+05   8.293296e+04
   3.639855e+05   2.024271e+05
   1.993443e+05   4.479646e+04
   1.260718e+04  -7.090000e+04
  -6.698752e+04   7.696229e+04
  -1.023542e+05   3.428373e+05
  -2.027893e+05   3.806544e+05
  -3.204560e+05   4.087743e+04
  -2.751771e+05  -4.199917e+05
   1.938812e+04  -5.601784e+05
   3.904564e+05  -2.132114e+05
   4.990166e+05   3.066292e+05
   1.547971e+05   5.193378e+05
  -4.177777e+05   2.771734e+05
  -6.949980e+05  -1.284239e+05
  -3.664093e+05  -3.364561e+05
   2.613485e+05  -2.710911e+05
   5.252376e+05  -1.015502e+05
   1.547284e+05   5.410114e+03
  -3.713104e+05  -1.335274e+04
  -3.702256e+05  -1.486869e+05
   2.161895e+05  -2.855675e+05
   7.390568e+05  -1.966190e+05
