
 $NMID
 id='ANONYMOUS ', fmtdat='(2E16.6)'
 volume=1.0
 tramp=1.0
 $END
   3.049784e+07   6.067670e+05
   1.970452e+07   1.604510e+07
  -1.452999e+06   1.983446e+07
  -1.409199e+07   1.133986e+07
  -1.073698e+07  -3.712025e+05
   6.661326e+04  -5.523040e+06
   6.148019e+06  -1.758095e+06
   3.805161e+06   5.197770e+06
  -2.185423e+06   7.621872e+06
  -5.776997e+06   2.972377e+06
  -4.607229e+06  -3.957549e+06
  -4.198578e+05  -6.035277e+06
   2.809819e+06  -1.327168e+06
   1.997277e+06   4.794441e+06
  -2.045028e+06   5.566325e+06
  -4.979099e+06   1.288647e+05
  -3.332041e+06  -6.031069e+06
   1.762952e+06  -7.327083e+06
   5.877710e+06  -3.390469e+06
   5.900107e+06   1.752389e+06
   2.708542e+06   4.284804e+06
  -2.775469e+05   3.698834e+06
  -5.245088e+05   2.244412e+06
   1.316421e+06   2.221203e+06
   2.038657e+06   3.671751e+06
  -7.478671e+05   4.427960e+06
  -5.448116e+06   2.598062e+06
  -7.473044e+06  -1.037076e+06
  -4.269951e+06  -3.603406e+06
   1.306822e+06  -3.154157e+06
   3.884018e+06  -5.486548e+05
   1.535456e+06   1.715037e+06
  -2.457428e+06   1.822564e+06
  -3.820520e+06  -2.507394e+05
  -1.826179e+06  -2.917773e+06
   9.093020e+05  -3.871123e+06
   1.896890e+06  -1.930410e+06
   9.740020e+05   1.205818e+06
  -3.220873e+05   2.101261e+06
  -4.822764e+05  -3.744476e+05
   7.564210e+05  -3.051270e+06
   2.151541e+06  -2.123674e+06
   1.933550e+06   1.685972e+06
  -3.176091e+05   3.650803e+06
  -2.718800e+06   1.040678e+06
  -2.627285e+06  -3.314379e+06
   5.274965e+05  -4.528196e+06
   4.240284e+06  -1.378523e+06
   5.103436e+06   2.844203e+06
   2.076658e+06   4.405998e+06
  -2.386529e+06   2.608821e+06
  -4.502037e+06  -4.691551e+05
  -2.659077e+06  -2.305481e+06
   1.058787e+06  -1.802614e+06
   2.983306e+06   1.406090e+05
   1.620971e+06   1.474001e+06
  -9.417064e+05   9.342863e+05
  -1.613124e+06  -6.334937e+05
   1.162645e+05  -1.275424e+06
   1.780356e+06  -2.370835e+05
   1.047300e+06   1.259421e+06
  -1.511738e+06   1.541979e+06
  -3.118536e+06   1.631298e+05
  -1.827482e+06  -1.992910e+06
   1.555132e+06  -3.509207e+06
   4.392795e+06  -3.134204e+06
   4.678621e+06  -5.792604e+05
   2.631437e+06   2.766892e+06
   1.771058e+05   4.573989e+06
  -9.964156e+05   3.808942e+06
  -8.952195e+05   1.890574e+06
  -7.962179e+05   9.050885e+05
  -1.547214e+06   1.020340e+06
  -2.572526e+06   6.080141e+05
  -2.618780e+06  -1.134106e+06
  -1.198147e+06  -2.768547e+06
   8.766802e+05  -2.341513e+06
   2.166677e+06   1.245488e+05
   1.676021e+06   2.514831e+06
  -3.910269e+05   2.793988e+06
  -2.582300e+06   8.611980e+05
  -3.177280e+06  -1.630828e+06
  -1.738944e+06  -2.911101e+06
   3.488005e+05  -2.528935e+06
   1.345355e+06  -1.445697e+06
   1.141916e+06  -8.498477e+05
   1.231767e+06  -9.005236e+05
   2.526878e+06  -6.969084e+05
   3.833918e+06   5.431094e+05
   3.113506e+06   2.463873e+06
   5.669394e+04   3.796883e+06
  -3.205079e+06   3.465527e+06
  -4.142431e+06   1.486049e+06
  -2.309713e+06  -9.436643e+05
   3.443210e+05  -2.198732e+06
   1.465519e+06  -1.504635e+06
   4.632651e+05   2.165517e+05
  -1.193235e+06   1.084411e+06
  -1.658855e+06   2.555136e+05
  -5.884156e+05  -1.050527e+06
   6.790294e+05  -1.031752e+06
   6.906846e+05   3.338905e+05
  -5.691510e+05   1.115113e+06
  -1.739273e+06  -1.692318e+05
  -1.475564e+06  -2.576277e+06
   3.458004e+05  -3.672459e+06
   2.575887e+06  -2.181307e+06
   3.665951e+06   7.545470e+05
   2.786590e+06   2.855558e+06
   5.413728e+05   2.853774e+06
  -1.367695e+06   1.371673e+06
  -1.589667e+06   4.217162e+04
  -4.663945e+05  -6.364185e+04
   3.271689e+05   7.060614e+05
  -3.026627e+05   1.130006e+06
  -1.574019e+06   4.870420e+05
  -1.790307e+06  -6.718622e+05
  -4.498505e+05  -1.182948e+06
   1.056819e+06  -5.801256e+05
   1.002363e+06   4.328779e+05
  -6.989038e+05   7.622843e+05
  -2.314049e+06  -1.974157e+04
  -2.057747e+06  -1.352566e+06
   8.243362e+04  -2.173190e+06
   2.295011e+06  -1.731242e+06
   2.687545e+06  -2.438776e+05
   1.096714e+06   1.124317e+06
  -8.192587e+05   1.221633e+06
  -1.270649e+06   1.035730e+05
  -5.741462e+04  -9.049200e+05
   1.403747e+06  -6.115220e+05
   1.623314e+06   6.886545e+05
   4.602374e+05   1.559915e+06
  -9.144375e+05   1.094358e+06
  -1.252438e+06  -9.861911e+04
  -3.928728e+05  -6.769315e+05
   6.346504e+05  -7.480946e+04
   6.098152e+05   9.731616e+05
  -6.344102e+05   1.277753e+06
  -1.919010e+06   3.722414e+05
  -1.843074e+06  -1.089207e+06
  -2.945520e+05  -1.936966e+06
   1.338716e+06  -1.507963e+06
   1.614847e+06  -2.235005e+05
   5.351209e+05   8.003754e+05
  -6.030710e+05   7.970238e+05
  -7.097715e+05   4.138634e+04
   3.899993e+04  -5.321064e+05
   6.342467e+05  -3.720538e+05
   4.225129e+05   1.358161e+05
  -2.760170e+05   1.918040e+05
  -5.745558e+05  -4.386641e+05
   7.446172e+04  -1.086192e+06
   1.279369e+06  -8.487243e+05
   1.954821e+06   4.279126e+05
   1.312002e+06   1.873572e+06
  -2.925499e+05   2.334432e+06
  -1.617967e+06   1.435826e+06
  -1.760433e+06  -7.155796e+04
  -1.002483e+06  -1.035317e+06
  -3.295298e+05  -9.746002e+05
  -2.567724e+05  -4.231126e+05
  -3.770203e+05  -2.282315e+05
  -3.542112e+04  -5.888560e+05
   7.995578e+05  -8.680356e+05
   1.436627e+06  -3.686101e+05
   1.125741e+06   7.734898e+05
  -1.975858e+05   1.563956e+06
  -1.702252e+06   1.089019e+06
  -2.198689e+06  -5.030676e+05
  -1.118520e+06  -2.006313e+06
   8.725395e+05  -2.216157e+06
   2.337334e+06  -1.025949e+06
   2.312762e+06   5.304129e+05
   1.117139e+06   1.313452e+06
  -1.053884e+05   1.114182e+06
  -5.492675e+05   6.590293e+05
  -3.711599e+05   6.738480e+05
  -2.670110e+05   1.065467e+06
  -6.281646e+05   1.081048e+06
  -1.154131e+06   2.228660e+05
  -1.194997e+06  -1.091140e+06
  -4.413470e+05  -1.835033e+06
   6.678065e+05  -1.347603e+06
   1.245366e+06   1.140350e+04
   7.835752e+05   1.172516e+06
  -2.873315e+05   1.311745e+06
  -9.783633e+05   5.127276e+05
  -7.443789e+05  -4.505335e+05
  -2.011842e+04  -8.956967e+05
   3.287991e+05  -7.682115e+05
   1.429579e+04  -4.847977e+05
  -3.579902e+05  -3.814612e+05
  -1.465069e+04  -3.858164e+05
   1.030817e+06  -1.901262e+05
   1.853015e+06   3.411323e+05
   1.506779e+06   9.717541e+05
   4.958454e+04   1.273820e+06
  -1.398357e+06   9.959670e+05
  -1.706348e+06   2.999429e+05
  -8.364845e+05  -3.287865e+05
   1.955149e+05  -4.559157e+05
   4.467162e+05  -8.719887e+04
  -3.487916e+04   2.967155e+05
  -4.887237e+05   1.953902e+05
  -4.260751e+05  -3.484574e+05
  -8.307714e+04  -7.302089e+05
   4.739842e+04  -4.631860e+05
  -1.553154e+05   1.718025e+05
  -3.817641e+05   3.707560e+05
  -2.765572e+05  -2.197665e+05
   2.405167e+05  -9.748402e+05
   8.906446e+05  -9.571846e+05
   1.150146e+06  -3.804012e+04
   6.273867e+05   9.017791e+05
  -4.337603e+05   9.519698e+05
  -1.121276e+06   1.549353e+05
  -6.565031e+05  -6.170425e+05
   6.656982e+05  -6.216197e+05
   1.578900e+06   8.434184e+04
   1.102450e+06   8.423050e+05
  -3.839161e+05   1.043413e+06
  -1.501251e+06   5.797118e+05
  -1.296810e+06  -1.426939e+05
  -1.735511e+05  -5.328964e+05
   6.217581e+05  -2.963323e+05
   3.192492e+05   2.536405e+05
  -6.363856e+05   4.129227e+05
  -1.113897e+06  -2.177960e+05
  -4.797629e+05  -1.202852e+06
   7.686512e+05  -1.556217e+06
   1.524965e+06  -7.006792e+05
   1.169440e+06   8.323456e+05
   9.845363e+04   1.768576e+06
  -7.792856e+05   1.286400e+06
  -9.165969e+05  -1.349356e+05
  -4.488234e+05  -1.167493e+06
   1.546980e+05  -9.946293e+05
   5.196728e+05  -1.034346e+05
   5.091473e+05   4.078485e+05
   2.336944e+05   1.718186e+05
   2.113538e+04  -1.187812e+05
   1.439149e+05   2.329324e+05
   4.105113e+05   9.310363e+05
   2.384090e+05   1.079966e+06
  -5.969873e+05   3.791432e+05
  -1.428131e+06  -5.188204e+05
  -1.300285e+06  -8.736000e+05
  -1.617697e+05  -6.666603e+05
   9.272303e+05  -3.542519e+05
   9.954955e+05  -1.626872e+05
   2.824487e+05   1.432242e+04
  -1.822884e+05   2.020527e+05
   4.767694e+04   2.519445e+05
   3.488400e+05   1.651116e+05
   2.499497e+03   1.340782e+05
  -7.567095e+05   1.500705e+05
  -9.963745e+05  -9.249703e+04
  -2.379574e+05  -6.640506e+05
   9.636586e+05  -1.029449e+06
   1.608874e+06  -5.757249e+05
   1.214919e+06   5.375255e+05
   1.527823e+05   1.387521e+06
  -7.837030e+05   1.257673e+06
  -1.034722e+06   3.982716e+05
  -6.307934e+05  -3.137965e+05
  -6.838018e+04  -3.479466e+05
   1.514179e+05   2.771401e+03
  -5.232545e+04   7.966059e+04
  -3.179965e+05  -3.442636e+05
  -2.358354e+05  -7.948834e+05
   2.261029e+05  -6.244505e+05
   6.653546e+05   2.174580e+05
   6.030639e+05   1.016116e+06
  -4.503166e+04   9.849771e+05
  -7.899962e+05   1.070736e+05
  -9.253383e+05  -8.315362e+05
  -2.182389e+05  -1.061672e+06
   7.352605e+05  -5.473455e+05
   1.028780e+06   1.558579e+05
   4.320675e+05   5.545464e+05
  -3.018923e+05   5.568983e+05
  -3.103305e+05   3.197984e+05
   3.173990e+05   5.914135e+04
   6.493763e+05   1.216028e+04
   9.761114e+04   2.877939e+05
  -8.340711e+05   6.219540e+05
  -1.179309e+06   5.189519e+05
  -6.497770e+05  -1.436117e+05
   1.451340e+05  -8.012045e+05
   5.066914e+05  -7.677754e+05
   3.355505e+05  -7.980865e+04
  -1.922557e+04   4.958131e+05
  -2.672144e+05   3.623106e+05
  -3.316072e+05  -2.331648e+05
  -2.017604e+05  -5.731004e+05
   8.959679e+04  -3.425268e+05
   3.696567e+05   9.586734e+04
   4.215781e+05   2.452457e+05
   2.308508e+05   6.160945e+04
   7.743097e+03  -8.799796e+04
  -8.377219e+04   7.016554e+04
  -1.105799e+05   3.814391e+05
  -2.149332e+05   4.401790e+05
  -3.568565e+05   5.938008e+04
  -3.202534e+05  -4.707581e+05
   1.298904e+04  -6.368655e+05
   4.457364e+05  -2.425438e+05
   5.740985e+05   3.517113e+05
   1.737064e+05   5.939770e+05
  -4.879615e+05   3.145463e+05
  -8.024069e+05  -1.522387e+05
  -4.193068e+05  -3.917427e+05
   3.025094e+05  -3.159178e+05
   6.059635e+05  -1.194418e+05
   1.861947e+05   4.423846e+03
  -4.123490e+05  -1.589244e+04
  -4.154345e+05  -1.660948e+05
   2.455580e+05  -3.150090e+05
   8.373589e+05  -2.101699e+05
