
 $NMID
 id='ANONYMOUS ', fmtdat='(2E16.6)'
 volume=1.0
 tramp=1.0
 $END
  -2.854842e+07  -2.514144e+06
  -1.725373e+07  -1.541100e+07
   2.178858e+06  -1.786197e+07
   1.312859e+07  -1.024411e+07
   9.784147e+06   4.340449e+04
  -1.513479e+04   4.930704e+06
  -5.620666e+06   1.821102e+06
  -3.633473e+06  -4.711887e+06
   1.900993e+06  -7.266565e+06
   5.375888e+06  -2.852775e+06
   4.283973e+06   3.949702e+06
   2.243328e+05   5.892876e+06
  -2.833375e+06   1.110971e+06
  -1.942007e+06  -4.868285e+06
   1.945754e+06  -5.455902e+06
   4.660292e+06  -9.622170e+04
   3.013222e+06   5.775101e+06
  -1.857476e+06   6.870679e+06
  -5.710750e+06   2.931924e+06
  -5.502985e+06  -2.077941e+06
  -2.146222e+06  -4.323804e+06
   7.492713e+05  -3.339572e+06
   5.714258e+05  -1.694013e+06
  -1.676946e+06  -1.932073e+06
  -2.363278e+06  -3.810250e+06
   7.978572e+05  -4.651078e+06
   5.703093e+06  -2.530263e+06
   7.545398e+06   1.334170e+06
   4.046179e+06   3.819182e+06
  -1.648540e+06   3.151574e+06
  -4.156084e+06   3.773908e+05
  -1.625958e+06  -2.008875e+06
   2.615536e+06  -2.133451e+06
   4.125871e+06   1.600489e+05
   1.983785e+06   3.126186e+06
  -1.045885e+06   4.069620e+06
  -2.067536e+06   1.794464e+06
  -8.488328e+05  -1.516271e+06
   6.542382e+05  -2.153287e+06
   6.606120e+05   6.413884e+05
  -8.036302e+05   3.279983e+06
  -2.153820e+06   2.153337e+06
  -1.804518e+06  -1.583856e+06
   2.846545e+05  -3.298475e+06
   2.331900e+06  -7.372178e+05
   2.158514e+06   3.204474e+06
  -6.879692e+05   4.115198e+06
  -4.083048e+06   1.082804e+06
  -4.925357e+06  -2.844625e+06
  -2.058313e+06  -4.291783e+06
   2.305639e+06  -2.580189e+06
   4.430636e+06   3.891275e+05
   2.653304e+06   2.170515e+06
  -9.611717e+05   1.673378e+06
  -2.812451e+06  -1.731411e+05
  -1.513353e+06  -1.378713e+06
   9.153982e+05  -8.397538e+05
   1.597756e+06   6.011563e+05
   3.954304e+04   1.227843e+06
  -1.569795e+06   3.983313e+05
  -1.055556e+06  -9.109806e+05
   1.243641e+06  -1.291051e+06
   2.828136e+06  -1.773744e+05
   1.673553e+06   1.848404e+06
  -1.657966e+06   3.403787e+06
  -4.517868e+06   3.033060e+06
  -4.709586e+06   4.064410e+05
  -2.486869e+06  -2.912523e+06
  -2.189169e+04  -4.559944e+06
   9.590783e+05  -3.718740e+06
   7.320508e+05  -1.933216e+06
   7.564573e+05  -1.114147e+06
   1.726871e+06  -1.208851e+06
   2.830277e+06  -6.137610e+05
   2.788823e+06   1.292719e+06
   1.232849e+06   2.974812e+06
  -9.554020e+05   2.491527e+06
  -2.304652e+06  -9.671798e+04
  -1.766672e+06  -2.599799e+06
   4.279920e+05  -2.871060e+06
   2.674070e+06  -8.042194e+05
   3.161918e+06   1.783196e+06
   1.583754e+06   2.983178e+06
  -4.973797e+05   2.432584e+06
  -1.360662e+06   1.284477e+06
  -1.062345e+06   7.655707e+05
  -1.166159e+06   9.100486e+05
  -2.514455e+06   7.306226e+05
  -3.853873e+06  -5.286481e+05
  -3.145160e+06  -2.478241e+06
  -6.441988e+04  -3.849338e+06
   3.271125e+06  -3.531869e+06
   4.261215e+06  -1.493882e+06
   2.371455e+06   1.025413e+06
  -3.996059e+05   2.296126e+06
  -1.553321e+06   1.529625e+06
  -4.737731e+05  -2.502680e+05
   1.242212e+06  -1.101181e+06
   1.675489e+06  -2.329691e+05
   5.562683e+05   1.079456e+06
  -7.117560e+05   1.054931e+06
  -7.282767e+05  -3.158332e+05
   4.910177e+05  -1.145811e+06
   1.677868e+06   5.366634e+04
   1.545189e+06   2.451409e+06
  -1.626361e+05   3.672509e+06
  -2.456455e+06   2.318944e+06
  -3.727255e+06  -6.224939e+05
  -2.935630e+06  -2.845769e+06
  -6.145737e+05  -2.923878e+06
   1.398756e+06  -1.416669e+06
   1.634711e+06  -4.184154e+04
   4.729825e+05   6.296623e+04
  -3.323025e+05  -7.177219e+05
   3.083209e+05  -1.125501e+06
   1.576796e+06  -4.708023e+05
   1.785882e+06   6.718570e+05
   4.484570e+05   1.174265e+06
  -1.068024e+06   5.880594e+05
  -1.038519e+06  -4.291987e+05
   6.748508e+05  -8.055628e+05
   2.357944e+06  -4.932366e+04
   2.150990e+06   1.333682e+06
  -2.666637e+04   2.228640e+06
  -2.316500e+06   1.798613e+06
  -2.730915e+06   2.659177e+05
  -1.101445e+06  -1.130127e+06
   8.389217e+05  -1.212746e+06
   1.269495e+06  -8.052387e+04
   3.239368e+04   9.173471e+05
  -1.427735e+06   6.124738e+05
  -1.643575e+06  -6.872474e+05
  -4.862715e+05  -1.565808e+06
   8.958233e+05  -1.118400e+06
   1.258201e+06   7.174454e+04
   4.072935e+05   6.665523e+05
  -6.368819e+05   6.913667e+04
  -6.171151e+05  -9.962040e+05
   6.542782e+05  -1.307676e+06
   1.964349e+06  -3.779290e+05
   1.877903e+06   1.113036e+06
   2.993096e+05   1.966664e+06
  -1.350586e+06   1.527591e+06
  -1.627996e+06   2.341487e+05
  -5.451197e+05  -8.009188e+05
   6.065029e+05  -8.100828e+05
   7.346136e+05  -4.587241e+04
  -1.617035e+04   5.607078e+05
  -6.511566e+05   4.175483e+05
  -4.744872e+05  -1.200432e+05
   2.397877e+05  -2.190430e+05
   5.827299e+05   4.087154e+05
  -5.373713e+04   1.089926e+06
  -1.288586e+06   8.711692e+05
  -1.989960e+06  -4.249872e+05
  -1.339980e+06  -1.902618e+06
   2.869922e+05  -2.381318e+06
   1.632267e+06  -1.483581e+06
   1.797416e+06   4.158139e+04
   1.058304e+06   1.043998e+06
   3.738602e+05   1.018819e+06
   2.617289e+05   4.648980e+05
   3.579618e+05   2.381251e+05
   2.820466e+04   5.864131e+05
  -7.961687e+05   8.888701e+05
  -1.457104e+06   4.031341e+05
  -1.174497e+06  -7.709258e+05
   1.650837e+05  -1.606588e+06
   1.720809e+06  -1.135976e+06
   2.248302e+06   4.922580e+05
   1.155885e+06   2.028369e+06
  -8.651093e+05   2.247083e+06
  -2.354534e+06   1.055617e+06
  -2.350878e+06  -5.068645e+05
  -1.167042e+06  -1.312917e+06
   7.247207e+04  -1.146957e+06
   5.573218e+05  -7.061618e+05
   4.066743e+05  -7.063738e+05
   2.959818e+05  -1.077646e+06
   6.409885e+05  -1.084912e+06
   1.168645e+06  -2.192039e+05
   1.217662e+06   1.112886e+06
   4.534951e+05   1.871113e+06
  -6.794026e+05   1.376580e+06
  -1.268403e+06  -3.535808e+03
  -8.010238e+05  -1.180322e+06
   2.756434e+05  -1.325592e+06
   9.672075e+05  -5.301873e+05
   7.400837e+05   4.325490e+05
   3.099058e+04   8.858967e+05
  -3.087225e+05   7.712284e+05
   1.928204e+03   4.956024e+05
   3.663275e+05   3.934699e+05
   1.684874e+04   3.964517e+05
  -1.039137e+06   1.966126e+05
  -1.876094e+06  -3.418998e+05
  -1.533679e+06  -9.772073e+05
  -6.034825e+04  -1.279124e+06
   1.409383e+06  -1.003996e+06
   1.724087e+06  -3.162131e+05
   8.448489e+05   3.113851e+05
  -1.960131e+05   4.518584e+05
  -4.445428e+05   9.494920e+04
   4.584157e+04  -2.945160e+05
   5.028258e+05  -2.016784e+05
   4.327766e+05   3.539120e+05
   7.765617e+04   7.554186e+05
  -5.825472e+04   4.812184e+05
   1.517596e+05  -1.866567e+05
   3.904433e+05  -3.993751e+05
   2.873359e+05   2.187761e+05
  -2.419393e+05   1.005023e+06
  -9.054731e+05   9.786318e+05
  -1.164989e+06   2.500526e+04
  -6.291006e+05  -9.283234e+05
   4.470679e+05  -9.603755e+05
   1.142074e+06  -1.438999e+05
   6.721955e+05   6.313272e+05
  -6.697915e+05   6.359952e+05
  -1.608816e+06  -6.730716e+04
  -1.142132e+06  -8.368282e+05
   3.650710e+05  -1.066450e+06
   1.517323e+06  -6.186793e+05
   1.327560e+06   1.215018e+05
   1.881164e+05   5.407469e+05
  -6.270846e+05   3.092868e+05
  -3.193537e+05  -2.572649e+05
   6.587700e+05  -4.219055e+05
   1.142965e+06   2.291180e+05
   4.852552e+05   1.238713e+06
  -7.958331e+05   1.594378e+06
  -1.565166e+06   7.157130e+05
  -1.198276e+06  -8.496851e+05
  -1.078068e+05  -1.807642e+06
   7.848886e+05  -1.322750e+06
   9.327680e+05   1.238193e+05
   4.710381e+05   1.182738e+06
  -1.388927e+05   1.015111e+06
  -5.243580e+05   1.104660e+05
  -5.310875e+05  -4.108536e+05
  -2.499583e+05  -1.717264e+05
  -1.586723e+04   1.212311e+05
  -1.311802e+05  -2.402813e+05
  -4.158945e+05  -9.494875e+05
  -2.591313e+05  -1.095669e+06
   5.943782e+05  -3.826036e+05
   1.461429e+06   5.226901e+05
   1.340714e+06   8.788948e+05
   1.681437e+05   6.766474e+05
  -9.539668e+05   3.706388e+05
  -1.016351e+06   1.759802e+05
  -2.773616e+05  -1.316562e+04
   1.894013e+05  -2.078669e+05
  -6.392673e+04  -2.543517e+05
  -3.726858e+05  -1.656511e+05
   3.484565e+02  -1.414097e+05
   7.872383e+05  -1.603160e+05
   1.019170e+06   9.603099e+04
   2.275166e+05   6.872915e+05
  -9.965019e+05   1.054527e+06
  -1.639659e+06   5.787241e+05
  -1.232928e+06  -5.613634e+05
  -1.569692e+05  -1.421442e+06
   7.965609e+05  -1.281213e+06
   1.061268e+06  -4.024241e+05
   6.517275e+05   3.240044e+05
   6.611414e+04   3.590794e+05
  -1.688917e+05  -1.824905e+03
   4.445141e+04  -8.646002e+04
   3.285933e+05   3.441036e+05
   2.469341e+05   8.086870e+05
  -2.341187e+05   6.377773e+05
  -6.879021e+05  -2.269583e+05
  -6.166308e+05  -1.048878e+06
   5.694743e+04  -1.013415e+06
   8.203493e+05  -1.051413e+05
   9.500574e+05   8.594060e+05
   2.178805e+05   1.088294e+06
  -7.570880e+05   5.542885e+05
  -1.048563e+06  -1.636978e+05
  -4.319128e+05  -5.631903e+05
   3.135003e+05  -5.602377e+05
   3.102342e+05  -3.191766e+05
  -3.357145e+05  -5.632299e+04
  -6.669763e+05  -1.049979e+04
  -9.594635e+04  -2.941879e+05
   8.497966e+05  -6.381647e+05
   1.190555e+06  -5.335255e+05
   6.492719e+05   1.448179e+05
  -1.503586e+05   8.154043e+05
  -5.106605e+05   7.754750e+05
  -3.381691e+05   6.890062e+04
   2.073378e+04  -5.138091e+05
   2.775682e+05  -3.669819e+05
   3.457126e+05   2.453017e+05
   2.061186e+05   5.863841e+05
  -9.869867e+04   3.441310e+05
  -3.800762e+05  -1.013470e+05
  -4.238198e+05  -2.462246e+05
  -2.319612e+05  -5.729578e+04
  -1.677643e+04   8.659863e+04
   7.541785e+04  -8.524104e+04
   1.200925e+05  -4.037393e+05
   2.420940e+05  -4.528306e+05
   3.808314e+05  -4.975056e+04
   3.240135e+05   4.985274e+05
  -2.612129e+04   6.628721e+05
  -4.623203e+05   2.475611e+05
  -5.857445e+05  -3.681084e+05
  -1.767226e+05  -6.133120e+05
   4.965409e+05  -3.191897e+05
   8.180476e+05   1.618659e+05
   4.266321e+05   4.018344e+05
  -3.134414e+05   3.167966e+05
  -6.223620e+05   1.132075e+05
  -1.843415e+05  -1.045242e+04
   4.357697e+05   1.604067e+04
   4.350973e+05   1.761943e+05
  -2.542104e+05   3.333155e+05
  -8.681385e+05   2.244339e+05
