
 $NMID
 id='ANONYMOUS ', fmtdat='(2E16.6)'
 volume=1.0
 tramp=1.0
 $END
   5.921249e+07  -7.560965e+05
   3.583646e+07   3.662870e+07
  -7.711335e+06   4.025485e+07
  -2.892148e+07   1.528067e+07
  -1.715580e+07  -7.610664e+06
   3.586577e+06  -9.782601e+06
   1.022848e+07   1.472060e+06
   2.742679e+06   1.023567e+07
  -6.540246e+06   9.554858e+06
  -1.003857e+07   1.975391e+06
  -7.326682e+06  -6.351432e+06
  -9.755655e+05  -8.855806e+06
   4.080508e+06  -2.961784e+06
   2.772513e+06   5.441097e+06
  -3.865225e+06   6.665298e+06
  -8.193886e+06  -1.417394e+06
  -4.675398e+06  -1.060294e+07
   3.865348e+06  -1.232210e+07
   1.049650e+07  -6.308878e+06
   1.138619e+07   1.938631e+06
   7.173678e+06   7.762905e+06
   9.197144e+05   9.218881e+06
  -3.130129e+06   6.535317e+06
  -2.220540e+06   2.746197e+06
   1.012929e+06   1.915914e+06
   4.509407e+05   4.105349e+06
  -5.289099e+06   4.677852e+06
  -9.865563e+06   8.339083e+05
  -7.412351e+06  -4.066965e+06
  -5.256935e+05  -5.276608e+06
   3.636684e+06  -2.878770e+06
   2.588526e+06  -2.757781e+05
  -3.395199e+05   8.383821e+05
  -2.058900e+06   6.293761e+05
  -2.258521e+06  -1.197084e+06
  -9.578735e+05  -3.908744e+06
   1.727277e+06  -4.102432e+06
   3.509160e+06  -7.716448e+04
   2.010417e+06   3.790842e+06
  -7.901761e+05   2.217222e+06
  -5.248517e+05  -2.363648e+06
   2.446774e+06  -2.346841e+06
   2.537348e+06   3.329843e+06
  -2.598140e+06   6.431789e+06
  -7.421698e+06   1.087873e+06
  -5.485291e+06  -7.270801e+06
   1.965615e+06  -8.995540e+06
   7.747024e+06  -2.627883e+06
   7.195764e+06   4.528492e+06
   1.885243e+06   6.170680e+06
  -3.553828e+06   2.754609e+06
  -5.341762e+06  -1.578157e+06
  -2.427233e+06  -3.582576e+06
   2.542899e+06  -2.265482e+06
   4.705571e+06   9.564550e+05
   2.015460e+06   2.835740e+06
  -1.786609e+06   1.440171e+06
  -1.760722e+06  -1.046568e+06
   1.449644e+06  -8.857117e+05
   2.569515e+06   1.956638e+06
  -7.742379e+05   3.694977e+06
  -4.959751e+06   1.992831e+06
  -5.556499e+06  -1.467248e+06
  -2.415464e+06  -4.168441e+06
   1.755222e+06  -5.479030e+06
   4.995097e+06  -5.100027e+06
   6.329095e+06  -1.967224e+06
   4.846086e+06   3.130802e+06
   1.119236e+06   6.330455e+06
  -1.895460e+06   4.892245e+06
  -1.845111e+06   1.155988e+06
  -8.672401e+04  -3.903160e+05
   2.383030e+05   9.762379e+05
  -1.455824e+06   1.959315e+06
  -2.833280e+06   4.528353e+05
  -2.162426e+06  -1.796264e+06
  -1.725371e+05  -2.124344e+06
   1.476070e+06  -2.748381e+05
   1.713065e+06   1.995027e+06
   9.703014e+04   2.952688e+06
  -2.763629e+06   1.792839e+06
  -4.643057e+06  -1.070863e+06
  -3.451404e+06  -3.813344e+06
  -5.871739e+04  -4.430471e+06
   2.351350e+06  -2.899942e+06
   2.348791e+06  -1.199901e+06
   1.896282e+06  -6.792059e+05
   2.986800e+06  -4.918837e+05
   4.424788e+06   7.309301e+05
   3.572222e+06   2.760925e+06
   1.941692e+05   4.173601e+06
  -3.160652e+06   4.005468e+06
  -4.158574e+06   2.263250e+06
  -2.714790e+06  -3.183118e+05
  -3.881756e+05  -2.243087e+06
   1.030473e+06  -2.012053e+06
   5.803045e+05   4.236840e+03
  -1.060330e+06   1.358818e+06
  -1.941745e+06   4.445761e+05
  -9.855889e+05  -1.218399e+06
   4.832524e+05  -1.137579e+06
   4.001421e+05   3.919054e+05
  -1.126718e+06   6.562270e+05
  -1.891892e+06  -1.418257e+06
  -5.765436e+05  -3.608827e+06
   1.722861e+06  -3.401370e+06
   3.209989e+06  -1.005957e+06
   3.283153e+06   1.503988e+06
   2.241658e+06   2.727600e+06
   4.727943e+05   2.578236e+06
  -1.210294e+06   1.496897e+06
  -1.580294e+06   2.740111e+05
  -4.996869e+05  -3.806733e+04
   3.732389e+05   7.585530e+05
  -4.169283e+05   1.384131e+06
  -1.960882e+06   6.169125e+05
  -2.091478e+06  -9.025695e+05
  -3.934261e+05  -1.456217e+06
   1.189708e+06  -5.859782e+05
   8.808194e+05   4.517694e+05
  -8.716189e+05   4.925991e+05
  -2.172999e+06  -3.483267e+05
  -1.715613e+06  -1.347104e+06
   2.575730e+05  -1.950457e+06
   2.305641e+06  -1.672469e+06
   2.799180e+06  -3.072012e+05
   1.256440e+06   1.282979e+06
  -9.245017e+05   1.565590e+06
  -1.613970e+06   2.214891e+05
  -2.375771e+05  -1.113167e+06
   1.536303e+06  -7.775131e+05
   1.752058e+06   7.851074e+05
   3.343921e+05   1.674968e+06
  -1.119753e+06   9.731399e+05
  -1.269038e+06  -3.387106e+05
  -2.297360e+05  -8.022809e+05
   8.279514e+05  -5.985860e+04
   7.730528e+05   1.065453e+06
  -5.545108e+05   1.463064e+06
  -2.028981e+06   5.954656e+05
  -2.091530e+06  -1.029155e+06
  -4.219383e+05  -2.107692e+06
   1.451277e+06  -1.690387e+06
   1.755258e+06  -2.249301e+05
   5.079414e+05   8.821568e+05
  -6.650897e+05   8.158753e+05
  -6.230654e+05   8.954071e+04
   1.299375e+05  -3.326695e+05
   4.663470e+05  -1.845376e+05
   6.969982e+04   5.224420e+04
  -4.822320e+05  -1.218017e+05
  -5.157546e+05  -7.133248e+05
   2.216559e+05  -1.213130e+06
   1.400485e+06  -9.203490e+05
   2.119431e+06   3.951493e+05
   1.518584e+06   1.953219e+06
  -1.816576e+05   2.451836e+06
  -1.610540e+06   1.430564e+06
  -1.687015e+06  -1.218722e+05
  -8.436333e+05  -8.690228e+05
  -3.220043e+05  -5.946432e+05
  -5.208211e+05  -1.793383e+05
  -6.778269e+05  -3.243441e+05
  -1.078333e+05  -7.989392e+05
   8.872734e+05  -9.185405e+05
   1.454499e+06  -3.297787e+05
   1.045946e+06   7.079293e+05
  -2.492338e+05   1.449345e+06
  -1.724542e+06   1.088994e+06
  -2.272013e+06  -4.625172e+05
  -1.160703e+06  -2.117618e+06
   1.018893e+06  -2.414225e+06
   2.584054e+06  -1.060303e+06
   2.375749e+06   6.657864e+05
   9.425987e+05   1.341899e+06
  -2.176659e+05   9.209517e+05
  -3.570426e+05   4.883109e+05
  -1.717583e+04   7.721467e+05
  -6.094873e+04   1.359310e+06
  -6.693439e+05   1.340053e+06
  -1.323075e+06   3.506439e+05
  -1.381554e+06  -1.070513e+06
  -5.997700e+05  -1.909550e+06
   6.021114e+05  -1.467240e+06
   1.299379e+06  -1.173824e+04
   8.335233e+05   1.303003e+06
  -3.991008e+05   1.422397e+06
  -1.199496e+06   3.977795e+05
  -8.340048e+05  -7.401585e+05
   1.411771e+05  -1.116040e+06
   5.714643e+05  -7.933446e+05
   9.520787e+04  -4.056349e+05
  -4.530866e+05  -3.243997e+05
  -7.248201e+04  -3.840142e+05
   1.174943e+06  -2.253697e+05
   2.116428e+06   3.128706e+05
   1.655830e+06   1.038889e+06
  -4.162025e+04   1.473295e+06
  -1.623156e+06   1.189402e+06
  -1.862130e+06   2.917269e+05
  -8.415923e+05  -5.215000e+05
   2.699351e+05  -5.966079e+05
   5.266794e+05  -2.781066e+04
   4.806552e+04   4.480449e+05
  -4.330964e+05   2.770465e+05
  -4.988638e+05  -3.373440e+05
  -2.979101e+05  -7.218729e+05
  -1.319746e+05  -4.835048e+05
  -1.333887e+05   7.968518e+04
  -2.554916e+05   2.788335e+05
  -2.777523e+05  -2.335047e+05
   1.111194e+05  -9.935814e+05
   8.937420e+05  -1.102399e+06
   1.411647e+06  -2.201709e+05
   9.146850e+05   9.116172e+05
  -4.005593e+05   1.189929e+06
  -1.289682e+06   3.933690e+05
  -7.600287e+05  -5.574005e+05
   7.073296e+05  -6.634387e+05
   1.597007e+06   8.548109e+04
   9.934042e+05   8.632422e+05
  -5.020026e+05   9.836263e+05
  -1.499563e+06   4.677888e+05
  -1.223040e+06  -1.937429e+05
  -1.289595e+05  -5.102523e+05
   6.564588e+05  -2.687341e+05
   4.049110e+05   3.016252e+05
  -5.678606e+05   5.582649e+05
  -1.205811e+06  -3.204532e+04
  -7.380133e+05  -1.171356e+06
   5.235375e+05  -1.754863e+06
   1.467482e+06  -9.564906e+05
   1.292736e+06   7.256216e+05
   2.509792e+05   1.802430e+06
  -7.199744e+05   1.307745e+06
  -9.326949e+05  -1.816410e+05
  -4.371912e+05  -1.199619e+06
   2.326079e+05  -9.660834e+05
   5.761334e+05  -8.285514e+04
   4.565910e+05   3.655973e+05
   1.426147e+05   1.258900e+05
   5.692657e+04  -8.879739e+04
   3.269040e+05   3.130380e+05
   5.511872e+05   9.756651e+05
   1.844537e+05   1.079799e+06
  -7.518844e+05   4.074552e+05
  -1.497806e+06  -4.364536e+05
  -1.282883e+06  -8.169101e+05
  -1.987220e+05  -7.095811e+05
   8.260703e+05  -4.491507e+05
   9.809698e+05  -1.968880e+05
   3.899142e+05   6.371931e+04
  -1.307304e+05   2.357215e+05
  -6.485853e+04   1.895981e+05
   2.345647e+05   6.698811e+04
   6.965462e+04   1.320316e+05
  -6.244718e+05   2.737981e+05
  -1.067235e+06   2.921305e+04
  -5.147775e+05  -6.989717e+05
   7.840044e+05  -1.244204e+06
   1.729977e+06  -8.445327e+05
   1.494211e+06   3.757261e+05
   3.371642e+05   1.412337e+06
  -7.484118e+05   1.431544e+06
  -1.050926e+06   6.051339e+05
  -6.674935e+05  -1.930655e+05
  -1.641177e+05  -3.611393e+05
   3.568132e+04  -9.500716e+04
  -9.365818e+04  -8.469358e+03
  -2.966239e+05  -3.755842e+05
  -2.590843e+05  -8.123619e+05
   1.526646e+05  -7.042846e+05
   6.885246e+05   7.247348e+04
   8.072906e+05   9.150356e+05
   1.975081e+05   1.049740e+06
  -7.326438e+05   3.181053e+05
  -1.090231e+06  -6.592578e+05
  -4.181939e+05  -1.097544e+06
   6.952111e+05  -7.433649e+05
   1.159208e+06   2.618404e+04
   5.831372e+05   6.327909e+05
  -2.725303e+05   7.359511e+05
  -4.069704e+05   3.940646e+05
   2.144998e+05  -1.535548e+04
   6.484081e+05  -6.884942e+04
   1.723225e+05   3.155687e+05
  -8.148574e+05   7.120294e+05
  -1.291702e+06   5.612259e+05
  -8.169012e+05  -1.856043e+05
   6.495999e+04  -9.014092e+05
   5.652394e+05  -9.028452e+05
   4.660026e+05  -2.056998e+05
   9.267663e+04   4.694388e+05
  -2.207830e+05   4.720300e+05
  -3.619101e+05  -1.019228e+05
  -2.845103e+05  -5.759481e+05
   2.968882e+04  -4.682576e+05
   4.007952e+05   1.560565e+04
   5.046683e+05   2.927973e+05
   2.493290e+05   1.112479e+05
  -5.723445e+04  -1.795824e+05
  -8.415287e+04  -9.850543e+04
   7.540209e+04   3.373684e+05
   3.873766e+04   6.022232e+05
  -2.953978e+05   3.000329e+05
  -5.289063e+05  -3.267253e+05
  -2.479692e+05  -6.483994e+05
   3.848098e+05  -3.537063e+05
   7.107424e+05   2.349064e+05
   2.992076e+05   5.586476e+05
  -5.126359e+05   3.958691e+05
  -9.218693e+05  -2.677072e+04
  -5.122891e+05  -3.645413e+05
   2.837779e+05  -4.457164e+05
   6.514226e+05  -2.903010e+05
   2.830076e+05  -3.342124e+04
  -3.091229e+05   1.143635e+05
  -4.018278e+05  -6.424020e+03
   1.249127e+05  -2.785817e+05
   6.891672e+05  -3.084923e+05
