
 $NMID
 id='ANONYMOUS ', fmtdat='(2E16.6)'
 volume=1.0
 tramp=1.0
 $END
  -2.736086e+07   3.334863e+05
  -1.848214e+07  -1.360163e+07
   3.900476e+05  -1.791911e+07
   1.240876e+07  -1.099182e+07
   1.002031e+07  -2.340261e+05
   2.543807e+05   5.084900e+06
  -5.672296e+06   1.939122e+06
  -3.789825e+06  -4.667984e+06
   1.767051e+06  -7.208175e+06
   5.249553e+06  -2.989988e+06
   4.293000e+06   3.503872e+06
   4.842684e+05   5.518633e+06
  -2.517949e+06   1.219401e+06
  -1.871827e+06  -4.446261e+06
   1.788545e+06  -5.246624e+06
   4.584918e+06  -3.090643e+05
   3.241587e+06   5.414137e+06
  -1.375222e+06   6.747261e+06
  -5.217704e+06   3.234503e+06
  -5.321369e+06  -1.442653e+06
  -2.473558e+06  -3.726868e+06
   1.320054e+05  -3.193839e+06
   2.309036e+05  -1.995005e+06
  -1.436560e+06  -2.169456e+06
  -1.935884e+06  -3.566639e+06
   7.530760e+05  -4.155932e+06
   5.068970e+06  -2.365469e+06
   6.871365e+06   9.650223e+05
   3.894921e+06   3.256182e+06
  -1.242775e+06   2.809593e+06
  -3.591439e+06   4.058867e+05
  -1.338108e+06  -1.671998e+06
   2.435173e+06  -1.707063e+06
   3.654706e+06   3.111309e+05
   1.667881e+06   2.800238e+06
  -9.136231e+05   3.588785e+06
  -1.713004e+06   1.724782e+06
  -7.641503e+05  -1.107614e+06
   3.528285e+05  -1.827915e+06
   3.653626e+05   4.622281e+05
  -7.791914e+05   2.871251e+06
  -1.997263e+06   2.010555e+06
  -1.846703e+06  -1.481497e+06
   9.986681e+04  -3.374674e+06
   2.338204e+06  -1.124574e+06
   2.468303e+06   2.847365e+06
  -2.864388e+05   4.105162e+06
  -3.792862e+06   1.359599e+06
  -4.771570e+06  -2.522138e+06
  -2.035089e+06  -4.065868e+06
   2.175922e+06  -2.491545e+06
   4.232271e+06   3.467999e+05
   2.562122e+06   2.099324e+06
  -9.018690e+05   1.713850e+06
  -2.746632e+06  -3.270418e+04
  -1.550337e+06  -1.297932e+06
   8.269491e+05  -8.779983e+05
   1.523088e+06   5.636729e+05
  -5.362886e+04   1.251716e+06
  -1.698056e+06   3.541632e+05
  -1.141606e+06  -1.117583e+06
   1.246589e+06  -1.535980e+06
   2.871618e+06  -3.156810e+05
   1.768138e+06   1.750860e+06
  -1.379518e+06   3.232399e+06
  -4.037358e+06   2.905993e+06
  -4.289208e+06   5.549257e+05
  -2.402122e+06  -2.511248e+06
  -1.986214e+05  -4.196721e+06
   8.428397e+05  -3.567118e+06
   8.063048e+05  -1.850067e+06
   8.145438e+05  -9.025690e+05
   1.540499e+06  -9.223679e+05
   2.437718e+06  -4.871722e+05
   2.416011e+06   1.127719e+06
   1.064345e+06   2.619078e+06
  -8.718598e+05   2.184208e+06
  -2.058319e+06  -1.500967e+05
  -1.568345e+06  -2.383443e+06
   3.748408e+05  -2.608316e+06
   2.390818e+06  -7.830796e+05
   2.915096e+06   1.503519e+06
   1.600577e+06   2.640314e+06
  -2.771430e+05   2.284317e+06
  -1.170143e+06   1.333611e+06
  -1.006137e+06   8.288611e+05
  -1.133520e+06   8.854315e+05
  -2.364588e+06   6.905444e+05
  -3.595561e+06  -4.692528e+05
  -2.933429e+06  -2.280605e+06
  -7.402879e+04  -3.556027e+06
   2.992171e+06  -3.253653e+06
   3.871930e+06  -1.383128e+06
   2.140202e+06   8.956212e+05
  -3.485487e+05   2.047614e+06
  -1.376357e+06   1.385015e+06
  -4.214172e+05  -2.087072e+05
   1.118243e+06  -1.006928e+06
   1.539579e+06  -2.444704e+05
   5.423931e+05   9.657786e+05
  -6.398568e+05   9.587756e+05
  -6.627867e+05  -3.201426e+05
   5.225396e+05  -1.087349e+06
   1.669431e+06   9.489974e+04
   1.472102e+06   2.401191e+06
  -2.550661e+05   3.512752e+06
  -2.423048e+06   2.138343e+06
  -3.497233e+06  -6.697767e+05
  -2.659472e+06  -2.697896e+06
  -5.178187e+05  -2.700654e+06
   1.285189e+06  -1.288969e+06
   1.489541e+06  -3.699086e+04
   4.368786e+05   5.704522e+04
  -3.090344e+05  -6.603909e+05
   2.697454e+05  -1.056181e+06
   1.458794e+06  -4.682035e+05
   1.678665e+06   6.072927e+05
   4.351820e+05   1.099280e+06
  -9.879223e+05   5.496190e+05
  -9.492034e+05  -4.101688e+05
   6.598713e+05  -7.387933e+05
   2.199164e+06   3.001331e+02
   1.959758e+06   1.278087e+06
  -6.848319e+04   2.063488e+06
  -2.156490e+06   1.643066e+06
  -2.522574e+06   2.416144e+05
  -1.033822e+06  -1.040905e+06
   7.513029e+05  -1.139469e+06
   1.175115e+06  -1.068354e+05
   5.366460e+04   8.360488e+05
  -1.308908e+06   5.761101e+05
  -1.527201e+06  -6.344715e+05
  -4.474466e+05  -1.464272e+06
   8.507566e+05  -1.043252e+06
   1.183724e+06   7.819763e+04
   3.801175e+05   6.341863e+05
  -5.917040e+05   7.584075e+04
  -5.732130e+05  -9.093276e+05
   5.934879e+05  -1.197697e+06
   1.797481e+06  -3.514177e+05
   1.728588e+06   1.014890e+06
   2.844689e+05   1.812007e+06
  -1.243736e+06   1.420431e+06
  -1.511564e+06   2.215676e+05
  -5.085501e+05  -7.467267e+05
   5.619292e+05  -7.512515e+05
   6.686613e+05  -3.499458e+04
  -4.003203e+04   5.133348e+05
  -6.117245e+05   3.548499e+05
  -4.118491e+05  -1.430089e+05
   2.618538e+05  -2.035956e+05
   5.566245e+05   4.011379e+05
  -5.455405e+04   1.024780e+06
  -1.195570e+06   8.071460e+05
  -1.836915e+06  -3.915985e+05
  -1.238203e+06  -1.750724e+06
   2.663987e+05  -2.192011e+06
   1.517656e+06  -1.359173e+06
   1.662704e+06   5.907658e+04
   9.509781e+05   9.808825e+05
   3.046545e+05   9.314238e+05
   2.265577e+05   3.993627e+05
   3.481096e+05   2.007356e+05
   4.107423e+04   5.451312e+05
  -7.439848e+05   8.244491e+05
  -1.354654e+06   3.579937e+05
  -1.068524e+06  -7.290784e+05
   1.796728e+05  -1.482950e+06
   1.599731e+06  -1.035943e+06
   2.070940e+06   4.641407e+05
   1.063597e+06   1.880624e+06
  -8.019167e+05   2.087977e+06
  -2.186826e+06   9.817670e+05
  -2.181792e+06  -4.827471e+05
  -1.065221e+06  -1.236329e+06
   9.600490e+04  -1.061044e+06
   5.275477e+05  -6.244565e+05
   3.580761e+05  -6.217671e+05
   2.462768e+05  -9.864381e+05
   5.774893e+05  -1.011479e+06
   1.075522e+06  -2.145663e+05
   1.121969e+06   1.018208e+06
   4.188886e+05   1.718999e+06
  -6.227852e+05   1.264992e+06
  -1.170171e+06  -5.639901e+03
  -7.445454e+05  -1.095052e+06
   2.577574e+05  -1.235757e+06
   9.144899e+05  -4.978567e+05
   7.085155e+05   4.076475e+05
   3.543256e+04   8.402152e+05
  -2.969305e+05   7.313170e+05
  -1.080723e+04   4.617456e+05
   3.343280e+05   3.567687e+05
   1.400004e+04   3.620717e+05
  -9.641007e+05   1.872603e+05
  -1.737260e+06  -3.064131e+05
  -1.420061e+06  -9.025285e+05
  -6.059231e+04  -1.195351e+06
   1.299359e+06  -9.432545e+05
   1.600048e+06  -2.941295e+05
   7.944325e+05   2.991429e+05
  -1.751503e+05   4.274744e+05
  -4.194097e+05   8.890972e+04
   2.903323e+04  -2.716060e+05
   4.581244e+05  -1.821340e+05
   3.999922e+05   3.238154e+05
   7.398062e+04   6.808991e+05
  -4.843824e+04   4.300446e+05
   1.491568e+05  -1.658188e+05
   3.663674e+05  -3.507604e+05
   2.633492e+05   2.060567e+05
  -2.261009e+05   9.162011e+05
  -8.315219e+05   9.012192e+05
  -1.069624e+06   4.195550e+04
  -5.851448e+05  -8.382352e+05
   3.987234e+05  -8.893587e+05
   1.042370e+06  -1.475862e+05
   6.156534e+05   5.771182e+05
  -6.212369e+05   5.882575e+05
  -1.486799e+06  -7.158141e+04
  -1.046986e+06  -7.909882e+05
   3.542603e+05  -9.905000e+05
   1.415047e+06  -5.567313e+05
   1.226497e+06   1.293663e+05
   1.665752e+05   5.033936e+05
  -5.840822e+05   2.833463e+05
  -2.998341e+05  -2.337089e+05
   5.962143e+05  -3.842278e+05
   1.041276e+06   2.047276e+05
   4.466239e+05   1.124318e+06
  -7.199541e+05   1.454307e+06
  -1.427207e+06   6.556457e+05
  -1.097253e+06  -7.786080e+05
  -9.614778e+04  -1.659218e+06
   7.298195e+05  -1.212399e+06
   8.648825e+05   1.211033e+05
   4.289850e+05   1.097244e+06
  -1.401859e+05   9.410278e+05
  -4.881786e+05   1.018384e+05
  -4.818029e+05  -3.854799e+05
  -2.223455e+05  -1.655222e+05
  -1.897879e+04   1.138949e+05
  -1.325415e+05  -2.105839e+05
  -3.867112e+05  -8.692995e+05
  -2.305969e+05  -1.017542e+06
   5.544372e+05  -3.631290e+05
   1.342077e+06   4.833437e+05
   1.227142e+06   8.197587e+05
   1.553908e+05   6.247134e+05
  -8.722622e+05   3.313258e+05
  -9.364086e+05   1.558046e+05
  -2.639957e+05  -7.241747e+03
   1.714175e+05  -1.880805e+05
  -4.821584e+04  -2.425792e+05
  -3.304016e+05  -1.612614e+05
  -4.570123e+02  -1.247422e+05
   7.131119e+05  -1.362487e+05
   9.327686e+05   8.525588e+04
   2.183614e+05   6.148547e+05
  -9.029364e+05   9.605169e+05
  -1.500425e+06   5.433232e+05
  -1.131980e+06  -4.980894e+05
  -1.442166e+05  -1.299708e+06
   7.289006e+05  -1.180996e+06
   9.663861e+05  -3.728842e+05
   5.906893e+05   2.962734e+05
   6.282918e+04   3.243941e+05
  -1.437805e+05  -8.855029e+03
   5.028735e+04  -7.958842e+04
   3.026423e+05   3.226978e+05
   2.248283e+05   7.465723e+05
  -2.108272e+05   5.838981e+05
  -6.222932e+05  -2.067228e+05
  -5.617411e+05  -9.518457e+05
   4.483233e+04  -9.180055e+05
   7.389412e+05  -9.499842e+04
   8.638918e+05   7.800738e+05
   2.042578e+05   9.915914e+05
  -6.855646e+05   5.107137e+05
  -9.613022e+05  -1.429910e+05
  -4.065265e+05  -5.134686e+05
   2.777966e+05  -5.189436e+05
   2.857286e+05  -3.027707e+05
  -3.003059e+05  -5.979767e+04
  -6.093319e+05  -1.143596e+04
  -9.154925e+04  -2.674163e+05
   7.808291e+05  -5.854955e+05
   1.103374e+06  -4.955464e+05
   6.080974e+05   1.259677e+05
  -1.330239e+05   7.491849e+05
  -4.678526e+05   7.223852e+05
  -3.074286e+05   7.637838e+04
   2.057623e+04  -4.644796e+05
   2.483444e+05  -3.372856e+05
   3.082612e+05   2.216669e+05
   1.896995e+05   5.362871e+05
  -8.112801e+04   3.168693e+05
  -3.449597e+05  -9.055699e+04
  -3.966146e+05  -2.250601e+05
  -2.185604e+05  -5.475210e+04
  -6.379453e+03   7.785360e+04
   8.375828e+04  -7.215809e+04
   1.102656e+05  -3.554505e+05
   2.042151e+05  -4.021024e+05
   3.304547e+05  -4.734875e+04
   2.920292e+05   4.404492e+05
  -1.805398e+04   5.914318e+05
  -4.174459e+05   2.246860e+05
  -5.340035e+05  -3.286263e+05
  -1.607551e+05  -5.561245e+05
   4.549877e+05  -2.963175e+05
   7.484790e+05   1.406935e+05
   3.924922e+05   3.653029e+05
  -2.802555e+05   2.937099e+05
  -5.632898e+05   1.105189e+05
  -1.708125e+05  -1.599457e+03
   3.878491e+05   2.104355e+04
   3.873230e+05   1.605829e+05
  -2.352431e+05   2.950826e+05
  -7.896881e+05   1.933941e+05
