
 $NMID
 id='ANONYMOUS ', fmtdat='(2E16.6)'
 volume=1.0
 tramp=1.0
 $END
  -2.703079e+07   1.588561e+06
  -1.761469e+07  -1.473177e+07
   1.638416e+06  -1.812964e+07
   1.235526e+07  -8.857512e+06
   8.485692e+06   1.738357e+06
  -7.970102e+05   4.632697e+06
  -4.920426e+06   4.650114e+05
  -2.318422e+06  -4.492371e+06
   2.243104e+06  -5.401837e+06
   4.657863e+06  -1.839695e+06
   3.796649e+06   2.916442e+06
   6.796721e+05   4.507839e+06
  -2.043617e+06   1.388046e+06
  -1.675691e+06  -3.091469e+06
   1.524130e+06  -3.879913e+06
   3.993518e+06   1.023911e+05
   2.752152e+06   4.851135e+06
  -1.295898e+06   6.022576e+06
  -4.738531e+06   3.213539e+06
  -5.259177e+06  -8.265431e+05
  -3.140626e+06  -3.471198e+06
  -3.596365e+05  -3.838088e+06
   9.300119e+05  -2.615919e+06
   5.622188e+04  -1.459201e+06
  -1.162489e+06  -1.686477e+06
  -8.880693e+04  -2.699120e+06
   3.217156e+06  -2.465000e+06
   5.367060e+06  -2.357492e+05
   3.697941e+06   2.175465e+06
  -1.713215e+05   2.619192e+06
  -2.337991e+06   1.164862e+06
  -1.329935e+06  -4.485781e+05
   8.577348e+05  -9.716316e+05
   1.887930e+06  -2.669686e+05
   1.374122e+06   1.230151e+06
   1.326374e+05   2.428722e+06
  -1.022808e+06   1.877487e+06
  -1.349337e+06  -3.424919e+05
  -5.474698e+05  -1.786861e+06
   3.958778e+05  -5.169573e+05
   3.293986e+04   1.736461e+06
  -1.310577e+06   1.487208e+06
  -1.448944e+06  -1.417542e+06
   6.565844e+05  -3.079834e+06
   2.962842e+06  -8.113047e+05
   2.616958e+06   3.039246e+06
  -4.890177e+05   4.110413e+06
  -3.550166e+06   1.433190e+06
  -3.911225e+06  -1.984763e+06
  -1.458418e+06  -3.133893e+06
   1.691498e+06  -1.776992e+06
   3.061029e+06   3.900379e+05
   1.685331e+06   1.665283e+06
  -1.009040e+06   1.296206e+06
  -2.350341e+06  -1.830824e+05
  -1.175298e+06  -1.228649e+06
   7.914458e+05  -7.673550e+05
   1.070834e+06   4.407792e+05
  -4.014390e+05   6.948871e+05
  -1.328256e+06  -3.902116e+05
  -2.009186e+05  -1.434803e+06
   1.835575e+06  -1.175623e+06
   2.615459e+06   1.956175e+05
   1.403606e+06   1.753717e+06
  -8.335990e+05   2.800812e+06
  -2.721982e+06   2.709079e+06
  -3.325481e+06   9.845472e+05
  -2.386229e+06  -1.678716e+06
  -5.967816e+05  -3.313499e+06
   6.860714e+05  -2.709259e+06
   7.266674e+05  -1.001685e+06
   2.411632e+05  -2.294523e+05
   4.011216e+05  -6.971862e+05
   1.253908e+06  -8.879664e+05
   1.744319e+06   1.306191e+05
   1.144720e+06   1.393493e+06
  -1.481387e+05   1.436213e+06
  -1.165596e+06   1.297412e+05
  -1.169812e+06  -1.345657e+06
  -2.184159e+04  -1.799796e+06
   1.613952e+06  -9.172217e+05
   2.457863e+06   6.988279e+05
   1.699056e+06   1.965346e+06
   2.781712e+04   2.111500e+06
  -1.034152e+06   1.370396e+06
  -9.958286e+05   6.860853e+05
  -9.039458e+05   5.626169e+05
  -1.665409e+06   5.055994e+05
  -2.575180e+06  -1.941697e+05
  -2.184339e+06  -1.456340e+06
  -2.617626e+05  -2.462721e+06
   1.805563e+06  -2.463820e+06
   2.501997e+06  -1.341438e+06
   1.591720e+06   3.034103e+05
   9.470194e+04   1.395418e+06
  -7.197964e+05   1.140524e+06
  -3.316504e+05  -6.156780e+04
   6.575109e+05  -8.103105e+05
   1.103914e+06  -2.863448e+05
   5.247832e+05   6.766176e+05
  -3.288312e+05   7.009067e+05
  -3.709572e+05  -2.007097e+05
   4.638879e+05  -6.024598e+05
   1.148041e+06   3.676476e+05
   7.989411e+05   1.823667e+06
  -4.257066e+05   2.230609e+06
  -1.678097e+06   1.155808e+06
  -2.206592e+06  -5.004928e+05
  -1.712945e+06  -1.604358e+06
  -4.545372e+05  -1.669424e+06
   7.360145e+05  -9.511851e+05
   9.794721e+05  -1.649956e+05
   2.998038e+05   1.077017e+04
  -2.519285e+05  -4.409370e+05
   1.666213e+05  -7.936503e+05
   1.068413e+06  -4.169583e+05
   1.234472e+06   4.017161e+05
   3.180755e+05   7.998281e+05
  -6.767692e+05   4.172911e+05
  -6.192514e+05  -2.323664e+05
   4.457566e+05  -4.434882e+05
   1.406483e+06  -1.459269e+04
   1.254287e+06   7.405044e+05
   5.748432e+03   1.296717e+06
  -1.346925e+06   1.172755e+06
  -1.689688e+06   2.978643e+05
  -7.784540e+05  -6.926099e+05
   4.825144e+05  -8.954651e+05
   8.824199e+05  -1.559325e+05
   1.284078e+05   6.219979e+05
  -8.840423e+05   4.958927e+05
  -1.081108e+06  -3.795865e+05
  -3.237555e+05  -9.844652e+05
   5.802109e+05  -6.917804e+05
   7.941135e+05   7.349016e+04
   2.306315e+05   4.465010e+05
  -4.528233e+05   8.023228e+04
  -4.817835e+05  -6.011635e+05
   3.038863e+05  -8.830359e+05
   1.205014e+06  -3.940422e+05
   1.270377e+06   5.674422e+05
   3.140425e+05   1.237802e+06
  -7.912399e+05   1.053108e+06
  -1.032306e+06   2.135090e+05
  -3.601878e+05  -5.005202e+05
   3.601352e+05  -5.320375e+05
   4.199667e+05  -6.840624e+04
  -2.406425e+04   2.857648e+05
  -3.341237e+05   2.148495e+05
  -1.760383e+05  -4.284987e+04
   2.181974e+05  -5.204498e+04
   3.656042e+05   3.157006e+05
  -2.815566e+04   7.135722e+05
  -7.831749e+05   6.136891e+05
  -1.281863e+06  -1.564225e+05
  -9.669176e+05  -1.118930e+06
   3.629486e+04  -1.495627e+06
   9.347485e+05  -9.676728e+05
   1.076040e+06  -2.472284e+04
   6.228672e+05   5.498018e+05
   2.417619e+05   4.819149e+05
   2.492283e+05   1.765722e+05
   3.309728e+05   1.424861e+05
   7.667927e+04   4.172922e+05
  -4.723894e+05   5.925130e+05
  -8.748163e+05   2.934647e+05
  -7.140213e+05  -4.015097e+05
   5.743155e+04  -9.478932e+05
   1.006471e+06  -7.634494e+05
   1.410953e+06   1.895353e+05
   8.088560e+05   1.223406e+06
  -4.714803e+05   1.480115e+06
  -1.472421e+06   7.657938e+05
  -1.483838e+06  -2.553349e+05
  -7.096149e+05  -7.744370e+05
   4.612058e+04  -6.463646e+05
   2.584813e+05  -3.857929e+05
   9.803897e+04  -4.582108e+05
   5.288457e+04  -7.530020e+05
   3.458694e+05  -7.746728e+05
   7.518316e+05  -2.327197e+05
   8.477061e+05   6.118745e+05
   4.087739e+05   1.138422e+06
  -3.305139e+05   9.031205e+05
  -7.912566e+05   6.047889e+04
  -5.614891e+05  -7.271826e+05
   1.441273e+05  -8.630380e+05
   6.477997e+05  -3.391882e+05
   5.159948e+05   3.220735e+05
   1.624045e+04   6.205987e+05
  -2.339645e+05   5.067496e+05
  -1.047755e+04   2.821364e+05
   2.652768e+05   2.001148e+05
   4.452265e+04   2.355222e+05
  -6.689591e+05   1.819394e+05
  -1.240229e+06  -1.060863e+05
  -1.027825e+06  -5.458096e+05
  -7.284708e+04  -8.488559e+05
   8.795859e+05  -7.470913e+05
   1.091031e+06  -2.696137e+05
   5.426338e+05   2.182331e+05
  -1.163615e+05   3.334332e+05
  -2.964389e+05   6.163168e+04
  -1.930620e+04  -2.236996e+05
   2.755429e+05  -1.641179e+05
   2.997923e+05   1.908234e+05
   1.453135e+05   4.406563e+05
   4.244957e+04   2.909906e+05
   8.309308e+04  -8.819429e+04
   1.858005e+05  -2.223851e+05
   1.847022e+05   1.235072e+05
  -6.274367e+04   6.183325e+05
  -5.021154e+05   6.807882e+05
  -7.807624e+05   1.395158e+05
  -5.144742e+05  -5.244476e+05
   2.072610e+05  -6.780948e+05
   7.290123e+05  -2.211856e+05
   4.642944e+05   3.322400e+05
  -3.938849e+05   4.303779e+05
  -9.893831e+05   2.368393e+04
  -6.958003e+05  -4.780465e+05
   2.217751e+05  -6.526331e+05
   9.069334e+05  -4.019069e+05
   7.941076e+05   4.161589e+04
   1.207748e+05   3.179541e+05
  -3.834981e+05   2.078447e+05
  -2.367604e+05  -1.539005e+05
   3.530434e+05  -3.269175e+05
   7.243981e+05   2.751695e+04
   4.271172e+05   7.093337e+05
  -3.300843e+05   1.052535e+06
  -8.912541e+05   5.773372e+05
  -7.973387e+05  -4.284796e+05
  -1.888885e+05  -1.099248e+06
   4.053754e+05  -8.411883e+05
   5.821199e+05   5.180224e+04
   3.336812e+05   7.134740e+05
  -7.002242e+04   6.213093e+05
  -3.346725e+05   8.642634e+04
  -3.214038e+05  -2.188218e+05
  -1.278156e+05  -8.602961e+04
  -1.861627e+04   6.744134e+04
  -1.538905e+05  -1.548177e+05
  -3.401883e+05  -5.680115e+05
  -1.848338e+05  -6.623051e+05
   3.952925e+05  -2.768387e+05
   9.297114e+05   2.295613e+05
   8.439409e+05   4.655259e+05
   1.443826e+05   4.170067e+05
  -5.284324e+05   2.877775e+05
  -6.060405e+05   1.581940e+05
  -2.072186e+05  -5.511203e+03
   8.896235e+04  -1.418288e+05
  -8.647798e+03  -1.398820e+05
  -1.911577e+05  -6.165261e+04
  -2.748129e+04  -8.081499e+04
   4.230178e+05  -1.605497e+05
   6.405203e+05  -2.644519e+04
   2.575116e+05   4.029946e+05
  -4.941323e+05   7.404575e+05
  -9.982729e+05   5.130321e+05
  -8.532471e+05  -2.227371e+05
  -2.134419e+05  -8.565173e+05
   4.112329e+05  -8.669260e+05
   6.223029e+05  -3.558603e+05
   4.145731e+05   1.298081e+05
   8.686039e+04   2.141059e+05
  -5.939156e+04   2.945188e+04
   4.260189e+04  -2.912094e+04
   2.098122e+05   2.079638e+05
   1.923899e+05   4.877546e+05
  -8.824326e+04   4.199026e+05
  -4.271841e+05  -6.253581e+04
  -4.775410e+05  -5.696378e+05
  -8.776843e+04  -6.256781e+05
   4.642929e+05  -1.607361e+05
   6.555358e+05   4.204368e+05
   2.428764e+05   6.534579e+05
  -4.137316e+05   4.285357e+05
  -6.793365e+05  -7.369539e+03
  -3.399823e+05  -3.408760e+05
   1.469264e+05  -4.098442e+05
   2.022171e+05  -2.379977e+05
  -1.690091e+05  -4.350864e+03
  -4.014103e+05   4.627164e+04
  -9.598466e+04  -1.793882e+05
   4.808720e+05  -4.510983e+05
   7.383121e+05  -3.944718e+05
   4.582281e+05   6.465582e+04
  -2.684543e+04   5.304043e+05
  -2.901908e+05   5.407523e+05
  -2.366823e+05   1.044997e+05
  -4.184865e+04  -2.983766e+05
   1.323671e+05  -2.668852e+05
   2.215690e+05   9.188939e+04
   1.759366e+05   3.448723e+05
  -1.885697e+04   2.500819e+05
  -2.406805e+05  -1.890595e+04
  -2.983164e+05  -1.429626e+05
  -1.529993e+05  -4.033570e+04
   2.023781e+04   7.844170e+04
   5.402566e+04  -1.199110e+03
   6.278856e+02  -2.247620e+05
   3.779468e+04  -3.208691e+05
   1.947571e+05  -1.182872e+05
   2.746911e+05   2.313570e+05
   9.472219e+04   3.917434e+05
  -2.452144e+05   2.010060e+05
  -4.079506e+05  -1.545622e+05
  -1.702606e+05  -3.473385e+05
   2.924830e+05  -2.423612e+05
   5.354644e+05   1.774832e+04
   3.044361e+05   2.131929e+05
  -1.639899e+05   2.462145e+05
  -3.785487e+05   1.516087e+05
  -1.412787e+05   1.933006e+04
   2.252042e+05  -4.251550e+04
   2.577951e+05   4.015150e+04
  -1.057571e+05   1.941394e+05
  -4.670855e+05   1.933441e+05
