
 $NMID
 id='ANONYMOUS ', fmtdat='(2E16.6)'
 volume=1.0
 tramp=1.0
 $END
  -3.083247e+07   1.981013e+06
  -2.142905e+07  -1.537503e+07
   2.026300e+05  -2.073885e+07
   1.399760e+07  -1.212977e+07
   1.108138e+07   3.908203e+05
   2.189973e+04   5.746517e+06
  -6.255041e+06   1.705365e+06
  -3.851234e+06  -5.288911e+06
   2.176277e+06  -7.565699e+06
   5.767404e+06  -3.047038e+06
   4.748605e+06   3.615345e+06
   7.420709e+05   5.798335e+06
  -2.564739e+06   1.519246e+06
  -2.020185e+06  -4.402414e+06
   1.914516e+06  -5.407555e+06
   5.023724e+06  -2.693479e+05
   3.622741e+06   5.883713e+06
  -1.379398e+06   7.449712e+06
  -5.639086e+06   3.839477e+06
  -6.032472e+06  -1.167972e+06
  -3.240322e+06  -3.943986e+06
  -3.031885e+05  -3.862133e+06
   3.821117e+05  -2.679278e+06
  -9.666229e+05  -2.362558e+06
  -1.711762e+06  -3.307487e+06
   5.616895e+05  -4.000423e+06
   4.857642e+06  -2.645410e+06
   7.017349e+06   5.283184e+05
   4.318897e+06   3.089389e+06
  -8.405192e+05   2.981986e+06
  -3.382084e+06   7.435637e+05
  -1.384742e+06  -1.307341e+06
   2.133121e+06  -1.470337e+06
   3.322943e+06   2.324700e+05
   1.659368e+06   2.494713e+06
  -6.045437e+05   3.478480e+06
  -1.557854e+06   2.016090e+06
  -1.063850e+06  -7.915540e+05
  -6.842346e+04  -1.932282e+06
   2.919612e+05   8.252908e+04
  -5.985403e+05   2.683535e+06
  -1.985635e+06   2.040429e+06
  -1.990210e+06  -1.640952e+06
   2.607811e+05  -3.801787e+06
   2.935603e+06  -1.335941e+06
   3.013778e+06   3.200573e+06
  -2.572671e+05   4.715820e+06
  -4.151690e+06   1.688842e+06
  -5.075984e+06  -2.588180e+06
  -2.086226e+06  -4.239727e+06
   2.273186e+06  -2.544390e+06
   4.334312e+06   4.195965e+05
   2.574090e+06   2.230595e+06
  -1.044677e+06   1.827310e+06
  -2.974487e+06  -3.830717e+04
  -1.660378e+06  -1.428727e+06
   8.924335e+05  -9.783352e+05
   1.545068e+06   5.877931e+05
  -2.346804e+05   1.236233e+06
  -1.870847e+06   1.013408e+05
  -9.932984e+05  -1.497847e+06
   1.667113e+06  -1.731882e+06
   3.234526e+06  -2.161824e+05
   1.932242e+06   1.986125e+06
  -1.280957e+06   3.479766e+06
  -3.960748e+06   3.194571e+06
  -4.393642e+06   8.422173e+05
  -2.709438e+06  -2.411921e+06
  -4.381639e+05  -4.337402e+06
   8.757255e+05  -3.715376e+06
   9.449719e+05  -1.777678e+06
   7.624757e+05  -6.911795e+05
   1.273472e+06  -8.337730e+05
   2.184794e+06  -6.296783e+05
   2.345039e+06   8.663584e+05
   1.158708e+06   2.392243e+06
  -7.020259e+05   2.080189e+06
  -1.911510e+06  -1.038504e+05
  -1.546252e+06  -2.257167e+06
   2.708219e+05  -2.571212e+06
   2.331036e+06  -9.282779e+05
   3.062581e+06   1.316271e+06
   1.875660e+06   2.640533e+06
  -1.159993e+05   2.500547e+06
  -1.221282e+06   1.569697e+06
  -1.140429e+06   9.258895e+05
  -1.213621e+06   8.785293e+05
  -2.397058e+06   6.874839e+05
  -3.635736e+06  -4.386409e+05
  -2.983746e+06  -2.247621e+06
  -1.344516e+05  -3.548025e+06
   2.895028e+06  -3.299068e+06
   3.772819e+06  -1.500704e+06
   2.143509e+06   7.589084e+05
  -2.232688e+05   1.992272e+06
  -1.259504e+06   1.428688e+06
  -4.220926e+05  -1.630481e+05
   1.060013e+06  -1.030774e+06
   1.541052e+06  -2.942794e+05
   6.051679e+05   9.489337e+05
  -5.845736e+05   9.555817e+05
  -6.135355e+05  -3.263488e+05
   6.002119e+05  -1.031372e+06
   1.714684e+06   2.478850e+05
   1.387447e+06   2.534684e+06
  -4.240993e+05   3.483739e+06
  -2.508366e+06   1.990156e+06
  -3.432665e+06  -7.530917e+05
  -2.562728e+06  -2.643579e+06
  -5.097582e+05  -2.622011e+06
   1.230324e+06  -1.291481e+06
   1.456973e+06  -8.147002e+04
   4.354619e+05   4.701675e+04
  -3.171925e+05  -6.515731e+05
   2.613532e+05  -1.079478e+06
   1.477704e+06  -5.066982e+05
   1.706972e+06   6.000496e+05
   4.427740e+05   1.113894e+06
  -9.812898e+05   5.529180e+05
  -9.167634e+05  -4.020061e+05
   6.812842e+05  -6.976069e+05
   2.158864e+06   3.894582e+04
   1.890110e+06   1.258502e+06
  -8.636099e+04   2.008311e+06
  -2.115024e+06   1.626530e+06
  -2.495365e+06   2.723511e+05
  -1.056720e+06  -1.030195e+06
   7.282986e+05  -1.179925e+06
   1.197329e+06  -1.477517e+05
   9.409967e+04   8.411506e+05
  -1.293365e+06   6.054460e+05
  -1.529614e+06  -6.189432e+05
  -4.411570e+05  -1.457481e+06
   8.597024e+05  -1.025720e+06
   1.175988e+06   9.745464e+04
   3.622435e+05   6.410522e+05
  -6.058121e+05   8.150059e+04
  -5.929422e+05  -8.973378e+05
   5.597583e+05  -1.203332e+06
   1.773666e+06  -3.919294e+05
   1.740942e+06   9.687644e+05
   3.187767e+05   1.800243e+06
  -1.220800e+06   1.439041e+06
  -1.506025e+06   2.388271e+05
  -5.081914e+05  -7.404430e+05
   5.519467e+05  -7.480738e+05
   6.410759e+05  -4.470946e+04
  -5.771957e+04   4.778583e+05
  -5.831174e+05   3.175629e+05
  -3.513229e+05  -1.415409e+05
   3.005758e+05  -1.651848e+05
   5.544074e+05   4.347682e+05
  -6.375075e+04   1.034983e+06
  -1.187733e+06   8.179164e+05
  -1.834069e+06  -3.625143e+05
  -1.264137e+06  -1.719002e+06
   2.253211e+05  -2.173777e+06
   1.483051e+06  -1.350462e+06
   1.630939e+06   5.431438e+04
   9.181095e+05   9.419579e+05
   2.935531e+05   8.634502e+05
   2.544859e+05   3.488270e+05
   3.900819e+05   1.989584e+05
   6.154573e+04   5.658527e+05
  -7.400334e+05   8.294077e+05
  -1.339193e+06   3.560750e+05
  -1.045284e+06  -7.078956e+05
   1.798251e+05  -1.450074e+06
   1.573908e+06  -1.032131e+06
   2.052556e+06   4.349839e+05
   1.070744e+06   1.858292e+06
  -7.875554e+05   2.094561e+06
  -2.179070e+06   9.972114e+05
  -2.166134e+06  -4.746016e+05
  -1.035644e+06  -1.219165e+06
   1.090567e+05  -1.022724e+06
   4.944478e+05  -5.882235e+05
   2.947862e+05  -6.159975e+05
   1.948889e+05  -1.007262e+06
   5.568109e+05  -1.038702e+06
   1.076434e+06  -2.437894e+05
   1.138085e+06   9.843317e+05
   4.506413e+05   1.694015e+06
  -5.895967e+05   1.264602e+06
  -1.158310e+06   8.657371e+03
  -7.527703e+05  -1.088912e+06
   2.560072e+05  -1.238228e+06
   9.315556e+05  -4.887554e+05
   7.233879e+05   4.338573e+05
   2.610806e+04   8.637276e+05
  -3.200992e+05   7.338894e+05
  -2.064142e+04   4.463066e+05
   3.441413e+05   3.384520e+05
   2.443892e+04   3.553787e+05
  -9.683082e+05   2.014804e+05
  -1.750214e+06  -2.767385e+05
  -1.428371e+06  -8.827630e+05
  -6.208718e+04  -1.207050e+06
   1.297444e+06  -9.730981e+05
   1.595084e+06  -3.065277e+05
   7.914281e+05   3.149116e+05
  -1.752212e+05   4.448359e+05
  -4.260017e+05   8.497955e+04
   9.624228e+03  -2.876449e+05
   4.398939e+05  -1.940243e+05
   4.074376e+05   3.119040e+05
   1.088727e+05   6.627587e+05
  -1.799440e+04   4.211872e+05
   1.462496e+05  -1.509499e+05
   3.439629e+05  -3.302798e+05
   2.611209e+05   2.048396e+05
  -1.983800e+05   9.036531e+05
  -8.092882e+05   9.136911e+05
  -1.084648e+06   8.207527e+04
  -6.233058e+05  -8.139938e+05
   3.740802e+05  -9.115758e+05
   1.042303e+06  -1.924832e+05
   6.241001e+05   5.520698e+05
  -6.119471e+05   5.920354e+05
  -1.468278e+06  -5.812428e+04
  -1.023150e+06  -7.777621e+05
   3.600248e+05  -9.743648e+05
   1.393149e+06  -5.436856e+05
   1.200262e+06   1.276139e+05
   1.609590e+05   4.926560e+05
  -5.783556e+05   2.806229e+05
  -3.101426e+05  -2.316659e+05
   5.699649e+05  -4.009119e+05
   1.033900e+06   1.645336e+05
   4.841418e+05   1.091171e+06
  -6.564935e+05   1.458684e+06
  -1.384443e+06   6.920000e+05
  -1.101539e+06  -7.390377e+05
  -1.308920e+05  -1.633853e+06
   7.002037e+05  -1.201329e+06
   8.565571e+05   1.187488e+05
   4.301717e+05   1.082250e+06
  -1.429319e+05   9.257127e+05
  -4.885334e+05   1.023147e+05
  -4.683598e+05  -3.715671e+05
  -2.055634e+05  -1.572896e+05
  -2.351187e+04   1.092193e+05
  -1.603864e+05  -2.121556e+05
  -4.090277e+05  -8.548249e+05
  -2.277422e+05  -1.001482e+06
   5.640708e+05  -3.706816e+05
   1.333041e+06   4.513183e+05
   1.211010e+06   7.900475e+05
   1.644477e+05   6.193044e+05
  -8.393989e+05   3.438994e+05
  -9.179921e+05   1.652609e+05
  -2.769318e+05  -8.950435e+03
   1.586667e+05  -1.899763e+05
  -3.175087e+04  -2.333533e+05
  -3.071733e+05  -1.460357e+05
  -1.035733e+04  -1.205766e+05
   6.788931e+05  -1.531595e+05
   9.254768e+05   5.737894e+04
   2.601889e+05   6.004620e+05
  -8.494993e+05   9.782369e+05
  -1.482488e+06   5.888866e+05
  -1.153826e+06  -4.502664e+05
  -1.792844e+05  -1.277072e+06
   6.986590e+05  -1.192478e+06
   9.451413e+05  -4.043381e+05
   5.853842e+05   2.692191e+05
   7.799465e+04   3.179383e+05
  -1.223856e+05   2.667218e+03
   5.747320e+04  -6.742927e+04
   2.982760e+05   3.205766e+05
   2.308212e+05   7.349409e+05
  -1.900783e+05   5.853723e+05
  -6.129873e+05  -1.774318e+05
  -5.865590e+05  -9.121290e+05
   2.569753e+02  -9.061827e+05
   7.123614e+05  -1.278720e+05
   8.753993e+05   7.318109e+05
   2.386126e+05   9.741617e+05
  -6.597210e+05   5.351450e+05
  -9.625797e+05  -1.110859e+05
  -4.279262e+05  -5.092612e+05
   2.603094e+05  -5.376257e+05
   2.904774e+05  -3.134135e+05
  -2.796977e+05  -4.875631e+04
  -5.978291e+05   4.940280e+03
  -1.037547e+05  -2.645259e+05
   7.588577e+05  -5.950829e+05
   1.097316e+06  -5.061462e+05
   6.249247e+05   1.201911e+05
  -1.105366e+05   7.507443e+05
  -4.593441e+05   7.361344e+05
  -3.171520e+05   9.940585e+04
   1.366557e+03  -4.506540e+05
   2.321782e+05  -3.484604e+05
   3.059175e+05   1.963090e+05
   2.029468e+05   5.246552e+05
  -6.516936e+04   3.288635e+05
  -3.424713e+05  -7.403430e+04
  -4.055928e+05  -2.227200e+05
  -2.198407e+05  -5.868096e+04
   6.202360e+03   8.779932e+04
   8.690366e+04  -4.774199e+04
   8.054808e+04  -3.391530e+05
   1.569689e+05  -4.132630e+05
   3.092328e+05  -8.181987e+04
   3.166561e+05   4.047588e+05
   2.445341e+04   5.766349e+05
  -3.974536e+05   2.386526e+05
  -5.445747e+05  -2.988483e+05
  -1.794787e+05  -5.377685e+05
   4.469383e+05  -3.076874e+05
   7.515250e+05   1.113012e+05
   4.018411e+05   3.499910e+05
  -2.670806e+05   3.093782e+05
  -5.551973e+05   1.391119e+05
  -1.810036e+05   8.179536e+03
   3.633654e+05   2.086411e+03
   3.760099e+05   1.325251e+05
  -2.130660e+05   2.836345e+05
  -7.520148e+05   2.064563e+05
