
 $NMID
 id='ANONYMOUS ', fmtdat='(2E16.6)'
 volume=1.0
 tramp=1.0
 $END
  -4.650957e+07  -3.778524e+05
  -2.814333e+07  -2.798411e+07
   5.519613e+06  -3.108258e+07
   2.242512e+07  -1.299492e+07
   1.398762e+07   4.725180e+06
  -2.228253e+06   7.754915e+06
  -8.268692e+06  -2.837997e+05
  -2.950355e+06  -7.959682e+06
   4.701256e+06  -8.419014e+06
   8.065649e+06  -2.207209e+06
   6.014344e+06   5.291711e+06
   6.841794e+05   7.513255e+06
  -3.503656e+06   2.217632e+06
  -2.390624e+06  -5.045557e+06
   3.058867e+06  -6.007672e+06
   6.678194e+06   8.416407e+05
   3.936719e+06   8.551656e+06
  -3.027612e+06   9.996199e+06
  -8.463304e+06   4.919818e+06
  -8.947331e+06  -1.912096e+06
  -5.184881e+06  -6.295738e+06
  -3.125301e+05  -6.861186e+06
   2.136935e+06  -4.629897e+06
   7.974094e+05  -2.360010e+06
  -1.446549e+06  -2.492343e+06
  -1.173288e+04  -4.144691e+06
   5.236439e+06  -3.776233e+06
   8.710699e+06  -6.530623e+04
   5.988090e+06   3.831817e+06
  -2.404676e+05   4.357504e+06
  -3.685447e+06   1.918447e+06
  -2.167455e+06  -5.194336e+05
   1.106568e+06  -1.257883e+06
   2.694607e+06  -3.411428e+05
   2.085000e+06   1.813596e+06
   2.377799e+05   3.821899e+06
  -1.780044e+06   3.159947e+06
  -2.467792e+06  -4.749440e+05
  -1.021598e+06  -3.091852e+06
   7.193038e+05  -1.154123e+06
   5.354973e+04   2.593965e+06
  -2.253519e+06   2.196778e+06
  -2.192907e+06  -2.606485e+06
   1.705856e+06  -5.118960e+06
   5.400062e+06  -9.277150e+05
   4.143284e+06   5.606543e+06
  -1.451493e+06   6.989579e+06
  -6.203582e+06   2.004164e+06
  -6.155108e+06  -3.778877e+06
  -1.880102e+06  -5.296270e+06
   2.992220e+06  -2.595745e+06
   4.833028e+06   1.107271e+06
   2.416672e+06   2.963128e+06
  -1.906291e+06   1.979002e+06
  -3.882933e+06  -6.509858e+05
  -1.768792e+06  -2.230645e+06
   1.422291e+06  -1.181745e+06
   1.640550e+06   8.540640e+05
  -8.840606e+05   9.703426e+05
  -2.130441e+06  -1.074905e+06
   1.178253e+05  -2.601493e+06
   3.499927e+06  -1.678494e+06
   4.413746e+06   8.463625e+05
   2.072771e+06   3.216434e+06
  -1.653813e+06   4.566282e+06
  -4.644409e+06   4.207484e+06
  -5.540203e+06   1.363611e+06
  -3.860703e+06  -2.939005e+06
  -7.051509e+05  -5.490139e+06
   1.500732e+06  -4.309524e+06
   1.391860e+06  -1.379926e+06
   3.104729e+05  -1.417148e+05
   4.433655e+05  -1.024058e+06
   1.874961e+06  -1.430238e+06
   2.717414e+06   1.600155e+05
   1.768224e+06   2.135127e+06
  -2.188145e+05   2.175069e+06
  -1.707900e+06   1.400693e+05
  -1.672421e+06  -2.128366e+06
   8.397819e+04  -2.817649e+06
   2.631577e+06  -1.390383e+06
   3.966295e+06   1.273626e+06
   2.685751e+06   3.387159e+06
  -1.328213e+05   3.581831e+06
  -1.923545e+06   2.239098e+06
  -1.819201e+06   1.007059e+06
  -1.574194e+06   7.348236e+05
  -2.713848e+06   5.592065e+05
  -4.066911e+06  -6.295739e+05
  -3.297481e+06  -2.558576e+06
  -1.472902e+05  -3.909325e+06
   3.078406e+06  -3.700360e+06
   4.040043e+06  -1.921225e+06
   2.499138e+06   5.473639e+05
   1.058914e+05   2.180401e+06
  -1.171368e+06   1.774477e+06
  -5.231705e+05  -8.876885e+04
   1.083242e+06  -1.222456e+06
   1.779583e+06  -3.571442e+05
   8.030633e+05   1.126138e+06
  -5.437415e+05   1.068630e+06
  -4.993035e+05  -3.508396e+05
   8.655110e+05  -8.014576e+05
   1.749096e+06   8.948696e+05
   8.911847e+05   3.076341e+06
  -1.118802e+06   3.369531e+06
  -2.829786e+06   1.423271e+06
  -3.315547e+06  -1.140908e+06
  -2.401440e+06  -2.664249e+06
  -5.080649e+05  -2.601728e+06
   1.228867e+06  -1.416168e+06
   1.541075e+06  -1.859643e+05
   4.721578e+05   4.478249e+04
  -3.465366e+05  -7.165746e+05
   3.631306e+05  -1.245281e+06
   1.756976e+06  -5.459786e+05
   1.910997e+06   7.886121e+05
   3.991457e+05   1.306162e+06
  -1.104296e+06   5.669649e+05
  -9.040918e+05  -4.263354e+05
   7.705869e+05  -5.836251e+05
   2.156980e+06   1.951866e+05
   1.804530e+06   1.290098e+06
  -1.656278e+05   1.974813e+06
  -2.222685e+06   1.657674e+06
  -2.672975e+06   2.849948e+05
  -1.158334e+06  -1.182460e+06
   8.602402e+05  -1.388052e+06
   1.436677e+06  -1.660407e+05
   1.593048e+05   1.005563e+06
  -1.442389e+06   6.941912e+05
  -1.651671e+06  -7.209477e+05
  -3.761262e+05  -1.575811e+06
   1.000784e+06  -9.886096e+05
   1.219285e+06   2.332730e+05
   2.832161e+05   7.263123e+05
  -7.322985e+05   6.215952e+04
  -6.930512e+05  -1.001816e+06
   5.664396e+05  -1.357324e+06
   1.932028e+06  -5.018012e+05
   1.943112e+06   1.017854e+06
   3.667915e+05   1.981793e+06
  -1.361827e+06   1.574164e+06
  -1.647054e+06   2.215031e+05
  -5.029217e+05  -8.217372e+05
   6.200274e+05  -7.850102e+05
   6.390444e+05  -7.199253e+04
  -8.502122e+04   3.994429e+05
  -5.123304e+05   2.593201e+05
  -2.069337e+05  -7.275916e+04
   3.804186e+05  -3.905295e+02
   5.202979e+05   5.812292e+05
  -1.541026e+05   1.126122e+06
  -1.309288e+06   8.714713e+05
  -1.997795e+06  -3.881599e+05
  -1.404057e+06  -1.862442e+06
   2.082478e+05  -2.338098e+06
   1.557245e+06  -1.398371e+06
   1.663156e+06   8.764347e+04
   8.875916e+05   8.960728e+05
   3.290525e+05   7.182149e+05
   4.130659e+05   2.704993e+05
   5.432378e+05   2.820572e+05
   7.737571e+04   6.961461e+05
  -8.218881e+05   8.755053e+05
  -1.401101e+06   3.450397e+05
  -1.052676e+06  -7.016569e+05
   2.087930e+05  -1.450275e+06
   1.658234e+06  -1.067619e+06
   2.181194e+06   4.526573e+05
   1.119336e+06   2.007856e+06
  -9.256593e+05   2.269621e+06
  -2.409180e+06   1.023009e+06
  -2.280948e+06  -5.838061e+05
  -9.869715e+05  -1.281467e+06
   1.583436e+05  -9.651562e+05
   4.120035e+05  -5.460443e+05
   1.496527e+05  -7.216524e+05
   1.382107e+05  -1.212915e+06
   6.336938e+05  -1.203994e+06
   1.221207e+06  -2.940997e+05
   1.276013e+06   1.044322e+06
   5.298951e+05   1.825857e+06
  -6.049391e+05   1.383242e+06
  -1.241280e+06   7.699252e+03
  -7.934714e+05  -1.212083e+06
   3.402714e+05  -1.337457e+06
   1.075060e+06  -4.301721e+05
   7.718768e+05   6.061512e+05
  -7.546400e+04   9.960198e+05
  -4.590898e+05   7.572974e+05
  -5.777094e+04   4.218373e+05
   4.069905e+05   3.356649e+05
   5.118972e+04   3.740279e+05
  -1.084751e+06   2.086454e+05
  -1.956511e+06  -3.087001e+05
  -1.554500e+06  -9.775149e+05
   3.124225e+03  -1.352613e+06
   1.488741e+06  -1.084074e+06
   1.746148e+06  -2.917289e+05
   8.125107e+05   4.290609e+05
  -2.339001e+05   5.252084e+05
  -4.789912e+05   5.054039e+04
  -1.441643e+04  -3.786011e+05
   4.408697e+05  -2.413466e+05
   4.581397e+05   3.301071e+05
   2.120045e+05   7.066127e+05
   6.220785e+04   4.649170e+05
   1.345775e+05  -1.137376e+05
   2.920723e+05  -3.106361e+05
   2.712010e+05   2.192394e+05
  -1.506056e+05   9.611704e+05
  -8.634748e+05   1.020674e+06
  -1.274754e+06   1.468254e+05
  -7.840790e+05  -8.828338e+05
   4.004049e+05  -1.067843e+06
   1.191152e+06  -2.946491e+05
   7.026249e+05   5.614944e+05
  -6.676625e+05   6.305011e+05
  -1.542597e+06  -7.411553e+04
  -1.009245e+06  -8.211571e+05
   4.351637e+05  -9.766026e+05
   1.450046e+06  -5.044975e+05
   1.214446e+06   1.601457e+05
   1.452706e+05   5.018863e+05
  -6.220090e+05   2.737172e+05
  -3.610796e+05  -2.748466e+05
   5.776964e+05  -4.917039e+05
   1.140183e+06   9.718390e+04
   6.254825e+05   1.150823e+06
  -5.959983e+05   1.636072e+06
  -1.446252e+06   8.403628e+05
  -1.213754e+06  -7.402061e+05
  -1.946993e+05  -1.737905e+06
   7.143060e+05  -1.265915e+06
   8.987684e+05   1.538745e+05
   4.343953e+05   1.149302e+06
  -1.905213e+05   9.479288e+05
  -5.370964e+05   9.013540e+04
  -4.660621e+05  -3.671773e+05
  -1.745910e+05  -1.368846e+05
  -4.061924e+04   9.677468e+04
  -2.479348e+05  -2.761463e+05
  -4.856463e+05  -9.303023e+05
  -2.047616e+05  -1.045543e+06
   6.696283e+05  -3.849037e+05
   1.431002e+06   4.483286e+05
   1.256855e+06   8.067255e+05
   1.818094e+05   6.719698e+05
  -8.393001e+05   4.066949e+05
  -9.569807e+05   1.837252e+05
  -3.369232e+05  -4.348841e+04
   1.459064e+05  -2.176579e+05
   1.790815e+04  -2.049788e+05
  -2.736893e+05  -9.814364e+04
  -4.323729e+04  -1.303378e+05
   6.573163e+05  -2.255410e+05
   1.011620e+06   1.362019e+04
   3.978844e+05   6.687568e+05
  -8.269763e+05   1.134351e+06
  -1.634516e+06   7.242169e+05
  -1.349985e+06  -4.240640e+05
  -2.645348e+05  -1.363341e+06
   7.357587e+05  -1.328304e+06
   1.015240e+06  -5.145416e+05
   6.379249e+05   2.302003e+05
   1.248712e+05   3.470157e+05
  -8.013874e+04   5.826755e+04
   7.326455e+04  -2.465517e+04
   2.972747e+05   3.505949e+05
   2.464912e+05   7.810654e+05
  -1.742575e+05   6.558666e+05
  -6.632811e+05  -1.221426e+05
  -7.132765e+05  -9.266916e+05
  -1.039273e+05  -9.986205e+05
   7.356880e+05  -2.340243e+05
   1.002884e+06   7.027316e+05
   3.352562e+05   1.053667e+06
  -6.901438e+05   6.518982e+05
  -1.078700e+06  -7.111702e+04
  -5.105266e+05  -5.849061e+05
   2.757103e+05  -6.488583e+05
   3.582615e+05  -3.544055e+05
  -2.483503e+05  -9.642925e+03
  -6.309602e+05   3.983144e+04
  -1.400949e+05  -2.964221e+05
   7.961807e+05  -6.615479e+05
   1.208881e+06  -5.327533e+05
   7.294765e+05   1.637599e+05
  -9.089165e+04   8.388789e+05
  -5.246233e+05   8.266162e+05
  -4.046436e+05   1.516190e+05
  -5.080474e+04  -4.674178e+05
   2.316613e+05  -4.188352e+05
   3.432074e+05   1.471245e+05
   2.478168e+05   5.581000e+05
  -5.179454e+04   4.083970e+05
  -3.790203e+05  -4.407461e+04
  -4.587098e+05  -2.654194e+05
  -2.343431e+05  -8.828201e+04
   2.987222e+04   1.409183e+05
   7.817112e+04   3.149942e+04
  -5.726753e+03  -3.478110e+05
   5.868644e+04  -5.286908e+05
   3.136630e+05  -2.031991e+05
   4.393808e+05   3.733068e+05
   1.452860e+05   6.293536e+05
  -3.969773e+05   3.046811e+05
  -6.419646e+05  -2.712945e+05
  -2.467806e+05  -5.566478e+05
   4.878186e+05  -3.556119e+05
   8.524050e+05   7.116593e+04
   4.644959e+05   3.634092e+05
  -2.830716e+05   3.853552e+05
  -6.172324e+05   2.194710e+05
  -2.386098e+05   1.740688e+04
   3.413347e+05  -6.565677e+04
   3.986171e+05   6.418719e+04
  -1.645414e+05   2.874251e+05
  -7.252297e+05   2.691220e+05
