
 $NMID
 id='ANONYMOUS ', fmtdat='(2E16.6)'
 volume=1.0
 tramp=1.0
 $END
  -5.423015e+06   8.692431e+04
  -3.566780e+06  -2.538716e+06
   3.504736e+04  -3.402345e+06
   2.265395e+06  -2.216597e+06
   1.861291e+06  -2.110632e+05
   1.092564e+05   9.338868e+05
  -1.029976e+06   4.727581e+05
  -7.955454e+05  -8.158549e+05
   2.065828e+05  -1.426404e+06
   9.613197e+05  -6.581027e+05
   8.910119e+05   6.635078e+05
   1.583940e+05   1.115556e+06
  -5.156209e+05   2.641821e+05
  -4.645737e+05  -8.920127e+05
   2.601617e+05  -1.080952e+06
   8.819140e+05  -1.162667e+05
   6.883903e+05   1.032777e+06
  -2.127653e+05   1.338594e+06
  -1.021251e+06   6.666424e+05
  -1.077647e+06  -2.873229e+05
  -4.830422e+05  -7.727226e+05
   7.875667e+04  -6.355387e+05
   6.461314e+04  -3.237734e+05
  -3.711025e+05  -3.395849e+05
  -5.284650e+05  -6.919461e+05
   6.764132e+04  -9.071100e+05
   1.043184e+06  -5.878550e+05
   1.462416e+06   1.141666e+05
   8.394201e+05   6.492304e+05
  -2.587834e+05   6.269990e+05
  -7.875655e+05   1.448507e+05
  -3.451409e+05  -3.591274e+05
   4.679619e+05  -4.610686e+05
   7.994355e+05  -4.470846e+04
   4.384695e+05   5.667989e+05
  -1.277074e+05   7.995344e+05
  -3.607198e+05   3.771674e+05
  -1.829781e+05  -2.763023e+05
   9.002838e+04  -4.178135e+05
   1.359284e+05   1.187478e+05
  -9.558792e+04   6.456547e+05
  -3.703406e+05   4.539401e+05
  -3.760436e+05  -2.625500e+05
  -1.921319e+04  -6.299217e+05
   4.166499e+05  -1.897645e+05
   4.687778e+05   5.567906e+05
  -4.432764e+04   7.878007e+05
  -7.489325e+05   2.846535e+05
  -9.931278e+05  -4.429553e+05
  -4.794613e+05  -7.771985e+05
   3.878533e+05  -5.397192e+05
   8.548819e+05  -1.564234e+04
   5.529447e+05   3.605569e+05
  -1.457561e+05   3.391583e+05
  -5.371125e+05   2.576014e+04
  -3.170119e+05  -2.297286e+05
   1.554871e+05  -1.776406e+05
   3.178574e+05   8.254468e+04
   3.600363e+04   2.368861e+05
  -2.921043e+05   1.150953e+05
  -2.282656e+05  -1.469412e+05
   2.012697e+05  -2.724958e+05
   5.318884e+05  -9.607902e+04
   3.563043e+05   3.143183e+05
  -2.502424e+05   6.783623e+05
  -8.045399e+05   6.627617e+05
  -8.887510e+05   1.654048e+05
  -5.259758e+05  -5.075991e+05
  -9.062969e+04  -8.673621e+05
   1.079934e+05  -7.288767e+05
   1.005032e+05  -3.884828e+05
   1.273877e+05  -2.323273e+05
   3.142028e+05  -2.637042e+05
   5.334874e+05  -1.665106e+05
   5.574421e+05   1.993082e+05
   2.897539e+05   5.488545e+05
  -1.385002e+05   4.958879e+05
  -4.454613e+05   2.424544e+04
  -3.883880e+05  -4.657404e+05
   2.791563e+04  -5.576843e+05
   4.956661e+05  -2.029268e+05
   6.353453e+05   2.815061e+05
   3.563387e+05   5.371090e+05
  -4.827117e+04   4.694643e+05
  -2.317502e+05   2.685580e+05
  -1.848127e+05   1.670866e+05
  -2.040854e+05   1.981983e+05
  -4.666143e+05   1.895060e+05
  -7.472518e+05  -2.608598e+04
  -6.495311e+05  -4.132022e+05
  -8.641971e+04  -7.353505e+05
   5.588096e+05  -7.383287e+05
   7.875094e+05  -3.660911e+05
   4.725799e+05   1.524319e+05
  -3.464089e+04   4.471096e+05
  -2.691384e+05   3.213498e+05
  -9.501304e+04  -3.917984e+04
   2.169327e+05  -2.339654e+05
   3.153698e+05  -7.677125e+04
   1.263519e+05   1.951051e+05
  -1.162845e+05   2.154839e+05
  -1.464969e+05  -4.626414e+04
   7.032579e+04  -2.308542e+05
   3.228253e+05  -2.632704e+04
   3.472661e+05   4.373199e+05
   4.424572e+04   7.091374e+05
  -4.249155e+05   4.964250e+05
  -7.286161e+05  -4.517343e+04
  -6.196497e+05  -4.897831e+05
  -1.743060e+05  -5.497134e+05
   2.413299e+05  -2.981426e+05
   3.125223e+05  -3.890609e+04
   9.182981e+04   2.952940e+03
  -7.739369e+04  -1.308700e+05
   3.675118e+04  -2.207898e+05
   2.916144e+05  -1.205317e+05
   3.543525e+05   9.309814e+04
   1.091292e+05   2.152644e+05
  -1.926306e+05   1.332850e+05
  -2.074975e+05  -6.212108e+04
   1.135396e+05  -1.681939e+05
   4.517064e+05  -5.573620e+04
   4.391167e+05   2.144762e+05
   3.827352e+04   4.285671e+05
  -4.093657e+05   3.896954e+05
  -5.179865e+05   1.036489e+05
  -2.326452e+05  -1.946220e+05
   1.366590e+05  -2.476025e+05
   2.404886e+05  -3.994068e+04
   2.352253e+04   1.742414e+05
  -2.611750e+05   1.444800e+05
  -3.279164e+05  -9.949208e+04
  -1.240481e+05  -2.903533e+05
   1.493350e+05  -2.322332e+05
   2.425382e+05  -1.151550e+04
   9.159326e+04   1.193394e+05
  -1.199149e+05   2.551243e+04
  -1.367667e+05  -1.786646e+05
   1.005159e+05  -2.624734e+05
   3.687797e+05  -1.095024e+05
   3.805575e+05   1.772287e+05
   9.502878e+04   3.705632e+05
  -2.288637e+05   3.184211e+05
  -3.070873e+05   7.657068e+04
  -1.202179e+05  -1.425619e+05
   1.002150e+05  -1.669071e+05
   1.400193e+05  -2.287122e+04
   7.815395e+03   1.082916e+05
  -1.173904e+05   9.292113e+04
  -9.422682e+04  -1.441095e+04
   4.141310e+04  -4.766261e+04
   1.199741e+05   6.642715e+04
   1.115465e+04   2.097503e+05
  -2.299151e+05   1.916609e+05
  -3.891530e+05  -4.319233e+04
  -2.929365e+05  -3.385817e+05
   9.343135e+03  -4.616611e+05
   2.842834e+05  -3.160040e+05
   3.457147e+05  -2.690860e+04
   2.236213e+05   1.803498e+05
   9.129470e+04   1.894105e+05
   5.821532e+04   8.482154e+04
   7.228599e+04   3.839926e+04
   1.652086e+04   1.113104e+05
  -1.353505e+05   1.857248e+05
  -2.717328e+05   1.054253e+05
  -2.403289e+05  -1.256075e+05
   6.704477e+02  -3.117070e+05
   3.080743e+05  -2.509325e+05
   4.403000e+05   5.119369e+04
   2.605840e+05   3.661778e+05
  -1.219541e+05   4.468337e+05
  -4.301670e+05   2.477827e+05
  -4.603031e+05  -5.128465e+04
  -2.496754e+05  -2.291040e+05
  -8.545749e+03  -2.219442e+05
   9.391845e+04  -1.466212e+05
   6.544092e+04  -1.428189e+05
   3.646882e+04  -2.112893e+05
   1.016814e+05  -2.195521e+05
   2.192014e+05  -6.423916e+04
   2.542987e+05   1.898313e+05
   1.225704e+05   3.496274e+05
  -1.038143e+05   2.765800e+05
  -2.429940e+05   2.375212e+04
  -1.761943e+05  -2.103549e+05
   2.685240e+04  -2.591071e+05
   1.744876e+05  -1.207337e+05
   1.500092e+05   6.769495e+04
   2.360724e+04   1.685667e+05
  -4.351371e+04   1.537604e+05
   1.020748e+04   9.523656e+04
   7.754519e+04   6.857159e+04
   1.068640e+04   7.573316e+04
  -1.950107e+05   5.766034e+04
  -3.654558e+05  -2.942870e+04
  -3.123969e+05  -1.575066e+05
  -3.655747e+04  -2.433828e+05
   2.500402e+05  -2.190706e+05
   3.238788e+05  -9.398699e+04
   1.679706e+05   4.273723e+04
  -2.860172e+04   8.998411e+04
  -8.316684e+04   2.698293e+04
   3.328696e+03  -5.692463e+04
   9.270032e+04  -4.818269e+04
   8.962775e+04   5.951687e+04
   2.882823e+04   1.433651e+05
  -2.420598e+03   9.330003e+04
   2.561437e+04  -3.901458e+04
   6.759434e+04  -8.432210e+04
   5.928186e+04   3.646590e+04
  -2.747991e+04   1.973277e+05
  -1.547522e+05   2.045799e+05
  -2.220286e+05   2.664752e+04
  -1.375959e+05  -1.657994e+05
   6.727437e+04  -1.919865e+05
   2.156427e+05  -4.890056e+04
   1.407514e+05   1.082390e+05
  -1.159943e+05   1.347645e+05
  -3.097102e+05   1.818947e+04
  -2.354945e+05  -1.383437e+05
   4.904053e+04  -2.117418e+05
   2.789822e+05  -1.482709e+05
   2.570944e+05  -2.484061e+03
   4.664365e+04   1.001066e+05
  -1.141112e+05   7.148098e+04
  -6.588917e+04  -4.297934e+04
   1.183498e+05  -9.310637e+04
   2.232108e+05   2.244275e+04
   1.161259e+05   2.281725e+05
  -1.225187e+05   3.203933e+05
  -2.863986e+05   1.666611e+05
  -2.457680e+05  -1.400632e+05
  -5.512937e+04  -3.443636e+05
   1.251084e+05  -2.686882e+05
   1.811663e+05   5.583486e+03
   1.131653e+05   2.175455e+05
  -6.798305e+03   1.973498e+05
  -9.820830e+04   3.133490e+04
  -1.098864e+05  -6.864657e+04
  -5.149646e+04  -2.822710e+04
  -5.735594e+02   2.364569e+04
  -2.920604e+04  -4.327408e+04
  -9.762864e+04  -1.738282e+05
  -7.102354e+04  -2.050178e+05
   1.060575e+05  -8.474028e+04
   2.900450e+05   7.221435e+04
   2.740616e+05   1.427665e+05
   4.518519e+04   1.263521e+05
  -1.760480e+05   8.919746e+04
  -1.914918e+05   5.326035e+04
  -5.309825e+04   2.981908e+03
   3.243612e+04  -4.341080e+04
  -1.753105e+04  -4.773875e+04
  -7.498410e+04  -2.488427e+04
  -2.423150e+03  -2.712415e+04
   1.482433e+05  -4.553696e+04
   1.969997e+05  -8.844092e+02
   5.602171e+04   1.272525e+05
  -1.712153e+05   2.207362e+05
  -3.027716e+05   1.417830e+05
  -2.463430e+05  -8.430798e+04
  -5.697438e+04  -2.693999e+05
   1.280886e+05  -2.604573e+05
   1.956411e+05  -9.697682e+04
   1.310668e+05   4.992248e+04
   1.928605e+04   6.751660e+04
  -3.277888e+04   2.597026e+03
   6.726462e+03  -1.770490e+04
   6.969328e+04   5.952618e+04
   6.286732e+04   1.501872e+05
  -3.278595e+04   1.265104e+05
  -1.361598e+05  -3.067805e+04
  -1.378227e+05  -1.894594e+05
  -7.913826e+03  -1.951630e+05
   1.554040e+05  -3.535428e+04
   1.982253e+05   1.469285e+05
   6.217293e+04   2.043170e+05
  -1.345645e+05   1.202775e+05
  -2.037738e+05  -1.154381e+04
  -9.318961e+04  -9.939095e+04
   4.939048e+04  -1.128854e+05
   5.300518e+04  -6.692160e+04
  -6.578545e+04  -4.530805e+03
  -1.280805e+05   1.061189e+04
  -2.384458e+04  -5.446745e+04
   1.506395e+05  -1.384764e+05
   2.175729e+05  -1.251449e+05
   1.267472e+05   1.508880e+04
  -1.331589e+04   1.589102e+05
  -8.273592e+04   1.581081e+05
  -6.310327e+04   1.934569e+04
  -5.607016e+03  -9.899112e+04
   4.627600e+04  -7.537843e+04
   7.092973e+04   4.075724e+04
   5.058435e+04   1.084267e+05
  -1.246381e+04   6.749052e+04
  -7.472308e+04  -1.233301e+04
  -8.574408e+04  -3.886429e+04
  -4.552007e+04  -6.347747e+03
  -1.752101e+03   1.664004e+04
   1.280385e+04  -1.832259e+04
   1.579714e+04  -7.985867e+04
   3.845118e+04  -9.099210e+04
   7.224349e+04  -1.615488e+04
   7.110644e+04   8.976149e+04
   6.989295e+03   1.275557e+05
  -8.404304e+04   5.604750e+04
  -1.189825e+05  -5.962519e+04
  -4.533277e+04  -1.142788e+05
   8.895397e+04  -7.052591e+04
   1.595812e+05   1.562458e+04
   8.925977e+04   6.887674e+04
  -5.402439e+04   6.638198e+04
  -1.169799e+05   3.320048e+04
  -3.524708e+04   1.446257e+03
   8.415957e+04  -4.943958e+03
   8.685599e+04   2.585568e+04
  -4.265913e+04   6.891929e+04
  -1.625442e+05   5.949880e+04
