
 $NMID
 id='ANONYMOUS ', fmtdat='(2E16.6)'
 volume=1.0
 tramp=1.0
 $END
  -2.244865e+07   3.220975e+06
  -1.723764e+07  -8.684465e+06
  -2.256529e+06  -1.484385e+07
   9.087135e+06  -1.116999e+07
   8.843537e+06  -1.844541e+06
   1.073140e+06   4.371490e+06
  -4.802959e+06   2.623553e+06
  -4.087744e+06  -3.585244e+06
   6.318927e+05  -6.716154e+06
   4.242472e+06  -3.367243e+06
   4.029320e+06   2.581276e+06
   8.994056e+05   4.743328e+06
  -2.041219e+06   1.193945e+06
  -1.990354e+06  -3.857894e+06
   1.053532e+06  -4.910915e+06
   3.948790e+06  -8.771740e+05
   3.419611e+06   4.265663e+06
  -3.865978e+05   5.918401e+06
  -4.020218e+06   3.261803e+06
  -4.499652e+06  -7.102303e+05
  -2.268065e+06  -2.759350e+06
  -2.051285e+05  -2.396614e+06
  -3.273233e+05  -1.549116e+06
  -1.824929e+06  -1.960412e+06
  -2.078091e+06  -3.327409e+06
   5.032637e+05  -3.861039e+06
   4.422435e+06  -2.352798e+06
   6.095804e+06   4.659070e+05
   3.540909e+06   2.548848e+06
  -1.031589e+06   2.407835e+06
  -3.208519e+06   4.093566e+05
  -1.183432e+06  -1.583619e+06
   2.337688e+06  -1.761488e+06
   3.506401e+06   1.554522e+05
   1.640019e+06   2.581291e+06
  -7.354947e+05   3.286243e+06
  -1.376663e+06   1.506299e+06
  -5.034147e+05  -9.836768e+05
   3.426872e+05  -1.466032e+06
   2.510204e+05   6.217154e+05
  -6.426281e+05   2.711291e+06
  -1.648680e+06   1.985949e+06
  -1.805547e+06  -1.051168e+06
  -4.597861e+05  -2.933249e+06
   1.637200e+06  -1.365632e+06
   2.356730e+06   1.975948e+06
   3.263187e+05   3.440063e+06
  -3.022673e+06   1.540314e+06
  -4.439445e+06  -1.737649e+06
  -2.249818e+06  -3.429212e+06
   1.701796e+06  -2.473924e+06
   3.872143e+06  -1.242247e+05
   2.570255e+06   1.624914e+06
  -5.513269e+05   1.642345e+06
  -2.392630e+06   3.042452e+05
  -1.525644e+06  -9.360407e+05
   6.015642e+05  -8.462660e+05
   1.437801e+06   3.620462e+05
   1.479360e+05   1.231136e+06
  -1.535596e+06   6.745767e+05
  -1.376254e+06  -7.842598e+05
   7.046898e+05  -1.582076e+06
   2.448655e+06  -7.373939e+05
   1.777258e+06   1.257413e+06
  -9.349896e+05   2.900635e+06
  -3.363107e+06   2.815169e+06
  -3.697480e+06   7.639852e+05
  -2.205314e+06  -2.013942e+06
  -4.720657e+05  -3.643239e+06
   3.864002e+05  -3.267955e+06
   5.374606e+05  -1.857785e+06
   7.861201e+05  -9.848973e+05
   1.509139e+06  -9.068887e+05
   2.259096e+06  -4.681335e+05
   2.228789e+06   9.937840e+05
   1.048465e+06   2.380847e+06
  -7.433809e+05   2.050975e+06
  -1.948963e+06  -4.859935e+04
  -1.592539e+06  -2.118647e+06
   1.907700e+05  -2.389354e+06
   2.087108e+06  -8.168726e+05
   2.634622e+06   1.162199e+06
   1.542919e+06   2.160834e+06
  -5.253617e+04   1.930175e+06
  -8.304920e+05   1.216442e+06
  -7.389551e+05   8.489575e+05
  -9.223967e+05   9.423497e+05
  -2.086629e+06   8.456717e+05
  -3.291296e+06  -1.244783e+05
  -2.833208e+06  -1.832033e+06
  -3.332698e+05  -3.221307e+06
   2.490794e+06  -3.160905e+06
   3.422917e+06  -1.488286e+06
   1.971339e+06   7.064664e+05
  -2.338679e+05   1.875759e+06
  -1.181683e+06   1.310129e+06
  -3.820830e+05  -1.773676e+05
   9.560169e+05  -9.766514e+05
   1.362443e+06  -3.286738e+05
   5.372455e+05   8.174227e+05
  -5.317368e+05   9.077812e+05
  -6.593150e+05  -2.530163e+05
   3.678616e+05  -1.098029e+06
   1.572473e+06  -1.527833e+05
   1.648182e+06   2.034829e+06
   1.411581e+05   3.316862e+06
  -2.050312e+06   2.272220e+06
  -3.321601e+06  -2.991586e+05
  -2.686835e+06  -2.308725e+06
  -6.729632e+05  -2.468289e+06
   1.092986e+06  -1.262546e+06
   1.356216e+06  -1.235898e+05
   4.007374e+05   2.060777e+04
  -3.297775e+05  -5.779281e+05
   1.516507e+05  -9.710335e+05
   1.266037e+06  -5.385455e+05
   1.565892e+06   4.037136e+05
   4.926579e+05   9.547496e+05
  -8.567403e+05   5.798401e+05
  -9.135935e+05  -3.121561e+05
   5.474765e+05  -7.599750e+05
   2.046394e+06  -1.877143e+05
   1.926136e+06   1.041827e+06
   9.776653e+04   1.927056e+06
  -1.859706e+06   1.674527e+06
  -2.285251e+06   4.070839e+05
  -1.016294e+06  -8.586319e+05
   5.842061e+05  -1.073356e+06
   1.034926e+06  -1.855045e+05
   1.007172e+05   7.386094e+05
  -1.142148e+06   6.147058e+05
  -1.440476e+06  -4.570720e+05
  -5.333190e+05  -1.305113e+06
   6.905687e+05  -1.037479e+06
   1.098949e+06  -3.607544e+04
   4.126678e+05   5.496550e+05
  -5.237209e+05   1.207490e+05
  -5.837850e+05  -7.808850e+05
   4.574671e+05  -1.126752e+06
   1.608321e+06  -4.409213e+05
   1.639025e+06   8.003923e+05
   3.901900e+05   1.622971e+06
  -1.019885e+06   1.383537e+06
  -1.357394e+06   3.197276e+05
  -5.254668e+05  -6.413430e+05
   4.554852e+05  -7.305310e+05
   6.170905e+05  -7.215298e+04
   4.009650e+02   4.971998e+05
  -5.594256e+05   3.822388e+05
  -4.185496e+05  -1.224300e+05
   2.188562e+05  -2.439567e+05
   5.579760e+05   3.037738e+05
   4.525444e+04   9.400832e+05
  -1.024457e+06   8.295258e+05
  -1.700971e+06  -2.194200e+05
  -1.252402e+06  -1.501021e+06
   8.695533e+04  -2.017767e+06
   1.292980e+06  -1.360421e+06
   1.538733e+06  -7.132137e+04
   9.534378e+05   8.493015e+05
   3.355147e+05   8.651599e+05
   2.058075e+05   3.607965e+05
   3.126758e+05   1.382535e+05
   8.139470e+04   4.762940e+05
  -6.108664e+05   8.125632e+05
  -1.217481e+06   4.358973e+05
  -1.041852e+06  -5.974544e+05
   5.285460e+04  -1.388003e+06
   1.390012e+06  -1.072840e+06
   1.929120e+06   2.724116e+05
   1.117197e+06   1.637153e+06
  -5.614640e+05   1.965597e+06
  -1.912555e+06   1.070075e+06
  -2.038538e+06  -2.673250e+05
  -1.085809e+06  -1.060252e+06
   6.992306e+03  -1.002537e+06
   4.612398e+05  -6.203371e+05
   3.098063e+05  -5.754602e+05
   1.597298e+05  -8.902187e+05
   4.416705e+05  -9.502518e+05
   9.519887e+05  -2.720088e+05
   1.088673e+06   8.464647e+05
   5.010225e+05   1.534922e+06
  -4.794709e+05   1.194676e+06
  -1.069525e+06   8.122818e+04
  -7.655623e+05  -9.373795e+05
   1.311671e+05  -1.148551e+06
   7.882214e+05  -5.434083e+05
   6.844854e+05   2.932249e+05
   1.174282e+05   7.562050e+05
  -1.966926e+05   7.009658e+05
   2.803864e+04   4.345340e+05
   3.233747e+05   3.034163e+05
   3.531267e+04   3.291825e+05
  -8.574222e+05   2.467619e+05
  -1.594633e+06  -1.438606e+05
  -1.361038e+06  -7.118345e+05
  -1.596991e+05  -1.080078e+06
   1.096577e+06  -9.548163e+05
   1.434227e+06  -3.951787e+05
   7.586079e+05   1.993165e+05
  -1.170341e+05   3.964312e+05
  -3.739520e+05   1.212407e+05
   6.989763e+03  -2.348982e+05
   4.077871e+05  -1.920584e+05
   3.844052e+05   2.651368e+05
   1.000719e+05   6.113525e+05
  -2.706695e+04   3.893562e+05
   1.298999e+05  -1.706816e+05
   3.251484e+05  -3.527055e+05
   2.587318e+05   1.682073e+05
  -1.489574e+05   8.519442e+05
  -6.907334e+05   8.779905e+05
  -9.502396e+05   1.133724e+05
  -5.758799e+05  -7.140013e+05
   2.933210e+05  -8.248924e+05
   9.221598e+05  -1.996045e+05
   5.968948e+05   4.848444e+05
  -5.211923e+05   5.842595e+05
  -1.368584e+06   4.577131e+04
  -1.030266e+06  -6.507254e+05
   2.436232e+05  -9.455058e+05
   1.262329e+06  -6.258854e+05
   1.144153e+06   2.625280e+04
   1.931757e+05   4.535628e+05
  -5.136215e+05   3.070396e+05
  -2.872786e+05  -1.852105e+05
   5.192230e+05  -3.820737e+05
   9.562104e+05   1.229889e+05
   4.702523e+05   9.915682e+05
  -5.659058e+05   1.361790e+06
  -1.256004e+06   6.837350e+05
  -1.050191e+06  -6.372997e+05
  -1.999036e+05  -1.506905e+06
   5.841198e+05  -1.163040e+06
   8.036545e+05   4.233576e+04
   4.776595e+05   9.734909e+05
  -5.364725e+04   8.802696e+05
  -4.370714e+05   1.338388e+05
  -4.738582e+05  -3.240962e+05
  -2.222409e+05  -1.433170e+05
  -7.190563e+03   1.098057e+05
  -1.251239e+05  -1.694384e+05
  -4.092739e+05  -7.600550e+05
  -2.914538e+05  -9.192974e+05
   4.679412e+05  -3.782967e+05
   1.258647e+06   3.483970e+05
   1.186573e+06   6.670574e+05
   1.878002e+05   5.568831e+05
  -7.807807e+05   3.568106e+05
  -8.480083e+05   2.090730e+05
  -2.358851e+05   2.156681e+04
   1.464126e+05  -1.802449e+05
  -6.934322e+04  -2.288030e+05
  -3.212237e+05  -1.365764e+05
  -4.064917e+03  -1.122255e+05
   6.508642e+05  -1.623080e+05
   8.519602e+05   1.657298e+04
   2.241550e+05   5.341688e+05
  -7.642449e+05   9.233022e+05
  -1.316083e+06   5.923039e+05
  -1.046053e+06  -3.755221e+05
  -2.143467e+05  -1.172943e+06
   5.774726e+05  -1.122457e+06
   8.499915e+05  -3.974519e+05
   5.565512e+05   2.369791e+05
   7.427649e+04   2.884148e+05
  -1.385287e+05  -1.034257e+04
   4.038564e+04  -8.597249e+04
   3.049684e+05   2.721661e+05
   2.604432e+05   6.666053e+05
  -1.534961e+05   5.420573e+05
  -5.789583e+05  -1.551712e+05
  -5.648404e+05  -8.326618e+05
  -8.924166e+03  -8.307592e+05
   6.675811e+05  -1.217466e+05
   8.299514e+05   6.599281e+05
   2.456864e+05   8.840066e+05
  -5.868784e+05   5.016268e+05
  -8.770077e+05  -6.554627e+04
  -4.019338e+05  -4.286474e+05
   2.117869e+05  -4.809932e+05
   2.289616e+05  -2.969298e+05
  -2.855977e+05  -4.299364e+04
  -5.570834e+05   2.794555e+04
  -9.879842e+04  -2.332912e+05
   6.714207e+05  -5.870296e+05
   9.651039e+05  -5.377463e+05
   5.552372e+05   6.019157e+04
  -6.928158e+04   6.859071e+05
  -3.655030e+05   6.889230e+05
  -2.604315e+05   8.773546e+04
  -5.091099e+03  -4.255556e+05
   2.023521e+05  -3.169903e+05
   2.915163e+05   1.903962e+05
   2.071020e+05   4.746681e+05
  -5.086815e+04   2.839033e+05
  -3.174935e+05  -6.308468e+04
  -3.757298e+05  -1.698498e+05
  -2.051703e+05  -2.909606e+04
  -1.811778e+03   6.163279e+04
   7.842510e+04  -8.665767e+04
   9.237104e+04  -3.305987e+05
   1.723953e+05  -3.602388e+05
   2.951417e+05  -4.516927e+04
   2.772640e+05   3.862700e+05
   5.806675e+03   5.326407e+05
  -3.671488e+05   2.254172e+05
  -4.983969e+05  -2.663106e+05
  -1.768759e+05  -4.965252e+05
   3.903587e+05  -3.000126e+05
   6.824667e+05   7.934579e+04
   3.784822e+05   3.047974e+05
  -2.318284e+05   2.786965e+05
  -4.980993e+05   1.306228e+05
  -1.471343e+05   1.199275e+04
   3.610335e+05   5.894792e+03
   3.620233e+05   1.328045e+05
  -2.058419e+05   2.864264e+05
  -7.191259e+05   2.216558e+05
