
 $NMID
 id='ANONYMOUS ', fmtdat='(2E16.6)'
 volume=1.0
 tramp=1.0
 $END
  -5.408592e+07   2.829649e+06
  -3.428527e+07  -3.218039e+07
   5.472965e+06  -3.719949e+07
   2.603951e+07  -1.516321e+07
   1.618936e+07   6.331491e+06
  -2.898370e+06   9.175069e+06
  -9.550770e+06  -9.497326e+05
  -2.947681e+06  -9.373248e+06
   5.730608e+06  -9.103795e+06
   9.217974e+06  -2.195527e+06
   6.922584e+06   5.597865e+06
   1.144800e+06   8.097685e+06
  -3.631352e+06   2.819685e+06
  -2.653608e+06  -4.953058e+06
   3.395174e+06  -6.289886e+06
   7.607406e+06   1.010913e+06
   4.661363e+06   9.586677e+06
  -3.125678e+06   1.144977e+07
  -9.389802e+06   6.137100e+06
  -1.045171e+07  -1.377370e+06
  -6.807261e+06  -6.798657e+06
  -1.209626e+06  -8.335994e+06
   2.541790e+06  -6.115618e+06
   1.905003e+06  -2.732399e+06
  -9.075265e+05  -1.858313e+06
  -4.261130e+05  -3.751816e+06
   4.746551e+06  -4.346260e+06
   8.984582e+06  -9.709375e+05
   6.867597e+06   3.508764e+06
   6.124421e+05   4.741634e+06
  -3.227365e+06   2.644986e+06
  -2.273194e+06   2.892998e+05
   4.055564e+05  -7.057513e+05
   1.904304e+06  -5.041497e+05
   2.017602e+06   1.103416e+06
   8.950923e+05   3.521504e+06
  -1.446686e+06   3.763524e+06
  -3.125941e+06   2.074112e+05
  -1.935471e+06  -3.332349e+06
   5.710856e+05  -2.014002e+06
   4.521248e+05   2.141220e+06
  -2.219274e+06   2.217405e+06
  -2.460290e+06  -2.981762e+06
   2.131255e+06  -6.035177e+06
   6.743111e+06  -1.331286e+06
   5.298018e+06   6.429554e+06
  -1.452244e+06   8.320376e+06
  -6.998024e+06   2.675196e+06
  -6.758966e+06  -3.959649e+06
  -1.919834e+06  -5.660141e+06
   3.220923e+06  -2.653591e+06
   5.005231e+06   1.322928e+06
   2.366013e+06   3.266769e+06
  -2.266050e+06   2.192965e+06
  -4.369664e+06  -7.202201e+05
  -1.961692e+06  -2.547371e+06
   1.590766e+06  -1.386020e+06
   1.662311e+06   9.287062e+05
  -1.316078e+06   9.138862e+05
  -2.492647e+06  -1.685237e+06
   5.051503e+05  -3.459820e+06
   4.461473e+06  -2.066979e+06
   5.186816e+06   1.127280e+06
   2.384449e+06   3.748508e+06
  -1.454964e+06   5.063141e+06
  -4.454322e+06   4.774465e+06
  -5.733734e+06   1.952002e+06
  -4.495832e+06  -2.723004e+06
  -1.182455e+06  -5.764514e+06
   1.616537e+06  -4.576853e+06
   1.705586e+06  -1.161677e+06
   1.661444e+05   3.603296e+05
  -1.850388e+05  -8.180576e+05
   1.288485e+06  -1.747434e+06
   2.539598e+06  -4.264927e+05
   1.957379e+06   1.615648e+06
   1.508801e+05   1.922521e+06
  -1.363377e+06   2.310389e+05
  -1.588971e+06  -1.838440e+06
  -1.244659e+05  -2.708839e+06
   2.489156e+06  -1.683853e+06
   4.254933e+06   8.751780e+05
   3.250446e+06   3.384532e+06
   1.943041e+05   4.038904e+06
  -2.046002e+06   2.731281e+06
  -2.114141e+06   1.193023e+06
  -1.742885e+06   6.927827e+05
  -2.761137e+06   5.232047e+05
  -4.106727e+06  -5.857421e+05
  -3.351822e+06  -2.482932e+06
  -2.501456e+05  -3.851216e+06
   2.852864e+06  -3.740313e+06
   3.788344e+06  -2.134904e+06
   2.480984e+06   2.555862e+05
   3.730056e+05   2.038394e+06
  -9.152880e+05   1.845447e+06
  -5.245667e+05   4.097258e+03
   9.553074e+05  -1.260363e+06
   1.777770e+06  -4.467060e+05
   9.277389e+05   1.092962e+06
  -4.325445e+05   1.048769e+06
  -3.860487e+05  -3.704827e+05
   1.043670e+06  -6.616614e+05
   1.828838e+06   1.250671e+06
   6.553287e+05   3.355053e+06
  -1.529430e+06   3.249768e+06
  -3.002938e+06   1.036387e+06
  -3.110421e+06  -1.349535e+06
  -2.123232e+06  -2.528549e+06
  -4.614808e+05  -2.394867e+06
   1.100368e+06  -1.393589e+06
   1.450809e+06  -2.689230e+05
   4.617836e+05   2.757501e+04
  -3.573726e+05  -6.948008e+05
   3.531486e+05  -1.287695e+06
   1.793650e+06  -6.131327e+05
   1.954255e+06   7.885825e+05
   3.985138e+05   1.340267e+06
  -1.091495e+06   5.649401e+05
  -8.263736e+05  -4.126868e+05
   8.105218e+05  -4.834420e+05
   2.039137e+06   2.926039e+05
   1.617307e+06   1.242957e+06
  -2.190940e+05   1.826165e+06
  -2.118206e+06   1.583559e+06
  -2.585491e+06   3.259849e+05
  -1.185593e+06  -1.160942e+06
   8.170591e+05  -1.460023e+06
   1.478868e+06  -2.403271e+05
   2.403262e+05   1.014807e+06
  -1.402725e+06   7.433117e+05
  -1.636188e+06  -6.959544e+05
  -3.411034e+05  -1.551487e+06
   1.025640e+06  -9.299966e+05
   1.191961e+06   2.901800e+05
   2.336365e+05   7.451459e+05
  -7.626993e+05   7.572584e+04
  -7.309762e+05  -9.678018e+05
   4.882471e+05  -1.355487e+06
   1.860195e+06  -5.785411e+05
   1.943875e+06   9.162189e+05
   4.242064e+05   1.938259e+06
  -1.311455e+06   1.587440e+06
  -1.620704e+06   2.387986e+05
  -4.872570e+05  -8.100929e+05
   6.032249e+05  -7.675873e+05
   5.761757e+05  -8.586530e+04
  -1.235845e+05   3.195390e+05
  -4.434208e+05   1.738562e+05
  -7.029103e+04  -6.676843e+04
   4.587723e+05   8.855244e+04
   5.026127e+05   6.505116e+05
  -1.795539e+05   1.131888e+06
  -1.280032e+06   8.761382e+05
  -1.964925e+06  -3.312168e+05
  -1.432751e+06  -1.779128e+06
   1.329115e+05  -2.267681e+06
   1.474666e+06  -1.347820e+06
   1.570221e+06   9.259654e+04
   7.901440e+05   8.062357e+05
   2.887738e+05   5.570792e+05
   4.671135e+05   1.529949e+05
   6.299060e+05   2.750338e+05
   1.189234e+05   7.308215e+05
  -8.059511e+05   8.667484e+05
  -1.346061e+06   3.271529e+05
  -9.785389e+05  -6.481368e+05
   2.159366e+05  -1.352930e+06
   1.584285e+06  -1.033987e+06
   2.109315e+06   3.961938e+05
   1.108706e+06   1.943381e+06
  -8.995497e+05   2.254150e+06
  -2.374081e+06   1.028481e+06
  -2.216633e+06  -5.792159e+05
  -8.976990e+05  -1.239256e+06
   1.959049e+05  -8.671029e+05
   3.375750e+05  -4.527566e+05
   9.915709e+03  -6.968775e+05
   2.957270e+04  -1.243984e+06
   5.893666e+05  -1.246903e+06
   1.211787e+06  -3.475920e+05
   1.289625e+06   9.658645e+05
   5.811227e+05   1.753214e+06
  -5.347162e+05   1.362344e+06
  -1.202194e+06   3.014157e+04
  -7.951680e+05  -1.191459e+06
   3.430299e+05  -1.326766e+06
   1.106833e+06  -3.982270e+05
   7.947346e+05   6.636707e+05
  -1.015022e+05   1.038881e+06
  -5.120536e+05   7.541391e+05
  -8.458106e+04   3.831945e+05
   4.194543e+05   2.916855e+05
   7.085175e+04   3.524903e+05
  -1.081262e+06   2.306720e+05
  -1.958829e+06  -2.501022e+05
  -1.548702e+06  -9.325243e+05
   7.272149e+03  -1.366009e+06
   1.474439e+06  -1.130317e+06
   1.719213e+06  -3.029317e+05
   7.963002e+05   4.672647e+05
  -2.337974e+05   5.568448e+05
  -4.888448e+05   3.811720e+04
  -5.574733e+04  -4.071491e+05
   3.953619e+05  -2.581073e+05
   4.647926e+05   3.029084e+05
   2.801979e+05   6.554123e+05
   1.253410e+05   4.375431e+05
   1.275723e+05  -7.698983e+04
   2.408073e+05  -2.582586e+05
   2.613911e+05   2.125584e+05
  -9.215169e+04   9.163546e+05
  -8.072096e+05   1.030704e+06
  -1.290990e+06   2.307804e+05
  -8.536365e+05  -8.193016e+05
   3.451223e+05  -1.101244e+06
   1.175152e+06  -3.840390e+05
   7.068132e+05   5.032713e+05
  -6.439750e+05   6.255925e+05
  -1.481608e+06  -5.699498e+04
  -9.364403e+05  -7.918356e+05
   4.522170e+05  -9.259294e+05
   1.389612e+06  -4.565293e+05
   1.140945e+06   1.655609e+05
   1.264235e+05   4.740941e+05
  -6.055527e+05   2.602398e+05
  -3.795725e+05  -2.690488e+05
   5.139598e+05  -5.183336e+05
   1.107422e+06   1.393149e+04
   6.920238e+05   1.064844e+06
  -4.586903e+05   1.617630e+06
  -1.337238e+06   8.974463e+05
  -1.200277e+06  -6.523448e+05
  -2.546429e+05  -1.659887e+06
   6.505911e+05  -1.218904e+06
   8.691005e+05   1.540591e+05
   4.231988e+05   1.106295e+06
  -2.022630e+05   9.033065e+05
  -5.327254e+05   8.766262e+04
  -4.275415e+05  -3.364823e+05
  -1.339687e+05  -1.202973e+05
  -5.211306e+04   8.552423e+04
  -3.065426e+05  -2.752577e+05
  -5.227151e+05  -8.895432e+05
  -1.867655e+05  -1.001305e+06
   6.865543e+05  -3.944694e+05
   1.389026e+06   3.834332e+05
   1.198213e+06   7.425768e+05
   1.948689e+05   6.525157e+05
  -7.579890e+05   4.203843e+05
  -9.057258e+05   1.941277e+05
  -3.620902e+05  -4.756278e+04
   1.177289e+05  -2.170292e+05
   5.774205e+04  -1.835517e+05
  -2.165837e+05  -6.686905e+04
  -6.455898e+04  -1.184042e+05
   5.728329e+05  -2.528792e+05
   9.816853e+05  -4.164462e+04
   4.814448e+05   6.272810e+05
  -7.046331e+05   1.150312e+06
  -1.577111e+06   8.052627e+05
  -1.375955e+06  -3.192183e+05
  -3.281074e+05  -1.295755e+06
   6.675220e+05  -1.331434e+06
   9.562380e+05  -5.707721e+05
   6.148906e+05   1.714044e+05
   1.552228e+05   3.278409e+05
  -3.007051e+04   8.066218e+04
   9.011589e+04   2.460754e+03
   2.820633e+05   3.445577e+05
   2.512918e+05   7.482756e+05
  -1.302221e+05   6.495963e+05
  -6.319402e+05  -6.053976e+04
  -7.508925e+05  -8.305175e+05
  -1.942078e+05  -9.576192e+05
   6.665042e+05  -2.967971e+05
   1.007469e+06   5.931859e+05
   3.991777e+05   1.001758e+06
  -6.264248e+05   6.918262e+05
  -1.065870e+06  -5.849797e+03
  -5.491191e+05  -5.699100e+05
   2.351620e+05  -6.802333e+05
   3.662206e+05  -3.735378e+05
  -1.977139e+05   1.041585e+04
  -5.965241e+05   7.044916e+04
  -1.634755e+05  -2.860929e+05
   7.422769e+05  -6.679635e+05
   1.185449e+06  -5.419079e+05
   7.577999e+05   1.522382e+05
  -4.543365e+04   8.304122e+05
  -5.042188e+05   8.441405e+05
  -4.201758e+05   2.000265e+05
  -8.819362e+04  -4.294059e+05
   1.943757e+05  -4.357359e+05
   3.299860e+05   9.148210e+04
   2.695909e+05   5.262637e+05
  -1.680612e+04   4.286441e+05
  -3.672682e+05  -9.630244e+03
  -4.720514e+05  -2.596451e+05
  -2.345711e+05  -9.771801e+04
   5.819003e+04   1.604140e+05
   8.732104e+04   8.602732e+04
  -6.773326e+04  -3.040969e+05
  -4.536391e+04  -5.418718e+05
   2.600196e+05  -2.732926e+05
   4.828111e+05   2.895696e+05
   2.326835e+05   5.852769e+05
  -3.483389e+05   3.274823e+05
  -6.532698e+05  -2.047508e+05
  -2.801207e+05  -5.089529e+05
   4.656048e+05  -3.730722e+05
   8.462674e+05   9.969775e+03
   4.762937e+05   3.274525e+05
  -2.514966e+05   4.129731e+05
  -5.909269e+05   2.758042e+05
  -2.577817e+05   3.843143e+04
   2.814760e+05  -1.020477e+05
   3.654382e+05   5.179330e+03
  -1.168132e+05   2.551541e+05
  -6.339071e+05   2.857935e+05
