
 $NMID
 id='ANONYMOUS ', fmtdat='(2E16.6)'
 volume=1.0
 tramp=1.0
 $END
  -1.777816e+07  -1.746737e+06
  -9.234477e+06  -1.253332e+07
   4.040959e+06  -1.183435e+07
   9.220943e+06  -3.137279e+06
   4.575458e+06   3.256829e+06
  -1.613997e+06   2.712932e+06
  -2.856686e+06  -1.071278e+06
  -1.840273e+05  -3.119589e+06
   2.373556e+06  -2.294836e+06
   2.964871e+06  -2.540639e+04
   1.890314e+06   2.064416e+06
   2.141479e+04   2.520340e+06
  -1.250613e+06   7.832815e+05
  -6.175327e+05  -1.483966e+06
   1.339682e+06  -1.614112e+06
   2.297464e+06   7.970171e+05
   9.301289e+05   3.254887e+06
  -1.600162e+06   3.434548e+06
  -3.310292e+06   1.510487e+06
  -3.353578e+06  -8.966311e+05
  -1.993901e+06  -2.567201e+06
  -1.384045e+04  -2.931570e+06
   1.319212e+06  -1.954010e+06
   1.031651e+06  -5.981749e+05
  -1.157898e+05  -2.651302e+05
  -1.534017e+05  -9.971221e+05
   1.428086e+06  -1.250742e+06
   2.738051e+06  -1.239484e+05
   2.058048e+06   1.294627e+06
   1.654622e+05   1.583695e+06
  -9.771853e+05   8.876662e+05
  -8.021172e+05   2.121226e+05
  -1.637810e+05  -1.268090e+05
   3.309953e+05  -2.412421e+05
   6.060012e+05   1.587513e+05
   3.498815e+05   1.020515e+06
  -5.509157e+05   1.210479e+06
  -1.178195e+06   2.493348e+04
  -6.295153e+05  -1.218722e+06
   3.384139e+05  -8.137184e+05
   2.320453e+05   5.354457e+05
  -6.928386e+05   5.288411e+05
  -5.697327e+05  -1.077161e+06
   1.115248e+06  -1.773541e+06
   2.378160e+06   1.498322e+04
   1.400094e+06   2.423911e+06
  -9.636940e+05   2.625144e+06
  -2.382190e+06   5.159295e+05
  -1.843354e+06  -1.520085e+06
  -2.446803e+05  -1.748132e+06
   1.071548e+06  -5.740353e+05
   1.334046e+06   6.632068e+05
   4.476881e+05   1.076298e+06
  -8.567701e+05   5.117752e+05
  -1.304044e+06  -4.803439e+05
  -4.376992e+05  -9.072531e+05
   5.788175e+05  -3.477138e+05
   4.113339e+05   3.495028e+05
  -5.203217e+05   1.067516e+05
  -6.215979e+05  -8.104686e+05
   5.422823e+05  -1.123162e+06
   1.664843e+06  -3.399878e+05
   1.562907e+06   7.368208e+05
   5.050301e+05   1.339136e+06
  -6.298053e+05   1.512303e+06
  -1.454774e+06   1.329657e+06
  -1.809475e+06   4.453393e+05
  -1.349182e+06  -9.723308e+05
  -1.856076e+05  -1.791969e+06
   7.112401e+05  -1.249699e+06
   5.734513e+05  -1.296677e+05
  -9.746246e+04   2.331978e+05
  -2.417617e+05  -2.751527e+05
   3.012254e+05  -6.204191e+05
   7.585197e+05  -2.194396e+05
   6.141349e+05   3.982803e+05
   1.159273e+05   5.186493e+05
  -2.944009e+05   9.191461e+04
  -3.829572e+05  -4.681512e+05
  -3.590658e+03  -7.497647e+05
   7.578921e+05  -4.716776e+05
   1.284630e+06   3.428023e+05
   9.233774e+05   1.155278e+06
  -9.016363e+04   1.308418e+06
  -7.925183e+05   7.933666e+05
  -7.489726e+05   2.473718e+05
  -5.504575e+05   7.753181e+04
  -7.871971e+05   1.119241e+04
  -1.121724e+06  -3.228849e+05
  -8.462394e+05  -8.049828e+05
   4.907490e+04  -1.066179e+06
   8.748030e+05  -9.582994e+05
   1.086313e+06  -5.362729e+05
   7.129806e+05   8.106112e+04
   1.227676e+05   5.760370e+05
  -2.613666e+05   5.323674e+05
  -1.597556e+05   7.093758e+03
   2.817555e+05  -3.390487e+05
   5.203670e+05  -7.633738e+04
   2.524132e+05   3.488267e+05
  -1.251232e+05   2.820006e+05
  -5.300499e+04  -1.049600e+05
   3.444142e+05  -6.647863e+04
   4.151210e+05   5.395157e+05
  -7.625798e+04   9.921888e+05
  -6.575969e+05   7.234127e+05
  -8.540383e+05   1.461959e+04
  -7.004710e+05  -5.268511e+05
  -4.165994e+05  -6.931551e+05
  -4.845901e+04  -6.053777e+05
   3.163541e+05  -3.515458e+05
   3.953331e+05  -5.419521e+04
   1.251467e+05   1.960234e+04
  -7.626247e+04  -2.006156e+05
   1.541356e+05  -3.531928e+05
   5.396385e+05  -1.083371e+05
   5.164888e+05   3.042678e+05
   4.784205e+04   3.943521e+05
  -3.187875e+05   1.113233e+05
  -1.885007e+05  -1.305090e+05
   2.377886e+05  -6.255667e+04
   4.955973e+05   1.739310e+05
   3.437577e+05   3.620628e+05
  -1.266694e+05   4.380354e+05
  -6.022007e+05   3.421301e+05
  -7.028113e+05   9.907328e+03
  -2.890208e+05  -3.652528e+05
   2.832688e+05  -3.956368e+05
   4.405914e+05  -2.027003e+04
   4.690302e+04   3.046101e+05
  -4.116611e+05   1.674839e+05
  -4.195256e+05  -2.482506e+05
  -2.292462e+04  -4.263691e+05
   3.175064e+05  -1.907576e+05
   2.971657e+05   1.416178e+05
   1.496773e+04   2.116151e+05
  -2.241473e+05  -1.163783e+04
  -1.780344e+05  -2.918346e+05
   1.657657e+05  -3.644791e+05
   5.252554e+05  -1.174794e+05
   5.127378e+05   3.006843e+05
   6.117985e+04   5.454969e+05
  -4.120271e+05   3.937359e+05
  -4.491045e+05   8.262468e+03
  -9.720911e+04  -2.361524e+05
   1.892817e+05  -1.830843e+05
   1.448645e+05  -1.424816e+04
  -4.558119e+04   5.218482e+04
  -9.391554e+04   1.513395e+04
   2.367387e+04   3.253080e+03
   1.311068e+05   8.291576e+04
   9.437146e+04   2.169989e+05
  -1.043004e+05   3.006489e+05
  -3.790175e+05   1.941024e+05
  -5.249484e+05  -1.488773e+05
  -3.424467e+05  -5.264670e+05
   9.517797e+04  -6.076859e+05
   4.264613e+05  -3.073561e+05
   3.977871e+05   7.603085e+04
   1.688531e+05   2.100564e+05
   7.084679e+04   1.089557e+05
   1.578115e+05   3.442962e+04
   1.890374e+05   1.135518e+05
   9.594073e+03   2.227366e+05
  -2.502306e+05   2.047123e+05
  -3.629772e+05   3.838701e+04
  -2.283498e+05  -1.892535e+05
   1.006428e+05  -3.315671e+05
   4.490294e+05  -2.207680e+05
   5.499717e+05   1.662559e+05
   2.317321e+05   5.574337e+05
  -3.290389e+05   5.810636e+05
  -6.838556e+05   1.919412e+05
  -5.654346e+05  -2.380485e+05
  -1.751233e+05  -3.492470e+05
   8.454318e+04  -1.937925e+05
   7.312240e+04  -9.436491e+04
  -1.515314e+04  -2.064410e+05
   3.147565e+04  -3.674641e+05
   2.066423e+05  -3.381481e+05
   3.527367e+05  -6.328673e+04
   3.311885e+05   2.964631e+05
   1.148778e+05   4.913174e+05
  -1.779831e+05   3.570236e+05
  -3.229241e+05  -2.793859e+04
  -1.730653e+05  -3.536245e+05
   1.477654e+05  -3.461593e+05
   3.244013e+05  -4.873233e+04
   1.881551e+05   2.360244e+05
  -8.558843e+04   2.895476e+05
  -1.870943e+05   1.761125e+05
  -4.074238e+04   8.543399e+04
   1.141736e+05   8.588913e+04
   1.455788e+04   9.628924e+04
  -3.086705e+05   2.616028e+04
  -5.375475e+05  -1.316476e+05
  -3.922514e+05  -3.048895e+05
   6.167661e+04  -3.779176e+05
   4.543438e+05  -2.659061e+05
   4.777834e+05  -2.020954e+04
   1.879746e+05   1.699220e+05
  -9.223000e+04   1.527938e+05
  -1.366079e+05  -1.503020e+04
  -6.460534e+03  -1.294485e+05
   1.079053e+05  -6.715620e+04
   1.215371e+05   9.498136e+04
   7.915836e+04   1.869648e+05
   4.012611e+04   1.272809e+05
   2.990877e+04  -5.888125e+03
   5.244317e+04  -5.358023e+04
   6.122767e+04   6.534286e+04
  -3.762757e+04   2.436947e+05
  -2.483657e+05   2.620722e+05
  -3.825789e+05   3.318712e+04
  -2.322447e+05  -2.520402e+05
   1.286442e+05  -3.072786e+05
   3.480873e+05  -8.692690e+04
   1.841126e+05   1.500733e+05
  -1.943405e+05   1.475563e+05
  -3.883520e+05  -6.123591e+04
  -2.070459e+05  -2.347310e+05
   1.588963e+05  -2.171720e+05
   3.736545e+05  -6.352340e+04
   2.829540e+05   8.181544e+04
   1.404730e+04   1.236939e+05
  -1.696306e+05   4.509870e+04
  -9.967447e+04  -9.076137e+04
   1.473532e+05  -1.397442e+05
   3.070745e+05   1.861405e+04
   1.805415e+05   3.054371e+05
  -1.475089e+05   4.419987e+05
  -3.799873e+05   2.266044e+05
  -3.128552e+05  -1.993273e+05
  -3.275420e+04  -4.519751e+05
   2.014256e+05  -3.038625e+05
   2.230499e+05   7.314573e+04
   7.433189e+04   3.059896e+05
  -8.885199e+04   2.240280e+05
  -1.480626e+05   2.138880e+03
  -9.682957e+04  -9.420614e+04
  -2.218249e+04  -2.678519e+04
  -1.946521e+04   1.597882e+04
  -9.079055e+04  -9.754433e+04
  -1.248394e+05  -2.592708e+05
  -1.185737e+04  -2.659574e+05
   2.113300e+05  -8.010449e+04
   3.632391e+05   1.356245e+05
   2.909291e+05   2.237737e+05
   3.384488e+04   1.832584e+05
  -2.027172e+05   1.017645e+05
  -2.425798e+05   2.765706e+04
  -1.043823e+05  -3.332067e+04
   3.254311e+04  -5.913866e+04
   3.197755e+04  -3.485708e+04
  -4.447446e+04  -8.300145e+03
  -2.133614e+04  -3.505468e+04
   1.463478e+05  -6.812361e+04
   2.710774e+05   7.166077e+03
   1.386035e+05   1.930639e+05
  -2.059972e+05   3.116777e+05
  -4.616984e+05   1.902454e+05
  -3.895963e+05  -1.164907e+05
  -6.727582e+04  -3.588929e+05
   2.176025e+05  -3.500896e+05
   2.771458e+05  -1.441828e+05
   1.643783e+05   5.059656e+04
   4.153606e+04   9.552612e+04
  -1.775929e+01   3.599400e+04
   2.528116e+04   1.541547e+04
   5.959825e+04   1.017910e+05
   4.505060e+04   2.064686e+05
  -4.802033e+04   1.782458e+05
  -1.715378e+05  -1.867709e+04
  -1.991914e+05  -2.356772e+05
  -4.815722e+04  -2.731295e+05
   1.843506e+05  -8.455018e+04
   2.714846e+05   1.715583e+05
   9.637206e+04   2.859854e+05
  -1.874820e+05   1.867403e+05
  -2.990684e+05  -2.341742e+04
  -1.414818e+05  -1.807509e+05
   8.531142e+04  -1.932426e+05
   1.214467e+05  -9.196102e+04
  -4.253105e+04   9.204086e+03
  -1.611213e+05   9.829009e+03
  -4.192443e+04  -8.591813e+04
   2.157564e+05  -1.635900e+05
   3.419024e+05  -1.065877e+05
   2.121795e+05   7.409058e+04
  -3.136923e+04   2.308814e+05
  -1.697201e+05   2.195746e+05
  -1.362196e+05   4.979995e+04
  -2.420894e+04  -1.160189e+05
   6.266365e+04  -1.228638e+05
   9.192288e+04   1.952380e+04
   6.421814e+04   1.493629e+05
  -1.491215e+04   1.288557e+05
  -1.024699e+05  -5.314161e+03
  -1.238526e+05  -9.109330e+04
  -5.884880e+04  -3.936480e+04
   1.478269e+04   5.702314e+04
   1.421371e+04   4.531907e+04
  -3.218159e+04  -8.312789e+04
  -1.969491e+04  -1.717122e+05
   7.778936e+04  -9.449298e+04
   1.476019e+05   8.094615e+04
   7.367955e+04   1.711294e+05
  -9.797376e+04   9.050223e+04
  -1.852427e+05  -6.461828e+04
  -7.396520e+04  -1.421253e+05
   1.391959e+05  -9.220706e+04
   2.400077e+05   1.786966e+04
   1.267414e+05   1.004190e+05
  -8.092320e+04   1.165850e+05
  -1.747457e+05   7.286709e+04
  -8.160296e+04   3.187247e+03
   6.919599e+04  -3.737298e+04
   9.966758e+04  -6.992942e+03
  -2.268704e+04   6.323961e+04
  -1.606005e+05   7.248126e+04
