
 $NMID
 id='ANONYMOUS ', fmtdat='(2E16.6)'
 volume=1.0
 tramp=1.0
 $END
  -5.835320e+07   3.225959e+06
  -3.731345e+07  -3.476881e+07
   5.760856e+06  -4.038268e+07
   2.832585e+07  -1.648963e+07
   1.773734e+07   6.946768e+06
  -3.142003e+06   1.004223e+07
  -1.047915e+07  -1.067660e+06
  -3.203970e+06  -1.027359e+07
   6.345978e+06  -9.912268e+06
   1.007692e+07  -2.348359e+06
   7.449802e+06   6.076064e+06
   1.169455e+06   8.732828e+06
  -3.896811e+06   3.019094e+06
  -2.749971e+06  -5.360514e+06
   3.787280e+06  -6.784192e+06
   8.272823e+06   1.126968e+06
   5.018070e+06   1.040230e+07
  -3.415311e+06   1.238863e+07
  -1.013878e+07   6.624346e+06
  -1.124940e+07  -1.457750e+06
  -7.363964e+06  -7.261158e+06
  -1.406656e+06  -8.963742e+06
   2.663778e+06  -6.699043e+06
   2.127108e+06  -3.117619e+06
  -7.912038e+05  -2.084407e+06
  -3.248859e+05  -3.965815e+06
   5.102783e+06  -4.526116e+06
   9.585354e+06  -9.316843e+05
   7.329835e+06   3.784508e+06
   6.665819e+05   5.013505e+06
  -3.395961e+06   2.746310e+06
  -2.330194e+06   3.251187e+05
   5.080524e+05  -5.999923e+05
   1.995143e+06  -3.710996e+05
   2.025965e+06   1.215012e+06
   8.650440e+05   3.698645e+06
  -1.534683e+06   4.007806e+06
  -3.304769e+06   2.990044e+05
  -2.104736e+06  -3.503647e+06
   5.090053e+05  -2.185244e+06
   3.811880e+05   2.228120e+06
  -2.445725e+06   2.334557e+06
  -2.665775e+06  -3.255985e+06
   2.313369e+06  -6.590705e+06
   7.320507e+06  -1.528038e+06
   5.772205e+06   6.918109e+06
  -1.540998e+06   9.022952e+06
  -7.550208e+06   2.892717e+06
  -7.266069e+06  -4.345699e+06
  -1.999537e+06  -6.172305e+06
   3.545516e+06  -2.831053e+06
   5.420270e+06   1.532243e+06
   2.527116e+06   3.613663e+06
  -2.482504e+06   2.391631e+06
  -4.742605e+06  -8.016094e+05
  -2.125729e+06  -2.784706e+06
   1.724327e+06  -1.501340e+06
   1.788389e+06   1.043343e+06
  -1.475858e+06   1.027869e+06
  -2.777533e+06  -1.851297e+06
   5.013134e+05  -3.839347e+06
   4.854979e+06  -2.311198e+06
   5.666651e+06   1.227485e+06
   2.592423e+06   4.083523e+06
  -1.600281e+06   5.425318e+06
  -4.820511e+06   5.044570e+06
  -6.149607e+06   2.032982e+06
  -4.787045e+06  -2.929711e+06
  -1.210236e+06  -6.188703e+06
   1.819292e+06  -4.939997e+06
   1.928715e+06  -1.255020e+06
   2.517329e+05   4.484696e+05
  -1.802114e+05  -7.650932e+05
   1.343428e+06  -1.771427e+06
   2.639837e+06  -4.025590e+05
   1.996428e+06   1.728765e+06
   9.560124e+04   2.002079e+06
  -1.442004e+06   1.640950e+05
  -1.617551e+06  -2.020438e+06
  -6.280414e+04  -2.886493e+06
   2.670162e+06  -1.750865e+06
   4.521685e+06   9.765298e+05
   3.459131e+06   3.638014e+06
   2.075396e+05   4.336836e+06
  -2.199929e+06   2.948132e+06
  -2.298210e+06   1.296767e+06
  -1.916102e+06   7.309929e+05
  -3.002362e+06   5.025888e+05
  -4.413532e+06  -7.245394e+05
  -3.547689e+06  -2.749816e+06
  -1.716332e+05  -4.142864e+06
   3.151863e+06  -3.931220e+06
   4.091568e+06  -2.181328e+06
   2.622077e+06   3.221688e+05
   3.447129e+05   2.155884e+06
  -1.006393e+06   1.931817e+06
  -5.516942e+05  -1.339750e+03
   1.047136e+06  -1.318295e+06
   1.914935e+06  -4.456094e+05
   9.779310e+05   1.178990e+06
  -4.883154e+05   1.103462e+06
  -4.049781e+05  -4.279301e+05
   1.175484e+06  -7.112512e+05
   2.008121e+06   1.400749e+06
   6.594383e+05   3.694510e+06
  -1.774692e+06   3.535300e+06
  -3.344008e+06   1.052851e+06
  -3.349736e+06  -1.581460e+06
  -2.191557e+06  -2.822932e+06
  -4.012376e+05  -2.593280e+06
   1.219307e+06  -1.454225e+06
   1.554374e+06  -2.441691e+05
   4.948379e+05   4.203148e+04
  -3.660617e+05  -7.551664e+05
   4.038982e+05  -1.382097e+06
   1.941394e+06  -6.291767e+05
   2.093786e+06   8.902224e+05
   4.052492e+05   1.458215e+06
  -1.190005e+06   5.820223e+05
  -8.749150e+05  -4.762802e+05
   9.052040e+05  -5.016474e+05
   2.202763e+06   3.919486e+05
   1.696109e+06   1.410364e+06
  -3.096055e+05   1.966284e+06
  -2.332083e+06   1.635649e+06
  -2.787750e+06   2.763783e+05
  -1.250456e+06  -1.276535e+06
   9.024375e+05  -1.553828e+06
   1.592634e+06  -2.357756e+05
   2.419424e+05   1.087864e+06
  -1.521227e+06   7.648458e+05
  -1.744619e+06  -7.918280e+05
  -3.251976e+05  -1.687963e+06
   1.140686e+06  -9.808552e+05
   1.288190e+06   3.489476e+05
   2.358299e+05   8.188304e+05
  -8.228419e+05   6.935069e+04
  -7.607367e+05  -1.052925e+06
   5.559238e+05  -1.436417e+06
   2.004284e+06  -5.704095e+05
   2.058295e+06   1.030722e+06
   4.064914e+05   2.090530e+06
  -1.449496e+06   1.674312e+06
  -1.751871e+06   2.153253e+05
  -5.047441e+05  -8.883445e+05
   6.709480e+05  -8.107945e+05
   6.181362e+05  -6.999125e+04
  -1.561354e+05   3.427494e+05
  -4.923445e+05   1.598269e+05
  -6.463633e+04  -9.604404e+04
   5.125583e+05   9.978030e+04
   5.364713e+05   7.222030e+05
  -2.230357e+05   1.221772e+06
  -1.401112e+06   9.088155e+05
  -2.101065e+06  -4.086726e+05
  -1.489983e+06  -1.946355e+06
   2.070938e+05  -2.428313e+06
   1.629234e+06  -1.402409e+06
   1.689026e+06   1.545926e+05
   8.131419e+05   9.020212e+05
   2.687933e+05   6.072827e+05
   4.833865e+05   1.616616e+05
   6.761388e+05   2.978182e+05
   1.174731e+05   7.869028e+05
  -8.929427e+05   9.119819e+05
  -1.461233e+06   3.083200e+05
  -1.026357e+06  -7.343749e+05
   2.842681e+05  -1.450738e+06
   1.737505e+06  -1.061777e+06
   2.253279e+06   4.891734e+05
   1.137254e+06   2.122997e+06
  -1.027414e+06   2.405390e+06
  -2.584877e+06   1.046199e+06
  -2.374358e+06  -6.900368e+05
  -9.269761e+05  -1.372398e+06
   2.511218e+05  -9.322409e+05
   3.872749e+05  -4.629363e+05
   2.463453e+04  -7.272692e+05
   5.154994e+04  -1.325667e+06
   6.572940e+05  -1.326438e+06
   1.307091e+06  -3.467020e+05
   1.355857e+06   1.067773e+06
   5.747987e+05   1.894180e+06
  -6.102442e+05   1.444542e+06
  -1.292357e+06  -2.120937e+03
  -8.255660e+05  -1.303961e+06
   4.047207e+05  -1.423450e+06
   1.211249e+06  -4.062448e+05
   8.520266e+05   7.350342e+05
  -1.293951e+05   1.125211e+06
  -5.743241e+05   8.098197e+05
  -1.083404e+05   4.140823e+05
   4.387478e+05   3.212372e+05
   6.484958e+04   3.780021e+05
  -1.169016e+06   2.224699e+05
  -2.098162e+06  -3.153386e+05
  -1.640532e+06  -1.043274e+06
   3.940410e+04  -1.475083e+06
   1.610577e+06  -1.183417e+06
   1.859713e+06  -2.809576e+05
   8.534466e+05   5.282887e+05
  -2.609249e+05   5.967551e+05
  -5.311180e+05   2.995261e+04
  -5.655589e+04  -4.357275e+05
   4.285614e+05  -2.622552e+05
   4.902148e+05   3.362426e+05
   2.810681e+05   7.008712e+05
   1.231176e+05   4.637158e+05
   1.454906e+05  -7.679764e+04
   2.722132e+05  -2.613481e+05
   2.745891e+05   2.374297e+05
  -1.272121e+05   9.745926e+05
  -8.922228e+05   1.083022e+06
  -1.385566e+06   2.235241e+05
  -8.937041e+05  -8.907678e+05
   3.915669e+05  -1.172346e+06
   1.262375e+06  -3.870157e+05
   7.410788e+05   5.572314e+05
  -7.102679e+05   6.552075e+05
  -1.592034e+06  -1.074031e+05
  -9.826758e+05  -8.884435e+05
   5.203170e+05  -9.885146e+05
   1.516029e+06  -4.460185e+05
   1.224480e+06   2.192374e+05
   1.192636e+05   5.164883e+05
  -6.611914e+05   2.626375e+05
  -4.028876e+05  -2.961859e+05
   5.598366e+05  -5.374198e+05
   1.179405e+06   4.361885e+04
   7.097058e+05   1.151138e+06
  -5.313256e+05   1.711178e+06
  -1.450872e+06   9.205481e+05
  -1.264399e+06  -7.317199e+05
  -2.239534e+05  -1.784281e+06
   7.369144e+05  -1.286744e+06
   9.326865e+05   1.926326e+05
   4.217428e+05   1.204031e+06
  -2.483602e+05   9.693910e+05
  -5.770612e+05   8.050545e+04
  -4.461011e+05  -3.783870e+05
  -1.369334e+05  -1.387938e+05
  -6.069664e+04   9.243365e+04
  -3.266299e+05  -2.949673e+05
  -5.373493e+05  -9.648162e+05
  -1.689342e+05  -1.085986e+06
   7.498412e+05  -4.120121e+05
   1.477045e+06   4.517892e+05
   1.261535e+06   8.374737e+05
   1.915320e+05   7.059740e+05
  -8.223884e+05   4.223589e+05
  -9.780997e+05   1.792478e+05
  -3.914324e+05  -5.643497e+04
   1.311440e+05  -2.268143e+05
   7.227404e+04  -2.022377e+05
  -2.241052e+05  -8.529314e+04
  -6.568997e+04  -1.251832e+05
   6.159113e+05  -2.462005e+05
   1.049894e+06  -1.847717e+04
   5.012689e+05   6.732333e+05
  -7.803703e+05   1.204878e+06
  -1.705949e+06   8.245983e+05
  -1.461206e+06  -3.693408e+05
  -3.140502e+05  -1.392923e+06
   7.495665e+05  -1.409271e+06
   1.034012e+06  -5.852491e+05
   6.485048e+05   2.011037e+05
   1.576551e+05   3.516401e+05
  -2.838898e+04   7.916597e+04
   1.023933e+05   3.464456e+03
   2.941014e+05   3.809339e+05
   2.476153e+05   8.112080e+05
  -1.553404e+05   6.902661e+05
  -6.688431e+05  -8.299085e+04
  -7.760267e+05  -9.039839e+05
  -1.836564e+05  -1.021610e+06
   7.131188e+05  -2.956484e+05
   1.055053e+06   6.590778e+05
   4.006207e+05   1.078106e+06
  -6.836360e+05   7.226272e+05
  -1.138828e+06  -3.168836e+04
  -5.777790e+05  -6.215515e+05
   2.635675e+05  -7.230168e+05
   4.015613e+05  -3.961694e+05
  -2.080925e+05  -9.610707e+02
  -6.388805e+05   5.706564e+04
  -1.687352e+05  -3.085303e+05
   8.139265e+05  -6.940726e+05
   1.290043e+06  -5.521762e+05
   8.135091e+05   1.778652e+05
  -6.873482e+04   8.872742e+05
  -5.611837e+05   8.960200e+05
  -4.512789e+05   2.102343e+05
  -8.014487e+04  -4.577507e+05
   2.160715e+05  -4.601485e+05
   3.442129e+05   1.064349e+05
   2.737753e+05   5.695503e+05
  -2.380576e+04   4.574336e+05
  -3.899660e+05  -1.972135e+04
  -5.027094e+05  -2.893963e+05
  -2.522825e+05  -1.116706e+05
   6.332478e+04   1.708433e+05
   1.013743e+05   9.607190e+04
  -6.143656e+04  -3.177266e+05
  -4.261461e+04  -5.696584e+05
   2.734892e+05  -2.831307e+05
   5.023709e+05   3.134428e+05
   2.336024e+05   6.211251e+05
  -3.780300e+05   3.379670e+05
  -6.896360e+05  -2.321603e+05
  -2.835122e+05  -5.484913e+05
   5.077964e+05  -3.882765e+05
   9.027575e+05   2.978477e+04
   5.006270e+05   3.615085e+05
  -2.756079e+05   4.356477e+05
  -6.341484e+05   2.814816e+05
  -2.766957e+05   3.920751e+04
   2.975135e+05  -9.526026e+04
   3.831440e+05   1.714675e+04
  -1.352783e+05   2.632238e+05
  -6.841133e+05   2.787938e+05
