
 $NMID
 id='ANONYMOUS ', fmtdat='(2E16.6)'
 volume=1.0
 tramp=1.0
 $END
  -2.370173e+07   1.454653e+06
  -1.611832e+07  -1.144985e+07
   1.300628e+05  -1.549476e+07
   1.024732e+07  -9.355556e+06
   8.135846e+06  -1.174114e+05
   1.353486e+05   4.199802e+06
  -4.557478e+06   1.525002e+06
  -3.058511e+06  -3.779718e+06
   1.307619e+06  -5.801469e+06
   4.223192e+06  -2.496013e+06
   3.736355e+06   2.720252e+06
   7.055531e+05   4.519005e+06
  -2.034183e+06   1.204244e+06
  -1.799189e+06  -3.439575e+06
   1.227649e+06  -4.271167e+06
   3.782634e+06  -3.445630e+05
   2.889191e+06   4.412781e+06
  -9.109867e+05   5.707981e+06
  -4.294702e+06   2.991049e+06
  -4.680079e+06  -9.246189e+05
  -2.443180e+06  -3.134251e+06
  -6.103529e+04  -2.967647e+06
   3.601967e+05  -1.840075e+06
  -9.861362e+05  -1.546565e+06
  -1.727564e+06  -2.499391e+06
   2.081771e+05  -3.316406e+06
   3.859785e+06  -2.361300e+06
   5.687574e+06   2.180887e+05
   3.497003e+06   2.416871e+06
  -7.112927e+05   2.498390e+06
  -2.838243e+06   7.383029e+05
  -1.294991e+06  -1.100323e+06
   1.606540e+06  -1.480104e+06
   2.769607e+06  -1.153672e+05
   1.568332e+06   1.953562e+06
  -3.327991e+05   2.914627e+06
  -1.265154e+06   1.632984e+06
  -8.959960e+05  -7.841229e+05
   2.117798e+04  -1.647795e+06
   4.093916e+05   1.438891e+05
  -3.005561e+05   2.282490e+06
  -1.457046e+06   1.719891e+06
  -1.546773e+06  -1.182210e+06
   1.060614e+05  -2.811515e+06
   2.128102e+06  -9.195632e+05
   2.247838e+06   2.453608e+06
  -1.769368e+05   3.553793e+06
  -3.190033e+06   1.328930e+06
  -4.031897e+06  -1.843564e+06
  -1.807307e+06  -3.183339e+06
   1.635688e+06  -2.076835e+06
   3.376315e+06   9.981392e+04
   2.090004e+06   1.566086e+06
  -7.280083e+05   1.394564e+06
  -2.267643e+06   4.273538e+04
  -1.288937e+06  -1.032066e+06
   6.743521e+05  -7.578968e+05
   1.229189e+06   3.789717e+05
  -5.822766e+04   9.180687e+05
  -1.311775e+06   1.945542e+05
  -7.588185e+05  -9.462457e+05
   1.157892e+06  -1.234019e+06
   2.375732e+06  -2.495304e+05
   1.492245e+06   1.437180e+06
  -9.258742e+05   2.772602e+06
  -3.060130e+06   2.686338e+06
  -3.485285e+06   7.904353e+05
  -2.213392e+06  -1.889792e+06
  -4.639952e+05  -3.433361e+06
   5.195813e+05  -2.907966e+06
   5.586049e+05  -1.417121e+06
   4.818902e+05  -6.786881e+05
   1.001371e+06  -8.732396e+05
   1.827925e+06  -6.840305e+05
   2.030434e+06   6.033989e+05
   1.109621e+06   1.933020e+06
  -4.532704e+05   1.780949e+06
  -1.582039e+06   6.610242e+04
  -1.403732e+06  -1.726604e+06
   8.795111e+04  -2.094343e+06
   1.860472e+06  -8.399863e+05
   2.512752e+06   9.773286e+05
   1.540198e+06   2.074020e+06
  -8.044823e+04   1.964864e+06
  -9.403414e+05   1.210220e+06
  -8.326138e+05   7.140087e+05
  -8.734536e+05   7.370074e+05
  -1.837687e+06   6.742155e+05
  -2.891473e+06  -1.534141e+05
  -2.480857e+06  -1.623530e+06
  -2.985385e+05  -2.815539e+06
   2.136125e+06  -2.795931e+06
   2.962348e+06  -1.404099e+06
   1.784553e+06   5.220856e+05
  -8.120911e+04   1.651363e+06
  -9.665316e+05   1.225850e+06
  -3.584603e+05  -1.254914e+05
   8.084117e+05  -8.892303e+05
   1.219121e+06  -2.989673e+05
   5.144177e+05   7.461547e+05
  -4.290215e+05   8.056466e+05
  -5.183435e+05  -2.076782e+05
   3.714237e+05  -8.394503e+05
   1.298819e+06   6.403509e+04
   1.219586e+06   1.841355e+06
  -6.559563e+04   2.713781e+06
  -1.774956e+06   1.730976e+06
  -2.735148e+06  -3.374988e+05
  -2.224724e+06  -1.910727e+06
  -5.890275e+05  -2.058142e+06
   9.103433e+05  -1.109850e+06
   1.168753e+06  -1.464000e+05
   3.484592e+05   1.443625e+04
  -2.888852e+05  -5.035878e+05
   1.574478e+05  -8.644554e+05
   1.147752e+06  -4.643638e+05
   1.374660e+06   3.924245e+05
   4.007519e+05   8.555040e+05
  -7.524501e+05   4.942291e+05
  -7.644047e+05  -2.594086e+05
   4.747506e+05  -6.020079e+05
   1.706935e+06  -1.276087e+05
   1.597354e+06   8.613483e+05
   7.715157e+04   1.601503e+06
  -1.579835e+06   1.428230e+06
  -1.971017e+06   3.598748e+05
  -8.869641e+05  -7.638572e+05
   5.311755e+05  -9.670357e+05
   9.440015e+05  -1.609842e+05
   1.054050e+05   6.741581e+05
  -1.003753e+06   5.486904e+05
  -1.247586e+06  -4.073267e+05
  -4.344763e+05  -1.124719e+06
   6.123537e+05  -8.593889e+05
   9.294988e+05   3.777209e+03
   3.230930e+05   4.804511e+05
  -4.770338e+05   9.461983e+04
  -5.242312e+05  -6.869047e+05
   3.819413e+05  -9.981490e+05
   1.400427e+06  -4.131820e+05
   1.445143e+06   6.805197e+05
   3.502706e+05   1.418116e+06
  -8.934737e+05   1.207683e+06
  -1.180384e+06   2.697695e+05
  -4.423137e+05  -5.586924e+05
   3.980812e+05  -6.264090e+05
   5.177294e+05  -7.588785e+04
   5.008021e+02   3.904807e+05
  -4.399069e+05   3.107766e+05
  -3.092205e+05  -6.973817e+04
   1.990189e+05  -1.501158e+05
   4.531158e+05   2.948136e+05
   1.375767e+04   8.130753e+05
  -8.928142e+05   7.171566e+05
  -1.480244e+06  -1.834473e+05
  -1.103318e+06  -1.299531e+06
   5.552690e+04  -1.747257e+06
   1.097649e+06  -1.166168e+06
   1.299409e+06  -6.272561e+04
   8.009635e+05   6.876125e+05
   3.081411e+05   6.784268e+05
   2.303090e+05   2.834233e+05
   3.083727e+05   1.467456e+05
   7.148779e+04   4.411597e+05
  -5.332536e+05   6.983795e+05
  -1.036567e+06   3.706950e+05
  -8.823386e+05  -4.898947e+05
   4.042303e+04  -1.163787e+06
   1.184489e+06  -9.207670e+05
   1.661396e+06   2.215783e+05
   9.618583e+05   1.412624e+06
  -5.039913e+05   1.703990e+06
  -1.668801e+06   9.140944e+05
  -1.744728e+06  -2.444224e+05
  -9.032510e+05  -8.965838e+05
   8.963787e+03  -8.207169e+05
   3.527651e+05  -5.155360e+05
   2.131542e+05  -5.264311e+05
   1.169879e+05  -8.168014e+05
   3.935910e+05  -8.507864e+05
   8.446523e+05  -2.467944e+05
   9.629442e+05   7.252198e+05
   4.545397e+05   1.328796e+06
  -4.010354e+05   1.044288e+06
  -9.229975e+05   7.454751e+04
  -6.587458e+05  -8.201074e+05
   1.302536e+05  -9.926606e+05
   6.988963e+05  -4.383272e+05
   5.844354e+05   2.964148e+05
   6.736790e+04   6.706085e+05
  -2.033977e+05   5.909263e+05
   1.723612e+04   3.548770e+05
   2.944023e+05   2.537105e+05
   4.033393e+04   2.831570e+05
  -7.545067e+05   2.120645e+05
  -1.403539e+06  -1.252469e+05
  -1.184636e+06  -6.200961e+05
  -1.170147e+05  -9.477955e+05
   9.768471e+05  -8.381221e+05
   1.246991e+06  -3.339205e+05
   6.398322e+05   1.969749e+05
  -1.168497e+05   3.565331e+05
  -3.278135e+05   9.188788e+04
   4.430405e+02  -2.273563e+05
   3.431287e+05  -1.801992e+05
   3.405044e+05   2.270737e+05
   1.205823e+05   5.311152e+05
   4.481442e+03   3.448422e+05
   1.019004e+05  -1.331904e+05
   2.518956e+05  -2.953219e+05
   2.210162e+05   1.437517e+05
  -1.044586e+05   7.368740e+05
  -5.933771e+05   7.747290e+05
  -8.596511e+05   1.157155e+05
  -5.379209e+05  -6.231585e+05
   2.539813e+05  -7.434225e+05
   8.241630e+05  -2.017575e+05
   5.301968e+05   4.078727e+05
  -4.512594e+05   5.050060e+05
  -1.171013e+06   4.317599e+04
  -8.645151e+05  -5.491347e+05
   2.191897e+05  -7.929892e+05
   1.069421e+06  -5.224782e+05
   9.633690e+05   2.177483e+04
   1.611747e+05   3.809005e+05
  -4.414786e+05   2.584834e+05
  -2.569831e+05  -1.686809e+05
   4.387666e+05  -3.541743e+05
   8.406449e+05   7.751956e+04
   4.464142e+05   8.532889e+05
  -4.509058e+05   1.207740e+06
  -1.074238e+06   6.303417e+05
  -9.232842e+05  -5.303537e+05
  -1.978335e+05  -1.298891e+06
   4.863786e+05  -1.001676e+06
   6.865493e+05   4.080345e+04
   4.085468e+05   8.337205e+05
  -5.245615e+04   7.439432e+05
  -3.802152e+05   1.103843e+05
  -4.003337e+05  -2.657562e+05
  -1.791055e+05  -1.100297e+05
  -9.756775e+03   8.748046e+04
  -1.313214e+05  -1.655102e+05
  -3.716657e+05  -6.614865e+05
  -2.443349e+05  -7.814934e+05
   4.231334e+05  -3.215003e+05
   1.091034e+06   2.837571e+05
   1.016188e+06   5.556260e+05
   1.660177e+05   4.830723e+05
  -6.548251e+05   3.271043e+05
  -7.228994e+05   1.878023e+05
  -2.150868e+05   6.523833e+03
   1.183958e+05  -1.621770e+05
  -4.607686e+04  -1.799548e+05
  -2.626014e+05  -9.459686e+04
  -1.443200e+04  -9.878393e+04
   5.413092e+05  -1.666392e+05
   7.445972e+05  -4.210770e+03
   2.337395e+05   4.744687e+05
  -6.327342e+05   8.330980e+05
  -1.153513e+06   5.456284e+05
  -9.451334e+05  -3.061156e+05
  -2.143057e+05  -1.013827e+06
   4.919623e+05  -9.889653e+05
   7.370144e+05  -3.734480e+05
   4.879458e+05   1.835571e+05
   7.861440e+04   2.527762e+05
  -1.056699e+05   1.237116e+04
   3.595353e+04  -5.820166e+04
   2.568317e+05   2.348438e+05
   2.279126e+05   5.722056e+05
  -1.218174e+05   4.795582e+05
  -5.060503e+05  -1.093663e+05
  -5.218043e+05  -7.039931e+05
  -4.427953e+04  -7.315626e+05
   5.716727e+05  -1.413489e+05
   7.449700e+05   5.426499e+05
   2.417072e+05   7.694418e+05
  -5.029564e+05   4.623364e+05
  -7.754487e+05  -3.934971e+04
  -3.640224e+05  -3.837724e+05
   1.833050e+05  -4.402406e+05
   2.126597e+05  -2.611242e+05
  -2.321411e+05  -1.933634e+04
  -4.794762e+05   3.838513e+04
  -9.517324e+04  -2.067227e+05
   5.727709e+05  -5.185873e+05
   8.413215e+05  -4.638625e+05
   4.976153e+05   6.395432e+04
  -4.942524e+04   6.052728e+05
  -3.250655e+05   6.073073e+05
  -2.480134e+05   8.846070e+04
  -2.420404e+04  -3.649940e+05
   1.699903e+05  -2.903761e+05
   2.607911e+05   1.431532e+05
   1.911022e+05   4.091291e+05
  -3.954324e+04   2.646499e+05
  -2.801520e+05  -4.208021e+04
  -3.317791e+05  -1.549605e+05
  -1.756345e+05  -3.248940e+04
   3.989364e+03   6.973662e+04
   5.830091e+04  -4.881304e+04
   4.730620e+04  -2.853595e+05
   1.156140e+05  -3.454827e+05
   2.546314e+05  -7.911465e+04
   2.769994e+05   3.174932e+05
   4.587726e+04   4.696279e+05
  -3.089981e+05   2.137796e+05
  -4.531535e+05  -2.146186e+05
  -1.737687e+05  -4.242479e+05
   3.399540e+05  -2.688369e+05
   6.075058e+05   5.204999e+04
   3.398814e+05   2.593755e+05
  -2.005913e+05   2.595169e+05
  -4.403664e+05   1.370259e+05
  -1.421118e+05   1.162082e+04
   2.993913e+05  -2.122828e+04
   3.156951e+05   8.728436e+04
  -1.546910e+05   2.460260e+05
  -5.959215e+05   2.143720e+05
