
 $NMID
 id='ANONYMOUS ', fmtdat='(2E16.6)'
 volume=1.0
 tramp=1.0
 $END
  -5.953471e+07   6.584963e+05
  -3.621247e+07  -3.705870e+07
   7.787675e+06  -4.071096e+07
   2.941168e+07  -1.536651e+07
   1.751456e+07   7.862426e+06
  -3.670306e+06   9.972131e+06
  -1.047059e+07  -1.583546e+06
  -2.729660e+06  -1.048483e+07
   6.808990e+06  -9.671593e+06
   1.024910e+07  -1.911302e+06
   7.309715e+06   6.460235e+06
   8.625885e+05   8.898778e+06
  -4.088699e+06   2.928399e+06
  -2.627211e+06  -5.502538e+06
   4.061959e+06  -6.678595e+06
   8.305055e+06   1.506572e+06
   4.637173e+06   1.075018e+07
  -3.992616e+06   1.241178e+07
  -1.059138e+07   6.298563e+06
  -1.140776e+07  -1.969660e+06
  -7.197480e+06  -7.754237e+06
  -9.958129e+05  -9.237496e+06
   3.087191e+06  -6.668519e+06
   2.323289e+06  -2.943825e+06
  -7.978498e+05  -2.024989e+06
  -2.781386e+05  -4.038874e+06
   5.322926e+06  -4.490054e+06
   9.799541e+06  -6.546593e+05
   7.337696e+06   4.124374e+06
   5.057370e+05   5.186871e+06
  -3.572431e+06   2.748721e+06
  -2.462206e+06   2.766381e+05
   4.279191e+05  -6.575002e+05
   2.007122e+06  -4.259133e+05
   2.095069e+06   1.241483e+06
   8.315876e+05   3.818900e+06
  -1.724597e+06   4.056472e+06
  -3.448986e+06   1.474542e+05
  -2.019732e+06  -3.715194e+06
   6.837328e+05  -2.237940e+06
   3.938433e+05   2.286865e+06
  -2.530445e+06   2.283001e+06
  -2.546689e+06  -3.403343e+06
   2.660832e+06  -6.542802e+06
   7.518298e+06  -1.160216e+06
   5.540912e+06   7.317206e+06
  -1.993497e+06   9.087548e+06
  -7.803351e+06   2.610162e+06
  -7.183163e+06  -4.674296e+06
  -1.783560e+06  -6.288896e+06
   3.666567e+06  -2.714841e+06
   5.385315e+06   1.732719e+06
   2.393457e+06   3.712815e+06
  -2.609454e+06   2.290597e+06
  -4.755831e+06  -1.013804e+06
  -2.020934e+06  -2.899729e+06
   1.812371e+06  -1.443278e+06
   1.758030e+06   1.107487e+06
  -1.525472e+06   9.289593e+05
  -2.672330e+06  -2.017646e+06
   7.485495e+05  -3.830415e+06
   5.043721e+06  -2.070390e+06
   5.659284e+06   1.514546e+06
   2.431048e+06   4.247143e+06
  -1.825742e+06   5.459383e+06
  -5.064415e+06   4.984256e+06
  -6.332654e+06   1.864630e+06
  -4.785378e+06  -3.162529e+06
  -1.020128e+06  -6.335190e+06
   2.013709e+06  -4.911447e+06
   1.959075e+06  -1.156520e+06
   1.668447e+05   4.576587e+05
  -2.106384e+05  -8.513321e+05
   1.423355e+06  -1.832761e+06
   2.738262e+06  -3.736037e+05
   2.032954e+06   1.801761e+06
   8.512563e+04   2.054106e+06
  -1.452550e+06   1.706072e+05
  -1.601346e+06  -2.057220e+06
  -8.103814e+02  -2.927790e+06
   2.770124e+06  -1.713160e+06
   4.584520e+06   1.136679e+06
   3.397354e+06   3.835363e+06
   3.549256e+04   4.431146e+06
  -2.369229e+06   2.906444e+06
  -2.386800e+06   1.207120e+06
  -1.950942e+06   6.558626e+05
  -3.033417e+06   4.098076e+05
  -4.427649e+06  -8.621329e+05
  -3.501408e+06  -2.874954e+06
  -6.260472e+04  -4.184692e+06
   3.283228e+06  -3.894436e+06
   4.198416e+06  -2.116488e+06
   2.665467e+06   3.869147e+05
   3.126187e+05   2.208133e+06
  -1.067383e+06   1.949741e+06
  -5.659231e+05  -1.424636e+04
   1.092448e+06  -1.312943e+06
   1.950450e+06  -3.947966e+05
   9.576122e+05   1.229523e+06
  -5.163686e+05   1.107833e+06
  -3.862938e+05  -4.293852e+05
   1.193662e+06  -6.509046e+05
   1.935891e+06   1.495060e+06
   5.082028e+05   3.717345e+06
  -1.890736e+06   3.445208e+06
  -3.351611e+06   9.221514e+05
  -3.287962e+06  -1.670405e+06
  -2.128609e+06  -2.861640e+06
  -3.529651e+05  -2.606249e+06
   1.260929e+06  -1.443670e+06
   1.577768e+06  -2.156515e+05
   4.982681e+05   5.442189e+04
  -3.488817e+05  -7.712880e+05
   4.529818e+05  -1.381371e+06
   1.982131e+06  -5.729065e+05
   2.081007e+06   9.635973e+05
   3.587963e+05   1.479776e+06
  -1.214175e+06   5.505537e+05
  -8.640090e+05  -4.955489e+05
   9.154761e+05  -4.689725e+05
   2.188107e+06   4.483177e+05
   1.663596e+06   1.443044e+06
  -3.524398e+05   1.956277e+06
  -2.380631e+06   1.587590e+06
  -2.814346e+06   2.092377e+05
  -1.223956e+06  -1.323371e+06
   9.613691e+05  -1.544700e+06
   1.620136e+06  -1.874811e+05
   2.127641e+05   1.112346e+06
  -1.557999e+06   7.312789e+05
  -1.734058e+06  -8.452897e+05
  -2.785894e+05  -1.701748e+06
   1.169881e+06  -9.465473e+05
   1.276314e+06   3.885360e+05
   2.072864e+05   8.248781e+05
  -8.339552e+05   4.098823e+04
  -7.404126e+05  -1.086766e+06
   5.990626e+05  -1.439916e+06
   2.041465e+06  -5.275317e+05
   2.054324e+06   1.093876e+06
   3.554302e+05   2.121119e+06
  -1.507187e+06   1.648816e+06
  -1.769367e+06   1.692204e+05
  -4.816382e+05  -9.055149e+05
   6.962416e+05  -7.965074e+05
   6.225307e+05  -6.025305e+04
  -1.594969e+05   3.320619e+05
  -4.868963e+05   1.513351e+05
  -5.732766e+04  -8.116251e+04
   5.051503e+05   1.289206e+05
   5.095891e+05   7.432112e+05
  -2.618857e+05   1.220442e+06
  -1.436296e+06   8.778889e+05
  -2.108744e+06  -4.662812e+05
  -1.454500e+06  -2.002751e+06
   2.671184e+05  -2.444168e+06
   1.670108e+06  -1.371711e+06
   1.690024e+06   1.929850e+05
   7.992523e+05   9.141108e+05
   2.723487e+05   6.059621e+05
   4.999541e+05   1.785737e+05
   6.769957e+05   3.307545e+05
   9.304051e+04   8.027510e+05
  -9.232951e+05   8.940387e+05
  -1.475366e+06   2.746071e+05
  -1.016027e+06  -7.569194e+05
   3.157986e+05  -1.446940e+06
   1.772405e+06  -1.026298e+06
   2.257848e+06   5.465409e+05
   1.089887e+06   2.165950e+06
  -1.101940e+06   2.393194e+06
  -2.631307e+06   9.813463e+05
  -2.366484e+06  -7.557820e+05
  -8.936292e+05  -1.394596e+06
   2.690541e+05  -9.212171e+05
   3.876331e+05  -4.600234e+05
   3.648240e+04  -7.484259e+05
   8.995101e+04  -1.348173e+06
   7.040827e+05  -1.323171e+06
   1.332174e+06  -3.140313e+05
   1.343885e+06   1.112715e+06
   5.344061e+05   1.926523e+06
  -6.508088e+05   1.443843e+06
  -1.301611e+06  -3.431793e+04
  -7.950383e+05  -1.336033e+06
   4.481025e+05  -1.419684e+06
   1.228333e+06  -3.672953e+05
   8.293712e+05   7.707052e+05
  -1.703426e+05   1.127282e+06
  -6.041843e+05   7.909323e+05
  -1.174929e+05   4.079944e+05
   4.387542e+05   3.355960e+05
   5.820248e+04   3.839779e+05
  -1.185918e+06   1.912374e+05
  -2.110541e+06  -3.765731e+05
  -1.626045e+06  -1.095578e+06
   8.542915e+04  -1.483685e+06
   1.661461e+06  -1.147581e+06
   1.880005e+06  -2.317856e+05
   8.373611e+05   5.567280e+05
  -2.843427e+05   5.945275e+05
  -5.343123e+05   1.266311e+04
  -4.270134e+04  -4.470411e+05
   4.386571e+05  -2.583302e+05
   4.874028e+05   3.521188e+05
   2.725897e+05   7.199777e+05
   1.170395e+05   4.772050e+05
   1.434694e+05  -7.230598e+04
   2.725158e+05  -2.593282e+05
   2.703036e+05   2.456193e+05
  -1.477262e+05   9.831065e+05
  -9.287898e+05   1.072023e+06
  -1.413489e+06   1.862026e+05
  -8.852594e+05  -9.290441e+05
   4.303625e+05  -1.177507e+06
   1.292990e+06  -3.590229e+05
   7.373805e+05   5.802101e+05
  -7.322167e+05   6.414088e+05
  -1.598287e+06  -1.459732e+05
  -9.631624e+05  -9.119956e+05
   5.468427e+05  -9.748509e+05
   1.529615e+06  -4.098521e+05
   1.221594e+06   2.473699e+05
   1.074912e+05   5.194746e+05
  -6.706708e+05   2.461755e+05
  -3.983693e+05  -3.123119e+05
   5.797853e+05  -5.341197e+05
   1.195136e+06   7.031406e+04
   6.949931e+05   1.184002e+06
  -5.758263e+05   1.723686e+06
  -1.489280e+06   9.009833e+05
  -1.261843e+06  -7.673831e+05
  -1.861817e+05  -1.806275e+06
   7.701595e+05  -1.279353e+06
   9.315649e+05   2.175070e+05
   3.940355e+05   1.220721e+06
  -2.734777e+05   9.646148e+05
  -5.828171e+05   6.439723e+04
  -4.399145e+05  -3.874984e+05
  -1.337491e+05  -1.376437e+05
  -6.290721e+04   8.907588e+04
  -3.231735e+05  -3.142663e+05
  -5.195400e+05  -9.897456e+05
  -1.427416e+05  -1.093313e+06
   7.690302e+05  -3.907472e+05
   1.479618e+06   4.894529e+05
   1.250419e+06   8.691069e+05
   1.752473e+05   7.169700e+05
  -8.377497e+05   4.122956e+05
  -9.884899e+05   1.588396e+05
  -3.931188e+05  -7.185600e+04
   1.371061e+05  -2.280081e+05
   7.787012e+04  -1.950158e+05
  -2.242945e+05  -8.342483e+04
  -6.509414e+04  -1.302846e+05
   6.265008e+05  -2.421930e+05
   1.063063e+06   5.681838e+03
   4.944381e+05   7.013100e+05
  -8.168016e+05   1.206565e+06
  -1.749093e+06   7.913322e+05
  -1.474989e+06  -4.128316e+05
  -2.872048e+05  -1.416144e+06
   7.929720e+05  -1.405568e+06
   1.062506e+06  -5.692657e+05
   6.534344e+05   2.155787e+05
   1.523715e+05   3.617148e+05
  -3.131563e+04   8.661775e+04
   1.002820e+05   1.011972e+04
   2.847884e+05   3.898555e+05
   2.297370e+05   8.228287e+05
  -1.737667e+05   6.956106e+05
  -6.772453e+05  -9.609643e+04
  -7.688919e+05  -9.328110e+05
  -1.647060e+05  -1.043388e+06
   7.311200e+05  -2.888361e+05
   1.057077e+06   6.894144e+05
   3.815689e+05   1.102663e+06
  -7.113683e+05   7.176490e+05
  -1.153302e+06  -6.044578e+04
  -5.672108e+05  -6.470648e+05
   2.887378e+05  -7.270079e+05
   4.189450e+05  -3.868161e+05
  -2.093719e+05   6.881810e+02
  -6.470093e+05   4.474307e+04
  -1.633445e+05  -3.180644e+05
   8.377663e+05  -6.819659e+05
   1.314750e+06  -5.211979e+05
   8.165413e+05   2.061740e+05
  -9.190937e+04   8.965339e+05
  -5.925453e+05   8.888889e+05
  -4.676267e+05   1.988009e+05
  -7.413410e+04  -4.660261e+05
   2.313332e+05  -4.625963e+05
   3.499571e+05   1.126146e+05
   2.640781e+05   5.825581e+05
  -3.830207e+04   4.653869e+05
  -3.958286e+05  -2.803278e+04
  -4.988740e+05  -3.075944e+05
  -2.493961e+05  -1.203566e+05
   5.759280e+04   1.785969e+05
   9.249841e+04   1.037591e+05
  -6.143961e+04  -3.274757e+05
  -2.978640e+04  -5.889991e+05
   2.900236e+05  -2.876290e+05
   5.096732e+05   3.316366e+05
   2.271726e+05   6.412650e+05
  -3.909323e+05   3.366201e+05
  -6.966583e+05  -2.520440e+05
  -2.772019e+05  -5.623650e+05
   5.237351e+05  -3.796717e+05
   9.155230e+05   5.264802e+04
   4.985535e+05   3.783388e+05
  -2.922653e+05   4.359220e+05
  -6.526023e+05   2.709673e+05
  -2.833883e+05   2.989893e+04
   3.039076e+05  -9.680852e+04
   3.911068e+05   2.114093e+04
  -1.372200e+05   2.654911e+05
  -6.942054e+05   2.732490e+05
