
 $NMID
 id='ANONYMOUS ', fmtdat='(2E16.6)'
 volume=1.0
 tramp=1.0
 $END
  -3.844612e+07   8.154519e+05
  -2.446687e+07  -2.160736e+07
   2.983945e+06  -2.567815e+07
   1.801153e+07  -1.230363e+07
   1.224941e+07   2.623424e+06
  -1.170009e+06   6.628269e+06
  -7.112289e+06   6.294483e+05
  -3.280824e+06  -6.517861e+06
   3.387881e+06  -7.803861e+06
   6.791204e+06  -2.547334e+06
   5.325733e+06   4.384032e+06
   7.401632e+05   6.560044e+06
  -3.004179e+06   1.871705e+06
  -2.230785e+06  -4.616267e+06
   2.404847e+06  -5.597119e+06
   5.754517e+06   2.934023e+05
   3.733747e+06   7.114205e+06
  -2.163638e+06   8.608096e+06
  -6.970866e+06   4.348634e+06
  -7.448975e+06  -1.504037e+06
  -4.219207e+06  -5.103708e+06
  -2.921487e+05  -5.382241e+06
   1.330959e+06  -3.626106e+06
  -2.239756e+04  -2.224881e+06
  -1.606937e+06  -2.727851e+06
   1.589168e+05  -3.996272e+06
   4.912914e+06  -3.274739e+06
   7.779020e+06   1.049886e+05
   5.148900e+06   3.381324e+06
  -4.799136e+05   3.688840e+06
  -3.482999e+06   1.418215e+06
  -1.823075e+06  -8.414184e+05
   1.483197e+06  -1.383278e+06
   2.907503e+06  -1.654463e+05
   1.903997e+06   2.031890e+06
  -7.837926e+04   3.596453e+06
  -1.627879e+06   2.600333e+06
  -1.818315e+06  -6.187700e+05
  -5.884967e+05  -2.537464e+06
   5.516095e+05  -5.890587e+05
  -1.731879e+05   2.589611e+06
  -2.040734e+06   2.099531e+06
  -2.049231e+06  -2.093298e+06
   1.006470e+06  -4.387116e+06
   4.166148e+06  -1.069174e+06
   3.549269e+06   4.400454e+06
  -8.684518e+05   5.805249e+06
  -5.134276e+06   1.842966e+06
  -5.546749e+06  -3.097935e+06
  -1.969780e+06  -4.655163e+06
   2.559703e+06  -2.525889e+06
   4.478684e+06   7.173099e+05
   2.434274e+06   2.519198e+06
  -1.465267e+06   1.856177e+06
  -3.376696e+06  -3.448860e+05
  -1.674606e+06  -1.804519e+06
   1.150120e+06  -1.066086e+06
   1.558154e+06   6.942698e+05
  -5.578438e+05   1.046646e+06
  -1.931257e+06  -5.186607e+05
  -3.571538e+05  -2.017191e+06
   2.589261e+06  -1.641360e+06
   3.756175e+06   3.397781e+05
   1.960455e+06   2.569037e+06
  -1.408427e+06   3.987631e+06
  -4.185151e+06   3.713362e+06
  -4.891998e+06   1.156854e+06
  -3.292828e+06  -2.610011e+06
  -6.211635e+05  -4.843392e+06
   1.140530e+06  -3.933638e+06
   1.118008e+06  -1.512105e+06
   4.624338e+05  -3.945763e+05
   7.698134e+05  -9.617757e+05
   1.964120e+06  -1.103025e+06
   2.521111e+06   4.206428e+05
   1.512197e+06   2.182470e+06
  -3.850478e+05   2.102903e+06
  -1.759680e+06   7.209964e+04
  -1.619090e+06  -2.102348e+06
   1.215815e+05  -2.646502e+06
   2.427164e+06  -1.190081e+06
   3.496388e+06   1.223289e+06
   2.294193e+06   2.959565e+06
  -1.033927e+05   3.020790e+06
  -1.556301e+06   1.894318e+06
  -1.460828e+06   9.476196e+05
  -1.354623e+06   7.899613e+05
  -2.486726e+06   6.376713e+05
  -3.773511e+06  -4.702958e+05
  -3.106949e+06  -2.305139e+06
  -1.966361e+05  -3.645396e+06
   2.861587e+06  -3.478331e+06
   3.796741e+06  -1.753113e+06
   2.298983e+06   5.931785e+05
  -5.403509e+03   2.054228e+06
  -1.161322e+06   1.602815e+06
  -4.721574e+05  -1.157771e+05
   1.031096e+06  -1.128056e+06
   1.628061e+06  -3.418628e+05
   7.093699e+05   1.015996e+06
  -5.354811e+05   1.003744e+06
  -5.432284e+05  -3.186501e+05
   7.042489e+05  -8.855683e+05
   1.677867e+06   5.604465e+05
   1.114257e+06   2.721325e+06
  -7.230460e+05   3.316500e+06
  -2.562357e+06   1.666026e+06
  -3.276874e+06  -8.755806e+05
  -2.452175e+06  -2.529258e+06
  -5.449726e+05  -2.528742e+06
   1.173628e+06  -1.346341e+06
   1.463296e+06  -1.602811e+05
   4.437570e+05   3.785029e+04
  -3.359786e+05  -6.649457e+05
   2.937833e+05  -1.144618e+06
   1.582958e+06  -5.356587e+05
   1.780083e+06   6.615657e+05
   4.225491e+05   1.182503e+06
  -1.014750e+06   5.631745e+05
  -8.955520e+05  -3.876380e+05
   6.935262e+05  -6.304426e+05
   2.096283e+06   7.898478e+04
   1.816438e+06   1.202365e+06
  -8.731587e+04   1.935522e+06
  -2.085801e+06   1.636945e+06
  -2.519134e+06   3.137497e+05
  -1.098002e+06  -1.069011e+06
   7.648812e+05  -1.271859e+06
   1.293902e+06  -1.688495e+05
   1.384647e+05   9.095893e+05
  -1.331535e+06   6.586937e+05
  -1.564509e+06  -6.327996e+05
  -4.175247e+05  -1.473863e+06
   8.950207e+05  -9.908275e+05
   1.168103e+06   1.491321e+05
   3.196957e+05   6.643382e+05
  -6.581640e+05   8.001592e+04
  -6.489931e+05  -9.202218e+05
   5.265803e+05  -1.266435e+06
   1.806155e+06  -4.730529e+05
   1.821206e+06   9.400051e+05
   3.660113e+05   1.845263e+06
  -1.240992e+06   1.492691e+06
  -1.537172e+06   2.461108e+05
  -5.025738e+05  -7.572063e+05
   5.628121e+05  -7.577731e+05
   6.245977e+05  -6.946833e+04
  -5.875105e+04   4.252697e+05
  -5.217325e+05   2.925311e+05
  -2.695341e+05  -8.936014e+04
   3.266920e+05  -7.626288e+04
   5.252231e+05   4.888677e+05
  -9.201013e+04   1.054004e+06
  -1.205321e+06   8.448108e+05
  -1.878726e+06  -3.342457e+05
  -1.335124e+06  -1.728197e+06
   1.727463e+05  -2.207649e+06
   1.458856e+06  -1.365199e+06
   1.603614e+06   4.165519e+04
   8.935344e+05   8.736907e+05
   3.225060e+05   7.560252e+05
   3.408226e+05   2.945795e+05
   4.641419e+05   2.329226e+05
   7.698821e+04   6.181575e+05
  -7.474520e+05   8.428358e+05
  -1.326626e+06   3.654043e+05
  -1.033250e+06  -6.631321e+05
   1.618192e+05  -1.411841e+06
   1.555814e+06  -1.051643e+06
   2.073459e+06   3.953894e+05
   1.100615e+06   1.869191e+06
  -8.043362e+05   2.145004e+06
  -2.226194e+06   1.020780e+06
  -2.176302e+06  -4.828005e+05
  -1.002652e+06  -1.199951e+06
   1.126375e+05  -9.650981e+05
   4.245823e+05  -5.601436e+05
   1.988931e+05  -6.643794e+05
   1.443368e+05  -1.095420e+06
   5.671583e+05  -1.108496e+06
   1.121808e+06  -2.816737e+05
   1.198957e+06   9.713569e+05
   5.104141e+05   1.712478e+06
  -5.607335e+05   1.305308e+06
  -1.172076e+06   2.807552e+04
  -7.728541e+05  -1.112649e+06
   2.731686e+05  -1.261657e+06
   9.737490e+05  -4.590791e+05
   7.352729e+05   5.019958e+05
  -1.519426e+04   9.094227e+05
  -3.728910e+05   7.307131e+05
  -3.175823e+04   4.210372e+05
   3.743699e+05   3.218206e+05
   4.449567e+04   3.549684e+05
  -1.000272e+06   2.160748e+05
  -1.817730e+06  -2.564026e+05
  -1.472630e+06  -8.849690e+05
  -4.604221e+04  -1.251042e+06
   1.348812e+06  -1.028008e+06
   1.627715e+06  -3.172724e+05
   7.858527e+05   3.537427e+05
  -1.948063e+05   4.782150e+05
  -4.406077e+05   7.133175e+04
  -7.334410e+03  -3.283147e+05
   4.252912e+05  -2.212409e+05
   4.283738e+05   3.065048e+05
   1.722907e+05   6.671952e+05
   3.236461e+04   4.345317e+05
   1.322870e+05  -1.295620e+05
   2.999694e+05  -3.184078e+05
   2.631870e+05   2.009460e+05
  -1.505270e+05   9.134686e+05
  -7.999621e+05   9.610214e+05
  -1.156145e+06   1.331019e+05
  -7.068812e+05  -8.189629e+05
   3.629663e+05  -9.771627e+05
   1.091229e+06  -2.592128e+05
   6.589256e+05   5.316834e+05
  -6.148809e+05   6.067372e+05
  -1.468791e+06  -3.951398e+04
  -1.001325e+06  -7.608527e+05
   3.726600e+05  -9.543529e+05
   1.375247e+06  -5.325888e+05
   1.177291e+06   1.196953e+05
   1.571041e+05   4.811896e+05
  -5.812111e+05   2.795466e+05
  -3.331904e+05  -2.436162e+05
   5.524297e+05  -4.494010e+05
   1.066968e+06   1.062686e+05
   5.659980e+05   1.086575e+06
  -5.821174e+05   1.526791e+06
  -1.369305e+06   7.767782e+05
  -1.144906e+06  -7.011860e+05
  -1.896528e+05  -1.643566e+06
   6.677692e+05  -1.215824e+06
   8.577334e+05   1.191398e+05
   4.399458e+05   1.081095e+06
  -1.476772e+05   9.150388e+05
  -4.993543e+05   1.018226e+05
  -4.615988e+05  -3.505766e+05
  -1.868370e+05  -1.382081e+05
  -3.009673e+04   9.984446e+04
  -2.061580e+05  -2.386583e+05
  -4.536764e+05  -8.657635e+05
  -2.268642e+05  -9.940064e+05
   5.988736e+05  -3.774420e+05
   1.357672e+06   4.146649e+05
   1.216932e+06   7.562964e+05
   1.799837e+05   6.277597e+05
  -8.110673e+05   3.831898e+05
  -9.112445e+05   1.868882e+05
  -3.012275e+05  -2.269335e+04
   1.446668e+05  -2.025706e+05
  -8.727414e+03  -2.106362e+05
  -2.843528e+05  -1.103664e+05
  -3.009912e+04  -1.226308e+05
   6.469419e+05  -2.003783e+05
   9.482200e+05   1.644115e+04
   3.369581e+05   6.174816e+05
  -7.986462e+05   1.050898e+06
  -1.514559e+06   6.705085e+05
  -1.235791e+06  -4.052823e+05
  -2.421738e+05  -1.286274e+06
   6.792305e+05  -1.245182e+06
   9.507576e+05  -4.689593e+05
   6.031360e+05   2.308149e+05
   1.066928e+05   3.239801e+05
  -9.698026e+04   3.504720e+04
   6.265206e+04  -4.369203e+04
   2.953631e+05   3.225061e+05
   2.460562e+05   7.359783e+05
  -1.666829e+05   6.112097e+05
  -6.274375e+05  -1.324810e+05
  -6.549571e+05  -8.862846e+05
  -7.069225e+04  -9.323901e+05
   7.045480e+05  -1.936435e+05
   9.333675e+05   6.821986e+05
   3.005232e+05   9.870154e+05
  -6.496345e+05   5.946425e+05
  -1.001048e+06  -7.039460e+04
  -4.691586e+05  -5.288982e+05
   2.526764e+05  -5.872295e+05
   3.135942e+05  -3.317603e+05
  -2.565141e+05  -2.137517e+04
  -5.995559e+05   3.396963e+04
  -1.247949e+05  -2.728167e+05
   7.483410e+05  -6.278774e+05
   1.118564e+06  -5.254520e+05
   6.656427e+05   1.300018e+05
  -8.449553e+04   7.798048e+05
  -4.694390e+05   7.722524e+05
  -3.539210e+05   1.294682e+05
  -3.442391e+04  -4.479453e+05
   2.199776e+05  -3.807765e+05
   3.215189e+05   1.596265e+05
   2.305675e+05   5.251404e+05
  -5.110571e+04   3.637409e+05
  -3.544248e+05  -5.027895e+04
  -4.266567e+05  -2.327732e+05
  -2.223973e+05  -6.909167e+04
   1.979230e+04   1.139194e+05
   7.830704e+04  -5.833463e+03
   2.635289e+04  -3.369675e+05
   9.403184e+04  -4.674898e+05
   3.029879e+05  -1.498270e+05
   3.811563e+05   3.726104e+05
   9.811074e+04   5.899390e+05
  -3.828034e+05   2.746122e+05
  -5.875091e+05  -2.671686e+05
  -2.201265e+05  -5.307373e+05
   4.515820e+05  -3.326824e+05
   7.875535e+05   7.426747e+04
   4.306770e+05   3.411248e+05
  -2.636527e+05   3.462852e+05
  -5.717205e+05   1.875755e+05
  -2.067527e+05   1.547495e+04
   3.427059e+05  -4.085566e+04
   3.810823e+05   8.608584e+04
  -1.764783e+05   2.824287e+05
  -7.145183e+05   2.481133e+05
