
 $NMID
 id='ANONYMOUS ', fmtdat='(2E16.6)'
 volume=1.0
 tramp=1.0
 $END
   1.069148e+07   4.038847e+05
   6.167140e+06   6.698427e+06
  -1.590676e+06   7.079870e+06
  -5.212191e+06   2.698555e+06
  -3.060063e+06  -1.264932e+06
   6.148310e+05  -1.721648e+06
   1.828662e+06   1.858371e+05
   5.464573e+05   1.811795e+06
  -1.131567e+06   1.798585e+06
  -1.817904e+06   3.989198e+05
  -1.328995e+06  -1.226355e+06
  -1.281560e+05  -1.689169e+06
   8.047071e+05  -5.017286e+05
   5.294412e+05   1.107398e+06
  -7.088690e+05   1.294034e+06
  -1.489649e+06  -2.560652e+05
  -8.212731e+05  -1.960171e+06
   7.612414e+05  -2.238373e+06
   1.964057e+06  -1.068444e+06
   2.051304e+06   4.841319e+05
   1.176944e+06   1.493030e+06
   2.447469e+04   1.621996e+06
  -5.776556e+05   1.062229e+06
  -2.618003e+05   4.696908e+05
   3.129470e+05   4.761524e+05
   4.063617e+04   8.985110e+05
  -1.145113e+06   8.687638e+05
  -1.953985e+06   3.505309e+04
  -1.359408e+06  -8.719111e+05
   3.237977e+04  -1.013820e+06
   8.164890e+05  -4.765662e+05
   5.200241e+05   7.588473e+04
  -1.711028e+05   2.778549e+05
  -5.481778e+05   1.221676e+05
  -4.837979e+05  -3.525246e+05
  -9.850631e+04  -8.480129e+05
   4.062574e+05  -7.345131e+05
   6.097249e+05   1.051305e+05
   2.548444e+05   7.366801e+05
  -1.972411e+05   3.064614e+05
  -5.488398e+04  -5.583159e+05
   4.915559e+05  -4.748628e+05
   4.649804e+05   6.054600e+05
  -4.543245e+05   1.135309e+06
  -1.271497e+06   1.397983e+05
  -9.083423e+05  -1.333889e+06
   4.011369e+05  -1.588344e+06
   1.430805e+06  -4.173911e+05
   1.351513e+06   8.740030e+05
   3.797292e+05   1.174257e+06
  -6.696592e+05   5.477111e+05
  -1.043327e+06  -2.708321e+05
  -4.984393e+05  -6.615223e+05
   4.495331e+05  -4.180274e+05
   8.646621e+05   1.792172e+05
   3.728181e+05   5.159003e+05
  -3.315139e+05   2.561111e+05
  -3.511838e+05  -1.937104e+05
   2.150916e+05  -1.816676e+05
   4.468200e+05   2.920281e+05
  -1.000615e+05   5.915535e+05
  -8.383119e+05   3.263236e+05
  -9.837282e+05  -2.506977e+05
  -4.315345e+05  -7.487333e+05
   3.830694e+05  -1.025839e+06
   1.034781e+06  -9.460183e+05
   1.246780e+06  -3.081615e+05
   8.795543e+05   6.669112e+05
   1.547114e+05   1.233338e+06
  -3.548870e+05   9.400532e+05
  -3.103037e+05   2.663368e+05
  -3.143124e+04   9.003862e+03
  -5.025178e+04   2.439691e+05
  -3.926460e+05   3.573306e+05
  -6.108790e+05   4.037254e+03
  -4.190565e+05  -4.465918e+05
   1.611806e+04  -4.770978e+05
   3.557269e+05  -5.167583e+04
   3.699300e+05   4.430445e+05
  -5.360543e+03   6.158655e+05
  -5.810093e+05   3.212599e+05
  -8.958621e+05  -2.765036e+05
  -6.082389e+05  -7.702282e+05
   4.210127e+04  -8.203354e+05
   4.553841e+05  -5.030037e+05
   4.233370e+05  -2.090244e+05
   3.497861e+05  -1.444649e+05
   5.897324e+05  -1.114668e+05
   8.847061e+05   1.436117e+05
   7.170549e+05   5.591705e+05
   3.385557e+04   8.497299e+05
  -6.630892e+05   8.109257e+05
  -8.764018e+05   4.350850e+05
  -5.557872e+05  -1.054622e+05
  -4.219979e+04  -4.794017e+05
   2.464353e+05  -4.007376e+05
   1.185987e+05   1.493836e+04
  -2.317170e+05   2.722989e+05
  -3.912827e+05   7.945353e+04
  -1.810543e+05  -2.506018e+05
   1.123633e+05  -2.357899e+05
   1.001141e+05   7.169673e+04
  -1.913896e+05   1.542637e+05
  -3.621777e+05  -2.218357e+05
  -1.584293e+05  -6.711228e+05
   2.655907e+05  -6.984435e+05
   6.042680e+05  -2.713469e+05
   6.929305e+05   2.540188e+05
   5.069624e+05   5.585783e+05
   1.140808e+05   5.502347e+05
  -2.602897e+05   3.103897e+05
  -3.337482e+05   4.717824e+04
  -1.026037e+05  -9.052250e+03
   7.566121e+04   1.552536e+05
  -8.268990e+04   2.722159e+05
  -3.875830e+05   1.169889e+05
  -4.152670e+05  -1.767665e+05
  -8.230222e+04  -2.857889e+05
   2.394601e+05  -1.216006e+05
   1.915351e+05   8.881301e+04
  -1.646128e+05   1.170721e+05
  -4.547509e+05  -4.522893e+04
  -3.805109e+05  -2.696882e+05
   3.429148e+04  -4.160912e+05
   4.745518e+05  -3.566694e+05
   5.770264e+05  -6.403362e+04
   2.516294e+05   2.587041e+05
  -1.904991e+05   3.058027e+05
  -3.182539e+05   3.527997e+04
  -3.688226e+04  -2.232741e+05
   3.142832e+05  -1.528710e+05
   3.571412e+05   1.569465e+05
   7.800076e+04   3.388814e+05
  -2.168711e+05   2.077440e+05
  -2.591565e+05  -5.447833e+04
  -5.628197e+04  -1.562786e+05
   1.612109e+05  -1.135233e+04
   1.524308e+05   2.183610e+05
  -1.205327e+05   2.972393e+05
  -4.196063e+05   1.135923e+05
  -4.248352e+05  -2.182993e+05
  -8.155735e+04  -4.307949e+05
   2.958595e+05  -3.421815e+05
   3.568383e+05  -4.740791e+04
   1.073002e+05   1.775322e+05
  -1.338544e+05   1.690080e+05
  -1.358577e+05   1.878680e+04
   1.679651e+04  -7.967235e+04
   1.026991e+05  -5.424308e+04
   3.721171e+04   8.119335e+03
  -8.188752e+04  -1.011895e+04
  -1.067106e+05  -1.298541e+05
   3.726356e+04  -2.425523e+05
   2.838314e+05  -1.882516e+05
   4.333840e+05   8.268796e+04
   3.070365e+05   4.029272e+05
  -4.123113e+04   5.063840e+05
  -3.325020e+05   3.018325e+05
  -3.546428e+05  -1.721059e+04
  -1.900708e+05  -1.853251e+05
  -7.657107e+04  -1.448475e+05
  -9.855646e+04  -5.567795e+04
  -1.224574e+05  -6.650149e+04
  -1.586371e+04  -1.551995e+05
   1.783018e+05  -1.884669e+05
   2.999867e+05  -7.413173e+04
   2.254118e+05   1.467898e+05
  -4.294804e+04   3.078092e+05
  -3.551047e+05   2.303837e+05
  -4.707367e+05  -9.487313e+04
  -2.418183e+05  -4.327901e+05
   2.023348e+05  -4.906141e+05
   5.221602e+05  -2.195125e+05
   4.897545e+05   1.268418e+05
   2.087767e+05   2.721257e+05
  -3.277353e+04   2.011735e+05
  -8.086329e+04   1.163660e+05
  -2.442909e+04   1.624188e+05
  -2.772297e+04   2.703449e+05
  -1.393752e+05   2.646118e+05
  -2.675669e+05   6.505250e+04
  -2.796845e+05  -2.248965e+05
  -1.184192e+05  -3.952827e+05
   1.284431e+05  -3.013153e+05
   2.679864e+05  -2.865626e+03
   1.709533e+05   2.629727e+05
  -7.572555e+04   2.883992e+05
  -2.337377e+05   8.767567e+04
  -1.642299e+05  -1.372578e+05
   2.201674e+04  -2.166393e+05
   1.036589e+05  -1.601262e+05
   1.266467e+04  -8.763192e+04
  -9.067277e+04  -7.167991e+04
  -1.268251e+04  -8.098301e+04
   2.364052e+05  -4.463143e+04
   4.266593e+05   6.727784e+04
   3.371605e+05   2.117394e+05
  -4.090843e+03   2.935607e+05
  -3.262544e+05   2.355705e+05
  -3.779589e+05   6.215913e+04
  -1.722384e+05  -9.569590e+04
   5.338328e+04  -1.151487e+05
   1.037306e+05  -8.817001e+03
   3.147857e+03   8.594814e+04
  -9.434850e+04   5.492023e+04
  -1.005266e+05  -7.121762e+04
  -5.129618e+04  -1.543713e+05
  -1.770045e+04  -1.027969e+05
  -2.693407e+04   2.268462e+04
  -5.801643e+04   6.663325e+04
  -5.811523e+04  -4.704297e+04
   2.861956e+04  -2.086101e+05
   1.862716e+05  -2.231965e+05
   2.819539e+05  -3.332605e+04
   1.756828e+05   1.929415e+05
  -8.741917e+04   2.355450e+05
  -2.626380e+05   6.757431e+04
  -1.546480e+05  -1.198899e+05
   1.442075e+05  -1.364057e+05
   3.315798e+05   1.455625e+04
   2.146521e+05   1.740745e+05
  -9.423826e+04   2.069713e+05
  -3.090108e+05   1.072760e+05
  -2.583646e+05  -3.314989e+04
  -3.103359e+04  -1.063881e+05
   1.335813e+05  -5.833229e+04
   7.910274e+04   6.088400e+04
  -1.239165e+05   1.105059e+05
  -2.495990e+05  -1.661337e+04
  -1.419244e+05  -2.492982e+05
   1.233555e+05  -3.599307e+05
   3.118943e+05  -1.886686e+05
   2.657128e+05   1.569012e+05
   4.669070e+04   3.758023e+05
  -1.508805e+05   2.738300e+05
  -1.927495e+05  -3.334500e+04
  -9.376531e+04  -2.467348e+05
   4.117765e+04  -2.018509e+05
   1.161238e+05  -1.865930e+04
   9.983211e+04   7.652417e+04
   3.621646e+04   2.678274e+04
   9.004964e+03  -1.963042e+04
   5.656055e+04   6.346404e+04
   1.078696e+05   2.021913e+05
   4.390182e+04   2.234132e+05
  -1.472565e+05   8.177736e+04
  -3.104419e+05  -9.376681e+04
  -2.710743e+05  -1.702160e+05
  -3.996684e+04  -1.455347e+05
   1.787618e+05  -9.184052e+04
   2.053524e+05  -4.147814e+04
   7.409952e+04   1.165954e+04
  -3.039413e+04   4.842099e+04
  -5.318955e+03   4.097015e+04
   5.762571e+04   1.683071e+04
   1.099259e+04   2.880739e+04
  -1.395671e+05   5.387387e+04
  -2.205081e+05  -2.000158e+01
  -9.197703e+04  -1.478950e+05
   1.752312e+05  -2.519177e+05
   3.566887e+05  -1.616560e+05
   2.989540e+05   8.987711e+04
   6.213531e+04   2.955593e+05
  -1.581499e+05   2.903718e+05
  -2.206628e+05   1.160466e+05
  -1.397333e+05  -4.644131e+04
  -2.919351e+04  -7.599475e+04
   1.588510e+04  -1.650541e+04
  -1.536250e+04   2.749507e+03
  -6.324308e+04  -7.530779e+04
  -5.407505e+04  -1.680778e+05
   3.610969e+04  -1.438640e+05
   1.451219e+05   2.245740e+04
   1.602889e+05   1.987326e+05
   2.804616e+04   2.192332e+05
  -1.593991e+05   5.672106e+04
  -2.223131e+05  -1.481697e+05
  -7.717518e+04  -2.295028e+05
   1.493311e+05  -1.457393e+05
   2.364489e+05   1.299196e+04
   1.125348e+05   1.289280e+05
  -6.035930e+04   1.440688e+05
  -7.975340e+04   7.676846e+04
   5.205357e+04  -1.376200e+03
   1.365201e+05  -1.110174e+04
   3.169187e+04   6.518575e+04
  -1.710200e+05   1.452162e+05
  -2.620592e+05   1.150318e+05
  -1.599702e+05  -3.772669e+04
   1.819620e+04  -1.836170e+05
   1.149861e+05  -1.802408e+05
   9.148881e+04  -3.396750e+04
   1.435544e+04   1.012895e+05
  -4.979179e+04   9.332466e+04
  -7.641963e+04  -2.864438e+04
  -5.565537e+04  -1.207761e+05
   1.111930e+04  -9.145503e+04
   8.327993e+04   7.652446e+03
   9.996587e+04   5.875055e+04
   5.009950e+04   2.009747e+04
  -6.729673e+03  -3.324342e+04
  -1.437627e+04  -1.053539e+04
   6.510017e+03   7.633748e+04
  -8.561621e+03   1.209295e+05
  -6.919041e+04   5.035556e+04
  -1.015827e+05  -7.937589e+04
  -3.767566e+04  -1.389697e+05
   8.508663e+04  -6.925414e+04
   1.428972e+05   5.683061e+04
   5.696010e+04   1.202056e+05
  -1.060462e+05   7.836091e+04
  -1.875781e+05  -1.319043e+04
  -1.026224e+05  -7.820805e+04
   6.178126e+04  -8.627140e+04
   1.357628e+05  -5.104589e+04
   5.396935e+04  -3.453055e+03
  -7.272139e+04   1.896530e+04
  -8.764857e+04  -9.480309e+03
   3.170177e+04  -6.280239e+04
   1.534025e+05  -6.297632e+04
