
 $NMID
 id='ANONYMOUS ', fmtdat='(2E16.6)'
 volume=1.0
 tramp=1.0
 $END
  -4.533437e+07  -1.219153e+06
  -2.705300e+07  -2.744424e+07
   5.655372e+06  -3.007472e+07
   2.193535e+07  -1.260922e+07
   1.367408e+07   4.465964e+06
  -2.133934e+06   7.523368e+06
  -8.101803e+06  -1.813109e+05
  -2.956163e+06  -7.770164e+06
   4.584364e+06  -8.356293e+06
   7.924866e+06  -2.201867e+06
   5.847733e+06   5.304572e+06
   5.477042e+05   7.456812e+06
  -3.510899e+06   2.079596e+06
  -2.311010e+06  -5.141011e+06
   3.064307e+06  -6.004817e+06
   6.554863e+06   8.374806e+05
   3.796011e+06   8.435498e+06
  -3.065372e+06   9.781653e+06
  -8.356015e+06   4.684985e+06
  -8.695526e+06  -2.066167e+06
  -4.863106e+06  -6.248476e+06
  -1.138044e+05  -6.595241e+06
   2.061807e+06  -4.352753e+06
   5.626437e+05  -2.330307e+06
  -1.553836e+06  -2.690484e+06
   1.208213e+05  -4.275142e+06
   5.425539e+06  -3.645234e+06
   8.733353e+06   1.947898e+05
   5.822901e+06   3.972037e+06
  -4.623130e+05   4.294266e+06
  -3.828456e+06   1.731007e+06
  -2.141037e+06  -7.228939e+05
   1.302390e+06  -1.366813e+06
   2.900027e+06  -2.685847e+05
   2.093385e+06   2.002505e+06
   6.465541e+04   3.910731e+06
  -1.874014e+06   3.041877e+06
  -2.324323e+06  -6.273066e+05
  -8.138084e+05  -3.056005e+06
   7.458901e+05  -9.689552e+05
  -6.528208e+04   2.716012e+06
  -2.303290e+06   2.204459e+06
  -2.149431e+06  -2.563078e+06
   1.649082e+06  -4.980120e+06
   5.169205e+06  -8.469674e+05
   3.922041e+06   5.498051e+06
  -1.486163e+06   6.778290e+06
  -6.105678e+06   1.859180e+06
  -6.079286e+06  -3.817048e+06
  -1.867067e+06  -5.295787e+06
   2.996724e+06  -2.596927e+06
   4.851440e+06   1.105791e+06
   2.440484e+06   2.947045e+06
  -1.861399e+06   1.943199e+06
  -3.817060e+06  -6.635919e+05
  -1.733598e+06  -2.192898e+06
   1.408453e+06  -1.140089e+06
   1.648155e+06   8.601371e+05
  -8.120932e+05   9.958845e+05
  -2.083539e+06  -9.629433e+05
   3.523596e+04  -2.454610e+06
   3.336049e+06  -1.614267e+06
   4.299358e+06   8.043699e+05
   2.022382e+06   3.144556e+06
  -1.732663e+06   4.498622e+06
  -4.754281e+06   4.101254e+06
  -5.559381e+06   1.220608e+06
  -3.743242e+06  -3.030952e+06
  -5.784357e+05  -5.487147e+06
   1.514444e+06  -4.293323e+06
   1.350073e+06  -1.443066e+06
   3.556390e+05  -2.516733e+05
   6.004203e+05  -1.067017e+06
   2.033597e+06  -1.350487e+06
   2.776081e+06   3.177612e+05
   1.717053e+06   2.285640e+06
  -3.288826e+05   2.244349e+06
  -1.803660e+06   9.609655e+04
  -1.685391e+06  -2.235024e+06
   1.564946e+05  -2.868956e+06
   2.697484e+06  -1.318268e+06
   3.931147e+06   1.397215e+06
   2.571143e+06   3.431154e+06
  -2.171738e+05   3.514588e+06
  -1.920137e+06   2.149783e+06
  -1.777038e+06   9.766294e+05
  -1.562962e+06   7.488518e+05
  -2.744198e+06   5.576334e+05
  -4.106148e+06  -6.733972e+05
  -3.308484e+06  -2.628541e+06
  -9.723776e+04  -3.970698e+06
   3.192672e+06  -3.712056e+06
   4.153863e+06  -1.862981e+06
   2.520970e+06   6.381392e+05
   2.725888e+04   2.232325e+06
  -1.252865e+06   1.762729e+06
  -5.237333e+05  -1.165614e+05
   1.135031e+06  -1.216704e+06
   1.801982e+06  -3.255063e+05
   7.738460e+05   1.150378e+06
  -5.853872e+05   1.075441e+06
  -5.273079e+05  -3.617093e+05
   8.505713e+05  -8.410758e+05
   1.760235e+06   8.408238e+05
   9.408333e+05   3.068297e+06
  -1.070744e+06   3.441652e+06
  -2.848907e+06   1.511400e+06
  -3.400046e+06  -1.136906e+06
  -2.469955e+06  -2.751059e+06
  -5.008006e+05  -2.684952e+06
   1.282223e+06  -1.427160e+06
   1.577908e+06  -1.566870e+05
   4.787545e+05   5.233765e+04
  -3.420346e+05  -7.337663e+05
   3.796999e+05  -1.249220e+06
   1.774482e+06  -5.247257e+05
   1.918572e+06   8.139300e+05
   3.920816e+05   1.318917e+06
  -1.128624e+06   5.637786e+05
  -9.294440e+05  -4.475157e+05
   7.814422e+05  -6.114149e+05
   2.214975e+06   1.948825e+05
   1.859454e+06   1.336539e+06
  -1.749260e+05   2.034179e+06
  -2.288604e+06   1.676261e+06
  -2.726360e+06   2.574991e+05
  -1.156272e+06  -1.209483e+06
   8.894990e+05  -1.380974e+06
   1.443784e+06  -1.410361e+05
   1.345232e+05   1.015466e+06
  -1.474282e+06   6.794439e+05
  -1.669513e+06  -7.493745e+05
  -3.745989e+05  -1.604824e+06
   1.018312e+06  -1.005562e+06
   1.240076e+06   2.360274e+05
   2.900531e+05   7.363958e+05
  -7.385952e+05   5.460812e+04
  -6.872519e+05  -1.028938e+06
   6.014091e+05  -1.371769e+06
   1.975916e+06  -4.767713e+05
   1.958758e+06   1.067328e+06
   3.432696e+05   2.017921e+06
  -1.401223e+06   1.579432e+06
  -1.673432e+06   2.068981e+05
  -5.038499e+05  -8.388762e+05
   6.397315e+05  -7.922908e+05
   6.608380e+05  -6.084555e+04
  -8.512632e+04   4.247007e+05
  -5.410020e+05   2.759552e+05
  -2.400718e+05  -8.227027e+04
   3.716732e+05  -2.182494e+04
   5.310062e+05   5.769043e+05
  -1.565709e+05   1.140283e+06
  -1.338510e+06   8.734530e+05
  -2.027504e+06  -4.197865e+05
  -1.401451e+06  -1.913623e+06
   2.454095e+05  -2.379470e+06
   1.606235e+06  -1.413179e+06
   1.703401e+06   1.021407e+05
   9.100038e+05   9.348689e+05
   3.314805e+05   7.639688e+05
   4.017356e+05   2.991148e+05
   5.310486e+05   2.874448e+05
   6.795084e+04   6.969927e+05
  -8.407065e+05   8.842093e+05
  -1.434406e+06   3.446678e+05
  -1.077737e+06  -7.302776e+05
   2.213648e+05  -1.489750e+06
   1.704192e+06  -1.077036e+06
   2.221252e+06   4.872309e+05
   1.120725e+06   2.056957e+06
  -9.603146e+05   2.296457e+06
  -2.455951e+06   1.017331e+06
  -2.320204e+06  -6.110805e+05
  -1.007819e+06  -1.317424e+06
   1.629415e+05  -9.987102e+05
   4.400415e+05  -5.674542e+05
   1.866954e+05  -7.304099e+05
   1.700857e+05  -1.217376e+06
   6.582159e+05  -1.204715e+06
   1.239571e+06  -2.778713e+05
   1.280056e+06   1.083161e+06
   5.107008e+05   1.867403e+06
  -6.384607e+05   1.399172e+06
  -1.265557e+06  -7.500075e+03
  -7.945661e+05  -1.238558e+06
   3.541693e+05  -1.355429e+06
   1.087424e+06  -4.361619e+05
   7.758055e+05   6.070262e+05
  -7.635550e+04   1.001296e+06
  -4.601078e+05   7.672438e+05
  -5.773984e+04   4.358231e+05
   4.062894e+05   3.508142e+05
   4.520260e+04   3.828645e+05
  -1.100535e+06   2.001407e+05
  -1.978715e+06  -3.373734e+05
  -1.568704e+06  -1.011014e+06
   1.144329e+04  -1.369118e+06
   1.518022e+06  -1.078737e+06
   1.776910e+06  -2.797754e+05
   8.252249e+05   4.338190e+05
  -2.392942e+05   5.244038e+05
  -4.843001e+05   5.111374e+04
  -5.524920e+03  -3.759003e+05
   4.560108e+05  -2.363363e+05
   4.593654e+05   3.423163e+05
   1.945686e+05   7.245933e+05
   4.605380e+04   4.743534e+05
   1.397303e+05  -1.218768e+05
   3.109837e+05  -3.220972e+05
   2.765039e+05   2.254507e+05
  -1.716176e+05   9.806089e+05
  -8.932607e+05   1.025706e+06
  -1.287417e+06   1.247202e+05
  -7.728418e+05  -9.101981e+05
   4.227258e+05  -1.071140e+06
   1.208858e+06  -2.723736e+05
   7.051340e+05   5.851066e+05
  -6.856699e+05   6.344715e+05
  -1.574258e+06  -9.125432e+04
  -1.030932e+06  -8.476809e+05
   4.459265e+05  -9.977586e+05
   1.487150e+06  -5.088564e+05
   1.245030e+06   1.724577e+05
   1.464318e+05   5.161146e+05
  -6.365304e+05   2.750137e+05
  -3.602674e+05  -2.819358e+05
   6.009441e+05  -4.867504e+05
   1.158510e+06   1.244638e+05
   6.093200e+05   1.185361e+06
  -6.434255e+05   1.652152e+06
  -1.490761e+06   8.259222e+05
  -1.224018e+06  -7.764167e+05
  -1.703854e+05  -1.775665e+06
   7.472066e+05  -1.284991e+06
   9.160479e+05   1.632464e+05
   4.330619e+05   1.177250e+06
  -1.993891e+05   9.694126e+05
  -5.464985e+05   8.816804e+04
  -4.765023e+05  -3.833770e+05
  -1.833803e+05  -1.453067e+05
  -4.009944e+04   1.003637e+05
  -2.379108e+05  -2.794302e+05
  -4.767194e+05  -9.530171e+05
  -2.017443e+05  -1.070860e+06
   6.778332e+05  -3.843552e+05
   1.452963e+06   4.789611e+05
   1.277399e+06   8.415583e+05
   1.765217e+05   6.856998e+05
  -8.688796e+05   4.003883e+05
  -9.810766e+05   1.755184e+05
  -3.365249e+05  -4.437151e+04
   1.550018e+05  -2.183149e+05
   1.251405e+04  -2.134172e+05
  -2.870061e+05  -1.100955e+05
  -3.842949e+04  -1.341851e+05
   6.835057e+05  -2.152994e+05
   1.029204e+06   3.298109e+04
   3.805795e+05   6.853063e+05
  -8.696037e+05   1.135789e+06
  -1.669766e+06   7.045449e+05
  -1.356008e+06  -4.584991e+05
  -2.435369e+05  -1.394440e+06
   7.681844e+05  -1.338287e+06
   1.042120e+06  -5.013676e+05
   6.474614e+05   2.503764e+05
   1.175335e+05   3.554038e+05
  -9.060700e+04   5.204306e+04
   7.232738e+04  -3.063391e+04
   3.018469e+05   3.594369e+05
   2.421083e+05   8.000981e+05
  -1.904172e+05   6.631512e+05
  -6.752884e+05  -1.421135e+05
  -7.050499e+05  -9.618998e+05
  -7.878448e+04  -1.017193e+06
   7.582700e+05  -2.166975e+05
   1.006103e+06   7.406223e+05
   3.178754e+05   1.077841e+06
  -7.148275e+05   6.456163e+05
  -1.092900e+06  -9.276324e+04
  -5.055603e+05  -5.978635e+05
   2.905721e+05  -6.482875e+05
   3.635266e+05  -3.535760e+05
  -2.605534e+05  -1.751733e+04
  -6.453908e+05   2.870502e+04
  -1.350525e+05  -3.024113e+05
   8.220195e+05  -6.615794e+05
   1.233469e+06  -5.289726e+05
   7.323339e+05   1.720105e+05
  -1.072251e+05   8.494361e+05
  -5.407249e+05   8.301179e+05
  -4.060506e+05   1.422466e+05
  -3.935160e+04  -4.799614e+05
   2.442012e+05  -4.181388e+05
   3.470561e+05   1.629140e+05
   2.417895e+05   5.727774e+05
  -6.123382e+04   4.081794e+05
  -3.847176e+05  -5.459099e+04
  -4.603300e+05  -2.728028e+05
  -2.373232e+05  -8.920624e+04
   2.463681e+04   1.380561e+05
   7.967056e+04   2.139138e+04
   1.069766e+04  -3.584678e+05
   8.291699e+04  -5.283477e+05
   3.267240e+05  -1.877111e+05
   4.306291e+05   3.959144e+05
   1.239449e+05   6.437654e+05
  -4.130334e+05   2.995993e+05
  -6.438791e+05  -2.919063e+05
  -2.378278e+05  -5.739306e+05
   5.005783e+05  -3.528759e+05
   8.622595e+05   9.022379e+04
   4.645289e+05   3.781662e+05
  -2.946309e+05   3.818932e+05
  -6.298848e+05   2.059811e+05
  -2.372078e+05   1.276187e+04
   3.566760e+05  -5.428371e+04
   4.074784e+05   8.095279e+04
  -1.796868e+05   2.944282e+05
  -7.542742e+05   2.604532e+05
