
 $NMID
 id='ANONYMOUS ', fmtdat='(2E16.6)'
 volume=1.0
 tramp=1.0
 $END
  -3.614298e+07  -9.698538e+04
  -2.257834e+07  -2.025655e+07
   2.963554e+06  -2.376399e+07
   1.681698e+07  -1.165576e+07
   1.151294e+07   2.071144e+06
  -9.462912e+05   6.150775e+06
  -6.669640e+06   8.496523e+05
  -3.282153e+06  -6.036852e+06
   3.017674e+06  -7.569513e+06
   6.395983e+06  -2.567597e+06
   5.059312e+06   4.260051e+06
   6.354603e+05   6.369014e+06
  -2.955767e+06   1.698476e+06
  -2.181672e+06  -4.628574e+06
   2.259723e+06  -5.511846e+06
   5.455773e+06   2.183227e+05
   3.537496e+06   6.773189e+06
  -2.093544e+06   8.165902e+06
  -6.670505e+06   4.005172e+06
  -7.003742e+06  -1.644006e+06
  -3.740958e+06  -4.952700e+06
  -1.466918e+04  -4.940572e+06
   1.214115e+06  -3.155047e+06
  -3.843336e+05  -2.070911e+06
  -1.824525e+06  -2.896467e+06
   2.415022e+05  -4.134648e+06
   5.055621e+06  -3.151958e+06
   7.716074e+06   3.320944e+05
   4.902860e+06   3.461662e+06
  -7.318049e+05   3.589368e+06
  -3.633675e+06   1.226017e+06
  -1.817943e+06  -1.085121e+06
   1.673925e+06  -1.590455e+06
   3.157697e+06  -1.667274e+05
   1.968032e+06   2.229074e+06
  -2.363065e+05   3.705901e+06
  -1.721265e+06   2.435409e+06
  -1.634353e+06  -8.330394e+05
  -3.146712e+05  -2.481237e+06
   6.206926e+05  -3.277184e+05
  -2.605092e+05   2.745118e+06
  -2.031659e+06   2.113217e+06
  -1.968575e+06  -1.962006e+06
   8.654376e+05  -4.090320e+06
   3.746356e+06  -9.336538e+05
   3.195123e+06   4.148299e+06
  -8.625980e+05   5.394365e+06
  -4.889897e+06   1.650816e+06
  -5.376799e+06  -3.011961e+06
  -1.986267e+06  -4.522437e+06
   2.464638e+06  -2.519345e+06
   4.419181e+06   6.151843e+05
   2.459753e+06   2.393467e+06
  -1.340241e+06   1.781545e+06
  -3.217789e+06  -3.107951e+05
  -1.614450e+06  -1.690379e+06
   1.093697e+06  -1.001044e+06
   1.551061e+06   6.562308e+05
  -4.117417e+05   1.050121e+06
  -1.797766e+06  -3.229136e+05
  -4.641501e+05  -1.728421e+06
   2.285397e+06  -1.508689e+06
   3.504678e+06   2.415586e+05
   1.868207e+06   2.392241e+06
  -1.447330e+06   3.851544e+06
  -4.225328e+06   3.582215e+06
  -4.837655e+06   1.012695e+06
  -3.123915e+06  -2.665762e+06
  -5.078777e+05  -4.762576e+06
   1.073150e+06  -3.852218e+06
   9.932291e+05  -1.580856e+06
   4.846441e+05  -5.654422e+05
   9.529244e+05  -1.057418e+06
   2.151471e+06  -1.039816e+06
   2.599989e+06   5.783600e+05
   1.486708e+06   2.337638e+06
  -4.754688e+05   2.194265e+06
  -1.867978e+06   6.784438e+04
  -1.670098e+06  -2.175190e+06
   1.606361e+05  -2.685210e+06
   2.468485e+06  -1.122484e+06
   3.427301e+06   1.324685e+06
   2.143699e+06   2.954603e+06
  -1.914021e+05   2.886904e+06
  -1.514164e+06   1.750806e+06
  -1.364230e+06   8.949980e+05
  -1.292859e+06   8.111688e+05
  -2.465334e+06   6.702936e+05
  -3.767208e+06  -4.504213e+05
  -3.113360e+06  -2.301191e+06
  -1.990585e+05  -3.664334e+06
   2.901766e+06  -3.498808e+06
   3.864886e+06  -1.728252e+06
   2.316854e+06   6.634703e+05
  -6.713722e+04   2.105951e+06
  -1.227725e+06   1.596537e+06
  -4.729283e+05  -1.417272e+05
   1.062982e+06  -1.127294e+06
   1.626158e+06  -3.258429e+05
   6.778715e+05   1.022996e+06
  -5.606836e+05   1.014308e+06
  -5.785551e+05  -3.063134e+05
   6.381657e+05  -9.283713e+05
   1.646941e+06   4.389034e+05
   1.203311e+06   2.616120e+06
  -5.604177e+05   3.345214e+06
  -2.479610e+06   1.804299e+06
  -3.341252e+06  -7.718676e+05
  -2.565979e+06  -2.538080e+06
  -5.893278e+05  -2.586061e+06
   1.199738e+06  -1.368356e+06
   1.491117e+06  -1.509620e+05
   4.472209e+05   3.826954e+04
  -3.382177e+05  -6.694083e+05
   2.894649e+05  -1.133421e+06
   1.568483e+06  -5.256832e+05
   1.769715e+06   6.482748e+05
   4.289982e+05   1.166859e+06
  -1.014892e+06   5.701877e+05
  -9.223637e+05  -3.842557e+05
   6.747310e+05  -6.676823e+05
   2.132398e+06   2.661953e+04
   1.887317e+06   1.195709e+06
  -4.908685e+04   1.981108e+06
  -2.101096e+06   1.681531e+06
  -2.543340e+06   3.261704e+05
  -1.098145e+06  -1.065575e+06
   7.691907e+05  -1.255656e+06
   1.279792e+06  -1.548339e+05
   1.192909e+05   9.072857e+05
  -1.339596e+06   6.549417e+05
  -1.574251e+06  -6.266693e+05
  -4.409082e+05  -1.475306e+06
   8.765294e+05  -1.014060e+06
   1.174325e+06   1.216879e+05
   3.377738e+05   6.538933e+05
  -6.504540e+05   7.882823e+04
  -6.466770e+05  -9.287034e+05
   5.409476e+05  -1.275785e+06
   1.828133e+06  -4.677408e+05
   1.832839e+06   9.557043e+05
   3.656900e+05   1.856938e+06
  -1.243131e+06   1.500216e+06
  -1.541731e+06   2.549469e+05
  -5.124529e+05  -7.547324e+05
   5.614419e+05  -7.667160e+05
   6.428393e+05  -7.087819e+04
  -4.263933e+04   4.502539e+05
  -5.397818e+05   3.254114e+05
  -3.135115e+05  -8.611727e+04
   2.999965e+05  -1.059238e+05
   5.347086e+05   4.618669e+05
  -7.381913e+04   1.053431e+06
  -1.207223e+06   8.563790e+05
  -1.894538e+06  -3.336308e+05
  -1.345020e+06  -1.742939e+06
   1.734625e+05  -2.232901e+06
   1.469708e+06  -1.395993e+06
   1.631693e+06   2.230491e+04
   9.339635e+05   8.887745e+05
   3.470861e+05   8.000195e+05
   3.312780e+05   3.286027e+05
   4.410923e+05   2.334635e+05
   7.032499e+04   6.087175e+05
  -7.436537e+05   8.544698e+05
  -1.340667e+06   3.866211e+05
  -1.065726e+06  -6.672513e+05
   1.426948e+05  -1.444198e+06
   1.568550e+06  -1.079956e+06
   2.101929e+06   3.914062e+05
   1.122851e+06   1.879487e+06
  -7.933019e+05   2.158364e+06
  -2.228425e+06   1.040019e+06
  -2.200165e+06  -4.629853e+05
  -1.041448e+06  -1.201041e+06
   8.973101e+04  -9.947188e+05
   4.392686e+05  -5.947009e+05
   2.344838e+05  -6.780315e+05
   1.682821e+05  -1.090500e+06
   5.719134e+05  -1.101828e+06
   1.123878e+06  -2.757464e+05
   1.206012e+06   9.850204e+05
   5.122735e+05   1.731761e+06
  -5.700165e+05   1.318737e+06
  -1.184562e+06   3.243726e+04
  -7.828966e+05  -1.112610e+06
   2.610006e+05  -1.267490e+06
   9.595642e+05  -4.763367e+05
   7.315432e+05   4.791457e+05
  -6.018264e+02   8.963498e+05
  -3.508621e+05   7.336798e+05
  -1.897677e+04   4.319141e+05
   3.754368e+05   3.316644e+05
   4.307746e+04   3.617693e+05
  -1.000467e+06   2.192473e+05
  -1.822380e+06  -2.573510e+05
  -1.484377e+06  -8.856106e+05
  -5.757497e+04  -1.247413e+06
   1.346194e+06  -1.027038e+06
   1.633656e+06  -3.289505e+05
   7.927143e+05   3.353235e+05
  -1.914881e+05   4.708590e+05
  -4.368983e+05   7.889713e+04
   2.119813e+03  -3.209762e+05
   4.366699e+05  -2.217801e+05
   4.300847e+05   3.104736e+05
   1.601099e+05   6.826876e+05
   1.849527e+04   4.441614e+05
   1.320327e+05  -1.422656e+05
   3.113641e+05  -3.386511e+05
   2.693430e+05   2.005245e+05
  -1.577194e+05   9.310593e+05
  -8.091325e+05   9.682078e+05
  -1.154089e+06   1.185398e+05
  -6.963238e+05  -8.340228e+05
   3.716856e+05  -9.729706e+05
   1.096778e+06  -2.435428e+05
   6.645311e+05   5.430451e+05
  -6.162732e+05   6.146840e+05
  -1.488064e+06  -2.928963e+04
  -1.031105e+06  -7.584649e+05
   3.573977e+05  -9.726471e+05
   1.387413e+06  -5.612549e+05
   1.200515e+06   1.054576e+05
   1.678016e+05   4.876563e+05
  -5.835870e+05   2.890558e+05
  -3.301490e+05  -2.433698e+05
   5.685289e+05  -4.486268e+05
   1.080641e+06   1.205415e+05
   5.588666e+05   1.109328e+06
  -6.084575e+05   1.541987e+06
  -1.396369e+06   7.757860e+05
  -1.158070e+06  -7.163975e+05
  -1.892704e+05  -1.667026e+06
   6.744143e+05  -1.238003e+06
   8.680066e+05   1.106073e+05
   4.543666e+05   1.090177e+06
  -1.351685e+05   9.297781e+05
  -5.002828e+05   1.071497e+05
  -4.771896e+05  -3.547644e+05
  -2.004035e+05  -1.405345e+05
  -2.552545e+04   1.029679e+05
  -1.913181e+05  -2.390172e+05
  -4.517916e+05  -8.751945e+05
  -2.420829e+05  -1.004812e+06
   5.912220e+05  -3.795702e+05
   1.376046e+06   4.205390e+05
   1.243222e+06   7.628541e+05
   1.825816e+05   6.325815e+05
  -8.320563e+05   3.890384e+05
  -9.253357e+05   1.935736e+05
  -2.942107e+05  -1.948427e+04
   1.510736e+05  -2.047670e+05
  -2.297845e+04  -2.156536e+05
  -3.032292e+05  -1.155424e+05
  -2.538509e+04  -1.268255e+05
   6.710649e+05  -2.007916e+05
   9.593362e+05   2.339822e+04
   3.194827e+05   6.293648e+05
  -8.258660e+05   1.057328e+06
  -1.528450e+06   6.623455e+05
  -1.235538e+06  -4.256870e+05
  -2.372589e+05  -1.306332e+06
   6.885231e+05  -1.253173e+06
   9.661440e+05  -4.631395e+05
   6.141342e+05   2.422001e+05
   1.013372e+05   3.299186e+05
  -1.120351e+05   3.089291e+04
   5.665385e+04  -5.172879e+04
   3.030525e+05   3.215196e+05
   2.521086e+05   7.441057e+05
  -1.742720e+05   6.160908e+05
  -6.399167e+05  -1.442820e+05
  -6.548003e+05  -9.101829e+05
  -5.376784e+04  -9.466963e+05
   7.250681e+05  -1.836056e+05
   9.416383e+05   7.062557e+05
   2.923799e+05   1.001782e+06
  -6.643607e+05   5.910213e+05
  -1.007954e+06  -8.013737e+04
  -4.634427e+05  -5.306653e+05
   2.604070e+05  -5.820453e+05
   3.093226e+05  -3.289471e+05
  -2.720087e+05  -2.334322e+04
  -6.105442e+05   3.149838e+04
  -1.208728e+05  -2.755139e+05
   7.590479e+05  -6.345072e+05
   1.121631e+06  -5.336237e+05
   6.592506e+05   1.283058e+05
  -9.061005e+04   7.846816e+05
  -4.692646e+05   7.723562e+05
  -3.498438e+05   1.182727e+05
  -2.869456e+04  -4.599616e+05
   2.279861e+05  -3.791674e+05
   3.285445e+05   1.725788e+05
   2.299679e+05   5.332632e+05
  -5.862084e+04   3.595328e+05
  -3.594330e+05  -5.685867e+04
  -4.252183e+05  -2.311962e+05
  -2.227948e+05  -6.439017e+04
   1.202441e+04   1.089981e+05
   7.410556e+04  -2.208407e+04
   4.016503e+04  -3.518185e+05
   1.204950e+05  -4.676702e+05
   3.193223e+05  -1.337666e+05
   3.744181e+05   3.949312e+05
   7.931744e+04   6.046509e+05
  -3.953384e+05   2.729659e+05
  -5.888820e+05  -2.817167e+05
  -2.166866e+05  -5.439284e+05
   4.558664e+05  -3.325019e+05
   7.922332e+05   8.492457e+04
   4.315325e+05   3.482994e+05
  -2.707031e+05   3.416531e+05
  -5.795562e+05   1.770846e+05
  -2.016735e+05   1.072452e+04
   3.609344e+05  -3.491073e+04
   3.932548e+05   9.900247e+04
  -1.870893e+05   2.947936e+05
  -7.396862e+05   2.522415e+05
