
 $NMID
 id='ANONYMOUS ', fmtdat='(2E16.6)'
 volume=1.0
 tramp=1.0
 $END
   2.545594e+07   1.376452e+06
   1.412010e+07   1.729128e+07
  -4.924307e+06   1.723182e+07
  -1.307865e+07   5.172753e+06
  -6.915693e+06  -4.354341e+06
   2.111081e+06  -4.053448e+06
   4.260140e+06   1.327944e+06
   5.146519e+05   4.530900e+06
  -3.319632e+06   3.528701e+06
  -4.317768e+06   2.436887e+05
  -2.822121e+06  -2.871477e+06
  -1.348096e+05  -3.623688e+06
   1.741543e+06  -1.167421e+06
   9.120867e+05   2.141534e+06
  -1.891740e+06   2.432154e+06
  -3.379667e+06  -1.001781e+06
  -1.534229e+06  -4.634643e+06
   2.096908e+06  -5.035812e+06
   4.644745e+06  -2.354454e+06
   4.817965e+06   1.081839e+06
   2.980262e+06   3.505823e+06
   2.322555e+05   4.134193e+06
  -1.692544e+06   2.892574e+06
  -1.413758e+06   1.031071e+06
   1.116055e+05   4.852782e+05
   1.740462e+05   1.424657e+06
  -2.022750e+06   1.776952e+06
  -3.894669e+06   2.305141e+05
  -2.972668e+06  -1.764637e+06
  -2.883647e+05  -2.198513e+06
   1.343835e+06  -1.233289e+06
   1.064510e+06  -3.079270e+05
   1.413995e+05   1.122705e+05
  -4.926780e+05   2.484955e+05
  -8.019347e+05  -2.607956e+05
  -4.655956e+05  -1.419839e+06
   7.226216e+05  -1.721746e+06
   1.615716e+06  -1.174602e+05
   9.430089e+05   1.650679e+06
  -3.747757e+05   1.148940e+06
  -2.742698e+05  -7.486340e+05
   1.008824e+06  -7.846241e+05
   8.965521e+05   1.524383e+06
  -1.470419e+06   2.649189e+06
  -3.391585e+06   1.827911e+05
  -2.166106e+06  -3.354580e+06
   1.194096e+06  -3.825929e+06
   3.374368e+06  -8.799223e+05
   2.738595e+06   2.116371e+06
   4.374539e+05   2.547921e+06
  -1.549834e+06   8.916315e+05
  -1.996452e+06  -9.209413e+05
  -7.200717e+05  -1.570792e+06
   1.208895e+06  -8.078836e+05
   1.917151e+06   6.161631e+05
   6.946079e+05   1.289167e+06
  -8.116056e+05   5.363320e+05
  -6.205832e+05  -5.012876e+05
   7.539493e+05  -2.264270e+05
   9.959880e+05   1.108743e+06
  -6.478519e+05   1.679582e+06
  -2.353120e+06   6.422818e+05
  -2.318982e+06  -9.424381e+05
  -8.249212e+05  -1.898609e+06
   8.420649e+05  -2.189351e+06
   2.049245e+06  -1.933202e+06
   2.568136e+06  -6.887920e+05
   1.947561e+06   1.331007e+06
   3.216357e+05   2.558668e+06
  -9.846322e+05   1.855930e+06
  -8.583869e+05   2.512872e+05
   6.633638e+04  -3.443196e+05
   3.079490e+05   3.246582e+05
  -4.132616e+05   8.270268e+05
  -1.040883e+06   2.889632e+05
  -8.336365e+05  -5.708299e+05
  -1.310976e+05  -7.219590e+05
   4.333182e+05  -9.081535e+04
   5.363591e+05   7.049369e+05
  -4.534448e+03   1.079723e+06
  -1.073466e+06   6.764513e+05
  -1.831284e+06  -4.594885e+05
  -1.355607e+06  -1.608476e+06
   6.207080e+04  -1.864646e+06
   1.081661e+06  -1.177591e+06
   1.061028e+06  -4.087820e+05
   8.073729e+05  -1.477743e+05
   1.160836e+06  -3.788898e+04
   1.648421e+06   4.520124e+05
   1.246685e+06   1.165442e+06
  -6.554782e+04   1.558069e+06
  -1.274078e+06   1.393342e+06
  -1.570515e+06   7.656722e+05
  -1.012263e+06  -1.209860e+05
  -1.610229e+05  -8.154378e+05
   3.761771e+05  -7.508673e+05
   2.226400e+05  -9.713111e+03
  -4.086671e+05   4.852575e+05
  -7.525317e+05   1.176689e+05
  -3.681521e+05  -4.935805e+05
   1.863359e+05  -4.032531e+05
   8.714608e+04   1.677287e+05
  -5.169856e+05   1.333230e+05
  -6.644692e+05  -7.614733e+05
   4.824141e+04  -1.481435e+06
   9.545054e+05  -1.135520e+06
   1.301059e+06  -7.498934e+04
   1.075827e+06   7.821473e+05
   6.179582e+05   1.055315e+06
   5.600967e+04   9.043654e+05
  -4.675501e+05   5.064032e+05
  -5.733044e+05   7.116693e+04
  -1.826090e+05  -2.878747e+04
   1.124150e+05   2.932411e+05
  -2.152758e+05   5.193486e+05
  -7.816499e+05   1.711062e+05
  -7.636165e+05  -4.328384e+05
  -8.201762e+04  -5.781823e+05
   4.678168e+05  -1.679116e+05
   2.810134e+05   1.994972e+05
  -3.603623e+05   1.054939e+05
  -7.497977e+05  -2.590458e+05
  -5.132523e+05  -5.535394e+05
   1.964178e+05  -6.597537e+05
   8.941332e+05  -5.028703e+05
   1.031950e+06  -1.345954e+04
   4.276851e+05   5.296555e+05
  -4.020137e+05   5.784647e+05
  -6.363648e+05   4.018878e+04
  -7.238984e+04  -4.362083e+05
   5.977783e+05  -2.464009e+05
   6.189205e+05   3.609873e+05
   3.937823e+04   6.326400e+05
  -4.706672e+05   2.919854e+05
  -4.484958e+05  -2.044704e+05
  -3.037784e+04  -3.169858e+05
   3.268369e+05   9.557732e+03
   2.609619e+05   4.223940e+05
  -2.408093e+05   5.286598e+05
  -7.632621e+05   1.693105e+05
  -7.459623e+05  -4.374047e+05
  -9.139551e+04  -7.955890e+05
   5.996317e+05  -5.792360e+05
   6.594646e+05  -1.575219e+04
   1.463179e+05   3.483995e+05
  -2.782734e+05   2.712443e+05
  -2.136477e+05   1.462735e+04
   7.512757e+04  -8.590863e+04
   1.519789e+05  -1.818721e+04
  -3.020609e+04   1.401329e+04
  -2.029705e+05  -1.057464e+05
  -1.524679e+05  -3.171779e+05
   1.464723e+05  -4.472145e+05
   5.547604e+05  -2.879871e+05
   7.685608e+05   2.165940e+05
   5.006447e+05   7.681006e+05
  -1.419410e+05   8.884849e+05
  -6.322122e+05   4.506304e+05
  -5.910081e+05  -1.172003e+05
  -2.439966e+05  -3.228477e+05
  -8.617824e+04  -1.710394e+05
  -2.148311e+05  -4.546838e+04
  -2.755680e+05  -1.524658e+05
  -2.084989e+04  -3.205135e+05
   3.664271e+05  -3.036327e+05
   5.378761e+05  -5.603909e+04
   3.349481e+05   2.865486e+05
  -1.550793e+05   4.943536e+05
  -6.642075e+05   3.239859e+05
  -8.073060e+05  -2.469340e+05
  -3.424374e+05  -8.200553e+05
   4.770523e+05  -8.577049e+05
   1.003424e+06  -2.893879e+05
   8.380323e+05   3.491507e+05
   2.617308e+05   5.244233e+05
  -1.325778e+05   2.955900e+05
  -1.214298e+05   1.339389e+05
   1.688769e+04   2.857826e+05
  -4.019032e+04   5.253906e+05
  -2.942065e+05   4.934209e+05
  -5.110803e+05   9.581557e+04
  -4.813675e+05  -4.317580e+05
  -1.657813e+05  -7.169308e+05
   2.612701e+05  -5.198310e+05
   4.741633e+05   4.158567e+04
   2.579549e+05   5.178242e+05
  -2.126671e+05   5.126402e+05
  -4.793630e+05   8.290454e+04
  -2.876589e+05  -3.385391e+05
   1.140776e+05  -4.291789e+05
   2.704141e+05  -2.695531e+05
   6.251365e+04  -1.315790e+05
  -1.630383e+05  -1.245224e+05
  -1.937173e+04  -1.396436e+05
   4.508290e+05  -4.245229e+04
   7.851273e+05   1.864240e+05
   5.765775e+05   4.443065e+05
  -8.215916e+04   5.570281e+05
  -6.581541e+05   3.952972e+05
  -7.021579e+05   3.401490e+04
  -2.852863e+05  -2.472911e+05
   1.288036e+05  -2.250662e+05
   2.024803e+05   1.791920e+04
   1.382956e+04   1.836286e+05
  -1.572488e+05   9.387600e+04
  -1.765364e+05  -1.378792e+05
  -1.100283e+05  -2.666808e+05
  -5.498427e+04  -1.792480e+05
  -4.909961e+04   9.730092e+03
  -8.528758e+04   7.501727e+04
  -9.065128e+04  -9.662176e+04
   5.953475e+04  -3.531259e+05
   3.617444e+05  -3.818810e+05
   5.502916e+05  -5.419275e+04
   3.346694e+05   3.600363e+05
  -1.817080e+05   4.454990e+05
  -4.992706e+05   1.281013e+05
  -2.655016e+05  -2.194236e+05
   2.849793e+05  -2.174860e+05
   5.726095e+05   9.220750e+04
   3.077359e+05   3.526659e+05
  -2.360691e+05   3.266053e+05
  -5.574867e+05   9.383648e+04
  -4.214249e+05  -1.250352e+05
  -1.988263e+04  -1.853865e+05
   2.512344e+05  -6.767255e+04
   1.466878e+05   1.295310e+05
  -2.133862e+05   1.985315e+05
  -4.422831e+05  -2.982932e+04
  -2.566868e+05  -4.408360e+05
   2.174402e+05  -6.352166e+05
   5.519459e+05  -3.230496e+05
   4.525353e+05   2.932317e+05
   4.314035e+04   6.595580e+05
  -2.999502e+05   4.439455e+05
  -3.306472e+05  -1.076798e+05
  -1.093931e+05  -4.521090e+05
   1.322669e+05  -3.345173e+05
   2.182668e+05  -5.249312e+03
   1.415744e+05   1.432997e+05
   3.257088e+04   4.511791e+04
   2.938888e+04  -2.585571e+04
   1.327213e+05   1.341134e+05
   1.812001e+05   3.759707e+05
   1.692290e+04   3.952879e+05
  -3.075139e+05   1.233976e+05
  -5.297967e+05  -2.014857e+05
  -4.257376e+05  -3.346201e+05
  -4.983124e+04  -2.680570e+05
   2.979860e+05  -1.417971e+05
   3.571056e+05  -3.762914e+04
   1.536356e+05   4.367219e+04
  -4.810029e+04   8.383734e+04
  -4.766223e+04   5.805041e+04
   6.374302e+04   2.034746e+04
   2.952257e+04   4.882162e+04
  -2.139361e+05   9.034080e+04
  -3.927526e+05  -1.209651e+04
  -1.982638e+05  -2.721472e+05
   3.005415e+05  -4.450942e+05
   6.674371e+05  -2.768894e+05
   5.600755e+05   1.654573e+05
   9.355233e+04   5.210950e+05
  -3.164175e+05   5.095449e+05
  -4.001074e+05   2.067168e+05
  -2.357820e+05  -7.706738e+04
  -5.895315e+04  -1.365263e+05
  -1.528601e+03  -4.533153e+04
  -4.038312e+04  -1.886563e+04
  -8.926883e+04  -1.509798e+05
  -6.530310e+04  -3.036547e+05
   7.018024e+04  -2.574339e+05
   2.457383e+05   3.120763e+04
   2.827411e+05   3.421808e+05
   6.639402e+04   3.906020e+05
  -2.642062e+05   1.157557e+05
  -3.875462e+05  -2.515751e+05
  -1.371690e+05  -4.126427e+05
   2.698543e+05  -2.678065e+05
   4.321680e+05   3.365568e+04
   2.076755e+05   2.588887e+05
  -1.196109e+05   2.790359e+05
  -1.741551e+05   1.376741e+05
   6.182919e+04  -6.672221e+03
   2.341824e+05  -1.139095e+04
   6.081749e+04   1.229668e+05
  -3.159237e+05   2.369489e+05
  -5.008610e+05   1.592508e+05
  -3.107158e+05  -1.019916e+05
   4.513873e+04  -3.344760e+05
   2.443536e+05  -3.225189e+05
   1.924108e+05  -7.569848e+04
   3.100263e+04   1.668330e+05
  -8.933182e+04   1.761485e+05
  -1.286784e+05  -3.119595e+04
  -9.191520e+04  -2.170169e+05
   1.843727e+04  -1.843033e+05
   1.467220e+05   9.028488e+03
   1.824644e+05   1.303049e+05
   8.850959e+04   5.646507e+04
  -2.417382e+04  -7.903451e+04
  -2.860643e+04  -6.293804e+04
   4.038125e+04   1.152556e+05
   2.941301e+04   2.378143e+05
  -1.056499e+05   1.302906e+05
  -2.055588e+05  -1.141775e+05
  -1.018574e+05  -2.406128e+05
   1.415207e+05  -1.273974e+05
   2.642707e+05   9.307983e+04
   1.035287e+05   2.053084e+05
  -2.017483e+05   1.343752e+05
  -3.454592e+05  -2.546087e+04
  -1.829057e+05  -1.454296e+05
   1.146316e+05  -1.675572e+05
   2.493651e+05  -1.043928e+05
   1.163914e+05  -7.796644e+03
  -9.876280e+04   4.668689e+04
  -1.399962e+05   5.147376e+03
   3.855928e+04  -8.839227e+04
   2.365547e+05  -9.653688e+04
