
 $NMID
 id='ANONYMOUS ', fmtdat='(2E16.6)'
 volume=1.0
 tramp=1.0
 $END
  -3.579017e+07  -1.263243e+06
  -2.219193e+07  -1.986615e+07
   2.843707e+06  -2.321979e+07
   1.672147e+07  -1.205885e+07
   1.186110e+07   1.375549e+06
  -6.004691e+05   6.184966e+06
  -6.847153e+06   1.346424e+06
  -3.735130e+06  -6.030280e+06
   2.854488e+06  -8.132275e+06
   6.552000e+06  -2.907049e+06
   5.127158e+06   4.516228e+06
   4.590898e+05   6.707869e+06
  -3.145618e+06   1.558678e+06
  -2.190626e+06  -5.160173e+06
   2.389852e+06  -5.966761e+06
   5.601010e+06   1.218493e+05
   3.586159e+06   6.950228e+06
  -2.212076e+06   8.307213e+06
  -6.834855e+06   3.850945e+06
  -6.913083e+06  -1.996521e+06
  -3.326198e+06  -5.073268e+06
   3.028675e+05  -4.614386e+06
   9.842798e+05  -2.798994e+06
  -9.906114e+05  -2.284105e+06
  -2.138864e+06  -3.638732e+06
   6.087300e+05  -4.707127e+06
   5.813600e+06  -3.040470e+06
   8.265843e+06   9.147656e+05
   4.884377e+06   3.945406e+06
  -1.232009e+06   3.640390e+06
  -4.155648e+06   8.669205e+05
  -1.819336e+06  -1.614550e+06
   2.308478e+06  -1.900447e+06
   3.869038e+06   6.841804e+04
   2.075935e+06   2.869827e+06
  -6.927465e+05   4.161316e+06
  -2.029272e+06   2.326101e+06
  -1.375189e+06  -1.190280e+06
   1.107219e+05  -2.499493e+06
   6.412004e+05   9.685235e+04
  -6.024622e+05   3.201444e+06
  -2.304822e+06   2.288204e+06
  -2.068948e+06  -1.980807e+06
   6.869108e+05  -4.116833e+06
   3.437990e+06  -9.586551e+05
   3.004294e+06   4.073135e+06
  -8.639084e+05   5.292259e+06
  -4.952440e+06   1.517070e+06
  -5.621583e+06  -3.257443e+06
  -2.148890e+06  -4.857847e+06
   2.650056e+06  -2.750300e+06
   4.827075e+06   6.270687e+05
   2.756137e+06   2.549628e+06
  -1.296861e+06   1.896141e+06
  -3.322824e+06  -2.915895e+05
  -1.713339e+06  -1.710253e+06
   1.109436e+06  -1.011423e+06
   1.706703e+06   7.106729e+05
  -2.629150e+05   1.244445e+06
  -1.891182e+06  -3.058772e+04
  -8.019196e+05  -1.546563e+06
   2.022534e+06  -1.573184e+06
   3.535015e+06   7.949536e+04
   1.948369e+06   2.375189e+06
  -1.703796e+06   3.966977e+06
  -4.763226e+06   3.583260e+06
  -5.198665e+06   7.683091e+05
  -3.066048e+06  -3.026602e+06
  -2.805659e+05  -5.080652e+06
   1.160343e+06  -4.134925e+06
   1.006324e+06  -1.892531e+06
   6.973850e+05  -8.493130e+05
   1.421605e+06  -1.162522e+06
   2.646760e+06  -8.645253e+05
   2.868697e+06   1.006897e+06
   1.433368e+06   2.843739e+06
  -7.837587e+05   2.490571e+06
  -2.223932e+06  -5.255799e+04
  -1.808549e+06  -2.591704e+06
   3.438148e+05  -2.992883e+06
   2.780447e+06  -1.032641e+06
   3.571147e+06   1.684871e+06
   2.041500e+06   3.232224e+06
  -3.605683e+05   2.922068e+06
  -1.579346e+06   1.686822e+06
  -1.357327e+06   9.174314e+05
  -1.371130e+06   9.192743e+05
  -2.725021e+06   7.195001e+05
  -4.138062e+06  -5.871911e+05
  -3.367696e+06  -2.637443e+06
  -9.235491e+04  -4.075325e+06
   3.385821e+06  -3.767385e+06
   4.406350e+06  -1.700371e+06
   2.519699e+06   9.227079e+05
  -2.654233e+05   2.361214e+06
  -1.503043e+06   1.674696e+06
  -5.055581e+05  -2.080842e+05
   1.253501e+06  -1.189881e+06
   1.791403e+06  -2.881681e+05
   6.659021e+05   1.140743e+06
  -6.928415e+05   1.106297e+06
  -6.907052e+05  -3.536140e+05
   6.540119e+05  -1.107879e+06
   1.823718e+06   3.301261e+05
   1.439955e+06   2.815047e+06
  -4.951791e+05   3.812288e+06
  -2.749289e+06   2.168756e+06
  -3.819735e+06  -8.430236e+05
  -2.914898e+06  -2.965940e+06
  -5.980938e+05  -2.984489e+06
   1.421806e+06  -1.486774e+06
   1.687609e+06  -8.686925e+04
   4.979962e+05   6.002591e+04
  -3.528520e+05  -7.555441e+05
   3.398155e+05  -1.225130e+06
   1.716357e+06  -5.246389e+05
   1.924102e+06   7.417139e+05
   4.595227e+05   1.279126e+06
  -1.137153e+06   6.095660e+05
  -1.046799e+06  -4.590712e+05
   7.556227e+05  -7.784661e+05
   2.432073e+06   4.084901e+04
   2.151869e+06   1.410092e+06
  -8.687885e+04   2.273191e+06
  -2.420030e+06   1.844105e+06
  -2.859662e+06   2.820628e+05
  -1.180627e+06  -1.205453e+06
   8.841824e+05  -1.333988e+06
   1.387140e+06  -1.186268e+05
   7.698922e+04   9.884952e+05
  -1.506299e+06   6.696898e+05
  -1.734529e+06  -7.364078e+05
  -4.756861e+05  -1.656975e+06
   9.828866e+05  -1.138692e+06
   1.317432e+06   1.304057e+05
   3.889538e+05   7.245901e+05
  -7.022691e+05   6.980825e+04
  -6.714997e+05  -1.052328e+06
   6.642984e+05  -1.390319e+06
   2.058004e+06  -4.331048e+05
   1.996040e+06   1.143620e+06
   3.355288e+05   2.076051e+06
  -1.426718e+06   1.624544e+06
  -1.722051e+06   2.432502e+05
  -5.605999e+05  -8.506090e+05
   6.443496e+05  -8.435520e+05
   7.398773e+05  -5.200035e+04
  -4.902076e+04   5.398139e+05
  -6.492873e+05   3.801037e+05
  -4.101617e+05  -1.241616e+05
   3.099484e+05  -1.650971e+05
   6.020140e+05   4.921305e+05
  -8.995896e+04   1.167065e+06
  -1.368532e+06   9.185182e+05
  -2.100233e+06  -4.393455e+05
  -1.430311e+06  -1.993615e+06
   2.810378e+05  -2.494272e+06
   1.701127e+06  -1.532445e+06
   1.853640e+06   6.503850e+04
   1.055118e+06   1.059364e+06
   3.688925e+05   9.781152e+05
   3.187944e+05   4.219049e+05
   4.403581e+05   2.602668e+05
   4.964541e+04   6.547060e+05
  -8.510462e+05   9.352555e+05
  -1.524237e+06   4.026650e+05
  -1.197695e+06  -7.983774e+05
   1.967925e+05  -1.647107e+06
   1.800753e+06  -1.171863e+06
   2.348460e+06   5.125120e+05
   1.203104e+06   2.136058e+06
  -9.352667e+05   2.378018e+06
  -2.503698e+06   1.101109e+06
  -2.458146e+06  -5.650676e+05
  -1.168834e+06  -1.381777e+06
   1.125959e+05  -1.152844e+06
   5.468816e+05  -6.864688e+05
   3.448742e+05  -7.403645e+05
   2.565216e+05  -1.174908e+06
   6.703924e+05  -1.182232e+06
   1.247277e+06  -2.561520e+05
   1.299382e+06   1.150695e+06
   4.991225e+05   1.956207e+06
  -6.935578e+05   1.450050e+06
  -1.327905e+06  -3.083141e+03
  -8.413924e+05  -1.256757e+06
   3.134628e+05  -1.403713e+06
   1.059803e+06  -5.283694e+05
   7.964819e+05   5.136915e+05
  -4.630786e+01   9.745354e+05
  -3.771066e+05   8.132847e+05
  -2.064839e+04   5.000623e+05
   3.981700e+05   3.952794e+05
   2.819987e+04   4.103778e+05
  -1.111818e+06   2.118579e+05
  -2.004935e+06  -3.499338e+05
  -1.623224e+06  -1.032726e+06
  -4.252375e+04  -1.375545e+06
   1.511853e+06  -1.085763e+06
   1.826541e+06  -3.237190e+05
   8.834280e+05   3.695684e+05
  -2.175507e+05   5.021256e+05
  -4.822174e+05   8.607018e+04
   2.529368e+04  -3.371922e+05
   5.085564e+05  -2.242772e+05
   4.643075e+05   3.647204e+05
   1.246807e+05   7.765780e+05
  -2.231423e+04   4.981338e+05
   1.573716e+05  -1.723589e+05
   3.834942e+05  -3.878087e+05
   2.981055e+05   2.332781e+05
  -2.282081e+05   1.043685e+06
  -9.425714e+05   1.043805e+06
  -1.262498e+06   6.799961e+04
  -7.124881e+05  -9.606564e+05
   4.543076e+05  -1.046946e+06
   1.216806e+06  -2.021845e+05
   7.164706e+05   6.425751e+05
  -7.067074e+05   6.684742e+05
  -1.675495e+06  -7.705705e+04
  -1.159473e+06  -8.834202e+05
   4.125976e+05  -1.097396e+06
   1.582945e+06  -6.107180e+05
   1.364002e+06   1.465933e+05
   1.821580e+05   5.591043e+05
  -6.611919e+05   3.130555e+05
  -3.504959e+05  -2.764754e+05
   6.665629e+05  -4.644687e+05
   1.200088e+06   1.997425e+05
   5.539742e+05   1.273599e+06
  -7.735249e+05   1.688337e+06
  -1.608211e+06   7.910040e+05
  -1.264812e+06  -8.605658e+05
  -1.384774e+05  -1.881010e+06
   8.079090e+05  -1.373283e+06
   9.735190e+05   1.430641e+05
   4.818258e+05   1.238483e+06
  -1.677207e+05   1.049688e+06
  -5.584219e+05   1.089931e+05
  -5.363707e+05  -4.218640e+05
  -2.368324e+05  -1.722677e+05
  -2.574933e+04   1.203819e+05
  -1.780480e+05  -2.620828e+05
  -4.599568e+05  -9.934094e+05
  -2.520548e+05  -1.140735e+06
   6.524929e+05  -4.057663e+05
   1.528342e+06   5.292973e+05
   1.382871e+06   9.073755e+05
   1.809527e+05   7.122478e+05
  -9.673848e+05   3.983964e+05
  -1.052356e+06   1.850092e+05
  -3.135609e+05  -2.257911e+04
   1.849708e+05  -2.208802e+05
  -3.844341e+04  -2.545181e+05
  -3.576776e+05  -1.561032e+05
  -1.335462e+04  -1.443941e+05
   7.854249e+05  -1.857194e+05
   1.069856e+06   7.563213e+04
   2.953956e+05   7.139034e+05
  -9.933826e+05   1.132393e+06
  -1.724176e+06   6.567555e+05
  -1.334888e+06  -5.442673e+05
  -1.978948e+05  -1.477034e+06
   8.205178e+05  -1.364458e+06
   1.101560e+06  -4.589800e+05
   6.795230e+05   3.120998e+05
   8.823687e+04   3.732053e+05
  -1.467423e+05   1.512937e+04
   5.863433e+04  -7.135129e+04
   3.357708e+05   3.667455e+05
   2.580108e+05   8.441611e+05
  -2.274363e+05   6.763220e+05
  -7.136226e+05  -2.063233e+05
  -6.772846e+05  -1.063323e+06
   8.085116e+03  -1.058814e+06
   8.330334e+05  -1.503072e+05
   1.013843e+06   8.536802e+05
   2.666354e+05   1.133134e+06
  -7.740526e+05   6.143661e+05
  -1.113245e+06  -1.423321e+05
  -4.817155e+05  -5.998021e+05
   3.164208e+05  -6.190729e+05
   3.428863e+05  -3.492408e+05
  -3.234683e+05  -4.667357e+04
  -6.901382e+05   3.749598e+03
  -1.157404e+05  -3.099448e+05
   8.786070e+05  -6.781747e+05
   1.262740e+06  -5.614115e+05
   7.121486e+05   1.574984e+05
  -1.390307e+05   8.659161e+05
  -5.428569e+05   8.349159e+05
  -3.766580e+05   1.020179e+05
  -4.165036e+01  -5.242903e+05
   2.763886e+05  -4.028076e+05
   3.605877e+05   2.263916e+05
   2.297427e+05   6.081358e+05
  -8.691146e+04   3.830077e+05
  -3.986368e+05  -8.826371e+04
  -4.589691e+05  -2.656498e+05
  -2.463945e+05  -7.102875e+04
  -5.902938e+02   1.081103e+05
   8.415562e+04  -5.077385e+04
   8.679163e+04  -4.031012e+05
   1.921718e+05  -4.971435e+05
   3.745453e+05  -1.013813e+05
   3.759659e+05   4.807842e+05
   2.799158e+04   6.827656e+05
  -4.644318e+05   2.776952e+05
  -6.333375e+05  -3.550087e+05
  -2.072981e+05  -6.261830e+05
   5.202871e+05  -3.479692e+05
   8.714831e+05   1.405011e+05
   4.609660e+05   4.104469e+05
  -3.187671e+05   3.557324e+05
  -6.515878e+05   1.540349e+05
  -2.117669e+05  -1.421850e+02
   4.253580e+05  -6.874261e+03
   4.429385e+05   1.499673e+05
  -2.399433e+05   3.329987e+05
  -8.667192e+05   2.461140e+05
