
 $NMID
 id='ANONYMOUS ', fmtdat='(2E16.6)'
 volume=1.0
 tramp=1.0
 $END
   5.184067e+07  -1.957073e+05
   3.145856e+07   3.145367e+07
  -6.295627e+06   3.490497e+07
  -2.507283e+07   1.409734e+07
  -1.535709e+07  -5.795067e+06
   2.727246e+06  -8.612130e+06
   9.097617e+06   6.906590e+05
   2.944757e+06   8.889308e+06
  -5.403426e+06   8.968756e+06
  -8.890341e+06   2.184984e+06
  -6.603886e+06  -5.731469e+06
  -8.337918e+05  -8.111486e+06
   3.757472e+06  -2.538454e+06
   2.589439e+06   5.251294e+06
  -3.370085e+06   6.345502e+06
  -7.330285e+06  -1.039005e+06
  -4.296239e+06  -9.410605e+06
   3.340703e+06  -1.100396e+07
   9.314271e+06  -5.532033e+06
   9.980879e+06   1.917869e+06
   6.012622e+06   6.909871e+06
   5.608201e+05   7.826463e+06
  -2.519100e+06   5.400132e+06
  -1.320246e+06   2.531515e+06
   1.324930e+06   2.307336e+06
   1.945272e+05   4.192517e+06
  -5.316652e+06   4.187738e+06
  -9.263089e+06   3.868142e+05
  -6.614942e+06  -3.949367e+06
  -5.524080e+04  -4.762258e+06
   3.715136e+06  -2.317924e+06
   2.360228e+06   2.261246e+05
  -8.319436e+05   1.132820e+06
  -2.500728e+06   4.699817e+05
  -2.193018e+06  -1.604415e+06
  -5.254099e+05  -3.913156e+06
   1.775818e+06  -3.561493e+06
   2.891594e+06   2.725609e+05
   1.410927e+06   3.393114e+06
  -7.562474e+05   1.563444e+06
  -2.420871e+05  -2.549661e+06
   2.346426e+06  -2.294108e+06
   2.360161e+06   2.899243e+06
  -2.038371e+06   5.676325e+06
  -6.214105e+06   1.015093e+06
  -4.712854e+06  -6.283235e+06
   1.637136e+06  -7.828688e+06
   6.851552e+06  -2.283840e+06
   6.639569e+06   4.082193e+06
   1.931294e+06   5.682916e+06
  -3.227902e+06   2.703646e+06
  -5.091650e+06  -1.273059e+06
  -2.467885e+06  -3.219676e+06
   2.157006e+06  -2.118628e+06
   4.241224e+06   7.562166e+05
   1.893288e+06   2.475883e+06
  -1.570784e+06   1.298560e+06
  -1.711601e+06  -9.284518e+05
   1.097519e+06  -9.541465e+05
   2.321634e+06   1.404350e+06
  -3.528889e+05   3.035091e+06
  -4.077896e+06   1.826595e+06
  -4.896525e+06  -1.069930e+06
  -2.239117e+06  -3.602860e+06
   1.697034e+06  -4.974936e+06
   4.824109e+06  -4.617623e+06
   5.906202e+06  -1.628442e+06
   4.291776e+06   3.037842e+06
   8.908658e+05   5.876300e+06
  -1.647622e+06   4.591000e+06
  -1.569380e+06   1.323017e+06
  -2.295639e+05  -4.753819e+04
  -1.950356e+05   1.027768e+06
  -1.744342e+06   1.656581e+06
  -2.803405e+06   7.549273e+04
  -1.951409e+06  -2.034661e+06
   6.643816e+04  -2.191203e+06
   1.647259e+06  -2.021580e+05
   1.723440e+06   2.101167e+06
  -4.574504e+03   2.909119e+06
  -2.712879e+06   1.571003e+06
  -4.279479e+06  -1.201035e+06
  -3.020314e+06  -3.583012e+06
   5.108846e+04  -3.946566e+06
   2.100713e+06  -2.521089e+06
   2.035752e+06  -1.098505e+06
   1.710885e+06  -7.311991e+05
   2.849654e+06  -5.548818e+05
   4.259345e+06   6.570316e+05
   3.457839e+06   2.654222e+06
   1.853317e+05   4.061962e+06
  -3.135595e+06   3.880965e+06
  -4.133831e+06   2.094727e+06
  -2.618429e+06  -4.593146e+05
  -2.219951e+05  -2.235857e+06
   1.128476e+06  -1.894343e+06
   5.524654e+05   5.626409e+04
  -1.084597e+06   1.295671e+06
  -1.862880e+06   4.028908e+05
  -8.869166e+05  -1.172722e+06
   5.236307e+05  -1.112484e+06
   4.713301e+05   3.673041e+05
  -9.682957e+05   7.622299e+05
  -1.827443e+06  -1.091411e+06
  -8.013295e+05  -3.308976e+06
   1.338548e+06  -3.431649e+06
   2.999636e+06  -1.303299e+06
   3.355363e+06   1.272722e+06
   2.391362e+06   2.712209e+06
   5.163197e+05   2.627766e+06
  -1.232954e+06   1.472860e+06
  -1.577332e+06   2.289367e+05
  -4.894231e+05  -4.057723e+04
   3.647085e+05   7.404689e+05
  -3.823516e+05   1.315370e+06
  -1.854265e+06   5.876899e+05
  -2.007769e+06  -8.324942e+05
  -4.087978e+05  -1.377283e+06
   1.148141e+06  -5.870679e+05
   9.101532e+05   4.367016e+05
  -8.152214e+05   5.616011e+05
  -2.193793e+06  -2.432568e+05
  -1.804118e+06  -1.319579e+06
   1.912627e+05  -1.994467e+06
   2.276427e+06  -1.698032e+06
   2.756318e+06  -3.105939e+05
   1.216641e+06   1.230653e+06
  -8.897843e+05   1.477147e+06
  -1.521638e+06   1.953547e+05
  -1.949288e+05  -1.058863e+06
   1.494225e+06  -7.416029e+05
   1.715457e+06   7.466314e+05
   3.740138e+05   1.632327e+06
  -1.053143e+06   1.001588e+06
  -1.255299e+06  -2.689392e+05
  -2.709924e+05  -7.623142e+05
   7.772390e+05  -6.504932e+04
   7.367315e+05   1.036504e+06
  -5.641059e+05   1.418411e+06
  -1.993392e+06   5.525498e+05
  -2.030645e+06  -1.027532e+06
  -4.018490e+05  -2.054844e+06
   1.406590e+06  -1.646012e+06
   1.709206e+06  -2.341461e+05
   5.160600e+05   8.527529e+05
  -6.412323e+05   8.104255e+05
  -6.418171e+05   8.309263e+04
   1.003031e+05  -3.804916e+05
   5.008959e+05  -2.383138e+05
   1.598673e+05   6.435483e+04
  -4.226299e+05  -4.328163e+04
  -5.282920e+05  -6.355495e+05
   1.759796e+05  -1.174727e+06
   1.357541e+06  -9.081122e+05
   2.073176e+06   3.868207e+05
   1.475371e+06   1.916063e+06
  -1.899535e+05   2.414808e+06
  -1.591990e+06   1.438231e+06
  -1.696137e+06  -9.274409e+04
  -8.894117e+05  -8.940196e+05
  -3.361230e+05  -6.815196e+05
  -4.607311e+05  -2.397038e+05
  -6.016063e+05  -2.999527e+05
  -9.247488e+04  -7.439392e+05
   8.536737e+05  -9.078813e+05
   1.439258e+06  -3.512495e+05
   1.069136e+06   7.087955e+05
  -2.191703e+05   1.471812e+06
  -1.701219e+06   1.098997e+06
  -2.248277e+06  -4.521281e+05
  -1.160278e+06  -2.071426e+06
   9.623527e+05  -2.359387e+06
   2.502820e+06  -1.062753e+06
   2.350956e+06   6.108718e+05
   9.912342e+05   1.316417e+06
  -1.769024e+05   9.631787e+05
  -3.944389e+05   5.353503e+05
  -9.978138e+04   7.524121e+05
  -1.065397e+05   1.285434e+06
  -6.505400e+05   1.274328e+06
  -1.275019e+06   3.247504e+05
  -1.338404e+06  -1.063010e+06
  -5.721624e+05  -1.880531e+06
   6.058947e+05  -1.437143e+06
   1.280354e+06  -1.540457e+04
   8.252152e+05   1.258961e+06
  -3.603389e+05   1.389154e+06
  -1.133599e+06   4.291268e+05
  -8.078606e+05  -6.604901e+05
   9.639961e+04  -1.054237e+06
   5.032204e+05  -7.828600e+05
   6.991235e+04  -4.219240e+05
  -4.317170e+05  -3.346611e+05
  -6.163825e+04  -3.830844e+05
   1.132593e+06  -2.227773e+05
   2.045033e+06   3.057303e+05
   1.618692e+06   1.006734e+06
  -1.120733e+04   1.415970e+06
  -1.554619e+06   1.145030e+06
  -1.812208e+06   3.042555e+05
  -8.363052e+05  -4.650411e+05
   2.483336e+05  -5.599221e+05
   5.029528e+05  -4.505288e+04
   2.841526e+04   4.098781e+05
  -4.434264e+05   2.604797e+05
  -4.814757e+05  -3.354185e+05
  -2.503034e+05  -7.220834e+05
  -9.107493e+04  -4.787336e+05
  -1.352297e+05   1.036236e+05
  -2.809689e+05   3.052321e+05
  -2.785268e+05  -2.264296e+05
   1.335700e+05  -9.881638e+05
   8.824360e+05  -1.069627e+06
   1.343281e+06  -1.813006e+05
   8.477419e+05   9.031596e+05
  -4.016674e+05   1.130173e+06
  -1.243837e+06   3.406166e+05
  -7.368971e+05  -5.648389e+05
   6.887609e+05  -6.549281e+05
   1.585118e+06   7.155514e+04
   1.022004e+06   8.429112e+05
  -4.608198e+05   9.950156e+05
  -1.486089e+06   5.056017e+05
  -1.235625e+06  -1.683845e+05
  -1.439778e+05  -5.112443e+05
   6.420518e+05  -2.788146e+05
   3.835359e+05   2.870833e+05
  -5.803749e+05   5.263496e+05
  -1.181760e+06  -6.917736e+04
  -6.817703e+05  -1.172584e+06
   5.702535e+05  -1.707104e+06
   1.471409e+06  -9.027103e+05
   1.264369e+06   7.396867e+05
   2.269399e+05   1.786098e+06
  -7.202539e+05   1.303285e+06
  -9.247247e+05  -1.617948e+05
  -4.473352e+05  -1.182009e+06
   2.038412e+05  -9.688063e+05
   5.586021e+05  -9.121372e+04
   4.712270e+05   3.692975e+05
   1.661523e+05   1.335573e+05
   4.657385e+04  -9.530248e+04
   2.816255e+05   2.930832e+05
   5.212679e+05   9.583182e+05
   2.055546e+05   1.071819e+06
  -7.075967e+05   4.015336e+05
  -1.478633e+06  -4.433256e+05
  -1.288730e+06  -8.155465e+05
  -1.938860e+05  -6.946564e+05
   8.447325e+05  -4.327989e+05
   9.786923e+05  -1.961157e+05
   3.612889e+05   5.024942e+04
  -1.413973e+05   2.283617e+05
  -3.414664e+04   2.019487e+05
   2.640447e+05   8.629772e+04
   5.419870e+04   1.328606e+05
  -6.539579e+05   2.503342e+05
  -1.047051e+06   6.807771e+03
  -4.498483e+05  -6.884426e+05
   8.180018e+05  -1.195866e+06
   1.690325e+06  -7.867150e+05
   1.425136e+06   4.065161e+05
   3.018873e+05   1.400221e+06
  -7.448585e+05   1.389158e+06
  -1.041064e+06   5.603020e+05
  -6.595230e+05  -2.167526e+05
  -1.427751e+05  -3.568940e+05
   6.500170e+04  -7.344327e+04
  -8.136902e+04   1.303235e+04
  -3.029325e+05  -3.632194e+05
  -2.585260e+05  -8.025563e+05
   1.657587e+05  -6.841774e+05
   6.831751e+05   1.023332e+05
   7.631398e+05   9.327546e+05
   1.447044e+05   1.032065e+06
  -7.446670e+05   2.722807e+05
  -1.053592e+06  -6.922786e+05
  -3.758042e+05  -1.083925e+06
   6.993025e+05  -6.985440e+05
   1.124599e+06   5.061613e+04
   5.472026e+05   6.088740e+05
  -2.758813e+05   6.916785e+05
  -3.797814e+05   3.754874e+05
   2.397978e+05  -1.087655e+03
   6.465192e+05  -5.428374e+04
   1.553645e+05   3.072865e+05
  -8.114009e+05   6.937078e+05
  -1.254079e+06   5.565774e+05
  -7.727564e+05  -1.710497e+05
   7.874271e+04  -8.746444e+05
   5.433705e+05  -8.689399e+05
   4.327242e+05  -1.752570e+05
   6.942456e+04   4.750149e+05
  -2.292611e+05   4.457602e+05
  -3.562504e+05  -1.309611e+05
  -2.676934e+05  -5.717008e+05
   4.279609e+04  -4.367571e+05
   3.929746e+05   3.241016e+04
   4.833505e+05   2.772600e+05
   2.434764e+05   9.687072e+04
  -4.073456e+04  -1.572515e+05
  -8.101233e+04  -5.621314e+04
   3.339115e+04   3.496079e+05
  -2.158322e+04   5.645680e+05
  -3.112963e+05   2.435798e+05
  -4.810605e+05  -3.600452e+05
  -1.883177e+05  -6.456091e+05
   3.970482e+05  -3.293319e+05
   6.782793e+05   2.590366e+05
   2.725625e+05   5.645653e+05
  -5.024302e+05   3.778968e+05
  -8.909879e+05  -5.196237e+04
  -4.906739e+05  -3.670038e+05
   2.858973e+05  -4.145869e+05
   6.381553e+05  -2.516568e+05
   2.584225e+05  -2.441352e+04
  -3.344946e+05   8.665011e+04
  -4.064172e+05  -4.174796e+04
   1.506954e+05  -2.895610e+05
   7.213103e+05  -2.917140e+05
