
 $NMID
 id='ANONYMOUS ', fmtdat='(2E16.6)'
 volume=1.0
 tramp=1.0
 $END
  -2.319418e+07  -1.344740e+06
  -1.391168e+07  -1.306822e+07
   2.207429e+06  -1.481161e+07
   1.077558e+07  -7.533372e+06
   7.446160e+06   9.176138e+05
  -4.539107e+05   3.882095e+06
  -4.319822e+06   8.317175e+05
  -2.338530e+06  -3.825075e+06
   1.810898e+06  -5.175198e+06
   4.175231e+06  -1.830281e+06
   3.284962e+06   2.959831e+06
   2.683937e+05   4.357293e+06
  -2.078740e+06   9.842132e+05
  -1.455196e+06  -3.370345e+06
   1.515092e+06  -3.853192e+06
   3.577853e+06   1.063008e+05
   2.262404e+06   4.492850e+06
  -1.480331e+06   5.328721e+06
  -4.455868e+06   2.418759e+06
  -4.473964e+06  -1.390081e+06
  -2.079439e+06  -3.380622e+06
   3.325497e+05  -3.005106e+06
   7.291577e+05  -1.711933e+06
  -6.876795e+05  -1.347195e+06
  -1.512862e+06  -2.321177e+06
   3.339582e+05  -3.122488e+06
   3.827856e+06  -2.047169e+06
   5.449222e+06   5.935229e+05
   3.188179e+06   2.622846e+06
  -8.576802e+05   2.435472e+06
  -2.789990e+06   5.988713e+05
  -1.266089e+06  -1.088512e+06
   1.467797e+06  -1.347070e+06
   2.564772e+06  -5.596691e+04
   1.437698e+06   1.865214e+06
  -4.174061e+05   2.771722e+06
  -1.362395e+06   1.522947e+06
  -9.263462e+05  -8.551119e+05
   1.205229e+05  -1.695983e+06
   5.044260e+05   8.466034e+04
  -3.392990e+05   2.143239e+06
  -1.476715e+06   1.509914e+06
  -1.309669e+06  -1.275162e+06
   4.768380e+05  -2.599385e+06
   2.200239e+06  -5.109403e+05
   1.859966e+06   2.689952e+06
  -6.345363e+05   3.388053e+06
  -3.229119e+06   9.284359e+05
  -3.639256e+06  -2.112030e+06
  -1.405254e+06  -3.121890e+06
   1.692916e+06  -1.783404e+06
   3.111673e+06   3.722923e+05
   1.779358e+06   1.610006e+06
  -8.364785e+05   1.192391e+06
  -2.130481e+06  -2.086345e+05
  -1.080444e+06  -1.100039e+06
   7.286811e+05  -6.381286e+05
   1.103480e+06   4.478669e+05
  -1.404131e+05   7.716671e+05
  -1.154949e+06  -1.261728e+04
  -4.681676e+05  -9.249749e+05
   1.292545e+06  -9.341549e+05
   2.231953e+06   7.689869e+04
   1.222936e+06   1.526302e+06
  -1.119310e+06   2.584671e+06
  -3.113565e+06   2.361824e+06
  -3.409691e+06   5.037104e+05
  -2.007594e+06  -2.002579e+06
  -1.798766e+05  -3.323375e+06
   7.344910e+05  -2.666517e+06
   5.961953e+05  -1.214329e+06
   3.978924e+05  -5.945363e+05
   9.194153e+05  -8.404059e+05
   1.770442e+06  -6.295216e+05
   1.938491e+06   6.388778e+05
   9.951257e+05   1.878560e+06
  -4.847640e+05   1.671043e+06
  -1.472036e+06   9.967019e+03
  -1.227151e+06  -1.676283e+06
   1.990158e+05  -1.971037e+06
   1.830928e+06  -6.930589e+05
   2.355803e+06   1.106957e+06
   1.327269e+06   2.129281e+06
  -2.636560e+05   1.906048e+06
  -1.045691e+06   1.074419e+06
  -8.721270e+05   5.733463e+05
  -8.682439e+05   5.978242e+05
  -1.757741e+06   4.923269e+05
  -2.695791e+06  -3.454174e+05
  -2.216601e+06  -1.687926e+06
  -9.916441e+04  -2.658586e+06
   2.177105e+06  -2.498855e+06
   2.876551e+06  -1.158074e+06
   1.671762e+06   5.904057e+05
  -1.517785e+05   1.568006e+06
  -9.810195e+05   1.118466e+06
  -3.381616e+05  -1.391458e+05
   8.157584e+05  -7.944448e+05
   1.171125e+06  -1.958507e+05
   4.377312e+05   7.501749e+05
  -4.480479e+05   7.336960e+05
  -4.571084e+05  -2.166400e+05
   3.967722e+05  -7.184497e+05
   1.155879e+06   1.882948e+05
   9.485258e+05   1.780941e+06
  -2.568555e+05   2.448701e+06
  -1.721966e+06   1.437009e+06
  -2.477386e+06  -4.818544e+05
  -1.944555e+06  -1.878708e+06
  -4.374837e+05  -1.937705e+06
   9.120842e+05  -9.911019e+05
   1.105458e+06  -7.543291e+04
   3.248936e+05   3.442082e+04
  -2.377552e+05  -4.910585e+05
   2.153179e+05  -7.995547e+05
   1.116768e+06  -3.493369e+05
   1.255142e+06   4.715485e+05
   3.042110e+05   8.283858e+05
  -7.383178e+05   4.077790e+05
  -6.922180e+05  -2.856654e+05
   4.731954e+05  -5.183193e+05
   1.579662e+06  -1.392178e+04
   1.426195e+06   8.813815e+05
  -1.890829e+04   1.480972e+06
  -1.553436e+06   1.233834e+06
  -1.862245e+06   2.148357e+05
  -7.768926e+05  -7.764465e+05
   5.724091e+05  -8.744249e+05
   9.049203e+05  -8.033059e+04
   5.284061e+04   6.500077e+05
  -9.805655e+05   4.499319e+05
  -1.136855e+06  -4.638338e+05
  -3.262844e+05  -1.071158e+06
   6.241972e+05  -7.484205e+05
   8.544030e+05   7.036598e+04
   2.583199e+05   4.652307e+05
  -4.593439e+05   5.017423e+04
  -4.511510e+05  -6.837480e+05
   4.205832e+05  -9.198057e+05
   1.343995e+06  -3.061200e+05
   1.317653e+06   7.284221e+05
   2.386115e+05   1.352966e+06
  -9.156916e+05   1.071824e+06
  -1.118439e+06   1.735236e+05
  -3.713598e+05  -5.484120e+05
   4.129125e+05  -5.561739e+05
   4.859539e+05  -4.303720e+04
  -1.841402e+04   3.550326e+05
  -4.160767e+05   2.653409e+05
  -2.770050e+05  -6.564013e+04
   1.873178e+05  -1.102154e+05
   3.918448e+05   3.067587e+05
  -4.414138e+04   7.563428e+05
  -8.806001e+05   6.137497e+05
  -1.375500e+06  -2.634560e+05
  -9.551362e+05  -1.286897e+06
   1.559083e+05  -1.632024e+06
   1.089966e+06  -1.020167e+06
   1.207621e+06   1.687297e+04
   7.055933e+05   6.732187e+05
   2.627204e+05   6.342915e+05
   2.181265e+05   2.791558e+05
   2.861594e+05   1.704777e+05
   3.594279e+04   4.251540e+05
  -5.410267e+05   6.178689e+05
  -9.854862e+05   2.845520e+05
  -7.942300e+05  -5.002058e+05
   1.010996e+05  -1.075217e+06
   1.157372e+06  -7.884371e+05
   1.538958e+06   3.050079e+05
   8.093714e+05   1.378504e+06
  -5.841743e+05   1.558450e+06
  -1.618661e+06   7.429977e+05
  -1.606146e+06  -3.388526e+05
  -7.797213e+05  -8.818891e+05
   5.295251e+04  -7.516641e+05
   3.444466e+05  -4.611017e+05
   2.206951e+05  -4.961056e+05
   1.622068e+05  -7.726913e+05
   4.293065e+05  -7.761908e+05
   8.126021e+05  -1.771799e+05
   8.612880e+05   7.394388e+05
   3.469993e+05   1.273661e+06
  -4.382384e+05   9.556023e+05
  -8.670907e+05   1.284661e+04
  -5.612085e+05  -8.099262e+05
   1.890080e+05  -9.159954e+05
   6.803874e+05  -3.531501e+05
   5.181851e+05   3.251277e+05
   7.941015e+03   6.300926e+05
  -2.347835e+05   5.293322e+05
  -5.089253e+03   3.248940e+05
   2.651951e+05   2.546035e+05
   2.373393e+04   2.679392e+05
  -7.215201e+05   1.489225e+05
  -1.310746e+06  -2.084307e+05
  -1.069496e+06  -6.560960e+05
  -4.105975e+04  -8.939317e+05
   9.758912e+05  -7.208920e+05
   1.186364e+06  -2.298504e+05
   5.762972e+05   2.292846e+05
  -1.382383e+05   3.274029e+05
  -3.111750e+05   6.088966e+04
   1.617346e+04  -2.201027e+05
   3.302419e+05  -1.525407e+05
   3.063437e+05   2.334655e+05
   8.957990e+04   5.091169e+05
  -1.021293e+04   3.289434e+05
   9.780471e+04  -1.156028e+05
   2.436644e+05  -2.623027e+05
   1.980233e+05   1.468599e+05
  -1.353463e+05   6.861232e+05
  -6.040262e+05   6.928232e+05
  -8.251901e+05   5.439468e+04
  -4.751762e+05  -6.236561e+05
   2.883749e+05  -6.878768e+05
   7.949122e+05  -1.419241e+05
   4.756681e+05   4.125331e+05
  -4.528985e+05   4.431810e+05
  -1.092800e+06  -2.966355e+04
  -7.672218e+05  -5.584020e+05
   2.527108e+05  -7.180411e+05
   1.021670e+06  -4.189552e+05
   8.907214e+05   7.625088e+04
   1.266236e+05   3.615142e+05
  -4.268525e+05   2.118691e+05
  -2.307995e+05  -1.779279e+05
   4.327865e+05  -3.123212e+05
   7.891407e+05   1.184878e+05
   3.762809e+05   8.297963e+05
  -4.895408e+05   1.114660e+06
  -1.044766e+06   5.351044e+05
  -8.366371e+05  -5.488509e+05
  -1.118114e+05  -1.227678e+06
   5.104604e+05  -9.066262e+05
   6.355334e+05   8.101985e+04
   3.293448e+05   8.012425e+05
  -9.499934e+04   6.856761e+05
  -3.622685e+05   7.743891e+04
  -3.567292e+05  -2.676166e+05
  -1.584549e+05  -1.080264e+05
  -1.459555e+04   7.812019e+04
  -1.166027e+05  -1.721913e+05
  -3.103758e+05  -6.451303e+05
  -1.786368e+05  -7.399124e+05
   4.202445e+05  -2.692034e+05
   1.004502e+06   3.283863e+05
   9.143735e+05   5.745259e+05
   1.258788e+05   4.625396e+05
  -6.284013e+05   2.732697e+05
  -6.847667e+05   1.339000e+05
  -2.029419e+05  -1.264336e+04
   1.191531e+05  -1.470073e+05
  -3.025873e+04  -1.632223e+05
  -2.384233e+05  -9.539857e+04
  -1.055616e+04  -9.559309e+04
   5.133907e+05  -1.331705e+05
   7.010528e+05   3.821739e+04
   1.990384e+05   4.675991e+05
  -6.396555e+05   7.532235e+05
  -1.121187e+06   4.453484e+05
  -8.787720e+05  -3.452286e+05
  -1.457568e+05  -9.644017e+05
   5.217568e+05  -8.998256e+05
   7.169096e+05  -3.117491e+05
   4.497234e+05   1.964634e+05
   6.161642e+04   2.444179e+05
  -9.834776e+04   1.366708e+04
   3.517237e+04  -4.704815e+04
   2.232386e+05   2.343483e+05
   1.784277e+05   5.480615e+05
  -1.423194e+05   4.452938e+05
  -4.712844e+05  -1.272181e+05
  -4.557828e+05  -6.903896e+05
  -4.687156e+03  -6.954387e+05
   5.463377e+05  -1.080134e+05
   6.742191e+05   5.488606e+05
   1.858612e+05   7.395633e+05
  -5.014418e+05   4.098371e+05
  -7.296969e+05  -8.240451e+04
  -3.192767e+05  -3.877963e+05
   2.024214e+05  -4.073974e+05
   2.203731e+05  -2.298584e+05
  -2.134754e+05  -2.482129e+04
  -4.516399e+05   1.067095e+04
  -7.829024e+04  -2.019468e+05
   5.666346e+05  -4.529774e+05
   8.167682e+05  -3.791693e+05
   4.643628e+05   9.710718e+04
  -8.265167e+04   5.674295e+05
  -3.460718e+05   5.491020e+05
  -2.460153e+05   6.772082e+04
  -6.333600e+03  -3.443275e+05
   1.777158e+05  -2.663499e+05
   2.404145e+05   1.446127e+05
   1.567942e+05   3.954183e+05
  -5.490619e+04   2.512552e+05
  -2.625495e+05  -5.385639e+04
  -3.010745e+05  -1.690286e+05
  -1.603597e+05  -4.330697e+04
  -1.329189e+03   7.130890e+04
   5.077168e+04  -3.526747e+04
   5.197001e+04  -2.681390e+05
   1.242582e+05  -3.307346e+05
   2.483770e+05  -7.034275e+04
   2.526724e+05   3.141799e+05
   2.473966e+04   4.501991e+05
  -3.020879e+05   1.873997e+05
  -4.189608e+05  -2.271759e+05
  -1.429625e+05  -4.086049e+05
   3.364578e+05  -2.324197e+05
   5.719513e+05   8.406945e+04
   3.056901e+05   2.641055e+05
  -2.063751e+05   2.354719e+05
  -4.263181e+05   1.063314e+05
  -1.381146e+05   1.843023e+02
   2.808903e+05  -1.092367e+04
   2.941357e+05   9.328039e+04
  -1.525590e+05   2.229374e+05
  -5.653329e+05   1.735822e+05
