
 $NMID
 id='ANONYMOUS ', fmtdat='(2E16.6)'
 volume=1.0
 tramp=1.0
 $END
  -4.291907e+07   5.107850e+05
  -2.717981e+07  -2.425737e+07
   3.470148e+06  -2.862312e+07
   2.021816e+07  -1.369950e+07
   1.374648e+07   2.924504e+06
  -1.306499e+06   7.413090e+06
  -7.995029e+06   7.158260e+05
  -3.685092e+06  -7.322631e+06
   3.836105e+06  -8.783670e+06
   7.641154e+06  -2.844252e+06
   5.925352e+06   4.972617e+06
   7.496349e+05   7.377569e+06
  -3.390459e+06   2.045068e+06
  -2.445651e+06  -5.251004e+06
   2.759145e+06  -6.301781e+06
   6.456426e+06   3.562450e+05
   4.132393e+06   8.005216e+06
  -2.492131e+06   9.629528e+06
  -7.838629e+06   4.795298e+06
  -8.297067e+06  -1.772241e+06
  -4.625796e+06  -5.736661e+06
  -2.592648e+05  -5.965086e+06
   1.467388e+06  -4.003154e+06
  -9.125309e+04  -2.535671e+06
  -1.803042e+06  -3.174450e+06
   2.719628e+05  -4.537885e+06
   5.618781e+06  -3.591803e+06
   8.757029e+06   2.670082e+05
   5.715773e+06   3.881554e+06
  -6.346738e+05   4.111048e+06
  -3.966178e+06   1.493646e+06
  -2.015955e+06  -1.028224e+06
   1.766020e+06  -1.560910e+06
   3.344220e+06  -1.125985e+05
   2.112573e+06   2.374140e+06
  -1.855616e+05   4.068243e+06
  -1.873774e+06   2.872766e+06
  -1.980563e+06  -7.438646e+05
  -5.811258e+05  -2.829896e+06
   6.109799e+05  -5.953803e+05
  -2.716297e+05   2.948228e+06
  -2.338583e+06   2.351753e+06
  -2.290401e+06  -2.359029e+06
   1.131401e+06  -4.908437e+06
   4.624736e+06  -1.180755e+06
   3.916057e+06   4.929757e+06
  -1.007280e+06   6.474141e+06
  -5.759891e+06   2.007510e+06
  -6.210584e+06  -3.543007e+06
  -2.185472e+06  -5.270581e+06
   2.911496e+06  -2.833588e+06
   5.059451e+06   8.455763e+05
   2.741174e+06   2.861434e+06
  -1.648300e+06   2.079936e+06
  -3.787328e+06  -4.096114e+05
  -1.871722e+06  -2.032963e+06
   1.296233e+06  -1.183514e+06
   1.756537e+06   7.986751e+05
  -6.168236e+05   1.196405e+06
  -2.176876e+06  -5.559513e+05
  -4.363842e+05  -2.242653e+06
   2.872755e+06  -1.835154e+06
   4.207301e+06   3.822039e+05
   2.187895e+06   2.885382e+06
  -1.638232e+06   4.459913e+06
  -4.777627e+06   4.111983e+06
  -5.521102e+06   1.219120e+06
  -3.647565e+06  -2.987595e+06
  -6.231789e+05  -5.456935e+06
   1.320042e+06  -4.427319e+06
   1.268927e+06  -1.726732e+06
   5.559160e+05  -4.730310e+05
   9.355722e+05  -1.073199e+06
   2.268908e+06  -1.182282e+06
   2.842206e+06   5.550538e+05
   1.653811e+06   2.519700e+06
  -4.968574e+05   2.380372e+06
  -2.013960e+06   4.055702e+04
  -1.802733e+06  -2.423997e+06
   1.883550e+05  -2.995457e+06
   2.762477e+06  -1.292810e+06
   3.911205e+06   1.444557e+06
   2.524580e+06   3.359163e+06
  -1.586246e+05   3.377141e+06
  -1.758847e+06   2.098417e+06
  -1.638972e+06   1.054844e+06
  -1.534180e+06   8.882098e+05
  -2.823400e+06   6.967085e+05
  -4.265613e+06  -5.798071e+05
  -3.485923e+06  -2.652013e+06
  -1.694423e+05  -4.132496e+06
   3.298200e+06  -3.895289e+06
   4.331694e+06  -1.916414e+06
   2.587068e+06   7.205542e+05
  -5.494782e+04   2.326720e+06
  -1.349318e+06   1.786655e+06
  -5.287895e+05  -1.434698e+05
   1.189460e+06  -1.257283e+06
   1.844414e+06  -3.604035e+05
   7.805578e+05   1.156818e+06
  -6.269426e+05   1.126337e+06
  -6.189256e+05  -3.711958e+05
   8.022789e+05  -1.010067e+06
   1.901688e+06   6.290029e+05
   1.255708e+06   3.086009e+06
  -8.352244e+05   3.771135e+06
  -2.925019e+06   1.889373e+06
  -3.723507e+06  -1.023824e+06
  -2.761842e+06  -2.913665e+06
  -5.826943e+05  -2.887156e+06
   1.355169e+06  -1.508243e+06
   1.662371e+06  -1.552417e+05
   5.021635e+05   4.950057e+04
  -3.705900e+05  -7.586072e+05
   3.464368e+05  -1.289510e+06
   1.794707e+06  -5.835946e+05
   2.004541e+06   7.699024e+05
   4.643872e+05   1.341826e+06
  -1.157774e+06   6.240022e+05
  -1.013959e+06  -4.549338e+05
   7.954801e+05  -7.144049e+05
   2.386397e+06   1.129614e+05
   2.054481e+06   1.394749e+06
  -1.244310e+05   2.203975e+06
  -2.392738e+06   1.830353e+06
  -2.861754e+06   3.189630e+05
  -1.227807e+06  -1.224356e+06
   8.821870e+05  -1.424394e+06
   1.461589e+06  -1.717422e+05
   1.399591e+05   1.028191e+06
  -1.517411e+06   7.246384e+05
  -1.764329e+06  -7.383454e+05
  -4.561159e+05  -1.677211e+06
   1.026343e+06  -1.115670e+06
   1.324674e+06   1.808129e+05
   3.570651e+05   7.568233e+05
  -7.448188e+05   8.188956e+04
  -7.201859e+05  -1.052483e+06
   6.180963e+05  -1.426294e+06
   2.054790e+06  -5.061380e+05
   2.048302e+06   1.094173e+06
   3.866731e+05   2.095765e+06
  -1.426760e+06   1.672993e+06
  -1.744874e+06   2.580326e+05
  -5.600318e+05  -8.647365e+05
   6.487901e+05  -8.513573e+05
   7.116408e+05  -6.718920e+04
  -7.303130e+04   4.881160e+05
  -6.032400e+05   3.279970e+05
  -3.134247e+05  -1.106367e+05
   3.696105e+05  -9.189543e+04
   5.936392e+05   5.562644e+05
  -1.147705e+05   1.194182e+06
  -1.377882e+06   9.416743e+05
  -2.125041e+06  -4.064384e+05
  -1.487018e+06  -1.978848e+06
   2.298570e+05  -2.500982e+06
   1.676416e+06  -1.529279e+06
   1.822454e+06   6.942422e+04
   1.004996e+06   1.009587e+06
   3.533012e+05   8.720686e+05
   3.750959e+05   3.434644e+05
   5.175980e+05   2.668776e+05
   7.888162e+04   6.978793e+05
  -8.582291e+05   9.466577e+05
  -1.512356e+06   3.978968e+05
  -1.166514e+06  -7.699489e+05
   2.031167e+05  -1.604954e+06
   1.781948e+06  -1.172844e+06
   2.347608e+06   4.793658e+05
   1.222685e+06   2.136094e+06
  -9.399564e+05   2.420771e+06
  -2.536939e+06   1.127781e+06
  -2.463777e+06  -5.761627e+05
  -1.125512e+06  -1.377643e+06
   1.405307e+05  -1.099763e+06
   4.960429e+05  -6.328726e+05
   2.432928e+05  -7.468830e+05
   1.826405e+05  -1.233360e+06
   6.573053e+05  -1.244617e+06
   1.273119e+06  -3.016958e+05
   1.342903e+06   1.119746e+06
   5.514688e+05   1.949334e+06
  -6.565684e+05   1.470829e+06
  -1.330037e+06   1.447305e+04
  -8.612042e+05  -1.271512e+06
   3.251698e+05  -1.426988e+06
   1.108147e+06  -5.114027e+05
   8.277349e+05   5.733845e+05
  -2.512660e+04   1.028600e+06
  -4.283620e+05   8.255583e+05
  -4.087292e+04   4.799561e+05
   4.181515e+05   3.713748e+05
   4.434725e+04   4.034732e+05
  -1.135576e+06   2.314199e+05
  -2.054659e+06  -3.161056e+05
  -1.656729e+06  -1.023860e+06
  -3.743206e+04  -1.417633e+06
   1.540310e+06  -1.145004e+06
   1.849454e+06  -3.378414e+05
   8.884212e+05   4.087467e+05
  -2.254016e+05   5.376134e+05
  -5.000234e+05   7.666831e+04
  -3.114896e+03  -3.688546e+05
   4.864906e+05  -2.430190e+05
   4.803188e+05   3.537177e+05
   1.812971e+05   7.586710e+05
   2.658452e+04   4.920946e+05
   1.532115e+05  -1.473760e+05
   3.490712e+05  -3.586457e+05
   2.966198e+05   2.318330e+05
  -1.866845e+05   1.034331e+06
  -9.215577e+05   1.076959e+06
  -1.308132e+06   1.322654e+05
  -7.846857e+05  -9.381254e+05
   4.253969e+05  -1.098992e+06
   1.237495e+06  -2.745667e+05
   7.378963e+05   6.137986e+05
  -7.056555e+05   6.795284e+05
  -1.666942e+06  -6.574659e+04
  -1.128882e+06  -8.786931e+05
   4.345598e+05  -1.080678e+06
   1.570272e+06  -5.875902e+05
   1.337335e+06   1.523142e+05
   1.722830e+05   5.495613e+05
  -6.635552e+05   3.097918e+05
  -3.731954e+05  -2.799538e+05
   6.345187e+05  -4.985995e+05
   1.206794e+06   1.397562e+05
   6.209763e+05   1.241007e+06
  -6.871582e+05   1.719134e+06
  -1.565518e+06   8.561814e+05
  -1.286435e+06  -8.141748e+05
  -1.885380e+05  -1.867209e+06
   7.770038e+05  -1.370148e+06
   9.723566e+05   1.465292e+05
   4.844726e+05   1.233528e+06
  -1.795693e+05   1.038293e+06
  -5.676184e+05   1.092427e+05
  -5.200110e+05  -4.062498e+05
  -2.117950e+05  -1.614523e+05
  -3.502769e+04   1.138005e+05
  -2.271805e+05  -2.709500e+05
  -4.997783e+05  -9.877179e+05
  -2.443111e+05  -1.132407e+06
   6.819167e+05  -4.203966e+05
   1.533546e+06   4.918463e+05
   1.370956e+06   8.778126e+05
   1.948823e+05   7.142934e+05
  -9.280690e+05   4.206225e+05
  -1.037593e+06   1.982000e+05
  -3.397680e+05  -2.821508e+04
   1.680639e+05  -2.267303e+05
  -8.977636e+03  -2.414753e+05
  -3.232115e+05  -1.325501e+05
  -3.091211e+04  -1.394042e+05
   7.396616e+05  -2.145204e+05
   1.074161e+06   3.463995e+04
   3.678484e+05   7.033150e+05
  -9.245485e+05   1.175720e+06
  -1.724966e+06   7.344410e+05
  -1.390154e+06  -4.795901e+05
  -2.525543e+05  -1.462292e+06
   7.888795e+05  -1.400202e+06
   1.084714e+06  -5.144017e+05
   6.799820e+05   2.733292e+05
   1.144357e+05   3.685872e+05
  -1.125244e+05   3.540801e+04
   7.153574e+04  -5.097756e+04
   3.314668e+05   3.700481e+05
   2.682866e+05   8.388772e+05
  -1.993070e+05   6.893415e+05
  -7.090370e+05  -1.626920e+05
  -7.255798e+05  -1.016732e+06
  -6.184244e+04  -1.056568e+06
   8.025474e+05  -2.045745e+05
   1.045096e+06   7.907677e+05
   3.228618e+05   1.122914e+06
  -7.457541e+05   6.612902e+05
  -1.131996e+06  -9.632228e+04
  -5.224131e+05  -6.046614e+05
   2.948364e+05  -6.591320e+05
   3.583759e+05  -3.712664e+05
  -2.926427e+05  -3.029860e+04
  -6.808041e+05   2.815501e+04
  -1.363719e+05  -3.104484e+05
   8.586551e+05  -7.000315e+05
   1.275059e+06  -5.803677e+05
   7.506380e+05   1.551004e+05
  -1.082707e+05   8.814807e+05
  -5.419788e+05   8.676303e+05
  -3.999951e+05   1.401419e+05
  -2.998309e+04  -5.089148e+05
   2.555056e+05  -4.265041e+05
   3.611715e+05   1.885471e+05
   2.524426e+05   5.990085e+05
  -6.367729e+04   4.091246e+05
  -4.004561e+05  -6.377109e+04
  -4.796408e+05  -2.688608e+05
  -2.515090e+05  -8.043595e+04
   2.006757e+04   1.271833e+05
   9.025108e+04  -9.183631e+03
   3.922223e+04  -3.818484e+05
   1.179010e+05  -5.240573e+05
   3.457681e+05  -1.600203e+05
   4.217838e+05   4.302359e+05
   9.725212e+04   6.691470e+05
  -4.391895e+05   3.034325e+05
  -6.594654e+05  -3.134381e+05
  -2.392942e+05  -6.057559e+05
   5.165024e+05  -3.696755e+05
   8.897312e+05   9.761761e+04
   4.818796e+05   3.935324e+05
  -3.038717e+05   3.864057e+05
  -6.496543e+05   2.012889e+05
  -2.325625e+05   1.449779e+04
   3.910459e+05  -3.774111e+04
   4.305586e+05   1.069012e+05
  -2.074432e+05   3.180241e+05
  -8.174899e+05   2.681022e+05
