
 $NMID
 id='ANONYMOUS ', fmtdat='(2E16.6)'
 volume=1.0
 tramp=1.0
 $END
  -2.720145e+07   2.457201e+05
  -1.767086e+07  -1.451119e+07
   1.403289e+06  -1.792107e+07
   1.254564e+07  -9.690272e+06
   9.231599e+06   8.531660e+05
  -3.290457e+05   4.826498e+06
  -5.301646e+06   1.144548e+06
  -2.995093e+06  -4.612100e+06
   2.091283e+06  -6.296964e+06
   4.994264e+06  -2.348245e+06
   3.989857e+06   3.307322e+06
   4.787757e+05   5.055406e+06
  -2.322446e+06   1.249898e+06
  -1.711394e+06  -3.848743e+06
   1.744574e+06  -4.570638e+06
   4.297163e+06  -2.854545e+04
   2.900069e+06   5.207571e+06
  -1.472952e+06   6.375605e+06
  -5.066430e+06   3.114871e+06
  -5.272325e+06  -1.280457e+06
  -2.696333e+06  -3.684582e+06
   3.698819e+03  -3.496749e+06
   6.176979e+05  -2.246941e+06
  -7.245052e+05  -1.826349e+06
  -1.556031e+06  -2.722188e+06
   4.191257e+05  -3.491126e+06
   4.271720e+06  -2.343415e+06
   6.181820e+06   5.299899e+05
   3.750065e+06   2.837961e+06
  -8.101023e+05   2.715269e+06
  -3.039798e+06   7.035159e+05
  -1.328473e+06  -1.139962e+06
   1.723984e+06  -1.359589e+06
   2.850154e+06   7.351915e+04
   1.519699e+06   2.103759e+06
  -4.739026e+05   3.063738e+06
  -1.437075e+06   1.776654e+06
  -1.029933e+06  -7.889047e+05
  -1.795188e+04  -1.824785e+06
   4.008701e+05   2.319814e+04
  -4.368442e+05   2.354300e+06
  -1.710238e+06   1.742686e+06
  -1.626425e+06  -1.477952e+06
   4.279653e+05  -3.208215e+06
   2.635610e+06  -8.981372e+05
   2.451755e+06   2.995571e+06
  -4.829677e+05   4.084392e+06
  -3.710751e+06   1.304049e+06
  -4.323143e+06  -2.359820e+06
  -1.698904e+06  -3.660529e+06
   1.983843e+06  -2.121289e+06
   3.674943e+06   4.282909e+05
   2.120164e+06   1.924301e+06
  -9.717726e+05   1.489102e+06
  -2.549048e+06  -1.540481e+05
  -1.345522e+06  -1.283258e+06
   8.240805e+05  -8.032897e+05
   1.301637e+06   5.257076e+05
  -2.226165e+05   9.772669e+05
  -1.504960e+06  -1.576797e+04
  -6.681977e+05  -1.252253e+06
   1.539062e+06  -1.314776e+06
   2.738453e+06  -2.020832e+04
   1.555291e+06   1.779172e+06
  -1.190480e+06   3.016227e+06
  -3.491833e+06   2.760363e+06
  -3.869095e+06   6.806998e+05
  -2.358957e+06  -2.182785e+06
  -3.106349e+05  -3.801860e+06
   8.238875e+05  -3.152083e+06
   7.817458e+05  -1.443637e+06
   5.494548e+05  -5.963718e+05
   1.033034e+06  -8.206179e+05
   1.918461e+06  -6.492181e+05
   2.109866e+06   7.066001e+05
   1.075739e+06   2.080435e+06
  -5.659473e+05   1.838392e+06
  -1.648899e+06  -4.210248e+04
  -1.358248e+06  -1.926406e+06
   2.279227e+05  -2.235300e+06
   2.052522e+06  -8.108730e+05
   2.690659e+06   1.186479e+06
   1.602718e+06   2.367723e+06
  -1.853361e+05   2.205099e+06
  -1.139308e+06   1.325792e+06
  -1.015624e+06   7.393676e+05
  -1.037599e+06   7.166400e+05
  -2.051234e+06   5.702177e+05
  -3.120415e+06  -3.959299e+05
  -2.557967e+06  -1.944972e+06
  -1.100827e+05  -3.056665e+06
   2.496098e+06  -2.853288e+06
   3.269017e+06  -1.314118e+06
   1.881979e+06   6.553474e+05
  -1.726832e+05   1.750524e+06
  -1.096439e+06   1.258574e+06
  -3.773071e+05  -1.474082e+05
   9.225472e+05  -9.016629e+05
   1.342119e+06  -2.397481e+05
   5.184829e+05   8.425417e+05
  -5.089582e+05   8.314449e+05
  -5.213894e+05  -2.713420e+05
   5.055016e+05  -8.500469e+05
   1.414686e+06   2.451056e+05
   1.121059e+06   2.145294e+06
  -3.745891e+05   2.905388e+06
  -2.095526e+06   1.649920e+06
  -2.889153e+06  -6.312577e+05
  -2.192935e+06  -2.223153e+06
  -4.574714e+05  -2.233364e+06
   1.050789e+06  -1.119924e+06
   1.257822e+06  -7.761893e+04
   3.734070e+05   4.108561e+04
  -2.727810e+05  -5.640128e+05
   2.395942e+05  -9.296844e+05
   1.286067e+06  -4.202357e+05
   1.461955e+06   5.377163e+05
   3.624433e+05   9.645778e+05
  -8.518213e+05   4.717749e+05
  -7.899490e+05  -3.410345e+05
   5.706799e+05  -5.923495e+05
   1.832993e+06   2.187817e+04
   1.619304e+06   1.054048e+06
  -5.934017e+04   1.708841e+06
  -1.805508e+06   1.398925e+06
  -2.143270e+06   2.340386e+05
  -9.008848e+05  -8.947662e+05
   6.456247e+05  -1.015313e+06
   1.041796e+06  -1.104369e+05
   7.393820e+04   7.391767e+05
  -1.122615e+06   5.196935e+05
  -1.311935e+06  -5.385321e+05
  -3.699353e+05  -1.247029e+06
   7.378508e+05  -8.671003e+05
   9.992939e+05   9.193748e+04
   3.000191e+05   5.498522e+05
  -5.294035e+05   6.567327e+04
  -5.173696e+05  -7.791244e+05
   4.800419e+05  -1.047006e+06
   1.533860e+06  -3.458370e+05
   1.505948e+06   8.352089e+05
   2.725884e+05   1.553314e+06
  -1.055757e+06   1.234143e+06
  -1.293081e+06   1.973839e+05
  -4.288978e+05  -6.382945e+05
   4.788793e+05  -6.408918e+05
   5.538071e+05  -4.183098e+04
  -3.922487e+04   4.068384e+05
  -4.879890e+05   2.830833e+05
  -3.021356e+05  -9.992653e+04
   2.427266e+05  -1.288115e+05
   4.621282e+05   3.694108e+05
  -5.709416e+04   8.811191e+05
  -1.018538e+06   7.023761e+05
  -1.578439e+06  -3.094700e+05
  -1.090771e+06  -1.479584e+06
   1.898020e+05  -1.870320e+06
   1.266875e+06  -1.160002e+06
   1.391762e+06   4.059782e+04
   7.899667e+05   7.921733e+05
   2.689566e+05   7.276571e+05
   2.357739e+05   3.025214e+05
   3.379572e+05   1.825088e+05
   4.898247e+04   4.893194e+05
  -6.309026e+05   7.091244e+05
  -1.140339e+06   3.116347e+05
  -8.988505e+05  -5.920442e+05
   1.412379e+05  -1.235767e+06
   1.342024e+06  -8.909171e+05
   1.763550e+06   3.657907e+05
   9.209778e+05   1.593883e+06
  -6.803748e+05   1.797297e+06
  -1.872521e+06   8.513542e+05
  -1.853330e+06  -4.074507e+05
  -8.850122e+05  -1.035723e+06
   8.487523e+04  -8.675198e+05
   4.096433e+05  -5.099667e+05
   2.468822e+05  -5.463875e+05
   1.728171e+05  -8.790484e+05
   4.870225e+05  -8.953665e+05
   9.314637e+05  -2.073812e+05
   9.835141e+05   8.481962e+05
   3.914307e+05   1.459724e+06
  -5.061532e+05   1.091549e+06
  -9.962789e+05   8.673221e+03
  -6.446874e+05  -9.368651e+05
   2.232707e+05  -1.060202e+06
   7.978513e+05  -4.100264e+05
   6.118208e+05   3.796985e+05
   1.254384e+04   7.387860e+05
  -2.788655e+05   6.214857e+05
  -1.593101e+04   3.776152e+05
   2.995898e+05   2.899872e+05
   2.399094e+04   3.051674e+05
  -8.323209e+05   1.712229e+05
  -1.507103e+06  -2.398347e+05
  -1.228143e+06  -7.593400e+05
  -4.752610e+04  -1.036785e+06
   1.122206e+06  -8.342815e+05
   1.370263e+06  -2.601495e+05
   6.723300e+05   2.731472e+05
  -1.556314e+05   3.818587e+05
  -3.638498e+05   6.989847e+04
   1.119450e+04  -2.511128e+05
   3.769226e+05  -1.695702e+05
   3.505238e+05   2.682782e+05
   9.956368e+04   5.739792e+05
  -1.147940e+04   3.676837e+05
   1.198477e+05  -1.284366e+05
   2.868394e+05  -2.882240e+05
   2.251395e+05   1.722974e+05
  -1.624741e+05   7.790672e+05
  -6.943835e+05   7.903071e+05
  -9.417071e+05   7.046140e+04
  -5.433506e+05  -7.055168e+05
   3.250985e+05  -7.889654e+05
   9.041996e+05  -1.673273e+05
   5.401171e+05   4.733644e+05
  -5.248825e+05   5.076278e+05
  -1.257508e+06  -4.679315e+04
  -8.750233e+05  -6.594025e+05
   3.057687e+05  -8.293122e+05
   1.187505e+06  -4.671116e+05
   1.025350e+06   1.042361e+05
   1.390851e+05   4.197021e+05
  -4.954017e+05   2.403426e+05
  -2.674437e+05  -2.023781e+05
   4.911181e+05  -3.516516e+05
   8.957725e+05   1.371331e+05
   4.248042e+05   9.424137e+05
  -5.605632e+05   1.264395e+06
  -1.191989e+06   6.034844e+05
  -9.514261e+05  -6.325170e+05
  -1.180624e+05  -1.405114e+06
   5.961903e+05  -1.033374e+06
   7.330162e+05   1.008537e+05
   3.705680e+05   9.266223e+05
  -1.204477e+05   7.912482e+05
  -4.192592e+05   8.747828e+04
  -4.033032e+05  -3.144539e+05
  -1.766449e+05  -1.306116e+05
  -2.002038e+04   9.160921e+04
  -1.396251e+05  -1.894252e+05
  -3.542379e+05  -7.377326e+05
  -1.960426e+05  -8.564149e+05
   4.871609e+05  -3.145046e+05
   1.147659e+06   3.843100e+05
   1.041103e+06   6.721888e+05
   1.420768e+05   5.320696e+05
  -7.190629e+05   3.019914e+05
  -7.869728e+05   1.452448e+05
  -2.379041e+05  -1.141542e+04
   1.359248e+05  -1.653410e+05
  -2.720211e+04  -1.942726e+05
  -2.649466e+05  -1.180072e+05
  -1.155586e+04  -1.056086e+05
   5.824724e+05  -1.405474e+05
   7.992971e+05   4.626820e+04
   2.295609e+05   5.239339e+05
  -7.290047e+05   8.511078e+05
  -1.280602e+06   5.101403e+05
  -1.001130e+06  -3.885431e+05
  -1.601236e+05  -1.100344e+06
   6.001703e+05  -1.028860e+06
   8.159300e+05  -3.535996e+05
   5.077060e+05   2.273560e+05
   6.995259e+04   2.759411e+05
  -1.055096e+05   8.861792e+03
   4.698751e+04  -5.474996e+04
   2.552963e+05   2.739103e+05
   2.000077e+05   6.309836e+05
  -1.627499e+05   5.070162e+05
  -5.317900e+05  -1.481398e+05
  -5.129941e+05  -7.853561e+05
  -4.846032e+03  -7.862873e+05
   6.160854e+05  -1.175785e+05
   7.611081e+05   6.268598e+05
   2.100099e+05   8.414699e+05
  -5.693938e+05   4.658174e+05
  -8.323237e+05  -9.392553e+04
  -3.692529e+05  -4.418679e+05
   2.265386e+05  -4.667178e+05
   2.529059e+05  -2.684450e+05
  -2.394925e+05  -3.631156e+04
  -5.147158e+05   7.766987e+03
  -9.031263e+04  -2.292481e+05
   6.514863e+05  -5.144114e+05
   9.431414e+05  -4.337078e+05
   5.380600e+05   1.078889e+05
  -9.460315e+04   6.484370e+05
  -3.974939e+05   6.329790e+05
  -2.782609e+05   8.455276e+04
  -3.177110e+03  -3.890915e+05
   2.004552e+05  -3.030242e+05
   2.673903e+05   1.655372e+05
   1.769432e+05   4.518028e+05
  -5.776517e+04   2.866315e+05
  -2.969995e+05  -6.197493e+04
  -3.484137e+05  -1.937283e+05
  -1.872364e+05  -5.143277e+04
   4.082531e+03   7.940665e+04
   6.895435e+04  -3.744085e+04
   6.280834e+04  -2.959509e+05
   1.333378e+05  -3.661903e+05
   2.712257e+05  -7.791569e+04
   2.814036e+05   3.497551e+05
   2.762017e+04   5.026847e+05
  -3.421879e+05   2.098720e+05
  -4.741402e+05  -2.564864e+05
  -1.591562e+05  -4.636202e+05
   3.853105e+05  -2.658691e+05
   6.510435e+05   9.457165e+04
   3.481827e+05   3.014336e+05
  -2.320692e+05   2.692312e+05
  -4.820926e+05   1.226014e+05
  -1.582222e+05   4.943648e+03
   3.137237e+05  -5.125488e+03
   3.274888e+05   1.090823e+05
  -1.783730e+05   2.468241e+05
  -6.441587e+05   1.855472e+05
