
 $NMID
 id='ANONYMOUS ', fmtdat='(2E16.6)'
 volume=1.0
 tramp=1.0
 $END
   1.920333e+07   5.935555e+05
   1.291211e+07   8.873396e+06
   1.558818e+05   1.207373e+07
  -8.408571e+06   8.508709e+06
  -7.390139e+06   1.235777e+06
  -6.579897e+05  -3.576869e+06
   4.140617e+06  -2.071381e+06
   3.300026e+06   3.182918e+06
  -8.614428e+05   5.787415e+06
  -3.805116e+06   2.635199e+06
  -3.214536e+06  -2.697362e+06
  -2.753933e+05  -4.316087e+06
   2.007817e+06  -7.523100e+05
   1.493262e+06   3.762463e+06
  -1.259208e+06   4.321131e+06
  -3.406174e+06   4.511217e+05
  -2.502767e+06  -3.967332e+06
   9.314274e+05  -4.991352e+06
   3.822470e+06  -2.251500e+06
   3.735200e+06   1.322604e+06
   1.362556e+06   2.778944e+06
  -4.438463e+05   1.923085e+06
   1.004087e+05   9.583865e+05
   1.819440e+06   1.657678e+06
   1.942280e+06   3.311487e+06
  -7.888393e+05   3.700578e+06
  -4.464748e+06   1.773197e+06
  -5.638457e+06  -1.153715e+06
  -2.871746e+06  -2.817510e+06
   1.431020e+06  -2.155993e+06
   3.228576e+06  -1.929147e+03
   1.066645e+06   1.796411e+06
  -2.399343e+06   1.723476e+06
  -3.469953e+06  -3.142501e+05
  -1.455012e+06  -2.675434e+06
   1.044561e+06  -3.147035e+06
   1.546102e+06  -1.163153e+06
   2.971530e+05   1.230510e+06
  -7.188737e+05   1.388202e+06
  -3.573046e+05  -8.160222e+05
   8.262342e+05  -2.642872e+06
   1.665386e+06  -1.718148e+06
   1.455325e+06   1.022325e+06
   2.066114e+05   2.410140e+06
  -1.278318e+06   8.337160e+05
  -1.585775e+06  -1.919952e+06
   1.300488e+05  -2.817228e+06
   2.764393e+06  -9.064327e+05
   3.776241e+06   1.943400e+06
   1.774924e+06   3.215852e+06
  -1.681511e+06   2.109247e+06
  -3.493559e+06  -1.167536e+05
  -2.219883e+06  -1.573717e+06
   5.543428e+05  -1.350632e+06
   2.071975e+06  -5.776865e+04
   1.229785e+06   9.025758e+05
  -5.988689e+05   6.491931e+05
  -1.278124e+06  -4.158144e+05
  -1.781895e+05  -1.093333e+06
   1.265971e+06  -6.332892e+05
   1.192773e+06   5.160728e+05
  -5.420006e+05   1.157875e+06
  -2.042278e+06   4.811501e+05
  -1.385287e+06  -1.170962e+06
   1.182363e+06  -2.495956e+06
   3.420539e+06  -2.233217e+06
   3.486328e+06  -2.590176e+05
   1.744215e+06   2.156957e+06
   9.956264e+03   3.375404e+06
  -5.823785e+05   2.885433e+06
  -4.931943e+05   1.688675e+06
  -7.518421e+05   1.021524e+06
  -1.600791e+06   8.896336e+05
  -2.332670e+06   2.753685e+05
  -2.126316e+06  -1.211803e+06
  -8.230378e+05  -2.444820e+06
   8.990174e+05  -1.964150e+06
   1.905863e+06   1.586821e+05
   1.385633e+06   2.135230e+06
  -3.863363e+05   2.248904e+06
  -2.062753e+06   5.440337e+05
  -2.321782e+06  -1.406646e+06
  -1.112201e+06  -2.175760e+06
   3.380237e+05  -1.688741e+06
   8.805433e+05  -9.059012e+05
   6.777471e+05  -6.382686e+05
   8.586811e+05  -7.954333e+05
   1.963146e+06  -6.428341e+05
   3.021850e+06   3.545800e+05
   2.483110e+06   1.909214e+06
   6.706855e+04   3.024049e+06
  -2.581168e+06   2.766967e+06
  -3.358362e+06   1.113730e+06
  -1.814398e+06  -8.686183e+05
   4.014486e+05  -1.792429e+06
   1.262613e+06  -1.139684e+06
   3.508819e+05   2.203544e+05
  -9.931410e+05   8.414316e+05
  -1.292160e+06   1.798252e+05
  -4.049636e+05  -8.191583e+05
   5.849936e+05  -8.178272e+05
   6.197881e+05   2.615491e+05
  -3.472453e+05   1.002237e+06
  -1.389855e+06   1.215958e+05
  -1.408547e+06  -1.875224e+06
  -3.769600e+04  -3.040950e+06
   1.939281e+06  -2.040405e+06
   3.068137e+06   4.105044e+05
   2.417014e+06   2.307447e+06
   4.956240e+05   2.372746e+06
  -1.125218e+06   1.114229e+06
  -1.294193e+06   1.037309e+04
  -3.721393e+05  -4.948645e+04
   2.640113e+05   5.646241e+05
  -2.174230e+05   8.750804e+05
  -1.205043e+06   3.835947e+05
  -1.402431e+06  -4.892548e+05
  -3.796444e+05  -9.061050e+05
   8.376563e+05  -4.764352e+05
   8.466753e+05   3.476912e+05
  -5.330577e+05   6.903789e+05
  -1.922577e+06   7.966693e+04
  -1.766799e+06  -1.079350e+06
   4.875786e+03  -1.819336e+06
   1.848316e+06  -1.453170e+06
   2.164276e+06  -2.193550e+05
   8.712093e+05   8.711057e+05
  -6.361273e+05   9.335511e+05
  -9.646129e+05   7.058622e+04
  -1.549998e+04  -6.978222e+05
   1.115107e+06  -4.791449e+05
   1.304201e+06   5.265662e+05
   4.134956e+05   1.241843e+06
  -6.943196e+05   9.202998e+05
  -1.015122e+06  -2.520669e+04
  -3.511507e+05  -5.252225e+05
   4.890364e+05  -6.738339e+04
   4.822634e+05   7.778281e+05
  -5.204946e+05   1.023199e+06
  -1.546205e+06   2.875182e+05
  -1.472213e+06  -8.786007e+05
  -2.387414e+05  -1.543724e+06
   1.051091e+06  -1.208320e+06
   1.281521e+06  -1.990829e+05
   4.434096e+05   6.291094e+05
  -4.750149e+05   6.483777e+05
  -5.942812e+05   2.613160e+04
   1.315506e+04  -4.790564e+05
   5.523612e+05  -3.497277e+05
   4.194762e+05   1.253164e+05
  -1.836317e+05   2.273785e+05
  -4.913174e+05  -2.939365e+05
   1.321667e+04  -8.654194e+05
   1.009128e+06  -7.002152e+05
   1.571855e+06   3.279592e+05
   1.057645e+06   1.496244e+06
  -2.282680e+05   1.884282e+06
  -1.300539e+06   1.191166e+06
  -1.447869e+06  -2.461253e+04
  -8.594848e+05  -8.581012e+05
  -2.830678e+05  -8.580149e+05
  -1.665531e+05  -3.852002e+05
  -2.572634e+05  -1.610461e+05
  -2.910356e+04  -4.399490e+05
   6.189858e+05  -7.139176e+05
   1.164482e+06  -3.355109e+05
   9.501886e+05   6.235212e+05
  -1.249115e+05   1.303039e+06
  -1.369773e+06   9.172931e+05
  -1.789399e+06  -3.864001e+05
  -9.320264e+05  -1.603019e+06
   6.566812e+05  -1.784122e+06
   1.847874e+06  -8.606953e+05
   1.880473e+06   3.781796e+05
   9.591599e+05   1.051779e+06
  -5.143390e+04   9.463111e+05
  -4.754455e+05   5.764540e+05
  -3.596774e+05   5.349764e+05
  -2.415796e+05   8.157748e+05
  -4.897027e+05   8.403809e+05
  -9.063399e+05   1.728852e+05
  -9.535850e+05  -8.781133e+05
  -3.534984e+05  -1.476918e+06
   5.403255e+05  -1.084572e+06
   1.006452e+06  -8.509969e+02
   6.452693e+05   9.232144e+05
  -1.969357e+05   1.053624e+06
  -7.518553e+05   4.525939e+05
  -5.986556e+05  -3.043051e+05
  -5.887853e+04  -6.911576e+05
   2.146282e+05  -6.281185e+05
  -8.112660e+03  -4.096827e+05
  -2.802908e+05  -3.142331e+05
  -8.618970e+03  -3.138838e+05
   8.111655e+05  -1.651972e+05
   1.469101e+06   2.552801e+05
   1.215781e+06   7.603010e+05
   7.367682e+04   1.004585e+06
  -1.086781e+06   7.969605e+05
  -1.359233e+06   2.674676e+05
  -6.862283e+05  -2.236684e+05
   1.385212e+05  -3.496259e+05
   3.490287e+05  -8.903746e+04
  -3.610027e+04   2.129327e+05
  -4.022325e+05   1.504232e+05
  -3.378537e+05  -2.780226e+05
  -3.946106e+04  -5.920105e+05
   6.473151e+04  -3.721662e+05
  -1.282005e+05   1.597102e+05
  -3.312705e+05   3.247931e+05
  -2.324732e+05  -1.723224e+05
   2.032505e+05  -7.957547e+05
   7.126083e+05  -7.696791e+05
   8.915808e+05  -1.771182e+04
   4.735655e+05   7.229657e+05
  -3.447050e+05   7.399851e+05
  -8.794439e+05   1.008600e+05
  -5.240450e+05  -5.032493e+05
   5.257531e+05  -5.080515e+05
   1.283881e+06   4.696486e+04
   9.298147e+05   6.685004e+05
  -2.774476e+05   8.673432e+05
  -1.217201e+06   5.127165e+05
  -1.073205e+06  -9.094429e+04
  -1.560115e+05  -4.368052e+05
   4.979911e+05  -2.541388e+05
   2.487729e+05   1.946675e+05
  -5.253962e+05   3.187419e+05
  -8.934482e+05  -1.961001e+05
  -3.600775e+05  -9.777914e+05
   6.481144e+05  -1.239949e+06
   1.240602e+06  -5.441972e+05
   9.400162e+05   6.803603e+05
   7.644448e+04   1.431648e+06
  -6.285723e+05   1.054001e+06
  -7.468739e+05  -8.957618e+04
  -3.835766e+05  -9.410275e+05
   1.006666e+05  -8.198904e+05
   4.138623e+05  -9.558876e+04
   4.296486e+05   3.348539e+05
   2.081691e+05   1.472410e+05
   9.854194e+03  -1.022584e+05
   8.906322e+04   1.721448e+05
   3.215491e+05   7.445274e+05
   2.165276e+05   8.779319e+05
  -4.544407e+05   3.131080e+05
  -1.156893e+06  -4.186609e+05
  -1.073192e+06  -7.056635e+05
  -1.349558e+05  -5.332734e+05
   7.674062e+05  -2.827056e+05
   8.115501e+05  -1.392087e+05
   2.122242e+05  -2.277736e+03
  -1.546966e+05   1.596974e+05
   6.151731e+04   2.165169e+05
   3.062868e+05   1.492017e+05
  -7.585968e+03   1.098173e+05
  -6.371070e+05   1.090161e+05
  -8.000268e+05  -8.363732e+04
  -1.541415e+05  -5.289237e+05
   8.016562e+05  -8.109744e+05
   1.279433e+06  -4.436875e+05
   9.458877e+05   4.473575e+05
   1.103021e+05   1.122277e+06
  -6.267520e+05   1.004848e+06
  -8.336070e+05   3.023587e+05
  -5.111526e+05  -2.688749e+05
  -4.373834e+04  -2.801431e+05
   1.428813e+05   1.869594e+04
  -3.554567e+04   8.181471e+04
  -2.680779e+05  -2.717537e+05
  -1.981045e+05  -6.425401e+05
   1.893593e+05  -4.971458e+05
   5.397542e+05   1.949062e+05
   4.667200e+05   8.366157e+05
  -6.671450e+04   7.888198e+05
  -6.498643e+05   5.893986e+04
  -7.331808e+05  -6.942880e+05
  -1.566854e+05  -8.535814e+05
   5.967529e+05  -4.206867e+05
   8.163672e+05   1.349428e+05
   3.342553e+05   4.313504e+05
  -2.420785e+05   4.267756e+05
  -2.319144e+05   2.531018e+05
   2.759233e+05   5.821116e+04
   5.286975e+05   1.550191e+04
   7.071843e+04   2.273435e+05
  -6.742748e+05   5.012757e+05
  -9.345791e+05   4.317066e+05
  -5.025503e+05  -9.929874e+04
   1.211176e+05  -6.360290e+05
   3.912269e+05  -6.092592e+05
   2.478794e+05  -4.922865e+04
  -2.924466e+04   4.073341e+05
  -2.196935e+05   2.790169e+05
  -2.661221e+05  -2.082361e+05
  -1.572952e+05  -4.629748e+05
   7.747276e+04  -2.575097e+05
   2.959094e+05   8.728107e+04
   3.326483e+05   1.852689e+05
   1.862767e+05   3.825337e+04
   1.538632e+04  -5.508872e+04
  -6.960876e+04   8.775973e+04
  -1.186307e+05   3.174950e+05
  -2.119385e+05   3.295301e+05
  -2.974629e+05   9.786064e+03
  -2.283079e+05  -4.020056e+05
   4.806286e+04  -5.136247e+05
   3.693619e+05  -1.831286e+05
   4.470310e+05   2.979303e+05
   1.268256e+05   4.865848e+05
  -3.884059e+05   2.488385e+05
  -6.335219e+05  -1.343770e+05
  -3.300183e+05  -3.176669e+05
   2.442886e+05  -2.381571e+05
   4.820218e+05  -7.533502e+04
   1.339634e+05   6.534237e+03
  -3.527736e+05  -3.247795e+04
  -3.406309e+05  -1.586591e+05
   2.181721e+05  -2.644196e+05
   7.045622e+05  -1.622504e+05
