
 $NMID
 id='ANONYMOUS ', fmtdat='(2E16.6)'
 volume=1.0
 tramp=1.0
 $END
  -3.015422e+07  -2.156409e+06
  -1.819574e+07  -1.659807e+07
   2.542582e+06  -1.907208e+07
   1.393044e+07  -1.034711e+07
   1.002966e+07   5.964572e+05
  -2.863982e+05   5.138884e+06
  -5.784467e+06   1.522409e+06
  -3.459007e+06  -4.975008e+06
   2.170188e+06  -7.220581e+06
   5.557180e+06  -2.713044e+06
   4.408557e+06   4.007939e+06
   3.002786e+05   5.952189e+06
  -2.848686e+06   1.231726e+06
  -1.978332e+06  -4.766099e+06
   2.008699e+06  -5.397148e+06
   4.792473e+06   9.714551e+03
   3.072816e+06   5.971510e+06
  -1.936551e+06   7.100703e+06
  -5.912906e+06   3.128416e+06
  -5.817472e+06  -1.996825e+06
  -2.488125e+06  -4.477336e+06
   6.060720e+05  -3.713621e+06
   7.663613e+05  -2.009252e+06
  -1.340361e+06  -1.905196e+06
  -2.233041e+06  -3.531578e+06
   6.416637e+05  -4.491591e+06
   5.505075e+06  -2.668546e+06
   7.533010e+06   1.088985e+06
   4.214761e+06   3.720634e+06
  -1.426742e+06   3.247959e+06
  -4.010529e+06   5.886248e+05
  -1.680370e+06  -1.771191e+06
   2.343586e+06  -2.004364e+06
   3.854505e+06   5.221579e+04
   1.982942e+06   2.872219e+06
  -8.282647e+05   3.957323e+06
  -1.979215e+06   1.938508e+06
  -1.048037e+06  -1.357243e+06
   4.243527e+05  -2.237523e+06
   6.730564e+05   3.980846e+05
  -6.489365e+05   3.129822e+06
  -2.100355e+06   2.122359e+06
  -1.810372e+06  -1.664419e+06
   4.511600e+05  -3.436525e+06
   2.657575e+06  -7.309628e+05
   2.355026e+06   3.433880e+06
  -7.664028e+05   4.376640e+06
  -4.253715e+06   1.181156e+06
  -4.974152e+06  -2.872681e+06
  -2.007573e+06  -4.300209e+06
   2.319264e+06  -2.529062e+06
   4.370995e+06   4.437968e+05
   2.566647e+06   2.195490e+06
  -1.048431e+06   1.665765e+06
  -2.874350e+06  -2.212490e+05
  -1.508038e+06  -1.442820e+06
   9.553047e+05  -8.617098e+05
   1.565291e+06   6.080807e+05
  -6.749207e+04   1.155817e+06
  -1.585226e+06   2.088951e+05
  -8.721104e+05  -1.082572e+06
   1.492025e+06  -1.296421e+06
   2.948391e+06  -5.069394e+04
   1.684395e+06   1.967230e+06
  -1.603347e+06   3.480761e+06
  -4.414469e+06   3.139853e+06
  -4.707220e+06   5.429697e+05
  -2.619947e+06  -2.841031e+06
  -1.303706e+05  -4.572782e+06
   9.824438e+05  -3.704582e+06
   7.763332e+05  -1.817035e+06
   6.641500e+05  -9.771275e+05
   1.515636e+06  -1.182753e+06
   2.648790e+06  -7.299876e+05
   2.733956e+06   1.101629e+06
   1.297648e+06   2.796350e+06
  -8.220132e+05   2.405190e+06
  -2.178029e+06  -4.525586e+04
  -1.733715e+06  -2.466866e+06
   3.555702e+05  -2.801561e+06
   2.604901e+06  -8.762969e+05
   3.203868e+06   1.662456e+06
   1.701080e+06   2.960894e+06
  -4.326251e+05   2.524743e+06
  -1.397362e+06   1.378322e+06
  -1.127920e+06   7.792999e+05
  -1.181654e+06   8.717910e+05
  -2.473958e+06   7.079457e+05
  -3.793018e+06  -5.035388e+05
  -3.106777e+06  -2.408967e+06
  -9.925280e+04  -3.766411e+06
   3.147026e+06  -3.494343e+06
   4.126045e+06  -1.543406e+06
   2.341848e+06   9.266579e+05
  -3.107711e+05   2.234420e+06
  -1.460186e+06   1.536863e+06
  -4.707604e+05  -2.223113e+05
   1.187333e+06  -1.099510e+06
   1.648001e+06  -2.520320e+05
   5.797083e+05   1.058220e+06
  -6.675143e+05   1.036273e+06
  -6.835716e+05  -3.073332e+05
   5.168402e+05  -1.075458e+06
   1.641061e+06   1.479805e+05
   1.438242e+06   2.455696e+06
  -2.507751e+05   3.540018e+06
  -2.421241e+06   2.165634e+06
  -3.587066e+06  -6.424952e+05
  -2.820403e+06  -2.729999e+06
  -6.098538e+05  -2.809115e+06
   1.334146e+06  -1.394436e+06
   1.584651e+06  -7.106912e+04
   4.619286e+05   5.572170e+04
  -3.307928e+05  -6.988943e+05
   3.021050e+05  -1.115564e+06
   1.559945e+06  -4.774529e+05
   1.762117e+06   6.605838e+05
   4.368917e+05   1.159684e+06
  -1.044410e+06   5.773198e+05
  -1.000051e+06  -4.120963e+05
   6.646477e+05  -7.635623e+05
   2.275891e+06  -3.546834e+04
   2.066813e+06   1.279497e+06
  -2.617736e+04   2.143599e+06
  -2.236673e+06   1.755162e+06
  -2.657089e+06   2.810789e+05
  -1.089080e+06  -1.102728e+06
   8.153282e+05  -1.210896e+06
   1.260138e+06  -9.586251e+04
   5.214515e+04   9.076587e+05
  -1.392807e+06   6.172795e+05
  -1.609782e+06  -6.646173e+05
  -4.707746e+05  -1.525615e+06
   8.795244e+05  -1.079998e+06
   1.222254e+06   8.244819e+04
   3.848538e+05   6.549282e+05
  -6.347139e+05   6.962009e+04
  -6.194946e+05  -9.711151e+05
   6.197147e+05  -1.289488e+06
   1.913277e+06  -3.987496e+05
   1.850652e+06   1.062656e+06
   3.139615e+05   1.920729e+06
  -1.310006e+06   1.506171e+06
  -1.589505e+06   2.376157e+05
  -5.311111e+05  -7.804140e+05
   5.888656e+05  -7.910755e+05
   7.049886e+05  -5.283528e+04
  -2.019705e+04   5.275762e+05
  -6.152594e+05   3.935490e+05
  -4.314406e+05  -1.064949e+05
   2.488212e+05  -1.878514e+05
   5.634348e+05   4.158677e+05
  -5.716660e+04   1.068837e+06
  -1.254805e+06   8.601506e+05
  -1.947765e+06  -3.963427e+05
  -1.330364e+06  -1.843985e+06
   2.532897e+05  -2.322181e+06
   1.573137e+06  -1.449445e+06
   1.737611e+06   3.278427e+04
   1.019859e+06   9.913468e+05
   3.687621e+05   9.531262e+05
   2.797052e+05   4.282562e+05
   3.748847e+05   2.367577e+05
   3.788119e+04   5.867107e+05
  -7.737055e+05   8.722916e+05
  -1.412609e+06   3.980275e+05
  -1.138232e+06  -7.342210e+05
   1.535720e+05  -1.550203e+06
   1.663955e+06  -1.113925e+06
   2.191059e+06   4.591545e+05
   1.138459e+06   1.970053e+06
  -8.372661e+05   2.202949e+06
  -2.298698e+06   1.042510e+06
  -2.289462e+06  -4.880623e+05
  -1.125750e+06  -1.268617e+06
   7.250267e+04  -1.096677e+06
   5.195985e+05  -6.741179e+05
   3.595326e+05  -6.963469e+05
   2.623774e+05  -1.072544e+06
   6.182612e+05  -1.078907e+06
   1.146842e+06  -2.312755e+05
   1.204635e+06   1.069975e+06
   4.657623e+05   1.818776e+06
  -6.445845e+05   1.350205e+06
  -1.235318e+06   6.725171e+03
  -7.891851e+05  -1.151213e+06
   2.683831e+05  -1.297436e+06
   9.540263e+05  -5.108703e+05
   7.287293e+05   4.397079e+05
   2.207961e+04   8.783491e+05
  -3.154272e+05   7.525730e+05
  -1.955164e+03   4.739754e+05
   3.662248e+05   3.742230e+05
   2.409283e+04   3.842920e+05
  -1.019224e+06   2.008322e+05
  -1.845207e+06  -3.166815e+05
  -1.507315e+06  -9.437920e+05
  -5.907433e+04  -1.257999e+06
   1.380189e+06  -1.000097e+06
   1.684045e+06  -3.172976e+05
   8.222000e+05   3.132937e+05
  -1.935121e+05   4.518589e+05
  -4.375869e+05   9.001286e+04
   3.512950e+04  -2.989146e+05
   4.814204e+05  -2.059503e+05
   4.283861e+05   3.393704e+05
   9.888972e+04   7.313670e+05
  -3.787636e+04   4.688138e+05
   1.441021e+05  -1.742111e+05
   3.654418e+05  -3.821713e+05
   2.806382e+05   2.114794e+05
  -2.166989e+05   9.783341e+05
  -8.722752e+05   9.682057e+05
  -1.152754e+06   4.796372e+04
  -6.413688e+05  -8.971824e+05
   4.243828e+05  -9.552744e+05
   1.121414e+06  -1.678824e+05
   6.651647e+05   6.027937e+05
  -6.491351e+05   6.250243e+05
  -1.562736e+06  -5.478830e+04
  -1.104162e+06  -8.061870e+05
   3.573346e+05  -1.031935e+06
   1.467905e+06  -6.005300e+05
   1.282454e+06   1.136422e+05
   1.821634e+05   5.214733e+05
  -6.094453e+05   3.017477e+05
  -3.189574e+05  -2.516950e+05
   6.304139e+05  -4.261795e+05
   1.118233e+06   1.987382e+05
   5.011608e+05   1.195695e+06
  -7.403209e+05   1.568939e+06
  -1.508535e+06   7.266175e+05
  -1.178576e+06  -8.071178e+05
  -1.296309e+05  -1.755719e+06
   7.476466e+05  -1.290192e+06
   9.072024e+05   1.180417e+05
   4.637586e+05   1.147212e+06
  -1.349416e+05   9.834253e+05
  -5.129980e+05   1.088942e+05
  -5.133875e+05  -3.915807e+05
  -2.356942e+05  -1.611558e+05
  -1.773839e+04   1.151121e+05
  -1.447601e+05  -2.390539e+05
  -4.218514e+05  -9.222090e+05
  -2.537932e+05  -1.061323e+06
   5.875557e+05  -3.776301e+05
   1.427146e+06   4.903839e+05
   1.304867e+06   8.390246e+05
   1.708279e+05   6.590343e+05
  -9.141903e+05   3.739305e+05
  -9.835879e+05   1.803182e+05
  -2.785334e+05  -1.511121e+04
   1.779006e+05  -2.057073e+05
  -5.390305e+04  -2.410050e+05
  -3.527299e+05  -1.499145e+05
  -6.442277e+03  -1.370293e+05
   7.511655e+05  -1.712951e+05
   9.954579e+05   7.593469e+04
   2.492208e+05   6.680759e+05
  -9.441469e+05   1.047959e+06
  -1.597186e+06   5.955286e+05
  -1.223824e+06  -5.222611e+05
  -1.775704e+05  -1.379965e+06
   7.611982e+05  -1.263262e+06
   1.028229e+06  -4.153323e+05
   6.375313e+05   2.996156e+05
   7.481134e+04   3.490535e+05
  -1.537664e+05   7.710618e+03
   4.623170e+04  -7.659308e+04
   3.192409e+05   3.344576e+05
   2.468468e+05   7.845148e+05
  -2.166177e+05   6.271388e+05
  -6.707670e+05  -2.031873e+05
  -6.226207e+05  -1.004670e+06
   2.762169e+04  -9.889073e+05
   7.900016e+05  -1.255340e+05
   9.413902e+05   8.124858e+05
   2.358323e+05   1.057294e+06
  -7.272054e+05   5.596385e+05
  -1.029541e+06  -1.405984e+05
  -4.359086e+05  -5.502325e+05
   2.977831e+05  -5.611129e+05
   3.072659e+05  -3.182323e+05
  -3.170229e+05  -4.607533e+04
  -6.469840e+05   1.212477e+03
  -1.015222e+05  -2.871014e+05
   8.185304e+05  -6.324326e+05
   1.161259e+06  -5.291227e+05
   6.453544e+05   1.397340e+05
  -1.335245e+05   8.006349e+05
  -4.953007e+05   7.674231e+05
  -3.387959e+05   8.011355e+04
   7.087552e+03  -4.961960e+05
   2.627392e+05  -3.673123e+05
   3.394796e+05   2.243069e+05
   2.109684e+05   5.677029e+05
  -8.818443e+04   3.453397e+05
  -3.720044e+05  -8.887085e+04
  -4.200161e+05  -2.401607e+05
  -2.270581e+05  -5.834902e+04
  -9.986436e+03   9.200702e+04
   7.282258e+04  -6.856843e+04
   9.781741e+04  -3.884581e+05
   2.097694e+05  -4.546595e+05
   3.635502e+05  -7.152771e+04
   3.355103e+05   4.688323e+05
   1.608325e+03   6.439787e+05
  -4.415086e+05   2.527636e+05
  -5.823954e+05  -3.430307e+05
  -1.863011e+05  -5.906749e+05
   4.817007e+05  -3.199905e+05
   8.049268e+05   1.407092e+05
   4.245461e+05   3.846195e+05
  -3.002780e+05   3.206018e+05
  -6.068045e+05   1.287118e+05
  -1.872285e+05  -5.555629e+03
   4.138009e+05   1.582514e+03
   4.218916e+05   1.543077e+05
  -2.340650e+05   3.217280e+05
  -8.278297e+05   2.317274e+05
