
 $NMID
 id='ANONYMOUS ', fmtdat='(2E16.6)'
 volume=1.0
 tramp=1.0
 $END
   2.174601e+07  -1.246385e+06
   1.590502e+07   8.547212e+06
   1.743723e+06   1.379229e+07
  -8.848296e+06   1.091176e+07
  -8.713604e+06   2.345483e+06
  -1.251219e+06  -4.182003e+06
   4.759293e+06  -2.951177e+06
   4.306235e+06   3.445212e+06
  -4.720733e+05   6.997923e+06
  -4.250717e+06   3.521270e+06
  -3.954624e+06  -2.851946e+06
  -6.426923e+05  -4.999356e+06
   2.249597e+06  -9.953555e+05
   1.986153e+06   4.334054e+06
  -1.147210e+06   5.221882e+06
  -3.952203e+06   8.857404e+05
  -3.289498e+06  -4.363434e+06
   5.973194e+05  -5.864080e+06
   4.158667e+06  -2.923774e+06
   4.318181e+06   1.186239e+06
   1.721154e+06   2.959448e+06
  -2.886287e+05   2.072805e+06
   4.008141e+05   1.062543e+06
   2.392336e+06   1.961188e+06
   2.468421e+06   3.917024e+06
  -7.818326e+05   4.408455e+06
  -5.137205e+06   2.276639e+06
  -6.613686e+06  -1.039862e+06
  -3.475973e+06  -3.065300e+06
   1.569245e+06  -2.510826e+06
   3.766310e+06  -1.003754e+05
   1.268738e+06   2.106945e+06
  -2.857660e+06   2.149645e+06
  -4.173059e+06  -2.668540e+05
  -1.806306e+06  -3.148379e+06
   1.133773e+06  -3.739882e+06
   1.712834e+06  -1.385070e+06
   2.940190e+05   1.412511e+06
  -8.034480e+05   1.555509e+06
  -3.756526e+05  -1.032041e+06
   9.005876e+05  -3.167575e+06
   1.863686e+06  -2.133148e+06
   1.818484e+06   1.054687e+06
   5.551440e+05   2.822658e+06
  -1.297691e+06   1.211729e+06
  -2.014622e+06  -1.952166e+06
  -2.014022e+05  -3.232768e+06
   3.061352e+06  -1.298136e+06
   4.568797e+06   1.964883e+06
   2.350966e+06   3.659756e+06
  -1.830917e+06   2.633066e+06
  -4.160917e+06   1.259621e+05
  -2.776209e+06  -1.708949e+06
   5.127125e+05  -1.672624e+06
   2.423985e+06  -2.731454e+05
   1.545358e+06   9.434687e+05
  -6.261601e+05   8.175648e+05
  -1.551651e+06  -4.020202e+05
  -3.111203e+05  -1.348441e+06
   1.511435e+06  -9.301870e+05
   1.593589e+06   5.163656e+05
  -4.371620e+05   1.500021e+06
  -2.362164e+06   8.220432e+05
  -1.758028e+06  -1.215680e+06
   1.196767e+06  -2.962832e+06
   3.854059e+06  -2.787574e+06
   4.020813e+06  -5.026380e+05
   2.122144e+06   2.380693e+06
   2.220259e+05   3.915215e+06
  -4.648133e+05   3.450346e+06
  -4.844086e+05   2.089773e+06
  -9.062082e+05   1.276013e+06
  -1.916296e+06   1.086518e+06
  -2.747684e+06   3.719830e+05
  -2.531831e+06  -1.368233e+06
  -1.049806e+06  -2.859399e+06
   9.997274e+05  -2.358105e+06
   2.284019e+06   1.151227e+05
   1.749230e+06   2.473668e+06
  -3.434589e+05   2.671517e+06
  -2.382333e+06   7.351688e+05
  -2.765086e+06  -1.513617e+06
  -1.408752e+06  -2.435135e+06
   2.623772e+05  -1.942820e+06
   9.137133e+05  -1.103113e+06
   7.152545e+05  -8.194874e+05
   9.578393e+05  -1.020144e+06
   2.283062e+06  -8.943253e+05
   3.589842e+06   2.268809e+05
   3.046310e+06   2.102407e+06
   2.561285e+05   3.567271e+06
  -2.892875e+06   3.406962e+06
  -3.899136e+06   1.482461e+06
  -2.169265e+06  -9.383087e+05
   4.000072e+05  -2.125570e+06
   1.434987e+06  -1.393665e+06
   4.198836e+05   2.441501e+05
  -1.126245e+06   1.041650e+06
  -1.508152e+06   2.908059e+05
  -5.198302e+05  -9.307808e+05
   6.509845e+05  -9.967186e+05
   7.640147e+05   2.799688e+05
  -3.476398e+05   1.243970e+06
  -1.675292e+06   2.747252e+05
  -1.842474e+06  -2.137122e+06
  -2.572516e+05  -3.661860e+06
   2.201750e+06  -2.593638e+06
   3.703096e+06   3.016329e+05
   3.014477e+06   2.626876e+06
   7.148309e+05   2.801154e+06
  -1.275836e+06   1.375816e+06
  -1.529823e+06   7.597893e+04
  -4.431242e+05  -3.813025e+04
   3.457222e+05   6.512590e+05
  -1.951972e+05   1.045241e+06
  -1.389906e+06   5.320366e+05
  -1.689922e+06  -4.820711e+05
  -5.151957e+05  -1.045791e+06
   9.602396e+05  -6.186898e+05
   1.029676e+06   3.653440e+05
  -5.940557e+05   8.628917e+05
  -2.290861e+06   2.100374e+05
  -2.169199e+06  -1.192006e+06
  -9.613231e+04  -2.172711e+06
   2.113429e+06  -1.831181e+06
   2.551275e+06  -3.834274e+05
   1.083556e+06   9.745891e+05
  -6.873456e+05   1.135886e+06
  -1.125651e+06   1.457576e+05
  -5.917538e+04  -8.140632e+05
   1.285837e+06  -6.305872e+05
   1.576693e+06   5.431809e+05
   5.702917e+05   1.450901e+06
  -7.679084e+05   1.143965e+06
  -1.214108e+06   3.835754e+04
  -4.585567e+05  -6.034077e+05
   5.675488e+05  -1.150699e+05
   6.119194e+05   8.853506e+05
  -5.566583e+05   1.232298e+06
  -1.806537e+06   4.225936e+05
  -1.785022e+06  -9.542991e+05
  -3.709617e+05  -1.808553e+06
   1.169934e+06  -1.490761e+06
   1.506042e+06  -3.133788e+05
   5.672568e+05   7.198821e+05
  -5.232216e+05   7.989238e+05
  -7.059634e+05   6.181604e+04
  -1.012879e+04  -5.781209e+05
   6.460966e+05  -4.476698e+05
   5.144165e+05   1.379910e+05
  -2.067145e+05   2.964980e+05
  -6.087714e+05  -3.135954e+05
  -4.103984e+04  -1.026886e+06
   1.151744e+06  -8.874982e+05
   1.876088e+06   2.977375e+05
   1.333322e+06   1.707234e+06
  -1.661037e+05   2.241859e+06
  -1.477727e+06   1.487344e+06
  -1.724974e+06   5.144220e+04
  -1.069812e+06  -9.826441e+05
  -3.728920e+05  -1.018454e+06
  -2.014135e+05  -4.498907e+05
  -3.048454e+05  -1.644040e+05
  -6.127929e+04  -5.103139e+05
   6.910048e+05  -8.815813e+05
   1.363576e+06  -4.634837e+05
   1.162214e+06   6.928964e+05
  -7.807868e+04   1.558817e+06
  -1.573537e+06   1.164674e+06
  -2.140751e+06  -3.582321e+05
  -1.197646e+06  -1.844297e+06
   6.672922e+05  -2.150732e+06
   2.134162e+06  -1.131513e+06
   2.255184e+06   3.359048e+05
   1.205622e+06   1.198672e+06
  -9.157413e+03   1.137035e+06
  -5.445990e+05   7.117885e+05
  -4.078153e+05   6.409233e+05
  -2.403029e+05   9.646237e+05
  -5.248649e+05   1.016426e+06
  -1.055774e+06   2.562312e+05
  -1.173386e+06  -9.839544e+05
  -4.987769e+05  -1.725544e+06
   5.791797e+05  -1.311266e+06
   1.191624e+06  -5.867691e+04
   8.196955e+05   1.052643e+06
  -1.667665e+05   1.260581e+06
  -8.614193e+05   5.905550e+05
  -7.323496e+05  -3.134252e+05
  -1.214836e+05  -8.128656e+05
   2.088276e+05  -7.634937e+05
  -3.379024e+04  -4.915388e+05
  -3.446173e+05  -3.573006e+05
  -2.493629e+04  -3.706240e+05
   9.468986e+05  -2.437992e+05
   1.746346e+06   2.146619e+05
   1.481504e+06   8.270916e+05
   1.535537e+05   1.182392e+06
  -1.230309e+06   1.005620e+06
  -1.592410e+06   3.990458e+05
  -8.325723e+05  -2.187059e+05
   1.379001e+05  -4.191629e+05
   4.077770e+05  -1.297688e+05
  -3.053650e+04   2.466521e+05
  -4.697298e+05   1.962522e+05
  -4.135893e+05  -3.099392e+05
  -7.085613e+04  -6.952882e+05
   6.267479e+04  -4.397578e+05
  -1.469248e+05   1.996048e+05
  -3.823926e+05   4.038230e+05
  -2.849268e+05  -1.910789e+05
   2.021282e+05  -9.510233e+05
   7.982840e+05  -9.469121e+05
   1.040852e+06  -7.049731e+04
   5.908527e+05   8.230789e+05
  -3.624024e+05   8.868209e+05
  -1.024807e+06   1.637939e+05
  -6.444504e+05  -5.677571e+05
   5.929693e+05  -6.321318e+05
   1.526282e+06  -1.665506e+04
   1.146243e+06   7.438322e+05
  -2.778437e+05   1.050949e+06
  -1.419452e+06   6.813603e+05
  -1.283423e+06  -4.769912e+04
  -2.109557e+05  -5.119031e+05
   5.760209e+05  -3.319426e+05
   3.040662e+05   2.124060e+05
  -6.042678e+05   3.998892e+05
  -1.062474e+06  -1.874939e+05
  -4.709290e+05  -1.134517e+06
   7.043017e+05  -1.493535e+06
   1.437683e+06  -7.037008e+05
   1.146309e+06   7.560248e+05
   1.657770e+05   1.689881e+06
  -6.889303e+05   1.284057e+06
  -8.922002e+05  -6.204010e+04
  -5.095189e+05  -1.094376e+06
   7.078781e+04  -9.819946e+05
   4.838261e+05  -1.390650e+05
   5.297378e+05   3.763487e+05
   2.579403e+05   1.672528e+05
   5.262462e+03  -1.243090e+05
   1.099697e+05   1.909039e+05
   4.191110e+05   8.599648e+05
   3.089048e+05   1.031531e+06
  -5.145846e+05   4.004108e+05
  -1.391893e+06  -4.334174e+05
  -1.312905e+06  -7.802252e+05
  -1.896789e+05  -6.226889e+05
   8.968633e+05  -3.720104e+05
   9.552440e+05  -2.090329e+05
   2.486476e+05  -1.954413e+04
  -1.758934e+05   1.956547e+05
   8.808451e+04   2.593877e+05
   3.738436e+05   1.670089e+05
  -5.805724e+03   1.287897e+05
  -7.522117e+05   1.563595e+05
  -9.479982e+05  -5.734885e+04
  -2.021391e+05  -6.101642e+05
   9.076238e+05  -9.940470e+05
   1.481526e+06  -5.908128e+05
   1.132008e+06   4.770960e+05
   1.869720e+05   1.320044e+06
  -6.842860e+05   1.219721e+06
  -9.661071e+05   3.974450e+05
  -6.168654e+05  -2.943919e+05
  -6.398588e+04  -3.267201e+05
   1.727573e+05   2.145902e+04
  -3.825535e+04   1.038750e+05
  -3.351832e+05  -3.067021e+05
  -2.709049e+05  -7.500338e+05
   1.974592e+05  -5.954401e+05
   6.466703e+05   2.062176e+05
   5.899730e+05   9.653783e+05
  -4.302647e+04   9.309214e+05
  -7.648388e+05   9.628086e+04
  -8.979656e+05  -7.856700e+05
  -2.266340e+05  -9.976062e+05
   6.811430e+05  -5.236543e+05
   9.676516e+05   1.161907e+05
   4.167412e+05   4.857725e+05
  -2.596824e+05   5.117701e+05
  -2.547908e+05   3.129623e+05
   3.332617e+05   5.958981e+04
   6.263143e+05  -7.818770e+03
   9.430409e+04   2.627576e+05
  -7.705941e+05   6.287614e+05
  -1.079301e+06   5.664035e+05
  -5.963606e+05  -8.332447e+04
   1.085954e+05  -7.555580e+05
   4.240652e+05  -7.412229e+05
   2.826479e+05  -7.057965e+04
  -1.723301e+04   4.833224e+05
  -2.441353e+05   3.376959e+05
  -3.228285e+05  -2.369620e+05
  -2.093703e+05  -5.384066e+05
   7.660388e+04  -3.031676e+05
   3.527387e+05   8.944692e+04
   4.031647e+05   1.969555e+05
   2.238777e+05   3.238172e+04
   1.540264e+04  -6.062765e+04
  -8.223793e+04   1.151814e+05
  -1.319140e+05   3.804086e+05
  -2.392936e+05   3.895198e+05
  -3.486939e+05   1.664544e+04
  -2.810610e+05  -4.648051e+05
   3.879015e+04  -6.049360e+05
   4.277431e+05  -2.318499e+05
   5.385270e+05   3.297627e+05
   1.716726e+05   5.685600e+05
  -4.438440e+05   3.144640e+05
  -7.511963e+05  -1.258980e+05
  -4.050289e+05  -3.571397e+05
   2.738416e+05  -2.905687e+05
   5.614973e+05  -1.107082e+05
   1.544189e+05  -7.964093e+02
  -4.213865e+05  -2.682486e+04
  -4.096343e+05  -1.761524e+05
   2.500701e+05  -3.244902e+05
   8.308180e+05  -2.242266e+05
