
 $NMID
 id='ANONYMOUS ', fmtdat='(2E16.6)'
 volume=1.0
 tramp=1.0
 $END
  -4.889113e+07  -2.004136e+05
  -2.989348e+07  -2.916508e+07
   5.477981e+06  -3.274200e+07
   2.356549e+07  -1.399572e+07
   1.493531e+07   4.754787e+06
  -2.216190e+06   8.239661e+06
  -8.808804e+06  -1.442282e+05
  -3.273834e+06  -8.413564e+06
   4.907447e+06  -9.052343e+06
   8.554055e+06  -2.452579e+06
   6.380349e+06   5.588829e+06
   7.191504e+05   7.972263e+06
  -3.701759e+06   2.323328e+06
  -2.516421e+06  -5.411287e+06
   3.245224e+06  -6.444787e+06
   7.091927e+06   8.243078e+05
   4.220924e+06   9.029118e+06
  -3.144803e+06   1.059088e+07
  -8.905336e+06   5.217895e+06
  -9.404918e+06  -2.002345e+06
  -5.429466e+06  -6.582337e+06
  -3.559054e+05  -7.139615e+06
   2.133402e+06  -4.852748e+06
   7.171766e+05  -2.598222e+06
  -1.541427e+06  -2.798547e+06
   8.119463e+04  -4.454642e+06
   5.636032e+06  -3.934418e+06
   9.245960e+06   2.691590e+04
   6.300583e+06   4.087373e+06
  -3.228687e+05   4.561413e+06
  -3.943442e+06   1.932438e+06
  -2.240700e+06  -6.373551e+05
   1.315456e+06  -1.339291e+06
   2.962550e+06  -2.677432e+05
   2.176919e+06   2.035803e+06
   1.483694e+05   4.079402e+06
  -1.902490e+06   3.298063e+06
  -2.520829e+06  -5.272964e+05
  -1.016233e+06  -3.216142e+06
   7.126933e+05  -1.135411e+06
  -3.414458e+04   2.796760e+06
  -2.430905e+06   2.347080e+06
  -2.354776e+06  -2.744128e+06
   1.721830e+06  -5.437755e+06
   5.628983e+06  -1.059781e+06
   4.387958e+06   5.846150e+06
  -1.461885e+06   7.366218e+06
  -6.528078e+06   2.134884e+06
  -6.553243e+06  -4.007250e+06
  -2.030669e+06  -5.655488e+06
   3.194100e+06  -2.793793e+06
   5.190475e+06   1.167628e+06
   2.620921e+06   3.164860e+06
  -1.995822e+06   2.131315e+06
  -4.125101e+06  -6.593516e+05
  -1.903515e+06  -2.351059e+06
   1.494417e+06  -1.259300e+06
   1.764555e+06   9.126112e+05
  -9.124724e+05   1.084730e+06
  -2.303546e+06  -1.065053e+06
   1.602964e+04  -2.740524e+06
   3.630821e+06  -1.839160e+06
   4.685718e+06   8.245266e+05
   2.232809e+06   3.379733e+06
  -1.768412e+06   4.831521e+06
  -4.973374e+06   4.428932e+06
  -5.883913e+06   1.402827e+06
  -4.052840e+06  -3.135334e+06
  -7.152036e+05  -5.829431e+06
   1.590354e+06  -4.609079e+06
   1.488498e+06  -1.530459e+06
   3.965722e+05  -1.902706e+05
   5.646396e+05  -1.061406e+06
   2.050371e+06  -1.442298e+06
   2.882458e+06   2.583965e+05
   1.824882e+06   2.335402e+06
  -3.030908e+05   2.327504e+06
  -1.861585e+06   1.039816e+05
  -1.771270e+06  -2.329034e+06
   1.308239e+05  -3.018577e+06
   2.819328e+06  -1.441667e+06
   4.190752e+06   1.396376e+06
   2.815922e+06   3.597138e+06
  -1.467196e+05   3.771347e+06
  -2.017190e+06   2.360056e+06
  -1.911423e+06   1.083750e+06
  -1.680844e+06   8.036217e+05
  -2.916204e+06   5.988197e+05
  -4.359088e+06  -6.922065e+05
  -3.521201e+06  -2.763658e+06
  -1.283771e+05  -4.196985e+06
   3.340182e+06  -3.939552e+06
   4.353548e+06  -2.004868e+06
   2.658017e+06   6.279517e+05
   6.585556e+04   2.332606e+06
  -1.283853e+06   1.871933e+06
  -5.528221e+05  -1.057556e+05
   1.177120e+06  -1.293587e+06
   1.904361e+06  -3.686556e+05
   8.432217e+05   1.203927e+06
  -6.000110e+05   1.138029e+06
  -5.479055e+05  -3.862962e+05
   9.267468e+05  -8.879472e+05
   1.899555e+06   9.239864e+05
   9.961241e+05   3.301206e+06
  -1.182435e+06   3.666072e+06
  -3.062965e+06   1.574714e+06
  -3.598795e+06  -1.234945e+06
  -2.587192e+06  -2.910429e+06
  -5.224794e+05  -2.822617e+06
   1.340742e+06  -1.507883e+06
   1.658189e+06  -1.778882e+05
   5.067991e+05   5.235468e+04
  -3.665108e+05  -7.720007e+05
   3.914638e+05  -1.330816e+06
   1.879016e+06  -5.768099e+05
   2.045406e+06   8.493075e+05
   4.277174e+05   1.400266e+06
  -1.188913e+06   6.038258e+05
  -9.756030e+05  -4.693030e+05
   8.352899e+05  -6.373042e+05
   2.337336e+06   2.188492e+05
   1.948562e+06   1.414523e+06
  -1.932488e+05   2.140941e+06
  -2.411231e+06   1.770942e+06
  -2.877897e+06   2.847526e+05
  -1.235779e+06  -1.273802e+06
   9.264565e+05  -1.476836e+06
   1.532656e+06  -1.699904e+05
   1.603150e+05   1.071999e+06
  -1.551183e+06   7.319176e+05
  -1.770972e+06  -7.840112e+05
  -4.001672e+05  -1.699554e+06
   1.080853e+06  -1.066794e+06
   1.316599e+06   2.510839e+05
   3.085533e+05   7.830679e+05
  -7.819379e+05   6.491633e+04
  -7.331354e+05  -1.078796e+06
   6.221102e+05  -1.448703e+06
   2.077804e+06  -5.172006e+05
   2.074360e+06   1.110981e+06
   3.771286e+05   2.129544e+06
  -1.472407e+06   1.680467e+06
  -1.771335e+06   2.284323e+05
  -5.382656e+05  -8.866218e+05
   6.716084e+05  -8.411836e+05
   6.914344e+05  -6.828106e+04
  -9.630753e+04   4.398031e+05
  -5.659648e+05   2.786228e+05
  -2.349842e+05  -9.208199e+04
   4.092110e+05  -1.487516e+04
   5.649785e+05   6.213965e+05
  -1.669260e+05   1.211262e+06
  -1.412739e+06   9.282226e+05
  -2.143160e+06  -4.333701e+05
  -1.491116e+06  -2.012119e+06
   2.462083e+05  -2.511705e+06
   1.690978e+06  -1.494626e+06
   1.796613e+06   1.078542e+05
   9.526759e+05   9.838676e+05
   3.409545e+05   7.930956e+05
   4.268785e+05   2.995498e+05
   5.730824e+05   2.983290e+05
   7.921079e+04   7.413733e+05
  -8.891522e+05   9.372663e+05
  -1.514370e+06   3.621046e+05
  -1.131317e+06  -7.704609e+05
   2.380262e+05  -1.568272e+06
   1.796490e+06  -1.137525e+06
   2.344073e+06   5.068374e+05
   1.190295e+06   2.168762e+06
  -1.006942e+06   2.433952e+06
  -2.595008e+06   1.086431e+06
  -2.454449e+06  -6.416214e+05
  -1.061074e+06  -1.392432e+06
   1.784693e+05  -1.049642e+06
   4.605601e+05  -5.880851e+05
   1.799371e+05  -7.649164e+05
   1.612378e+05  -1.289793e+06
   6.858809e+05  -1.282871e+06
   1.309245e+06  -3.051709e+05
   1.358636e+06   1.133427e+06
   5.508737e+05   1.966323e+06
  -6.639403e+05   1.479664e+06
  -1.335404e+06  -2.052374e+03
  -8.458517e+05  -1.306983e+06
   3.711531e+05  -1.436859e+06
   1.156027e+06  -4.641559e+05
   8.296291e+05   6.462219e+05
  -7.840946e+04   1.067625e+06
  -4.908889e+05   8.167067e+05
  -6.417231e+04   4.592271e+05
   4.309866e+05   3.657023e+05
   4.966792e+04   4.026945e+05
  -1.164767e+06   2.174909e+05
  -2.095518e+06  -3.449717e+05
  -1.662946e+06  -1.061145e+06
   6.953435e+03  -1.451930e+06
   1.600837e+06  -1.152943e+06
   1.878637e+06  -3.034483e+05
   8.761639e+05   4.613892e+05
  -2.505555e+05   5.601367e+05
  -5.149039e+05   5.460172e+04
  -1.233784e+04  -4.005175e+05
   4.778505e+05  -2.522152e+05
   4.880934e+05   3.585712e+05
   2.138185e+05   7.594180e+05
   5.632826e+04   4.970858e+05
   1.490204e+05  -1.248685e+05
   3.248252e+05  -3.333838e+05
   2.908693e+05   2.384356e+05
  -1.755553e+05   1.031747e+06
  -9.366430e+05   1.087206e+06
  -1.361203e+06   1.454401e+05
  -8.263467e+05  -9.520354e+05
   4.370715e+05  -1.137495e+06
   1.274826e+06  -3.015146e+05
   7.473652e+05   6.114935e+05
  -7.225154e+05   6.733921e+05
  -1.661830e+06  -9.237531e+04
  -1.086150e+06  -8.953117e+05
   4.738365e+05  -1.054296e+06
   1.570072e+06  -5.362515e+05
   1.312067e+06   1.824275e+05
   1.537074e+05   5.441755e+05
  -6.720131e+05   2.916336e+05
  -3.843710e+05  -2.955938e+05
   6.267149e+05  -5.177628e+05
   1.220667e+06   1.200734e+05
   6.534147e+05   1.241760e+06
  -6.620356e+05   1.745543e+06
  -1.563152e+06   8.822724e+05
  -1.295098e+06  -8.098854e+05
  -1.898762e+05  -1.870679e+06
   7.826994e+05  -1.356677e+06
   9.680180e+05   1.712542e+05
   4.597318e+05   1.241694e+06
  -2.109384e+05   1.023097e+06
  -5.779805e+05   9.456220e+04
  -5.005345e+05  -4.026600e+05
  -1.897085e+05  -1.528295e+05
  -4.374051e+04   1.059488e+05
  -2.592060e+05  -2.927047e+05
  -5.109350e+05  -1.002210e+06
  -2.141226e+05  -1.129964e+06
   7.182534e+05  -4.114099e+05
   1.534386e+06   4.972156e+05
   1.347722e+06   8.829555e+05
   1.897623e+05   7.235097e+05
  -9.103699e+05   4.254566e+05
  -1.033137e+06   1.883171e+05
  -3.595859e+05  -4.546797e+04
   1.604458e+05  -2.309708e+05
   1.773450e+04  -2.257621e+05
  -2.967671e+05  -1.145770e+05
  -4.266553e+04  -1.395989e+05
   7.133377e+05  -2.297831e+05
   1.085040e+06   2.670124e+04
   4.128273e+05   7.170901e+05
  -9.038279e+05   1.203458e+06
  -1.757667e+06   7.586688e+05
  -1.437146e+06  -4.692098e+05
  -2.667769e+05  -1.467165e+06
   8.022361e+05  -1.418063e+06
   1.093911e+06  -5.380802e+05
   6.817480e+05   2.577497e+05
   1.280226e+05   3.726425e+05
  -8.954007e+04   5.572458e+04
   7.939326e+04  -3.039482e+04
   3.190237e+05   3.796908e+05
   2.584986e+05   8.429093e+05
  -1.947072e+05   7.007429e+05
  -7.099801e+05  -1.426998e+05
  -7.507010e+05  -1.004809e+06
  -9.519119e+04  -1.069688e+06
   7.929380e+05  -2.363643e+05
   1.064973e+06   7.695133e+05
   3.452411e+05   1.133109e+06
  -7.470355e+05   6.882316e+05
  -1.154344e+06  -8.829195e+04
  -5.409589e+05  -6.285898e+05
   3.002016e+05  -6.893288e+05
   3.837821e+05  -3.780086e+05
  -2.702864e+05  -1.760488e+04
  -6.789367e+05   3.432349e+04
  -1.461156e+05  -3.180768e+05
   8.627888e+05  -7.024430e+05
   1.302306e+06  -5.648075e+05
   7.791816e+05   1.774704e+05
  -1.061690e+05   8.978611e+05
  -5.673414e+05   8.825143e+05
  -4.296249e+05   1.577111e+05
  -4.577671e+04  -5.030678e+05
   2.528628e+05  -4.441991e+05
   3.648056e+05   1.661620e+05
   2.591839e+05   6.019170e+05
  -5.905978e+04   4.335164e+05
  -4.052856e+05  -5.329028e+04
  -4.899197e+05  -2.863288e+05
  -2.522015e+05  -9.474714e+04
   3.029997e+04   1.471080e+05
   8.753088e+04   2.779867e+04
   5.189408e+03  -3.728796e+05
   7.454938e+04  -5.576028e+05
   3.372827e+05  -2.054303e+05
   4.591007e+05   4.075753e+05
   1.410431e+05   6.737766e+05
  -4.306746e+05   3.193657e+05
  -6.818456e+05  -2.997455e+05
  -2.555407e+05  -6.009996e+05
   5.262173e+05  -3.764991e+05
   9.108998e+05   8.647672e+04
   4.933644e+05   3.948392e+05
  -3.064365e+05   4.074089e+05
  -6.618202e+05   2.254723e+05
  -2.526852e+05   1.729475e+04
   3.699282e+05  -6.046668e+04
   4.263645e+05   7.926354e+04
  -1.854303e+05   3.073864e+05
  -7.880068e+05   2.769391e+05
