
 $NMID
 id='ANONYMOUS ', fmtdat='(2E16.6)'
 volume=1.0
 tramp=1.0
 $END
  -5.611268e+07  -1.065869e+06
  -3.331834e+07  -3.517474e+07
   7.866062e+06  -3.786172e+07
   2.777498e+07  -1.441698e+07
   1.654969e+07   7.037540e+06
  -3.309170e+06   9.326242e+06
  -9.889185e+06  -1.199456e+06
  -2.794517e+06  -9.822196e+06
   6.295534e+06  -9.435416e+06
   9.739442e+06  -1.970180e+06
   6.924757e+06   6.364368e+06
   6.432902e+05   8.703259e+06
  -4.068664e+06   2.652265e+06
  -2.532958e+06  -5.618709e+06
   3.914491e+06  -6.619088e+06
   7.903080e+06   1.421019e+06
   4.310148e+06   1.032056e+07
  -3.986970e+06   1.178530e+07
  -1.022859e+07   5.719897e+06
  -1.073852e+07  -2.290769e+06
  -6.400559e+06  -7.581825e+06
  -5.160534e+05  -8.544078e+06
   2.895824e+06  -5.937005e+06
   1.731521e+06  -2.786809e+06
  -1.110736e+06  -2.414793e+06
  -5.145390e+04  -4.316056e+06
   5.666584e+06  -4.238311e+06
   9.782535e+06  -1.720656e+05
   6.959139e+06   4.346887e+06
   5.302139e+04   5.042499e+06
  -3.867495e+06   2.391195e+06
  -2.436394e+06  -1.645026e+05
   8.254973e+05  -9.781654e+05
   2.482956e+06  -3.432497e+05
   2.171738e+06   1.663771e+06
   4.815207e+05   4.054304e+06
  -1.936838e+06   3.785740e+06
  -3.136081e+06  -2.283292e+05
  -1.543717e+06  -3.630820e+06
   7.737377e+05  -1.785958e+06
   1.777432e+05   2.574798e+06
  -2.586051e+06   2.307534e+06
  -2.441499e+06  -3.235652e+06
   2.446859e+06  -6.120456e+06
   6.864193e+06  -9.583285e+05
   4.975280e+06   6.946682e+06
  -2.011915e+06   8.463674e+06
  -7.462064e+06   2.275709e+06
  -6.948034e+06  -4.630062e+06
  -1.794441e+06  -6.171652e+06
   3.583723e+06  -2.728908e+06
   5.368378e+06   1.625144e+06
   2.469929e+06   3.591926e+06
  -2.430954e+06   2.212279e+06
  -4.550347e+06  -9.750737e+05
  -1.954019e+06  -2.756367e+06
   1.734458e+06  -1.353690e+06
   1.775492e+06   1.074998e+06
  -1.295307e+06   9.768411e+05
  -2.508042e+06  -1.693084e+06
   5.305271e+05  -3.396606e+06
   4.567846e+06  -1.885751e+06
   5.308318e+06   1.370489e+06
   2.296206e+06   4.006660e+06
  -1.963039e+06   5.263025e+06
  -5.246757e+06   4.743642e+06
  -6.317450e+06   1.565461e+06
  -4.501735e+06  -3.327546e+06
  -7.752528e+05  -6.274917e+06
   1.970350e+06  -4.840131e+06
   1.812683e+06  -1.305092e+06
   2.588250e+05   1.787026e+05
   1.447053e+05  -9.758798e+05
   1.771187e+06  -1.677046e+06
   2.874272e+06  -5.067823e+04
   1.958318e+06   2.115668e+06
  -1.154154e+05   2.225400e+06
  -1.664830e+06   1.270072e+05
  -1.675642e+06  -2.244637e+06
   1.097080e+05  -3.031249e+06
   2.887190e+06  -1.577969e+06
   4.491237e+06   1.371896e+06
   3.134701e+06   3.890941e+06
  -1.438597e+05   4.240660e+06
  -2.334504e+06   2.675078e+06
  -2.257397e+06   1.122144e+06
  -1.885140e+06   6.901211e+05
  -3.050226e+06   4.373260e+05
  -4.470008e+06  -8.973359e+05
  -3.524607e+06  -2.957356e+06
  -9.544229e+03  -4.277584e+06
   3.454844e+06  -3.930556e+06
   4.399656e+06  -2.031846e+06
   2.715317e+06   5.515642e+05
   1.705663e+05   2.318920e+06
  -1.222846e+06   1.942184e+06
  -5.732734e+05  -6.200728e+04
   1.175795e+06  -1.311298e+06
   1.976584e+06  -3.557657e+05
   9.045933e+05   1.262085e+06
  -5.800671e+05   1.137305e+06
  -4.539468e+05  -4.195852e+05
   1.106329e+06  -7.375105e+05
   1.915672e+06   1.313827e+06
   6.513824e+05   3.612307e+06
  -1.680904e+06   3.564367e+06
  -3.300804e+06   1.157366e+06
  -3.455217e+06  -1.573857e+06
  -2.321898e+06  -2.978028e+06
  -3.875468e+05  -2.760862e+06
   1.351387e+06  -1.479646e+06
   1.652792e+06  -1.751139e+05
   5.125154e+05   6.394385e+04
  -3.483985e+05  -7.927322e+05
   4.621891e+05  -1.375874e+06
   1.986794e+06  -5.460168e+05
   2.086554e+06   9.714674e+05
   3.685153e+05   1.477451e+06
  -1.233332e+06   5.602741e+05
  -9.172733e+05  -5.061616e+05
   9.055157e+05  -5.287091e+05
   2.284080e+06   3.999897e+05
   1.792714e+06   1.488293e+06
  -3.254131e+05   2.067260e+06
  -2.471484e+06   1.654599e+06
  -2.904292e+06   1.935645e+05
  -1.229425e+06  -1.351921e+06
   9.958200e+05  -1.527953e+06
   1.618869e+06  -1.522993e+05
   1.727808e+05   1.120999e+06
  -1.599908e+06   7.159682e+05
  -1.768106e+06  -8.677099e+05
  -3.061268e+05  -1.737938e+06
   1.168522e+06  -9.949824e+05
   1.308660e+06   3.576278e+05
   2.403063e+05   8.219866e+05
  -8.250248e+05   3.254517e+04
  -7.268967e+05  -1.119986e+06
   6.521320e+05  -1.459366e+06
   2.110385e+06  -4.914186e+05
   2.083659e+06   1.165473e+06
   3.305028e+05   2.175533e+06
  -1.554781e+06   1.667375e+06
  -1.809826e+06   1.661468e+05
  -5.006213e+05  -9.221636e+05
   7.117867e+05  -8.182490e+05
   6.648918e+05  -5.648866e+04
  -1.394362e+05   3.783448e+05
  -5.304847e+05   1.999578e+05
  -1.328391e+05  -8.492143e+04
   4.693691e+05   8.294119e+04
   5.263865e+05   7.168209e+05
  -2.525874e+05   1.235403e+06
  -1.474303e+06   8.879008e+05
  -2.158067e+06  -5.047513e+05
  -1.460551e+06  -2.078373e+06
   3.109805e+05  -2.520441e+06
   1.738954e+06  -1.422957e+06
   1.767843e+06   1.901753e+05
   8.693493e+05   9.769844e+05
   3.026617e+05   7.064037e+05
   4.783432e+05   2.491555e+05
   6.374715e+05   3.416266e+05
   6.941375e+04   7.968438e+05
  -9.475827e+05   9.128131e+05
  -1.529543e+06   2.877898e+05
  -1.073431e+06  -7.997899e+05
   3.166126e+05  -1.523822e+06
   1.840534e+06  -1.060317e+06
   2.331695e+06   5.857252e+05
   1.112497e+06   2.232299e+06
  -1.131027e+06   2.435817e+06
  -2.687561e+06   9.938740e+05
  -2.436895e+06  -7.661961e+05
  -9.587318e+05  -1.435909e+06
   2.493951e+05  -9.893164e+05
   4.338357e+05  -5.207895e+05
   1.154561e+05  -7.753572e+05
   1.522574e+05  -1.351719e+06
   7.388611e+05  -1.318986e+06
   1.356951e+06  -2.891407e+05
   1.356961e+06   1.172289e+06
   5.151706e+05   1.995145e+06
  -6.982573e+05   1.477361e+06
  -1.341818e+06  -4.601162e+04
  -8.058634e+05  -1.365835e+06
   4.519092e+05  -1.445677e+06
   1.226511e+06  -3.903473e+05
   8.269613e+05   7.492228e+05
  -1.586090e+05   1.118242e+06
  -5.822000e+05   8.024983e+05
  -1.025058e+05   4.351088e+05
   4.392442e+05   3.663001e+05
   4.803451e+04   4.028474e+05
  -1.205841e+06   1.814069e+05
  -2.140601e+06  -4.157475e+05
  -1.653061e+06  -1.136182e+06
   8.452952e+04  -1.495967e+06
   1.693406e+06  -1.137644e+06
   1.921421e+06  -2.302619e+05
   8.573189e+05   5.417149e+05
  -2.892061e+05   5.850447e+05
  -5.361810e+05   1.962061e+04
  -1.907037e+04  -4.391557e+05
   4.718337e+05  -2.546115e+05
   4.920417e+05   3.728411e+05
   2.394127e+05   7.617122e+05
   8.382640e+04   5.013126e+05
   1.491310e+05  -9.442129e+04
   3.044482e+05  -2.932189e+05
   2.790926e+05   2.540711e+05
  -1.832694e+05   1.024405e+06
  -9.749292e+05   1.081853e+06
  -1.426217e+06   1.394174e+05
  -8.594124e+05  -9.804517e+05
   4.690374e+05  -1.176396e+06
   1.323043e+06  -3.136209e+05
   7.473453e+05   6.217334e+05
  -7.559444e+05   6.543602e+05
  -1.656545e+06  -1.557516e+05
  -1.019341e+06  -9.398092e+05
   5.436316e+05  -1.017490e+06
   1.584486e+06  -4.447981e+05
   1.280431e+06   2.457599e+05
   1.205581e+05   5.419910e+05
  -6.886033e+05   2.577724e+05
  -3.931831e+05  -3.201179e+05
   6.247589e+05  -5.278299e+05
   1.232482e+06   1.177024e+05
   6.693596e+05   1.251202e+06
  -6.611522e+05   1.762535e+06
  -1.573888e+06   8.848794e+05
  -1.290319e+06  -8.275433e+05
  -1.574341e+05  -1.878095e+06
   8.157682e+05  -1.326200e+06
   9.615109e+05   2.196190e+05
   4.070478e+05   1.261876e+06
  -2.693647e+05   1.002666e+06
  -5.931554e+05   6.639311e+04
  -4.685733e+05  -4.091707e+05
  -1.589925e+05  -1.474874e+05
  -5.668754e+04   9.648148e+04
  -2.941907e+05  -3.209014e+05
  -5.070579e+05  -1.027618e+06
  -1.567144e+05  -1.132886e+06
   7.702028e+05  -3.902820e+05
   1.526321e+06   5.316186e+05
   1.303437e+06   9.158267e+05
   1.707810e+05   7.386695e+05
  -8.963502e+05   4.130190e+05
  -1.031848e+06   1.567647e+05
  -3.842176e+05  -7.144265e+04
   1.548041e+05  -2.326351e+05
   5.548632e+04  -2.089569e+05
  -2.606132e+05  -1.007744e+05
  -5.379571e+04  -1.394837e+05
   6.842726e+05  -2.324610e+05
   1.096443e+06   3.635690e+04
   4.550108e+05   7.373208e+05
  -8.981686e+05   1.218263e+06
  -1.808697e+06   7.581875e+05
  -1.484284e+06  -4.791487e+05
  -2.571901e+05  -1.476547e+06
   8.432214e+05  -1.425469e+06
   1.112795e+06  -5.467131e+05
   6.772321e+05   2.515324e+05
   1.374915e+05   3.785076e+05
  -6.100890e+04   7.651744e+04
   9.125408e+04  -4.577484e+03
   2.974216e+05   3.982393e+05
   2.310799e+05   8.527840e+05
  -2.008555e+05   7.099215e+05
  -7.061238e+05  -1.314439e+05
  -7.612127e+05  -1.001422e+06
  -1.171585e+05  -1.084042e+06
   7.826155e+05  -2.595404e+05
   1.072881e+06   7.613977e+05
   3.522507e+05   1.149726e+06
  -7.589559e+05   7.070136e+05
  -1.178776e+06  -9.818083e+04
  -5.533488e+05  -6.659292e+05
   3.170761e+05  -7.203321e+05
   4.207264e+05  -3.806980e+05
  -2.420718e+05  -8.962425e+03
  -6.767518e+05   2.893077e+04
  -1.526327e+05  -3.292675e+05
   8.802686e+05  -6.896251e+05
   1.346594e+06  -5.240636e+05
   8.122003e+05   2.164849e+05
  -1.186641e+05   9.153523e+05
  -6.129837e+05   8.919979e+05
  -4.670066e+05   1.734432e+05
  -5.516429e+04  -4.954994e+05
   2.564586e+05  -4.606825e+05
   3.643030e+05   1.454729e+05
   2.564075e+05   6.095546e+05
  -5.945506e+04   4.615165e+05
  -4.091571e+05  -4.758362e+04
  -4.984153e+05  -3.155288e+05
  -2.524820e+05  -1.166609e+05
   4.156570e+04   1.708724e+05
   8.673390e+04   7.444421e+04
  -2.848640e+04  -3.589774e+05
   2.943882e+04  -5.932098e+05
   3.269699e+05  -2.536012e+05
   4.949151e+05   3.853703e+05
   1.820605e+05   6.782723e+05
  -4.248926e+05   3.299512e+05
  -7.021544e+05  -2.939116e+05
  -2.635842e+05  -5.985113e+05
   5.443166e+05  -3.756931e+05
   9.337651e+05   8.807151e+04
   4.999542e+05   4.044334e+05
  -3.151488e+05   4.273144e+05
  -6.784848e+05   2.436660e+05
  -2.772317e+05   1.780826e+04
   3.432587e+05  -7.952237e+04
   4.173962e+05   5.374258e+04
  -1.650807e+05   2.891053e+05
  -7.563101e+05   2.707085e+05
