
 $NMID
 id='ANONYMOUS ', fmtdat='(2E16.6)'
 volume=1.0
 tramp=1.0
 $END
   2.172350e+07   1.276899e+06
   1.389452e+07   1.058149e+07
  -5.405038e+05   1.347437e+07
  -9.552523e+06   8.953028e+06
  -7.921704e+06   1.008329e+06
  -5.163340e+05  -3.882379e+06
   4.461770e+06  -2.083245e+06
   3.426772e+06   3.504951e+06
  -1.026383e+06   6.194311e+06
  -4.171596e+06   2.743294e+06
  -3.534520e+06  -3.039564e+06
  -2.925192e+05  -4.786336e+06
   2.267833e+06  -8.628596e+05
   1.697224e+06   4.094167e+06
  -1.375122e+06   4.671580e+06
  -3.721547e+06   3.867576e+05
  -2.653795e+06  -4.438441e+06
   1.170506e+06  -5.492647e+06
   4.349401e+06  -2.419633e+06
   4.227950e+06   1.576563e+06
   1.533195e+06   3.256071e+06
  -6.115006e+05   2.305158e+06
  -1.146042e+05   1.075378e+06
   1.863140e+06   1.648206e+06
   2.188951e+06   3.452062e+06
  -7.351387e+05   4.048585e+06
  -4.864771e+06   2.073081e+06
  -6.266448e+06  -1.168220e+06
  -3.248722e+06  -3.124787e+06
   1.522311e+06  -2.501156e+06
   3.571743e+06  -1.538552e+05
   1.297096e+06   1.896458e+06
  -2.460946e+06   1.956548e+06
  -3.737355e+06  -1.862599e+05
  -1.695765e+06  -2.836597e+06
   1.023354e+06  -3.498442e+06
   1.732324e+06  -1.359497e+06
   4.736537e+05   1.383146e+06
  -7.391232e+05   1.655902e+06
  -5.043128e+05  -8.062956e+05
   7.805291e+05  -2.899119e+06
   1.787919e+06  -1.883520e+06
   1.555350e+06   1.154911e+06
   1.004273e+05   2.609710e+06
  -1.513877e+06   7.598032e+05
  -1.699538e+06  -2.269654e+06
   2.898551e+05  -3.133666e+06
   3.124342e+06  -9.446185e+05
   4.124276e+06   2.157276e+06
   1.909874e+06   3.493557e+06
  -1.822923e+06   2.278415e+06
  -3.770627e+06  -1.257782e+05
  -2.379682e+06  -1.699390e+06
   6.392170e+05  -1.441716e+06
   2.270459e+06  -1.619465e+04
   1.315733e+06   1.016026e+06
  -6.802166e+05   7.047550e+05
  -1.383970e+06  -4.455096e+05
  -1.870876e+05  -1.125019e+06
   1.307484e+06  -6.143187e+05
   1.161414e+06   5.487745e+05
  -6.859779e+05   1.154430e+06
  -2.217979e+06   4.184121e+05
  -1.458939e+06  -1.330794e+06
   1.314143e+06  -2.772211e+06
   3.751763e+06  -2.511971e+06
   3.867663e+06  -3.235431e+05
   1.979887e+06   2.394605e+06
   3.594253e+04   3.742213e+06
  -6.482545e+05   3.135687e+06
  -5.113388e+05   1.777665e+06
  -7.295761e+05   1.099058e+06
  -1.656866e+06   1.049986e+06
  -2.528156e+06   4.225340e+05
  -2.384668e+06  -1.227904e+06
  -1.002414e+06  -2.633722e+06
   8.942033e+05  -2.175345e+06
   2.059340e+06   9.613963e+04
   1.561432e+06   2.269539e+06
  -3.660010e+05   2.464904e+06
  -2.261919e+06   6.503086e+05
  -2.603878e+06  -1.515821e+06
  -1.262076e+06  -2.425364e+06
   3.934012e+05  -1.907061e+06
   1.021678e+06  -1.002512e+06
   7.722991e+05  -6.670258e+05
   9.264277e+05  -8.434721e+05
   2.116827e+06  -7.076520e+05
   3.284174e+06   3.560232e+05
   2.722651e+06   2.045902e+06
   1.186801e+05   3.285696e+06
  -2.758621e+06   3.057081e+06
  -3.641370e+06   1.289126e+06
  -2.015682e+06  -9.013024e+05
   3.791455e+05  -1.974927e+06
   1.351373e+06  -1.289877e+06
   3.980409e+05   2.283150e+05
  -1.063322e+06   9.438757e+05
  -1.411899e+06   2.168709e+05
  -4.620347e+05  -8.989150e+05
   6.152803e+05  -9.101439e+05
   6.668530e+05   2.597777e+05
  -3.546174e+05   1.057758e+06
  -1.459210e+06   1.165760e+05
  -1.493120e+06  -2.000569e+06
  -6.445378e+04  -3.231488e+06
   2.037047e+06  -2.183611e+06
   3.287261e+06   3.989319e+05
   2.644399e+06   2.429872e+06
   5.870099e+05   2.546723e+06
  -1.197409e+06   1.234605e+06
  -1.409218e+06   4.168156e+04
  -4.060166e+05  -4.785869e+04
   2.965789e+05   6.084855e+05
  -2.298716e+05   9.547199e+05
  -1.312635e+06   4.292047e+05
  -1.529355e+06  -5.194929e+05
  -4.194574e+05  -9.802627e+05
   8.996082e+05  -5.296601e+05
   9.191750e+05   3.530290e+05
  -5.559674e+05   7.407053e+05
  -2.059061e+06   1.176156e+05
  -1.920048e+06  -1.120773e+06
  -3.182744e+04  -1.954081e+06
   1.970215e+06  -1.603895e+06
   2.343660e+06  -2.751188e+05
   9.590056e+05   9.378000e+05
  -6.863617e+05   1.029959e+06
  -1.058416e+06   8.642247e+04
  -2.951498e+04  -7.679476e+05
   1.206876e+06  -5.407203e+05
   1.422093e+06   5.521729e+05
   4.638837e+05   1.335518e+06
  -7.354565e+05   9.995179e+05
  -1.091997e+06  -1.432634e+04
  -3.832119e+05  -5.593573e+05
   5.302960e+05  -7.662545e+04
   5.370834e+05   8.378992e+05
  -5.466516e+05   1.122532e+06
  -1.676369e+06   3.418751e+05
  -1.617434e+06  -9.297764e+05
  -2.845978e+05  -1.675074e+06
   1.124984e+06  -1.328523e+06
   1.388645e+06  -2.342897e+05
   4.898491e+05   6.748195e+05
  -5.033128e+05   7.106099e+05
  -6.426820e+05   4.605479e+04
  -1.895625e+03  -5.080402e+05
   5.766713e+05  -3.896420e+05
   4.479583e+05   1.104079e+05
  -1.875659e+05   2.305744e+05
  -5.227436e+05  -3.149652e+05
   8.542365e+03  -9.329707e+05
   1.084225e+06  -7.719152e+05
   1.710873e+06   3.312400e+05
   1.173625e+06   1.608495e+06
  -2.139348e+05   2.049985e+06
  -1.385118e+06   1.312901e+06
  -1.563319e+06   7.146824e+02
  -9.472945e+05  -9.034056e+05
  -3.354295e+05  -9.134160e+05
  -2.028702e+05  -4.173518e+05
  -2.846146e+05  -1.835472e+05
  -3.184846e+04  -4.832038e+05
   6.617134e+05  -7.796414e+05
   1.251204e+06  -3.800620e+05
   1.036897e+06   6.529456e+05
  -1.097518e+05   1.405025e+06
  -1.464651e+06   1.014479e+06
  -1.944788e+06  -3.871283e+05
  -1.034406e+06  -1.720510e+06
   6.880983e+05  -1.941217e+06
   1.990494e+06  -9.569030e+05
   2.038025e+06   3.801973e+05
   1.051645e+06   1.114335e+06
  -3.375398e+04   1.015232e+06
  -4.921225e+05   6.348581e+05
  -3.735598e+05   6.013252e+05
  -2.520730e+05   9.028122e+05
  -5.252887e+05   9.236837e+05
  -9.865814e+05   2.008198e+05
  -1.053496e+06  -9.386810e+05
  -4.112741e+05  -1.598960e+06
   5.669450e+05  -1.189081e+06
   1.090893e+06  -1.867001e+04
   7.115390e+05   9.915846e+05
  -2.004745e+05   1.141947e+06
  -8.059900e+05   4.922447e+05
  -6.441461e+05  -3.287749e+05
  -6.392713e+04  -7.457498e+05
   2.272831e+05  -6.746240e+05
  -1.750733e+04  -4.382369e+05
  -3.129937e+05  -3.374686e+05
  -1.588932e+04  -3.414699e+05
   8.792295e+05  -1.882201e+05
   1.600667e+06   2.590348e+05
   1.329932e+06   8.071252e+05
   8.884124e+04   1.086188e+06
  -1.173393e+06   8.782580e+05
  -1.469089e+06   3.086752e+05
  -7.394175e+05  -2.338627e+05
   1.507771e+05  -3.811682e+05
   3.754952e+05  -9.795284e+04
  -3.983610e+04   2.380791e+05
  -4.351068e+05   1.739382e+05
  -3.728174e+05  -2.977742e+05
  -5.854208e+04  -6.483218e+05
   5.977549e+04  -4.115211e+05
  -1.317841e+05   1.733072e+05
  -3.451642e+05   3.596656e+05
  -2.527857e+05  -1.822992e+05
   2.036187e+05  -8.689899e+05
   7.618299e+05  -8.479854e+05
   9.763549e+05  -2.935300e+04
   5.314883e+05   7.845411e+05
  -3.677650e+05   8.133558e+05
  -9.627597e+05   1.239508e+05
  -5.808435e+05  -5.377124e+05
   5.623626e+05  -5.585929e+05
   1.390374e+06   2.833745e+04
   1.014516e+06   7.026088e+05
  -2.850694e+05   9.372273e+05
  -1.302991e+06   5.742183e+05
  -1.158761e+06  -7.695443e+04
  -1.766993e+05  -4.673551e+05
   5.335915e+05  -2.824011e+05
   2.729579e+05   2.100520e+05
  -5.662011e+05   3.605244e+05
  -9.793895e+05  -1.946689e+05
  -4.148725e+05  -1.060442e+06
   6.805032e+05  -1.367746e+06
   1.341170e+06  -6.197779e+05
   1.036698e+06   7.214292e+05
   1.110746e+05   1.554477e+06
  -6.602209e+05   1.154664e+06
  -8.080549e+05  -8.487201e+04
  -4.307482e+05  -1.011006e+06
   9.407811e+04  -8.848388e+05
   4.460041e+05  -1.083850e+05
   4.713705e+05   3.509880e+05
   2.278040e+05   1.505233e+05
   8.421802e+03  -1.088946e+05
   1.004917e+05   1.934954e+05
   3.632482e+05   8.060532e+05
   2.495707e+05   9.437757e+05
  -4.904138e+05   3.417872e+05
  -1.264335e+06  -4.324607e+05
  -1.175972e+06  -7.416974e+05
  -1.547896e+05  -5.768166e+05
   8.266529e+05  -3.260609e+05
   8.764176e+05  -1.668916e+05
   2.299270e+05  -9.287727e+02
  -1.646668e+05   1.786521e+05
   7.031969e+04   2.273883e+05
   3.352066e+05   1.488262e+05
  -4.644566e+03   1.211999e+05
  -6.890081e+05   1.376165e+05
  -8.733085e+05  -7.562142e+04
  -1.813451e+05  -5.810566e+05
   8.567589e+05  -9.042299e+05
   1.389373e+06  -5.049064e+05
   1.044224e+06   4.740896e+05
   1.430965e+05   1.219984e+06
  -6.655659e+05   1.103717e+06
  -9.045468e+05   3.463196e+05
  -5.633168e+05  -2.800085e+05
  -5.412336e+04  -3.060600e+05
   1.561054e+05   1.087036e+04
  -3.432588e+04   8.551141e+04
  -2.932619e+05  -2.887360e+05
  -2.262235e+05  -6.925359e+05
   1.968616e+05  -5.460766e+05
   5.937404e+05   1.982540e+05
   5.291979e+05   9.021517e+05
  -5.458786e+04   8.658240e+05
  -7.091748e+05   8.289303e+04
  -8.166815e+05  -7.403331e+05
  -1.882797e+05  -9.293606e+05
   6.447639e+05  -4.720316e+05
   8.936078e+05   1.332188e+05
   3.697119e+05   4.680203e+05
  -2.603272e+05   4.710965e+05
  -2.510054e+05   2.759228e+05
   3.004246e+05   5.231750e+04
   5.753916e+05   5.281155e+03
   8.116335e+04   2.482561e+05
  -7.233633e+05   5.576016e+05
  -1.007263e+06   4.808866e+05
  -5.475951e+05  -1.057278e+05
   1.214575e+05  -6.958419e+05
   4.186770e+05  -6.670372e+05
   2.751514e+05  -5.532948e+04
  -2.064699e+04   4.451453e+05
  -2.359175e+05   3.101186e+05
  -2.976538e+05  -2.187552e+05
  -1.804244e+05  -5.013295e+05
   8.275999e+04  -2.851723e+05
   3.256776e+05   8.838961e+04
   3.633048e+05   1.986202e+05
   2.006811e+05   3.981073e+04
   1.782168e+04  -6.443829e+04
  -6.696755e+04   9.252273e+04
  -1.165858e+05   3.521577e+05
  -2.240867e+05   3.741691e+05
  -3.299560e+05   2.385270e+04
  -2.648152e+05  -4.359001e+05
   3.724577e+04  -5.672609e+05
   3.993234e+05  -2.097919e+05
   4.967480e+05   3.169595e+05
   1.503317e+05   5.282495e+05
  -4.193530e+05   2.771448e+05
  -6.954625e+05  -1.356362e+05
  -3.660738e+05  -3.406474e+05
   2.646192e+05  -2.658470e+05
   5.279856e+05  -9.245489e+04
   1.488036e+05   7.676295e+03
  -3.851981e+05  -2.145950e+04
  -3.776603e+05  -1.612198e+05
   2.269493e+05  -2.942158e+05
   7.599419e+05  -1.967683e+05
