
 $NMID
 id='ANONYMOUS ', fmtdat='(2E16.6)'
 volume=1.0
 tramp=1.0
 $END
   1.763797e+07  -1.554981e+06
   1.256839e+07   8.099295e+06
   4.547678e+05   1.168762e+07
  -7.633740e+06   7.488766e+06
  -6.418024e+06   3.598757e+05
  -2.448850e+05  -3.297263e+06
   3.623366e+06  -1.345317e+06
   2.536861e+06   2.929999e+06
  -9.625568e+05   4.640051e+06
  -3.283416e+06   2.044333e+06
  -2.857903e+06  -2.073734e+06
  -5.014207e+05  -3.467538e+06
   1.552779e+06  -8.711074e+05
   1.339510e+06   2.727520e+06
  -9.659641e+05   3.372499e+06
  -2.925193e+06   3.505875e+05
  -2.278031e+06  -3.324920e+06
   5.994584e+05  -4.346399e+06
   3.169148e+06  -2.290050e+06
   3.453198e+06   6.470036e+05
   1.796645e+06   2.241912e+06
   1.176231e+05   2.092682e+06
  -9.299121e+04   1.365501e+06
   8.828665e+05   1.325330e+06
   1.287073e+06   2.092182e+06
  -2.839597e+05   2.580396e+06
  -3.031111e+06   1.703904e+06
  -4.339902e+06  -2.867311e+05
  -2.609270e+06  -1.879378e+06
   6.263921e+05  -1.836045e+06
   2.208428e+06  -4.315290e+05
   9.036140e+05   9.401664e+05
  -1.410145e+06   1.100723e+06
  -2.216891e+06  -6.258226e+04
  -1.102851e+06  -1.620253e+06
   4.111714e+05  -2.213933e+06
   9.706241e+05  -1.157796e+06
   5.463493e+05   6.127060e+05
  -8.734811e+04   1.165632e+06
  -2.222000e+05  -2.040183e+05
   3.555516e+05  -1.773646e+06
   1.163561e+06  -1.322043e+06
   1.222685e+06   8.939348e+05
   2.922337e+04   2.199085e+06
  -1.530337e+06   8.395202e+05
  -1.758722e+06  -1.746151e+06
   4.248144e+03  -2.691261e+06
   2.373322e+06  -1.058459e+06
   3.124355e+06   1.404944e+06
   1.422191e+06   2.490429e+06
  -1.294964e+06   1.635007e+06
  -2.669726e+06  -8.971775e+04
  -1.652392e+06  -1.252078e+06
   5.564301e+05  -1.120866e+06
   1.764540e+06  -6.145585e+04
   1.017400e+06   7.956254e+05
  -5.132981e+05   5.982745e+05
  -9.699483e+05  -3.147184e+05
   4.171120e+04  -7.889354e+05
   1.091942e+06  -2.233204e+05
   7.243197e+05   7.503823e+05
  -8.028294e+05   1.053551e+06
  -1.842635e+06   2.831413e+05
  -1.193937e+06  -1.065511e+06
   7.120965e+05  -2.089496e+06
   2.371442e+06  -1.988263e+06
   2.647877e+06  -5.496059e+05
   1.629050e+06   1.446610e+06
   3.086544e+05   2.616571e+06
  -4.124753e+05   2.264028e+06
  -4.640887e+05   1.149440e+06
  -4.557242e+05   5.346320e+05
  -8.621238e+05   6.067603e+05
  -1.445109e+06   4.216965e+05
  -1.529064e+06  -5.637215e+05
  -7.677276e+05  -1.553573e+06
   4.454020e+05  -1.372096e+06
   1.267321e+06   2.079883e+04
   1.052482e+06   1.415163e+06
  -1.311610e+05   1.630503e+06
  -1.450356e+06   5.926209e+05
  -1.884722e+06  -7.979820e+05
  -1.130839e+06  -1.575975e+06
   5.980646e+04  -1.458560e+06
   6.786588e+05  -9.080881e+05
   6.102702e+05  -5.680710e+05
   6.832226e+05  -5.913281e+05
   1.449352e+06  -5.173316e+05
   2.255563e+06   1.518083e+05
   1.910022e+06   1.302809e+06
   1.838512e+05   2.205335e+06
  -1.722296e+06   2.135574e+06
  -2.335934e+06   1.012998e+06
  -1.360971e+06  -4.625703e+05
   1.253543e+05  -1.275851e+06
   7.929779e+05  -9.104326e+05
   2.735715e+05   1.158305e+05
  -6.549649e+05   6.732248e+05
  -9.580606e+05   2.105145e+05
  -3.812394e+05  -5.857056e+05
   3.678296e+05  -6.192180e+05
   4.249615e+05   1.855640e+05
  -3.066315e+05   6.968078e+05
  -1.064744e+06  -2.184518e+04
  -9.914953e+05  -1.468990e+06
   7.100399e+04  -2.194699e+06
   1.452322e+06  -1.389992e+06
   2.182349e+06   3.119415e+05
   1.722417e+06   1.577300e+06
   4.118920e+05   1.645362e+06
  -7.415639e+05   8.418350e+05
  -9.158163e+05   7.783379e+04
  -2.710637e+05  -2.059708e+04
   2.192235e+05   4.011776e+05
  -1.291913e+05   6.767016e+05
  -8.997804e+05   3.521760e+05
  -1.077503e+06  -3.235670e+05
  -3.102494e+05  -6.830595e+05
   6.040525e+05  -3.846555e+05
   6.105118e+05   2.240067e+05
  -3.841338e+05   4.859139e+05
  -1.363622e+06   7.788102e+04
  -1.255175e+06  -7.220834e+05
  -2.754786e+04  -1.278755e+06
   1.276910e+06  -1.095019e+06
   1.555316e+06  -2.408343e+05
   6.812367e+05   6.133941e+05
  -4.270231e+05   7.433904e+05
  -7.342354e+05   1.117746e+05
  -6.967108e+04  -5.240509e+05
   7.949611e+05  -4.117386e+05
   9.758780e+05   3.414635e+05
   3.263207e+05   8.999851e+05
  -5.021389e+05   6.785187e+05
  -7.458624e+05  -1.524931e+04
  -2.577089e+05  -3.930537e+05
   3.735014e+05  -7.922302e+04
   4.019258e+05   5.395067e+05
  -3.124080e+05   7.703624e+05
  -1.097635e+06   2.954510e+05
  -1.113278e+06  -5.582476e+05
  -2.472637e+05  -1.114447e+06
   7.210255e+05  -9.295109e+05
   9.328674e+05  -1.885882e+05
   3.402982e+05   4.535025e+05
  -3.277862e+05   4.906413e+05
  -4.167579e+05   4.319751e+04
   7.025429e+03  -3.232176e+05
   3.655237e+05  -2.422894e+05
   2.562487e+05   7.433375e+04
  -1.581611e+05   1.349484e+05
  -3.606705e+05  -2.288372e+05
  -6.249202e+03  -6.373909e+05
   7.073571e+05  -5.473163e+05
   1.152731e+06   1.688560e+05
   8.361727e+05   1.034252e+06
  -8.199120e+04   1.365452e+06
  -8.916697e+05   8.939709e+05
  -1.029243e+06   1.877515e+04
  -6.129739e+05  -5.734097e+05
  -2.102669e+05  -5.571387e+05
  -1.527849e+05  -2.267926e+05
  -2.295860e+05  -1.036835e+05
  -5.193380e+04  -3.330239e+05
   4.259287e+05  -5.362602e+05
   8.190058e+05  -2.725771e+05
   6.814787e+05   4.059577e+05
  -5.704344e+04   9.183129e+05
  -9.469808e+05   7.005887e+05
  -1.297267e+06  -2.064741e+05
  -7.318253e+05  -1.125937e+06
   4.175442e+05  -1.330307e+06
   1.322620e+06  -6.939659e+05
   1.373034e+06   2.222904e+05
   7.011933e+05   7.329095e+05
  -2.783847e+04   6.597519e+05
  -3.040624e+05   3.978356e+05
  -1.906092e+05   3.911811e+05
  -1.073405e+05   6.197246e+05
  -3.166616e+05   6.522192e+05
  -6.584483e+05   1.776966e+05
  -7.344473e+05  -5.853633e+05
  -3.261640e+05  -1.047465e+06
   3.366477e+05  -8.071472e+05
   7.267746e+05  -4.080947e+04
   5.058266e+05   6.524667e+05
  -1.141005e+05   7.796572e+05
  -5.553469e+05   3.456616e+05
  -4.627498e+05  -2.285204e+05
  -5.601037e+04  -5.267353e+05
   1.602758e+05  -4.714237e+05
  -5.631565e+03  -2.877995e+05
  -2.180910e+05  -2.039064e+05
  -2.249101e+04  -2.198949e+05
   5.891508e+05  -1.552079e+05
   1.087923e+06   1.172605e+05
   9.164697e+05   5.034338e+05
   8.654188e+04   7.448456e+05
  -7.682624e+05   6.414827e+05
  -9.840567e+05   2.436189e+05
  -5.093331e+05  -1.600881e+05
   8.970999e+04  -2.747828e+05
   2.586145e+05  -7.167197e+04
  -3.420381e+03   1.665747e+05
  -2.732826e+05   1.259087e+05
  -2.579962e+05  -1.841381e+05
  -7.140649e+04  -4.109169e+05
   1.224309e+04  -2.625709e+05
  -8.761020e+04   1.054185e+05
  -2.135924e+05   2.266719e+05
  -1.708832e+05  -1.143185e+05
   1.020527e+05  -5.689678e+05
   4.746775e+05  -5.910570e+05
   6.571102e+05  -7.790822e+04
   3.969981e+05   4.874942e+05
  -2.059145e+05   5.668501e+05
  -6.336084e+05   1.371044e+05
  -4.003436e+05  -3.310138e+05
   3.627490e+05  -3.872400e+05
   9.220679e+05  -8.599194e+03
   6.746063e+05   4.552518e+05
  -1.870916e+05   6.273972e+05
  -8.587888e+05   3.933595e+05
  -7.643876e+05  -3.873836e+04
  -1.199201e+05  -3.068873e+05
   3.535688e+05  -1.976884e+05
   1.979008e+05   1.320291e+05
  -3.495128e+05   2.599755e+05
  -6.478911e+05  -8.352676e+04
  -3.192950e+05  -6.715162e+05
   3.847386e+05  -9.204105e+05
   8.512714e+05  -4.571719e+05
   7.042512e+05   4.381387e+05
   1.208019e+05   1.018755e+06
  -4.071911e+05   7.744811e+05
  -5.413848e+05  -4.382138e+04
  -3.063197e+05  -6.645836e+05
   5.416438e+04  -5.907756e+05
   2.999028e+05  -8.337554e+04
   3.108472e+05   2.223609e+05
   1.418130e+05   9.734906e+04
   9.639301e+03  -7.206418e+04
   9.482449e+04   1.202921e+05
   2.738155e+05   5.207986e+05
   1.782174e+05   6.246157e+05
  -3.315737e+05   2.504416e+05
  -8.463035e+05  -2.486291e+05
  -7.867730e+05  -4.639538e+05
  -1.204263e+05  -3.799345e+05
   5.236650e+05  -2.333408e+05
   5.727894e+05  -1.297789e+05
   1.663571e+05  -8.261661e+03
  -9.836951e+04   1.210388e+05
   3.460460e+04   1.512079e+05
   2.061378e+05   9.016280e+04
   6.423979e+03   7.458979e+04
  -4.305691e+05   1.070745e+05
  -5.776115e+05  -1.519754e+04
  -1.616500e+05  -3.637369e+05
   5.157849e+05  -6.232770e+05
   9.019214e+05  -3.970293e+05
   7.158293e+05   2.565873e+05
   1.384744e+05   7.932387e+05
  -4.021019e+05   7.579753e+05
  -5.775158e+05   2.689310e+05
  -3.729798e+05  -1.589837e+05
  -5.284709e+04  -1.953720e+05
   8.444941e+04   2.994049e+03
  -3.166431e+04   5.163424e+04
  -2.001837e+05  -1.898836e+05
  -1.674929e+05  -4.541406e+05
   1.061244e+05  -3.683914e+05
   3.887917e+05   1.030882e+05
   3.811055e+05   5.617822e+05
   9.600934e+03   5.628624e+05
  -4.466320e+05   8.525745e+04
  -5.584636e+05  -4.450162e+05
  -1.650827e+05  -6.000816e+05
   3.988382e+05  -3.412849e+05
   5.971433e+05   4.793452e+04
   2.749484e+05   2.985922e+05
  -1.462128e+05   3.324806e+05
  -1.644854e+05   2.027541e+05
   1.838982e+05   2.965642e+04
   3.745062e+05  -1.563199e+04
   6.790051e+04   1.597348e+05
  -4.594651e+05   3.907048e+05
  -6.655839e+05   3.506660e+05
  -3.843020e+05  -5.101706e+04
   5.155525e+04  -4.670374e+05
   2.598741e+05  -4.674698e+05
   1.843056e+05  -6.417334e+04
   3.894476e+03   2.839697e+05
  -1.372074e+05   2.170508e+05
  -1.942293e+05  -1.238525e+05
  -1.375384e+05  -3.223776e+05
   3.383772e+04  -1.982576e+05
   2.144455e+05   4.195077e+04
   2.562756e+05   1.229558e+05
   1.391441e+05   2.605250e+04
  -2.914542e+03  -4.714027e+04
  -5.535145e+04   4.592879e+04
  -5.531938e+04   2.170815e+05
  -1.039056e+05   2.489370e+05
  -1.938317e+05   4.120260e+04
  -1.934474e+05  -2.535804e+05
  -1.289926e+04  -3.576620e+05
   2.458195e+05  -1.529377e+05
   3.395636e+05   1.782587e+05
   1.195422e+05   3.336737e+05
  -2.683958e+05   2.015073e+05
  -4.653603e+05  -5.477563e+04
  -2.561729e+05  -2.087220e+05
   1.584669e+05  -1.926607e+05
   3.395718e+05  -9.170963e+04
   1.053807e+05  -8.590244e+03
  -2.357118e+05  -1.518385e+03
  -2.400148e+05  -8.483438e+04
   1.354647e+05  -1.867292e+05
   4.774793e+05  -1.435868e+05
