
 $NMID
 id='ANONYMOUS ', fmtdat='(2E16.6)'
 volume=1.0
 tramp=1.0
 $END
  -2.896822e+07  -1.341072e+05
  -1.817783e+07  -1.610184e+07
   2.257852e+06  -1.902597e+07
   1.348734e+07  -9.530027e+06
   9.363429e+06   1.514347e+06
  -6.847952e+05   5.015778e+06
  -5.445676e+06   8.357395e+05
  -2.787214e+06  -4.870551e+06
   2.373626e+06  -6.259852e+06
   5.195108e+06  -2.169620e+06
   4.111352e+06   3.489879e+06
   4.791593e+05   5.223622e+06
  -2.445705e+06   1.352845e+06
  -1.798198e+06  -3.843846e+06
   1.820336e+06  -4.551136e+06
   4.419823e+06   1.346851e+05
   2.868681e+06   5.466906e+06
  -1.693716e+06   6.579004e+06
  -5.381647e+06   3.177771e+06
  -5.598335e+06  -1.390201e+06
  -2.921373e+06  -3.993790e+06
   4.320099e+04  -3.900634e+06
   9.271365e+05  -2.468159e+06
  -4.203653e+05  -1.703292e+06
  -1.526096e+06  -2.460200e+06
   2.503165e+05  -3.431747e+06
   4.198536e+06  -2.534662e+06
   6.325010e+06   3.505697e+05
   3.970445e+06   2.876569e+06
  -6.724656e+05   2.929578e+06
  -3.039516e+06   9.496699e+05
  -1.480452e+06  -9.697364e+05
   1.469124e+06  -1.349716e+06
   2.680144e+06  -8.832361e+04
   1.589200e+06   1.929814e+06
  -3.014542e+05   3.074326e+06
  -1.455491e+06   1.926730e+06
  -1.265629e+06  -7.542051e+05
  -1.757582e+05  -2.005917e+06
   4.967925e+05  -1.814409e+05
  -2.717621e+05   2.296723e+06
  -1.680484e+06   1.733385e+06
  -1.614912e+06  -1.584965e+06
   6.342002e+05  -3.309781e+06
   2.944292e+06  -7.843956e+05
   2.561405e+06   3.295094e+06
  -6.512462e+05   4.316382e+06
  -3.926105e+06   1.327513e+06
  -4.384336e+06  -2.439608e+06
  -1.647082e+06  -3.695115e+06
   2.017815e+06  -2.088327e+06
   3.647483e+06   4.833693e+05
   2.044729e+06   1.969396e+06
  -1.078829e+06   1.486060e+06
  -2.630011e+06  -2.323842e+05
  -1.333079e+06  -1.379963e+06
   8.856452e+05  -8.287865e+05
   1.290267e+06   5.415428e+05
  -3.014535e+05   9.049521e+05
  -1.483764e+06  -1.918292e+05
  -4.647046e+05  -1.368868e+06
   1.774015e+06  -1.248153e+06
   2.826391e+06   1.499675e+05
   1.524967e+06   1.912967e+06
  -1.205430e+06   3.108040e+06
  -3.489948e+06   2.871354e+06
  -3.947971e+06   7.700063e+05
  -2.497754e+06  -2.204539e+06
  -3.685156e+05  -3.890933e+06
   8.815413e+05  -3.158399e+06
   8.123184e+05  -1.327489e+06
   4.371666e+05  -4.925824e+05
   8.473387e+05  -8.586076e+05
   1.810903e+06  -8.082838e+05
   2.140428e+06   5.347556e+05
   1.195160e+06   1.975995e+06
  -4.373319e+05   1.832968e+06
  -1.581015e+06   4.074311e+04
  -1.384584e+06  -1.831458e+06
   1.580175e+05  -2.227714e+06
   2.046882e+06  -8.937401e+05
   2.785788e+06   1.129040e+06
   1.704360e+06   2.424870e+06
  -1.841192e+05   2.323486e+06
  -1.224335e+06   1.390453e+06
  -1.089326e+06   7.200711e+05
  -1.048784e+06   6.740034e+05
  -2.025438e+06   5.567208e+05
  -3.094645e+06  -3.760577e+05
  -2.553888e+06  -1.905533e+06
  -1.507701e+05  -3.023522e+06
   2.413390e+06  -2.869712e+06
   3.208144e+06  -1.391220e+06
   1.908632e+06   5.798864e+05
  -8.597674e+04   1.745997e+06
  -1.044243e+06   1.305676e+06
  -3.968647e+05  -1.263380e+05
   8.878406e+05  -9.287556e+05
   1.347469e+06  -2.652769e+05
   5.519370e+05   8.483346e+05
  -4.790372e+05   8.472347e+05
  -5.000663e+05  -2.495142e+05
   5.068310e+05  -7.939185e+05
   1.362907e+06   3.127305e+05
   1.026974e+06   2.135829e+06
  -4.265375e+05   2.789604e+06
  -2.042416e+06   1.533084e+06
  -2.781906e+06  -6.300267e+05
  -2.136239e+06  -2.124060e+06
  -4.806280e+05  -2.156514e+06
   1.006292e+06  -1.122567e+06
   1.239521e+06  -1.085413e+05
   3.703062e+05   3.664316e+04
  -2.806974e+05  -5.535370e+05
   2.339426e+05  -9.337566e+05
   1.289384e+06  -4.338663e+05
   1.464341e+06   5.313290e+05
   3.643782e+05   9.656265e+05
  -8.371688e+05   4.817537e+05
  -7.760153e+05  -3.128199e+05
   5.453309e+05  -5.622801e+05
   1.767949e+06   1.100880e+04
   1.574155e+06   9.933536e+05
  -3.763933e+04   1.650393e+06
  -1.746123e+06   1.391512e+06
  -2.108581e+06   2.601913e+05
  -9.050773e+05  -8.848653e+05
   6.380930e+05  -1.031745e+06
   1.054348e+06  -1.227138e+05
   9.493539e+04   7.481862e+05
  -1.107881e+06   5.385510e+05
  -1.303733e+06  -5.191538e+05
  -3.699581e+05  -1.225418e+06
   7.241618e+05  -8.505149e+05
   9.806975e+05   9.160327e+04
   2.934948e+05   5.422901e+05
  -5.275646e+05   7.367375e+04
  -5.301568e+05  -7.586930e+05
   4.472466e+05  -1.044998e+06
   1.506130e+06  -3.760579e+05
   1.505996e+06   7.966067e+05
   2.944354e+05   1.534213e+06
  -1.032110e+06   1.235648e+06
  -1.279424e+06   2.062952e+05
  -4.294399e+05  -6.299037e+05
   4.649801e+05  -6.408904e+05
   5.422210e+05  -5.943121e+04
  -2.520028e+04   3.814001e+05
  -4.497214e+05   2.795590e+05
  -2.738321e+05  -7.055332e+04
   2.357596e+05  -9.654900e+04
   4.389471e+05   3.715723e+05
  -5.931273e+04   8.628387e+05
  -9.949862e+05   7.001661e+05
  -1.559154e+06  -2.824391e+05
  -1.099694e+06  -1.443235e+06
   1.564644e+05  -1.845632e+06
   1.225631e+06  -1.153763e+06
   1.357633e+06   2.385222e+04
   7.767813e+05   7.522212e+05
   2.815472e+05   6.848176e+05
   2.580274e+05   2.845373e+05
   3.478498e+05   1.884845e+05
   4.959164e+04   4.912889e+05
  -6.154146e+05   6.976156e+05
  -1.106046e+06   3.130247e+05
  -8.773092e+05  -5.589587e+05
   1.228118e+05  -1.196586e+06
   1.298670e+06  -8.861401e+05
   1.734124e+06   3.321902e+05
   9.243859e+05   1.553991e+06
  -6.539442e+05   1.778026e+06
  -1.838425e+06   8.561986e+05
  -1.822072e+06  -3.835415e+05
  -8.699250e+05  -9.993154e+05
   7.223926e+04  -8.348545e+05
   3.759539e+05  -4.991363e+05
   2.136722e+05  -5.556032e+05
   1.527084e+05  -8.895388e+05
   4.754953e+05  -9.001577e+05
   9.244791e+05  -2.198781e+05
   9.884427e+05   8.207130e+05
   4.130728e+05   1.433722e+06
  -4.789498e+05   1.087057e+06
  -9.803170e+05   2.422601e+04
  -6.449973e+05  -9.172830e+05
   2.134667e+05  -1.045465e+06
   7.857647e+05  -3.998010e+05
   6.011739e+05   3.833193e+05
   6.459618e+03   7.318134e+05
  -2.789843e+05   6.071585e+05
  -1.285173e+04   3.637789e+05
   3.029924e+05   2.796519e+05
   2.963809e+04   2.990323e+05
  -8.213197e+05   1.755624e+05
  -1.493484e+06  -2.199874e+05
  -1.220106e+06  -7.335841e+05
  -5.191907e+04  -1.023349e+06
   1.105211e+06  -8.386761e+05
   1.348500e+06  -2.701486e+05
   6.581392e+05   2.691417e+05
  -1.557380e+05   3.818629e+05
  -3.578802e+05   6.714767e+04
   9.388857e+03  -2.569481e+05
   3.679169e+05  -1.758824e+05
   3.509490e+05   2.611100e+05
   1.164260e+05   5.672124e+05
   3.148595e+03   3.672980e+05
   1.114197e+05  -1.213915e+05
   2.646946e+05  -2.841614e+05
   2.193586e+05   1.642741e+05
  -1.419406e+05   7.666093e+05
  -6.706212e+05   7.900333e+05
  -9.384831e+05   8.543146e+04
  -5.572078e+05  -6.910929e+05
   3.119465e+05  -7.908563e+05
   8.993411e+05  -1.842344e+05
   5.426951e+05   4.564187e+05
  -5.114330e+05   5.051824e+05
  -1.233459e+06  -3.020999e+04
  -8.584274e+05  -6.321009e+05
   2.938303e+05  -8.088131e+05
   1.153121e+06  -4.670449e+05
   9.996543e+05   8.830615e+04
   1.404041e+05   4.065353e+05
  -4.829245e+05   2.407888e+05
  -2.690559e+05  -1.987520e+05
   4.754929e+05  -3.618766e+05
   8.898666e+05   1.131055e+05
   4.450320e+05   9.228631e+05
  -5.240447e+05   1.265053e+06
  -1.164509e+06   6.233725e+05
  -9.509225e+05  -6.050928e+05
  -1.419060e+05  -1.381738e+06
   5.673443e+05  -1.023406e+06
   7.186694e+05   9.149614e+04
   3.746179e+05   9.033345e+05
  -1.090536e+05   7.726924e+05
  -4.108906e+05   8.941440e+04
  -3.980459e+05  -2.976585e+05
  -1.719968e+05  -1.197299e+05
  -1.964460e+04   8.778492e+04
  -1.470948e+05  -1.929550e+05
  -3.643049e+05  -7.244690e+05
  -2.018988e+05  -8.353732e+05
   4.820403e+05  -3.123817e+05
   1.136444e+06   3.582072e+05
   1.030261e+06   6.405638e+05
   1.469559e+05   5.223286e+05
  -6.979414e+05   3.135997e+05
  -7.691087e+05   1.555452e+05
  -2.372038e+05  -1.376853e+04
   1.295603e+05  -1.677051e+05
  -2.460298e+04  -1.834615e+05
  -2.576908e+05  -1.024925e+05
  -1.674165e+04  -1.041903e+05
   5.647244e+05  -1.563302e+05
   7.908977e+05   2.907001e+04
   2.460680e+05   5.199270e+05
  -6.991144e+05   8.612235e+05
  -1.261992e+06   5.286412e+05
  -1.005722e+06  -3.665274e+05
  -1.811522e+05  -1.082457e+06
   5.763914e+05  -1.026142e+06
   8.004700e+05  -3.683230e+05
   5.057120e+05   2.094901e+05
   7.750035e+04   2.721420e+05
  -9.964514e+04   1.874671e+04
   4.468151e+04  -4.834151e+04
   2.519652e+05   2.653086e+05
   2.063916e+05   6.165941e+05
  -1.499522e+05   5.059463e+05
  -5.288164e+05  -1.297605e+05
  -5.283028e+05  -7.627499e+05
  -2.703696e+04  -7.814174e+05
   6.055827e+05  -1.369614e+05
   7.686276e+05   5.995042e+05
   2.269568e+05   8.293892e+05
  -5.549934e+05   4.756998e+05
  -8.271393e+05  -7.719746e+04
  -3.735731e+05  -4.356247e+05
   2.184707e+05  -4.703270e+05
   2.504838e+05  -2.680208e+05
  -2.321439e+05  -2.590678e+04
  -5.062116e+05   1.893690e+04
  -9.454041e+04  -2.269406e+05
   6.327820e+05  -5.186568e+05
   9.251607e+05  -4.374021e+05
   5.362940e+05   1.053293e+05
  -8.234650e+04   6.445590e+05
  -3.876305e+05   6.311295e+05
  -2.818446e+05   8.923352e+04
  -1.500852e+04  -3.831728e+05
   1.929990e+05  -3.065725e+05
   2.696873e+05   1.526804e+05
   1.839172e+05   4.427506e+05
  -5.318797e+04   2.899236e+05
  -2.960266e+05  -5.323373e+04
  -3.472070e+05  -1.898384e+05
  -1.836684e+05  -5.100134e+04
   5.910359e+03   8.432523e+04
   6.207434e+04  -2.893914e+04
   4.634553e+04  -2.942034e+05
   1.172127e+05  -3.767446e+05
   2.688096e+05  -9.443686e+04
   2.958113e+05   3.376196e+05
   4.724316e+04   5.005353e+05
  -3.324451e+05   2.179293e+05
  -4.785653e+05  -2.425994e+05
  -1.699950e+05  -4.537028e+05
   3.773077e+05  -2.693323e+05
   6.490721e+05   8.037163e+04
   3.511579e+05   2.917254e+05
  -2.264661e+05   2.745767e+05
  -4.783602e+05   1.345893e+05
  -1.613212e+05   5.893819e+03
   3.060729e+05  -1.968519e+04
   3.268865e+05   9.354449e+04
  -1.638448e+05   2.464137e+05
  -6.240051e+05   2.006840e+05
