
 $NMID
 id='ANONYMOUS ', fmtdat='(2E16.6)'
 volume=1.0
 tramp=1.0
 $END
  -5.641115e+07  -9.100269e+05
  -3.302716e+07  -3.566883e+07
   8.379231e+06  -3.795176e+07
   2.774725e+07  -1.384045e+07
   1.602084e+07   7.498447e+06
  -3.596244e+06   9.146297e+06
  -9.609161e+06  -1.553152e+06
  -2.410250e+06  -9.703298e+06
   6.319609e+06  -8.952653e+06
   9.537266e+06  -1.701735e+06
   6.858725e+06   6.226843e+06
   7.526516e+05   8.505812e+06
  -3.995638e+06   2.732408e+06
  -2.600527e+06  -5.294595e+06
   3.763029e+06  -6.312909e+06
   7.745292e+06   1.506062e+06
   4.220427e+06   1.019211e+07
  -3.956919e+06   1.164323e+07
  -1.016622e+07   5.746694e+06
  -1.081705e+07  -2.174684e+06
  -6.596528e+06  -7.634017e+06
  -5.536378e+05  -8.795355e+06
   3.168783e+06  -6.046407e+06
   2.066632e+06  -2.467888e+06
  -1.086429e+06  -1.871798e+06
  -3.909022e+05  -4.041796e+06
   5.242861e+06  -4.439351e+06
   9.558060e+06  -5.864261e+05
   7.027001e+06   4.100914e+06
   3.232315e+05   5.121733e+06
  -3.649544e+06   2.700429e+06
  -2.562012e+06   1.383545e+05
   3.597553e+05  -9.396601e+05
   2.095477e+06  -6.497326e+05
   2.243660e+06   1.246815e+06
   8.432953e+05   3.870801e+06
  -1.795948e+06   3.896197e+06
  -3.369021e+06  -1.012755e+05
  -1.771275e+06  -3.728178e+06
   8.833668e+05  -2.040715e+06
   4.845860e+05   2.372085e+06
  -2.379709e+06   2.238840e+06
  -2.344126e+06  -3.207490e+06
   2.596181e+06  -6.015410e+06
   7.032709e+06  -8.010910e+05
   4.997604e+06   7.061476e+06
  -2.101230e+06   8.481920e+06
  -7.450258e+06   2.304351e+06
  -6.796138e+06  -4.456858e+06
  -1.720995e+06  -5.913800e+06
   3.420755e+06  -2.590664e+06
   5.083927e+06   1.554651e+06
   2.280936e+06   3.425665e+06
  -2.444158e+06   2.096522e+06
  -4.454679e+06  -1.000314e+06
  -1.860832e+06  -2.726783e+06
   1.731452e+06  -1.329382e+06
   1.675063e+06   1.014656e+06
  -1.345319e+06   8.024973e+05
  -2.351032e+06  -1.868795e+06
   8.173944e+05  -3.407927e+06
   4.714878e+06  -1.732648e+06
   5.214509e+06   1.503169e+06
   2.198828e+06   3.999718e+06
  -1.807980e+06   5.219134e+06
  -4.928233e+06   4.818601e+06
  -6.142910e+06   1.751678e+06
  -4.584128e+06  -3.142255e+06
  -9.407313e+05  -6.116188e+06
   1.877387e+06  -4.648150e+06
   1.725543e+06  -1.091050e+06
   4.626489e+04   3.021518e+05
  -1.679698e+05  -1.029412e+06
   1.518223e+06  -1.895127e+06
   2.810090e+06  -3.611873e+05
   2.096050e+06   1.826230e+06
   1.307425e+05   2.112247e+06
  -1.471839e+06   2.764740e+05
  -1.670722e+06  -1.958987e+06
  -5.556345e+04  -2.875378e+06
   2.720158e+06  -1.682024e+06
   4.464895e+06   1.144765e+06
   3.223212e+06   3.755124e+06
  -6.491898e+04   4.242808e+06
  -2.321965e+06   2.700587e+06
  -2.254155e+06   1.083369e+06
  -1.806117e+06   6.256165e+05
  -2.868633e+06   4.478474e+05
  -4.251036e+06  -7.492188e+05
  -3.415424e+06  -2.700416e+06
  -1.460026e+05  -4.034398e+06
   3.104777e+06  -3.845776e+06
   4.071059e+06  -2.143588e+06
   2.640966e+06   3.610587e+05
   3.379430e+05   2.205027e+06
  -1.045156e+06   1.944951e+06
  -5.673284e+05  -1.980225e+04
   1.050224e+06  -1.306914e+06
   1.880904e+06  -4.012764e+05
   9.267945e+05   1.196772e+06
  -4.851561e+05   1.103877e+06
  -3.927200e+05  -3.665426e+05
   1.054405e+06  -6.200606e+05
   1.762793e+06   1.346803e+06
   5.240607e+05   3.420244e+06
  -1.625372e+06   3.230470e+06
  -3.037070e+06   9.690360e+05
  -3.149299e+06  -1.428798e+06
  -2.180700e+06  -2.630418e+06
  -4.600405e+05  -2.504044e+06
   1.189640e+06  -1.445967e+06
   1.541702e+06  -2.500873e+05
   4.834217e+05   4.165982e+04
  -3.536553e+05  -7.365321e+05
   4.181554e+05  -1.324130e+06
   1.894117e+06  -5.655454e+05
   1.999445e+06   8.900607e+05
   3.629181e+05   1.399977e+06
  -1.150673e+06   5.551604e+05
  -8.539245e+05  -4.357538e+05
   8.280576e+05  -4.742630e+05
   2.091785e+06   3.299592e+05
   1.666137e+06   1.296912e+06
  -2.426947e+05   1.886415e+06
  -2.236897e+06   1.609262e+06
  -2.710057e+06   2.764815e+05
  -1.197171e+06  -1.249955e+06
   9.147503e+05  -1.494454e+06
   1.557116e+06  -1.867421e+05
   2.088337e+05   1.079974e+06
  -1.494122e+06   7.334694e+05
  -1.683404e+06  -7.712268e+05
  -3.143825e+05  -1.613426e+06
   1.076404e+06  -9.311869e+05
   1.215356e+06   3.269516e+05
   2.181116e+05   7.663554e+05
  -7.948947e+05   4.576593e+04
  -7.337615e+05  -1.039537e+06
   5.548553e+05  -1.411207e+06
   1.973415e+06  -5.542585e+05
   2.014004e+06   1.019604e+06
   3.861381e+05   2.042278e+06
  -1.417522e+06   1.617853e+06
  -1.695363e+06   2.025869e+05
  -4.843436e+05  -8.525279e+05
   6.467816e+05  -7.830261e+05
   6.087953e+05  -8.571180e+04
  -1.153223e+05   3.243198e+05
  -4.496741e+05   1.905265e+05
  -8.316017e+04  -3.777366e+04
   4.449038e+05   1.187432e+05
   4.854313e+05   6.808005e+05
  -2.209830e+05   1.162223e+06
  -1.359114e+06   8.763372e+05
  -2.045608e+06  -4.011721e+05
  -1.449995e+06  -1.904609e+06
   1.967516e+05  -2.373411e+06
   1.565880e+06  -1.377357e+06
   1.632478e+06   1.211473e+05
   8.251140e+05   8.436006e+05
   3.261318e+05   5.894872e+05
   5.053663e+05   1.961453e+05
   6.401274e+05   3.274422e+05
   8.876145e+04   7.699170e+05
  -8.623581e+05   8.791902e+05
  -1.406981e+06   3.129528e+05
  -1.014753e+06  -6.886225e+05
   2.411009e+05  -1.403201e+06
   1.673662e+06  -1.044953e+06
   2.196391e+06   4.632180e+05
   1.106918e+06   2.053589e+06
  -1.001943e+06   2.318786e+06
  -2.499695e+06   1.001561e+06
  -2.288192e+06  -6.542998e+05
  -9.104547e+05  -1.294696e+06
   2.026842e+05  -8.918565e+05
   3.467404e+05  -4.853548e+05
   3.671830e+04  -7.599517e+05
   8.578124e+04  -1.314814e+06
   6.646899e+05  -1.283265e+06
   1.282459e+06  -3.210738e+05
   1.326757e+06   1.052026e+06
   5.625977e+05   1.855941e+06
  -5.975818e+05   1.416259e+06
  -1.257098e+06   1.819896e+03
  -7.929879e+05  -1.263202e+06
   3.944362e+05  -1.366170e+06
   1.150426e+06  -3.731682e+05
   7.877101e+05   7.147537e+05
  -1.465080e+05   1.064963e+06
  -5.499797e+05   7.534695e+05
  -8.789281e+04   3.912094e+05
   4.363464e+05   3.223027e+05
   6.648778e+04   3.746523e+05
  -1.135062e+06   2.048667e+05
  -2.039517e+06  -3.257536e+05
  -1.589774e+06  -1.018045e+06
   5.328380e+04  -1.415188e+06
   1.578065e+06  -1.126898e+06
   1.798319e+06  -2.666000e+05
   8.033158e+05   5.026732e+05
  -2.679549e+05   5.681202e+05
  -5.045741e+05   2.280631e+04
  -3.482814e+04  -4.324525e+05
   4.259973e+05  -2.657433e+05
   4.792263e+05   3.325448e+05
   2.780008e+05   7.099949e+05
   1.184431e+05   4.759623e+05
   1.260660e+05  -8.057765e+04
   2.487858e+05  -2.774860e+05
   2.671728e+05   2.268452e+05
  -1.174174e+05   9.663568e+05
  -8.767752e+05   1.057850e+06
  -1.366871e+06   1.885907e+05
  -8.709187e+05  -8.993167e+05
   4.052052e+05  -1.143372e+06
   1.255221e+06  -3.590009e+05
   7.321321e+05   5.498278e+05
  -6.883273e+05   6.354543e+05
  -1.544707e+06  -9.125803e+04
  -9.601019e+05  -8.347852e+05
   4.840108e+05  -9.463758e+05
   1.448813e+06  -4.493689e+05
   1.183122e+06   1.884447e+05
   1.248605e+05   4.933057e+05
  -6.343730e+05   2.563140e+05
  -3.854862e+05  -2.961768e+05
   5.611858e+05  -5.358357e+05
   1.172259e+06   4.721694e+04
   7.014111e+05   1.150003e+06
  -5.323926e+05   1.700331e+06
  -1.438425e+06   9.126483e+05
  -1.248363e+06  -7.177304e+05
  -2.275314e+05  -1.751521e+06
   7.061919e+05  -1.264257e+06
   8.993102e+05   1.794869e+05
   4.163394e+05   1.161719e+06
  -2.259550e+05   9.315392e+05
  -5.552941e+05   7.561695e+04
  -4.438683e+05  -3.551913e+05
  -1.425580e+05  -1.200671e+05
  -5.301216e+04   8.507558e+04
  -3.052084e+05  -3.100621e+05
  -5.220627e+05  -9.518725e+05
  -1.750834e+05  -1.043725e+06
   7.258496e+05  -3.828946e+05
   1.449010e+06   4.356372e+05
   1.240908e+06   7.981039e+05
   1.857704e+05   6.879997e+05
  -8.093888e+05   4.320493e+05
  -9.525042e+05   1.853134e+05
  -3.713001e+05  -6.668313e+04
   1.309347e+05  -2.286750e+05
   5.714959e+04  -1.802682e+05
  -2.349634e+05  -6.418339e+04
  -6.465431e+04  -1.312153e+05
   6.157442e+05  -2.637420e+05
   1.036246e+06  -1.585209e+04
   4.840405e+05   6.902292e+05
  -7.805395e+05   1.201304e+06
  -1.686551e+06   7.946393e+05
  -1.442317e+06  -3.888041e+05
  -3.122035e+05  -1.376086e+06
   7.402926e+05  -1.377789e+06
   1.028858e+06  -5.730046e+05
   6.493420e+05   1.958011e+05
   1.533287e+05   3.542032e+05
  -4.323926e+04   9.366886e+04
   8.530515e+04   7.524510e+03
   2.846382e+05   3.629944e+05
   2.452866e+05   7.880772e+05
  -1.572416e+05   6.815933e+05
  -6.718190e+05  -7.941350e+04
  -7.746147e+05  -9.021591e+05
  -1.750250e+05  -1.025690e+06
   7.220379e+05  -2.997953e+05
   1.054206e+06   6.565684e+05
   3.911431e+05   1.072095e+06
  -6.866060e+05   7.113660e+05
  -1.123334e+06  -4.112419e+04
  -5.528507e+05  -6.194439e+05
   2.763133e+05  -7.063671e+05
   3.959250e+05  -3.726975e+05
  -2.144435e+05   1.589064e+04
  -6.315970e+05   6.082707e+04
  -1.615266e+05  -3.086747e+05
   7.968698e+05  -6.830792e+05
   1.251161e+06  -5.305416e+05
   7.823419e+05   1.896535e+05
  -7.442171e+04   8.724089e+05
  -5.555590e+05   8.640285e+05
  -4.532785e+05   1.868221e+05
  -8.483731e+04  -4.607008e+05
   2.224316e+05  -4.542115e+05
   3.546279e+05   1.061674e+05
   2.696891e+05   5.624599e+05
  -3.861373e+04   4.515496e+05
  -3.904008e+05  -2.114147e+04
  -4.821694e+05  -2.879743e+05
  -2.379679e+05  -1.080495e+05
   4.827760e+04   1.739246e+05
   7.347025e+04   9.011121e+04
  -6.705197e+04  -3.366739e+05
  -1.884006e+04  -5.889434e+05
   3.001496e+05  -2.836230e+05
   5.097565e+05   3.329422e+05
   2.275913e+05   6.400370e+05
  -3.811839e+05   3.394771e+05
  -6.874312e+05  -2.408265e+05
  -2.842671e+05  -5.489680e+05
   5.009197e+05  -3.768715e+05
   8.937729e+05   3.991814e+04
   4.921900e+05   3.604048e+05
  -2.832604e+05   4.265269e+05
  -6.380341e+05   2.700590e+05
  -2.725205e+05   2.539303e+04
   3.090468e+05  -1.093956e+05
   3.964741e+05   1.294920e+04
  -1.247146e+05   2.756361e+05
  -6.779455e+05   2.985283e+05
