
 $NMID
 id='ANONYMOUS ', fmtdat='(2E16.6)'
 volume=1.0
 tramp=1.0
 $END
   3.318127e+07   4.532811e+05
   2.126121e+07   1.776909e+07
  -1.882881e+06   2.165003e+07
  -1.534973e+07   1.186841e+07
  -1.135117e+07  -8.286150e+05
   3.129523e+05  -5.882080e+06
   6.524549e+06  -1.559518e+06
   3.796173e+06   5.628381e+06
  -2.508463e+06   7.887949e+06
  -6.161808e+06   2.967934e+06
  -4.888298e+06  -4.179603e+06
  -4.879414e+05  -6.331757e+06
   2.940192e+06  -1.461008e+06
   2.100487e+06   4.934445e+06
  -2.191606e+06   5.761201e+06
  -5.299854e+06   4.385623e+04
  -3.525072e+06  -6.454822e+06
   1.896494e+06  -7.836046e+06
   6.293991e+06  -3.703719e+06
   6.415801e+06   1.764331e+06
   3.098913e+06   4.606945e+06
  -1.926437e+05   4.164394e+06
  -7.133949e+05   2.576009e+06
   1.126710e+06   2.272462e+06
   2.060306e+06   3.610413e+06
  -6.457545e+05   4.519244e+06
  -5.553357e+06   2.838777e+06
  -7.814900e+06  -8.966409e+05
  -4.585591e+06  -3.701164e+06
   1.214544e+06  -3.372894e+06
   3.961897e+06  -7.288432e+05
   1.656703e+06   1.618648e+06
  -2.348913e+06   1.820128e+06
  -3.784465e+06  -1.548860e+05
  -1.927820e+06  -2.832569e+06
   7.580898e+05  -3.955121e+06
   1.905510e+06  -2.134330e+06
   1.173848e+06   1.139841e+06
  -1.658071e+05   2.271573e+06
  -5.316811e+05  -2.005881e+05
   6.567127e+05  -3.081853e+06
   2.200588e+06  -2.203750e+06
   2.013740e+06   1.821688e+06
  -4.797626e+05   3.912643e+06
  -3.102886e+06   1.058219e+06
  -2.885505e+06  -3.667735e+06
   6.356803e+05  -4.944653e+06
   4.580523e+06  -1.510167e+06
   5.376883e+06   3.001743e+06
   2.132489e+06   4.608921e+06
  -2.500639e+06   2.679721e+06
  -4.650088e+06  -5.312689e+05
  -2.700892e+06  -2.411530e+06
   1.178140e+06  -1.853090e+06
   3.154688e+06   1.979351e+05
   1.671469e+06   1.583173e+06
  -1.021808e+06   9.797989e+05
  -1.651930e+06  -6.654593e+05
   2.077439e+05  -1.259054e+06
   1.853766e+06  -9.003201e+04
   9.252680e+05   1.438507e+06
  -1.782289e+06   1.597337e+06
  -3.344092e+06   6.561253e+04
  -1.913156e+06  -2.174585e+06
   1.575872e+06  -3.737824e+06
   4.505462e+06  -3.379830e+06
   4.895210e+06  -7.248481e+05
   2.865116e+06   2.837552e+06
   2.761920e+05   4.791935e+06
  -1.050260e+06   3.961550e+06
  -9.495508e+05   1.879766e+06
  -7.382996e+05   8.519186e+05
  -1.447295e+06   1.071798e+06
  -2.561277e+06   7.453489e+05
  -2.712887e+06  -1.032616e+06
  -1.313672e+06  -2.759261e+06
   8.094746e+05  -2.384641e+06
   2.167362e+06   8.709019e+04
   1.730000e+06   2.523066e+06
  -3.492354e+05   2.866943e+06
  -2.647770e+06   9.595893e+05
  -3.361328e+06  -1.608254e+06
  -1.915233e+06  -3.026632e+06
   3.129499e+05  -2.718372e+06
   1.434974e+06  -1.587000e+06
   1.242061e+06  -9.011147e+05
   1.296234e+06  -9.149249e+05
   2.610543e+06  -7.179349e+05
   3.966589e+06   5.377368e+05
   3.234280e+06   2.513955e+06
   9.570585e+04   3.907759e+06
  -3.247931e+06   3.607728e+06
  -4.224573e+06   1.605794e+06
  -2.394909e+06  -9.067512e+05
   2.868216e+05  -2.255212e+06
   1.456463e+06  -1.579981e+06
   4.787557e+05   2.085149e+05
  -1.207337e+06   1.133645e+06
  -1.712173e+06   2.780010e+05
  -6.300667e+05  -1.083239e+06
   6.766748e+05  -1.058938e+06
   6.844894e+05   3.468411e+05
  -6.175693e+05   1.108112e+06
  -1.788860e+06  -2.539501e+05
  -1.460268e+06  -2.691710e+06
   4.218833e+05  -3.727698e+06
   2.654302e+06  -2.163239e+06
   3.719856e+06   7.890668e+05
   2.830810e+06   2.880258e+06
   5.727114e+05   2.891215e+06
  -1.373589e+06   1.422643e+06
  -1.620943e+06   7.223136e+04
  -4.776426e+05  -5.872848e+04
   3.409849e+05   7.251332e+05
  -3.141793e+05   1.174802e+06
  -1.634856e+06   5.129564e+05
  -1.851004e+06  -6.963062e+05
  -4.551101e+05  -1.225586e+06
   1.091690e+06  -5.949601e+05
   1.018989e+06   4.440156e+05
  -7.252814e+05   7.699975e+05
  -2.359959e+06  -2.474874e+04
  -2.091601e+06  -1.367244e+06
   8.013064e+04  -2.207081e+06
   2.333525e+06  -1.782459e+06
   2.750661e+06  -2.728024e+05
   1.136054e+06   1.151578e+06
  -8.385947e+05   1.274945e+06
  -1.320069e+06   1.187449e+05
  -7.295227e+04  -9.402065e+05
   1.442257e+06  -6.437965e+05
   1.670925e+06   7.016822e+05
   4.684802e+05   1.597517e+06
  -9.429060e+05   1.111188e+06
  -1.278841e+06  -1.140464e+05
  -3.880309e+05  -6.997995e+05
   6.690442e+05  -7.703885e+04
   6.454072e+05   1.003430e+06
  -6.355007e+05   1.330292e+06
  -1.971218e+06   4.130264e+05
  -1.911999e+06  -1.096329e+06
  -3.237165e+05  -1.990175e+06
   1.365188e+06  -1.561962e+06
   1.654952e+06  -2.380106e+05
   5.448514e+05   8.192932e+05
  -6.186789e+05   8.164467e+05
  -7.182259e+05   4.592841e+04
   4.640724e+04  -5.338352e+05
   6.382300e+05  -3.727772e+05
   4.105786e+05   1.320779e+05
  -2.961209e+05   1.799721e+05
  -5.901072e+05  -4.615061e+05
   7.498144e+04  -1.121896e+06
   1.309713e+06  -8.860133e+05
   2.015541e+06   4.184567e+05
   1.372408e+06   1.910739e+06
  -2.719810e+05   2.395792e+06
  -1.640588e+06   1.477887e+06
  -1.791996e+06  -6.255667e+04
  -1.019057e+06  -1.034389e+06
  -3.436943e+05  -9.614261e+05
  -2.867379e+05  -4.099841e+05
  -4.124369e+05  -2.361350e+05
  -5.061983e+04  -6.172254e+05
   8.132755e+05  -9.005096e+05
   1.467119e+06  -3.909962e+05
   1.155013e+06   7.731025e+05
  -1.894686e+05   1.593178e+06
  -1.732597e+06   1.130809e+06
  -2.258655e+06  -4.919779e+05
  -1.162814e+06  -2.051690e+06
   8.867903e+05  -2.288388e+06
   2.400479e+06  -1.069014e+06
   2.371728e+06   5.354690e+05
   1.136973e+06   1.336162e+06
  -1.085408e+05   1.124508e+06
  -5.414321e+05   6.643552e+05
  -3.463833e+05   6.982814e+05
  -2.481221e+05   1.112346e+06
  -6.362064e+05   1.128843e+06
  -1.190434e+06   2.465002e+05
  -1.243728e+06  -1.104168e+06
  -4.768658e+05  -1.877564e+06
   6.676495e+05  -1.390919e+06
   1.277421e+06   1.500744e+03
   8.138306e+05   1.203338e+06
  -2.925834e+05   1.351772e+06
  -1.014343e+06   5.227483e+05
  -7.728328e+05  -4.775554e+05
  -1.545771e+04  -9.336981e+05
   3.501502e+05  -7.909581e+05
   1.834787e+04  -4.889330e+05
  -3.768615e+05  -3.805785e+05
  -2.412832e+04  -3.933048e+05
   1.062929e+06  -2.072681e+05
   1.918366e+06   3.292218e+05
   1.560247e+06   9.865485e+05
   5.318892e+04   1.319338e+06
  -1.439582e+06   1.045383e+06
  -1.753899e+06   3.183569e+05
  -8.582543e+05  -3.461919e+05
   2.012524e+05  -4.793715e+05
   4.625546e+05  -8.866210e+04
  -2.413872e+04   3.142584e+05
  -4.906346e+05   2.096414e+05
  -4.432605e+05  -3.500527e+05
  -1.087353e+05  -7.420209e+05
   3.001780e+04  -4.735178e+05
  -1.554622e+05   1.698543e+05
  -3.782873e+05   3.748705e+05
  -2.873905e+05  -2.229114e+05
   2.251428e+05  -1.000131e+06
   9.024056e+05  -9.994283e+05
   1.197225e+06  -6.595042e+04
   6.729686e+05   9.156033e+05
  -4.312819e+05   9.962178e+05
  -1.156483e+06   1.885468e+05
  -6.835314e+05  -6.190456e+05
   6.777962e+05  -6.437119e+05
   1.614394e+06   7.343734e+04
   1.124120e+06   8.537771e+05
  -3.934532e+05   1.064701e+06
  -1.529574e+06   5.948657e+05
  -1.320526e+06  -1.405210e+05
  -1.774200e+05  -5.416398e+05
   6.366711e+05  -3.049182e+05
   3.356256e+05   2.610851e+05
  -6.410568e+05   4.386860e+05
  -1.146545e+06  -1.983862e+05
  -5.204477e+05  -1.220982e+06
   7.514952e+05  -1.609961e+06
   1.545125e+06  -7.479498e+05
   1.209825e+06   8.310704e+05
   1.271037e+05   1.806884e+06
  -7.809477e+05   1.321235e+06
  -9.393483e+05  -1.345910e+05
  -4.668319e+05  -1.192573e+06
   1.578765e+05  -1.016361e+06
   5.359750e+05  -1.085693e+05
   5.188453e+05   4.102782e+05
   2.319058e+05   1.713669e+05
   2.407225e+04  -1.188884e+05
   1.650382e+05   2.423726e+05
   4.381774e+05   9.509012e+05
   2.462920e+05   1.101946e+06
  -6.201311e+05   3.952496e+05
  -1.467619e+06  -5.119463e+05
  -1.332736e+06  -8.780294e+05
  -1.741694e+05  -6.830883e+05
   9.347676e+05  -3.760272e+05
   1.014234e+06  -1.764932e+05
   2.982969e+05   1.551536e+04
  -1.800590e+05   2.096359e+05
   4.074345e+04   2.523032e+05
   3.476731e+05   1.590045e+05
   9.623182e+03   1.368884e+05
  -7.598793e+05   1.686190e+05
  -1.023952e+06  -7.632941e+04
  -2.718944e+05  -6.772422e+05
   9.597788e+05  -1.075202e+06
   1.647133e+06  -6.238949e+05
   1.267329e+06   5.235455e+05
   1.824981e+05   1.416661e+06
  -7.865598e+05   1.305633e+06
  -1.054034e+06   4.328522e+05
  -6.494394e+05  -3.054801e+05
  -8.090390e+04  -3.558295e+05
   1.441708e+05  -5.764913e+03
  -5.722527e+04   7.479156e+04
  -3.261395e+05  -3.524661e+05
  -2.487454e+05  -8.122390e+05
   2.201079e+05  -6.459067e+05
   6.823705e+05   2.052709e+05
   6.396983e+05   1.023657e+06
  -1.792877e+04   1.009728e+06
  -7.993342e+05   1.323088e+05
  -9.636014e+05  -8.264389e+05
  -2.481992e+05  -1.084016e+06
   7.417005e+05  -5.810489e+05
   1.062298e+06   1.391902e+05
   4.595176e+05   5.688867e+05
  -3.002192e+05   5.867266e+05
  -3.228444e+05   3.364581e+05
   3.147485e+05   5.241786e+04
   6.626920e+05   4.077974e+02
   1.086673e+05   2.948217e+05
  -8.450169e+05   6.489232e+05
  -1.210191e+06   5.433708e+05
  -6.794185e+05  -1.438991e+05
   1.346750e+05  -8.271737e+05
   5.156179e+05  -8.001389e+05
   3.520621e+05  -9.621737e+04
  -6.578304e+03   5.031777e+05
  -2.651110e+05   3.811402e+05
  -3.417547e+05  -2.240701e+05
  -2.174946e+05  -5.833955e+05
   8.261777e+04  -3.607499e+05
   3.801631e+05   8.815051e+04
   4.399386e+05   2.507709e+05
   2.382764e+05   6.522262e+04
   8.288937e+02  -9.727755e+04
  -8.674790e+04   5.784670e+04
  -9.476838e+04   3.848730e+05
  -1.930701e+05   4.625126e+05
  -3.563702e+05   8.317849e+04
  -3.469407e+05  -4.641205e+05
  -1.389690e+04  -6.490414e+05
   4.472008e+05  -2.600446e+05
   5.997214e+05   3.436328e+05
   1.923715e+05   6.013334e+05
  -4.975051e+05   3.322751e+05
  -8.299409e+05  -1.377195e+05
  -4.388942e+05  -3.939492e+05
   3.039444e+05  -3.357596e+05
   6.202754e+05  -1.413012e+05
   1.978740e+05  -1.066597e+03
  -4.113597e+05  -3.422039e+03
  -4.226728e+05  -1.533457e+05
   2.388253e+05  -3.191841e+05
   8.402611e+05  -2.275603e+05
