
 $NMID
 id='ANONYMOUS ', fmtdat='(2E16.6)'
 volume=1.0
 tramp=1.0
 $END
  -2.436956e+07  -4.633859e+05
  -1.531253e+07  -1.337977e+07
   1.754309e+06  -1.588743e+07
   1.132241e+07  -8.301392e+06
   8.078821e+06   9.312881e+05
  -4.041264e+05   4.233165e+06
  -4.663923e+06   9.170728e+05
  -2.550539e+06  -4.102086e+06
   1.922250e+06  -5.520400e+06
   4.442861e+06  -1.991579e+06
   3.509268e+06   3.022510e+06
   3.603120e+05   4.531553e+06
  -2.115400e+06   1.088325e+06
  -1.514113e+06  -3.455390e+06
   1.586931e+06  -4.038242e+06
   3.804741e+06   5.464166e+04
   2.481450e+06   4.688989e+06
  -1.438479e+06   5.649368e+06
  -4.600670e+06   2.674756e+06
  -4.711801e+06  -1.274651e+06
  -2.332168e+06  -3.402411e+06
   1.330975e+05  -3.160928e+06
   6.598624e+05  -1.951790e+06
  -6.261299e+05  -1.545705e+06
  -1.428628e+06  -2.400339e+06
   3.632187e+05  -3.143504e+06
   3.861420e+06  -2.100189e+06
   5.567178e+06   5.257979e+05
   3.342821e+06   2.609310e+06
  -7.699993e+05   2.472572e+06
  -2.768811e+06   6.394068e+05
  -1.236108e+06  -1.038315e+06
   1.510265e+06  -1.262269e+06
   2.560740e+06   2.137119e+04
   1.397920e+06   1.884083e+06
  -4.203377e+05   2.778763e+06
  -1.334354e+06   1.593806e+06
  -9.552619e+05  -7.625044e+05
   1.948144e+04  -1.688305e+06
   4.205304e+05   2.240080e+04
  -3.704076e+05   2.130235e+06
  -1.531974e+06   1.548562e+06
  -1.413402e+06  -1.337147e+06
   4.531931e+05  -2.814753e+06
   2.363343e+06  -6.893208e+05
   2.099944e+06   2.750068e+06
  -5.404036e+05   3.620289e+06
  -3.348781e+06   1.082949e+06
  -3.822492e+06  -2.159133e+06
  -1.473727e+06  -3.265742e+06
   1.776506e+06  -1.865627e+06
   3.255013e+06   4.045934e+05
   1.860795e+06   1.714783e+06
  -8.820866e+05   1.294772e+06
  -2.259457e+06  -1.805410e+05
  -1.168986e+06  -1.158124e+06
   7.496835e+05  -6.980935e+05
   1.152178e+06   4.737775e+05
  -1.924172e+05   8.397253e+05
  -1.292541e+06  -3.775188e+04
  -5.342375e+05  -1.079585e+06
   1.391642e+06  -1.092038e+06
   2.409960e+06   4.379995e+04
   1.337117e+06   1.606387e+06
  -1.109752e+06   2.690819e+06
  -3.164072e+06   2.452936e+06
  -3.489265e+06   5.710049e+05
  -2.101118e+06  -2.001558e+06
  -2.371531e+05  -3.419076e+06
   7.632682e+05  -2.793625e+06
   6.821974e+05  -1.263581e+06
   4.575726e+05  -5.459395e+05
   9.165138e+05  -7.749347e+05
   1.741702e+06  -6.094398e+05
   1.921453e+06   6.318852e+05
   9.856728e+05   1.877609e+06
  -4.975299e+05   1.665560e+06
  -1.479845e+06  -1.998084e+04
  -1.224955e+06  -1.718991e+06
   2.060702e+05  -2.007034e+06
   1.854481e+06  -7.214462e+05
   2.417770e+06   1.092629e+06
   1.412294e+06   2.155830e+06
  -2.100720e+05   1.981554e+06
  -1.053587e+06   1.162000e+06
  -9.171178e+05   6.315119e+05
  -9.218813e+05   6.231379e+05
  -1.826402e+06   4.976318e+05
  -2.781261e+06  -3.675135e+05
  -2.276613e+06  -1.747015e+06
  -8.980342e+04  -2.731801e+06
   2.239969e+06  -2.548649e+06
   2.935779e+06  -1.174194e+06
   1.695492e+06   5.931458e+05
  -1.534402e+05   1.579932e+06
  -9.898157e+05   1.134770e+06
  -3.422982e+05  -1.339983e+05
   8.295617e+05  -8.086822e+05
   1.203105e+06  -2.077202e+05
   4.596851e+05   7.619246e+05
  -4.565042e+05   7.471769e+05
  -4.636220e+05  -2.352814e+05
   4.411795e+05  -7.445571e+05
   1.233032e+06   2.246789e+05
   9.740226e+05   1.894976e+06
  -3.305439e+05   2.559287e+06
  -1.843097e+06   1.454852e+06
  -2.559403e+06  -5.556248e+05
  -1.958898e+06  -1.970502e+06
  -4.148392e+05  -1.990744e+06
   9.402865e+05  -1.003426e+06
   1.128020e+06  -6.996276e+04
   3.338973e+05   3.745388e+04
  -2.424162e+05  -5.045500e+05
   2.199991e+05  -8.276193e+05
   1.151698e+06  -3.662672e+05
   1.300052e+06   4.874988e+05
   3.169995e+05   8.602649e+05
  -7.606679e+05   4.182169e+05
  -7.045644e+05  -3.013003e+05
   5.028707e+05  -5.240961e+05
   1.627505e+06   1.645930e+04
   1.444621e+06   9.321607e+05
  -4.775439e+04   1.520315e+06
  -1.609710e+06   1.248209e+06
  -1.914433e+06   2.064445e+05
  -8.005771e+05  -8.027123e+05
   5.846258e+05  -9.044309e+05
   9.333910e+05  -9.063266e+04
   6.150794e+04   6.645383e+05
  -1.006105e+06   4.611656e+05
  -1.168902e+06  -4.837873e+05
  -3.272445e+05  -1.110202e+06
   6.560427e+05  -7.688402e+05
   8.862847e+05   8.286418e+04
   2.646124e+05   4.872152e+05
  -4.724815e+05   5.428127e+04
  -4.600853e+05  -6.991454e+05
   4.323230e+05  -9.366842e+05
   1.374215e+06  -3.067186e+05
   1.345931e+06   7.509352e+05
   2.395947e+05   1.389566e+06
  -9.467097e+05   1.099145e+06
  -1.154371e+06   1.728029e+05
  -3.808467e+05  -5.693020e+05
   4.279602e+05  -5.707091e+05
   4.953850e+05  -3.958992e+04
  -3.017928e+04   3.605927e+05
  -4.305361e+05   2.564815e+05
  -2.709980e+05  -8.039574e+04
   2.093271e+05  -1.093950e+05
   4.056231e+05   3.286380e+05
  -5.416149e+04   7.828909e+05
  -9.106956e+05   6.240873e+05
  -1.409641e+06  -2.798281e+05
  -9.720124e+05  -1.325289e+06
   1.718372e+05  -1.671932e+06
   1.130374e+06  -1.035430e+06
   1.240657e+06   3.453394e+04
   7.085867e+05   7.028435e+05
   2.490008e+05   6.484631e+05
   2.166590e+05   2.757541e+05
   2.998115e+05   1.701126e+05
   3.883390e+04   4.386348e+05
  -5.642423e+05   6.307097e+05
  -1.016491e+06   2.776483e+05
  -8.034061e+05  -5.261092e+05
   1.232753e+05  -1.101178e+06
   1.197411e+06  -7.945716e+05
   1.574817e+06   3.278841e+05
   8.194869e+05   1.423449e+06
  -6.119197e+05   1.600865e+06
  -1.672227e+06   7.541372e+05
  -1.650872e+06  -3.652107e+05
  -7.888893e+05  -9.201413e+05
   7.127738e+04  -7.711679e+05
   3.611020e+05  -4.593747e+05
   2.219649e+05  -4.962076e+05
   1.607855e+05  -7.899173e+05
   4.408018e+05  -7.985617e+05
   8.345736e+05  -1.813637e+05
   8.785992e+05   7.612422e+05
   3.479723e+05   1.306538e+06
  -4.543234e+05   9.759526e+05
  -8.897608e+05   6.619415e+03
  -5.724264e+05  -8.374100e+05
   2.019700e+05  -9.436989e+05
   7.096277e+05  -3.605501e+05
   5.393034e+05   3.413979e+05
   5.765049e+03   6.558377e+05
  -2.497946e+05   5.489449e+05
  -1.245873e+04   3.349581e+05
   2.688324e+05   2.609054e+05
   2.154412e+04   2.736459e+05
  -7.437734e+05   1.494819e+05
  -1.345997e+06  -2.200714e+05
  -1.094721e+06  -6.811408e+05
  -3.768323e+04  -9.234059e+05
   1.006322e+06  -7.396399e+05
   1.222909e+06  -2.285815e+05
   5.954925e+05   2.441441e+05
  -1.423057e+05   3.392399e+05
  -3.234004e+05   6.040736e+04
   1.347063e+04  -2.262619e+05
   3.382206e+05  -1.527293e+05
   3.131692e+05   2.411248e+05
   8.938546e+04   5.172717e+05
  -1.042745e+04   3.324052e+05
   1.047050e+05  -1.149622e+05
   2.535106e+05  -2.600859e+05
   2.005490e+05   1.536939e+05
  -1.451360e+05   6.982417e+05
  -6.229454e+05   7.054690e+05
  -8.450223e+05   5.711495e+04
  -4.851589e+05  -6.363228e+05
   2.956032e+05  -7.052435e+05
   8.127741e+05  -1.457740e+05
   4.835879e+05   4.247513e+05
  -4.694358e+05   4.521062e+05
  -1.122192e+06  -4.212777e+04
  -7.802208e+05  -5.858382e+05
   2.715925e+05  -7.371802e+05
   1.057034e+06  -4.167855e+05
   9.136983e+05   9.126827e+04
   1.246211e+05   3.734435e+05
  -4.414914e+05   2.136842e+05
  -2.377179e+05  -1.826681e+05
   4.415519e+05  -3.157236e+05
   8.039433e+05   1.241632e+05
   3.803284e+05   8.470332e+05
  -5.044791e+05   1.134498e+06
  -1.069664e+06   5.403762e+05
  -8.518052e+05  -5.671645e+05
  -1.048731e+05  -1.257580e+06
   5.323856e+05  -9.236572e+05
   6.530689e+05   9.039255e+04
   3.300039e+05   8.266549e+05
  -1.068369e+05   7.042488e+05
  -3.737230e+05   7.676328e+04
  -3.608668e+05  -2.792633e+05
  -1.586201e+05  -1.143191e+05
  -1.721820e+04   8.087157e+04
  -1.230111e+05  -1.734665e+05
  -3.153543e+05  -6.617307e+05
  -1.749467e+05  -7.630092e+05
   4.356305e+05  -2.771015e+05
   1.026268e+06   3.444057e+05
   9.304509e+05   5.992976e+05
   1.258667e+05   4.757345e+05
  -6.437649e+05   2.720687e+05
  -7.030716e+05   1.300708e+05
  -2.112940e+05  -1.277836e+04
   1.220236e+05  -1.488357e+05
  -2.557501e+04  -1.706155e+05
  -2.385952e+05  -1.024219e+05
  -1.048961e+04  -9.580501e+04
   5.224989e+05  -1.287814e+05
   7.162834e+05   4.270056e+04
   2.044961e+05   4.741262e+05
  -6.553113e+05   7.641601e+05
  -1.149310e+06   4.528954e+05
  -8.976715e+05  -3.530170e+05
  -1.426631e+05  -9.863261e+05
   5.395510e+05  -9.192908e+05
   7.329962e+05  -3.155526e+05
   4.560012e+05   2.035161e+05
   6.229837e+04   2.485111e+05
  -9.628236e+04   1.079671e+04
   3.990464e+04  -4.775693e+04
   2.270861e+05   2.439507e+05
   1.781857e+05   5.636548e+05
  -1.469602e+05   4.543534e+05
  -4.780574e+05  -1.324712e+05
  -4.605727e+05  -7.054947e+05
  -3.217795e+03  -7.075257e+05
   5.546991e+05  -1.066422e+05
   6.835809e+05   5.630033e+05
   1.869237e+05   7.556911e+05
  -5.126592e+05   4.169723e+05
  -7.460249e+05  -8.663378e+04
  -3.279428e+05  -3.979599e+05
   2.062878e+05  -4.174752e+05
   2.275543e+05  -2.374325e+05
  -2.153301e+05  -2.986871e+04
  -4.612352e+05   7.111673e+03
  -8.006197e+04  -2.063745e+05
   5.834539e+05  -4.597050e+05
   8.428035e+05  -3.845344e+05
   4.794350e+05   1.002468e+05
  -8.662547e+04   5.807243e+05
  -3.579524e+05   5.637244e+05
  -2.514705e+05   7.258008e+04
  -3.644926e+03  -3.498284e+05
   1.813829e+05  -2.716861e+05
   2.417691e+05   1.482333e+05
   1.579934e+05   4.051346e+05
  -5.440622e+04   2.573925e+05
  -2.669933e+05  -5.590230e+04
  -3.099475e+05  -1.748903e+05
  -1.659504e+05  -4.639629e+04
   1.588884e+03   7.252812e+04
   5.755653e+04  -3.316388e+04
   5.471766e+04  -2.684403e+05
   1.224201e+05  -3.330235e+05
   2.476297e+05  -7.134993e+04
   2.548545e+05   3.168202e+05
   2.479170e+04   4.547704e+05
  -3.078875e+05   1.889144e+05
  -4.260969e+05  -2.319049e+05
  -1.430855e+05  -4.166301e+05
   3.457835e+05  -2.368301e+05
   5.841383e+05   8.697710e+04
   3.115259e+05   2.711295e+05
  -2.101173e+05   2.409190e+05
  -4.343209e+05   1.086243e+05
  -1.422346e+05   2.185845e+03
   2.829033e+05  -7.229908e+03
   2.960205e+05   9.677263e+04
  -1.581302e+05   2.230851e+05
  -5.769530e+05   1.692763e+05
