
 $NMID
 id='ANONYMOUS ', fmtdat='(2E16.6)'
 volume=1.0
 tramp=1.0
 $END
  -1.365575e+07   2.196953e+06
  -1.089711e+07  -4.607436e+06
  -2.009594e+06  -8.920674e+06
   5.286997e+06  -7.498051e+06
   5.687457e+06  -1.777839e+06
   9.687251e+05   2.747423e+06
  -3.067831e+06   2.042316e+06
  -2.915497e+06  -2.152408e+06
   1.414163e+05  -4.540613e+06
   2.657239e+06  -2.408828e+06
   2.613497e+06   1.633996e+06
   5.823236e+05   3.104830e+06
  -1.341265e+06   7.120078e+05
  -1.341514e+06  -2.646231e+06
   5.989029e+05  -3.345194e+06
   2.521817e+06  -7.229161e+05
   2.291709e+06   2.640338e+06
  -1.086035e+05   3.761291e+06
  -2.461097e+06   2.067495e+06
  -2.744396e+06  -4.721017e+05
  -1.271992e+06  -1.674005e+06
  -6.041728e+04  -1.287577e+06
  -4.012260e+05  -7.760955e+05
  -1.512114e+06  -1.306929e+06
  -1.530163e+06  -2.414980e+06
   4.128130e+05  -2.708701e+06
   3.079789e+06  -1.514338e+06
   4.083867e+06   4.347586e+05
   2.256014e+06   1.742878e+06
  -8.465492e+05   1.544875e+06
  -2.261862e+06   1.375971e+05
  -7.646893e+05  -1.238125e+06
   1.761874e+06  -1.303716e+06
   2.555370e+06   1.537320e+05
   1.112200e+06   1.901453e+06
  -6.345542e+05   2.276500e+06
  -9.654394e+05   8.946539e+05
  -1.771310e+05  -7.780620e+05
   3.974112e+05  -9.113143e+05
   1.595873e+05   6.057782e+05
  -5.222653e+05   1.934022e+06
  -1.116041e+06   1.369035e+06
  -1.212287e+06  -6.176198e+05
  -4.785190e+05  -1.851066e+06
   8.183400e+05  -9.482003e+05
   1.452785e+06   1.103496e+06
   3.358976e+05   2.091341e+06
  -1.859884e+06   9.972306e+05
  -2.951683e+06  -1.078380e+06
  -1.587084e+06  -2.255212e+06
   1.099238e+06  -1.712805e+06
   2.633602e+06  -1.703437e+05
   1.797821e+06   1.037620e+06
  -2.901105e+05   1.109714e+06
  -1.549037e+06   2.658471e+05
  -1.028760e+06  -5.616636e+05
   3.664296e+05  -5.563469e+05
   9.891578e+05   2.239254e+05
   1.905643e+05   8.825440e+05
  -1.012592e+06   6.162849e+05
  -1.076846e+06  -3.815843e+05
   2.542573e+05  -1.070670e+06
   1.530851e+06  -6.272804e+05
   1.195894e+06   7.199769e+05
  -6.239734e+05   1.880072e+06
  -2.280668e+06   1.829853e+06
  -2.450718e+06   4.482824e+05
  -1.386475e+06  -1.366698e+06
  -2.719604e+05  -2.408888e+06
   2.010181e+05  -2.192542e+06
   3.013299e+05  -1.333332e+06
   5.828959e+05  -7.695296e+05
   1.159037e+06  -6.416178e+05
   1.643324e+06  -2.490395e+05
   1.542192e+06   7.869787e+05
   6.741973e+05   1.719605e+06
  -5.829576e+05   1.446352e+06
  -1.405643e+06  -5.445274e+04
  -1.112867e+06  -1.505491e+06
   1.598919e+05  -1.652474e+06
   1.438016e+06  -5.107202e+05
   1.734790e+06   8.384288e+05
   9.598991e+05   1.434999e+06
  -6.006421e+04   1.209767e+06
  -5.035408e+05   7.457050e+05
  -4.252767e+05   5.658891e+05
  -5.897057e+05   6.724779e+05
  -1.413830e+06   6.107210e+05
  -2.245346e+06  -5.897534e+04
  -1.942766e+06  -1.240294e+06
  -2.348989e+05  -2.211123e+06
   1.719880e+06  -2.169448e+06
   2.371255e+06  -9.934153e+05
   1.346122e+06   5.285789e+05
  -2.058729e+05   1.303356e+06
  -8.494352e+05   8.790713e+05
  -2.606051e+05  -1.400799e+05
   6.723238e+05  -6.657377e+05
   9.305575e+05  -2.184648e+05
   3.488383e+05   5.585713e+05
  -3.849671e+05   6.268127e+05
  -4.829545e+05  -1.720150e+05
   2.147842e+05  -7.990711e+05
   1.084657e+06  -1.988763e+05
   1.214139e+06   1.336734e+06
   2.026707e+05   2.321573e+06
  -1.371963e+06   1.665387e+06
  -2.331284e+06  -1.445371e+05
  -1.909594e+06  -1.601990e+06
  -4.812662e+05  -1.730148e+06
   7.644162e+05  -8.713586e+05
   9.417933e+05  -7.333548e+04
   2.753958e+05   1.550327e+04
  -2.291991e+05  -3.980491e+05
   9.446190e+04  -6.604624e+05
   8.541355e+05  -3.706705e+05
   1.071758e+06   2.620476e+05
   3.491430e+05   6.478905e+05
  -5.882234e+05   4.087665e+05
  -6.490567e+05  -2.131492e+05
   3.632563e+05  -5.523828e+05
   1.431149e+06  -1.643227e+05
   1.367303e+06   7.155767e+05
   8.835382e+04   1.354462e+06
  -1.285144e+06   1.175064e+06
  -1.578964e+06   2.858817e+05
  -6.974484e+05  -5.841239e+05
   3.971270e+05  -7.251558e+05
   6.968974e+05  -1.228000e+05
   6.010581e+04   5.013680e+05
  -7.843349e+05   4.210596e+05
  -9.952436e+05  -3.070803e+05
  -3.830622e+05  -8.992995e+05
   4.648998e+05  -7.325855e+05
   7.652238e+05  -4.368028e+04
   3.006191e+05   3.758577e+05
  -3.526168e+05   9.076701e+04
  -4.015831e+05  -5.328906e+05
   3.157305e+05  -7.739122e+05
   1.107459e+06  -3.000580e+05
   1.125611e+06   5.527652e+05
   2.687347e+05   1.114884e+06
  -6.967477e+05   9.524582e+05
  -9.331824e+05   2.248558e+05
  -3.684694e+05  -4.413509e+05
   3.121342e+05  -5.098110e+05
   4.374591e+05  -4.804306e+04
   1.022728e+04   3.623834e+05
  -3.991130e+05   2.837611e+05
  -3.178217e+05  -8.813086e+04
   1.344640e+05  -1.934656e+05
   3.924499e+05   1.872325e+05
   4.715195e+04   6.425405e+05
  -6.979333e+05   5.758573e+05
  -1.170570e+06  -1.463587e+05
  -8.620033e+05  -1.031020e+06
   6.054088e+04  -1.393219e+06
   8.943221e+05  -9.495669e+05
   1.073309e+06  -5.768272e+04
   6.741737e+05   5.988064e+05
   2.339756e+05   6.258717e+05
   1.242670e+05   2.652160e+05
   1.965809e+05   8.558708e+04
   5.441612e+04   3.132042e+05
  -4.125641e+05   5.619082e+05
  -8.395844e+05   3.113428e+05
  -7.299781e+05  -4.127439e+05
   2.638715e+04  -9.704736e+05
   9.572793e+05  -7.512233e+05
   1.335185e+06   1.828734e+05
   7.808888e+05   1.124832e+06
  -3.708177e+05   1.355280e+06
  -1.307539e+06   7.497381e+05
  -1.413816e+06  -1.687698e+05
  -7.706900e+05  -7.319315e+05
  -5.957550e+03  -7.108353e+05
   3.321839e+05  -4.438878e+05
   2.376642e+05  -3.924942e+05
   1.213906e+05  -5.973823e+05
   2.997215e+05  -6.436157e+05
   6.480992e+05  -1.841989e+05
   7.464740e+05   5.847930e+05
   3.431427e+05   1.058998e+06
  -3.330880e+05   8.235815e+05
  -7.396768e+05   5.924934e+04
  -5.331353e+05  -6.390969e+05
   7.830756e+04  -7.915140e+05
   5.307265e+05  -3.902018e+05
   4.720665e+05   1.797028e+05
   9.744434e+04   5.101667e+05
  -1.163644e+05   4.878719e+05
   2.602682e+04   3.082344e+05
   2.179102e+05   2.124732e+05
   2.158133e+04   2.273968e+05
  -5.832660e+05   1.730345e+05
  -1.088575e+06  -9.341998e+04
  -9.383538e+05  -4.832770e+05
  -1.236204e+05  -7.367450e+05
   7.408886e+05  -6.557249e+05
   9.845745e+05  -2.813627e+05
   5.292613e+05   1.221010e+05
  -7.336173e+04   2.660713e+05
  -2.536830e+05   9.049583e+04
   9.305165e+03  -1.506648e+05
   2.858029e+05  -1.273795e+05
   2.618352e+05   1.832465e+05
   5.545084e+04   4.228175e+05
  -3.057680e+04   2.677195e+05
   9.132169e+04  -1.252863e+05
   2.336894e+05  -2.526529e+05
   1.804120e+05   1.131277e+05
  -1.083851e+05   5.889547e+05
  -4.738616e+05   6.026106e+05
  -6.387707e+05   7.240392e+04
  -3.821838e+05  -4.902950e+05
   2.008114e+05  -5.565826e+05
   6.253427e+05  -1.260108e+05
   4.080550e+05   3.381385e+05
  -3.566332e+05   4.046536e+05
  -9.488670e+05   3.660862e+04
  -7.257942e+05  -4.474201e+05
   1.576231e+05  -6.624664e+05
   8.754336e+05  -4.473866e+05
   8.007431e+05   1.075437e+04
   1.389661e+05   3.164808e+05
  -3.538014e+05   2.177672e+05
  -1.949979e+05  -1.235374e+05
   3.630427e+05  -2.566913e+05
   6.569231e+05   9.449500e+04
   3.113596e+05   6.874865e+05
  -4.047662e+05   9.315684e+05
  -8.723465e+05   4.599335e+05
  -7.216430e+05  -4.460803e+05
  -1.329986e+05  -1.042315e+06
   4.058712e+05  -8.078956e+05
   5.577022e+05   2.283472e+04
   3.367895e+05   6.723422e+05
  -2.824461e+04   6.150016e+05
  -2.992172e+05   9.713263e+04
  -3.342642e+05  -2.268904e+05
  -1.615969e+05  -1.030913e+05
  -2.479935e+03   7.884805e+04
  -7.500767e+04  -1.097135e+05
  -2.772579e+05  -5.223840e+05
  -2.096524e+05  -6.386666e+05
   3.123411e+05  -2.639492e+05
   8.699733e+05   2.432625e+05
   8.275559e+05   4.636880e+05
   1.301694e+05   3.825302e+05
  -5.477299e+05   2.425618e+05
  -5.891885e+05   1.456551e+05
  -1.562477e+05   2.053945e+04
   1.048836e+05  -1.227481e+05
  -5.648662e+04  -1.641624e+05
  -2.314085e+05  -1.017017e+05
   1.282651e+03  -7.736139e+04
   4.600973e+05  -1.049675e+05
   5.858847e+05   1.655273e+04
   1.376890e+05   3.652188e+05
  -5.391548e+05   6.268548e+05
  -9.010356e+05   3.975353e+05
  -7.059420e+05  -2.665294e+05
  -1.397250e+05  -8.105827e+05
   3.979222e+05  -7.688589e+05
   5.858151e+05  -2.644320e+05
   3.839318e+05   1.708795e+05
   4.609375e+04   1.982394e+05
  -1.038095e+05  -1.484885e+04
   2.546566e+04  -6.681010e+04
   2.149404e+05   1.858186e+05
   1.821520e+05   4.609838e+05
  -1.093867e+05   3.710732e+05
  -4.001739e+05  -1.160868e+05
  -3.797104e+05  -5.823948e+05
   8.250405e+03  -5.704236e+05
   4.658828e+05  -7.076396e+04
   5.652239e+05   4.669478e+05
   1.593659e+05   6.088266e+05
  -4.070332e+05   3.357451e+05
  -5.987369e+05  -5.059478e+04
  -2.706489e+05  -2.890212e+05
   1.455956e+05  -3.216300e+05
   1.501599e+05  -2.029821e+05
  -2.052806e+05  -3.557881e+04
  -3.861343e+05   1.547685e+04
  -6.418307e+04  -1.588698e+05
   4.651097e+05  -4.034677e+05
   6.601336e+05  -3.750764e+05
   3.740840e+05   3.520565e+04
  -5.079110e+04   4.687485e+05
  -2.459298e+05   4.705759e+05
  -1.696730e+05   5.383094e+04
   3.555351e+03  -2.964895e+05
   1.417731e+05  -2.123456e+05
   1.996276e+05   1.406912e+05
   1.394951e+05   3.280641e+05
  -3.754204e+04   1.875555e+05
  -2.178163e+05  -4.839550e+04
  -2.560463e+05  -1.124456e+05
  -1.417386e+05  -1.567165e+04
  -4.885247e+03   3.545021e+04
   5.582778e+04  -7.298115e+04
   7.723921e+04  -2.315530e+05
   1.357894e+05  -2.364665e+05
   2.071677e+05  -1.392986e+04
   1.771284e+05   2.761241e+05
  -1.333060e+04   3.666736e+05
  -2.577088e+05   1.490900e+05
  -3.359753e+05  -1.905351e+05
  -1.150941e+05  -3.457218e+05
   2.674963e+05  -2.041128e+05
   4.644806e+05   6.078073e+04
   2.569808e+05   2.115998e+05
  -1.603142e+05   1.847435e+05
  -3.407597e+05   8.024304e+04
  -9.461314e+04   6.842727e+03
   2.574877e+05   1.345763e+04
   2.516026e+05   1.031166e+05
  -1.514223e+05   2.014107e+05
  -5.091055e+05   1.478239e+05
