
 $NMID
 id='ANONYMOUS ', fmtdat='(2E16.6)'
 volume=1.0
 tramp=1.0
 $END
   5.818064e+07  -8.076643e+05
   3.539872e+07   3.584530e+07
  -7.383368e+06   3.959319e+07
  -2.843434e+07   1.523299e+07
  -1.702587e+07  -7.337740e+06
   3.442566e+06  -9.675681e+06
   1.014220e+07   1.341790e+06
   2.814808e+06   1.009986e+07
  -6.415713e+06   9.538718e+06
  -9.927094e+06   2.029024e+06
  -7.233478e+06  -6.274132e+06
  -9.423240e+05  -8.761465e+06
   4.029947e+06  -2.895556e+06
   2.717996e+06   5.437555e+06
  -3.832279e+06   6.646251e+06
  -8.105373e+06  -1.357481e+06
  -4.642531e+06  -1.045560e+07
   3.786128e+06  -1.216487e+07
   1.032789e+07  -6.217868e+06
   1.118202e+07   1.916155e+06
   7.018790e+06   7.609260e+06
   9.105772e+05   9.000726e+06
  -2.996382e+06   6.403950e+06
  -2.089822e+06   2.786253e+06
   1.009729e+06   2.024569e+06
   3.633260e+05   4.112213e+06
  -5.308614e+06   4.560943e+06
  -9.766290e+06   7.279477e+05
  -7.281101e+06  -4.056100e+06
  -4.509149e+05  -5.171274e+06
   3.634703e+06  -2.755829e+06
   2.514701e+06  -1.935378e+05
  -4.557750e+05   8.373254e+05
  -2.126863e+06   5.434186e+05
  -2.204539e+06  -1.281572e+06
  -8.537027e+05  -3.889721e+06
   1.728135e+06  -4.008007e+06
   3.388958e+06  -4.722333e+04
   1.922936e+06   3.701229e+06
  -7.456814e+05   2.115638e+06
  -4.405860e+05  -2.378823e+06
   2.456314e+06  -2.332058e+06
   2.526649e+06   3.279321e+06
  -2.506475e+06   6.360891e+06
  -7.256422e+06   1.124519e+06
  -5.404693e+06  -7.115192e+06
   1.893959e+06  -8.851054e+06
   7.621378e+06  -2.592931e+06
   7.129550e+06   4.487849e+06
   1.886100e+06   6.135495e+06
  -3.535028e+06   2.752501e+06
  -5.333338e+06  -1.562072e+06
  -2.442006e+06  -3.563648e+06
   2.497226e+06  -2.262045e+06
   4.656756e+06   9.282567e+05
   2.009822e+06   2.795164e+06
  -1.758178e+06   1.425784e+06
  -1.759879e+06  -1.043376e+06
   1.413257e+06  -9.194741e+05
   2.572631e+06   1.875698e+06
  -6.815042e+05   3.634731e+06
  -4.838239e+06   2.009866e+06
  -5.493292e+06  -1.398616e+06
  -2.409403e+06  -4.098001e+06
   1.756003e+06  -5.404965e+06
   4.986821e+06  -5.007736e+06
   6.268465e+06  -1.899089e+06
   4.751990e+06   3.119521e+06
   1.068999e+06   6.267285e+06
  -1.880279e+06   4.865624e+06
  -1.834376e+06   1.195203e+06
  -1.391471e+05  -3.514500e+05
   1.554338e+05   9.481163e+05
  -1.496367e+06   1.875387e+06
  -2.805666e+06   3.695149e+05
  -2.095370e+06  -1.840715e+06
  -1.079482e+05  -2.120526e+06
   1.503837e+06  -2.333397e+05
   1.690752e+06   2.036012e+06
   5.677589e+04   2.946451e+06
  -2.760429e+06   1.741406e+06
  -4.577157e+06  -1.104955e+06
  -3.379114e+06  -3.780738e+06
  -4.520959e+04  -4.357560e+06
   2.310463e+06  -2.850301e+06
   2.308261e+06  -1.195091e+06
   1.884425e+06  -6.892589e+05
   2.985434e+06  -4.878774e+05
   4.412795e+06   7.483489e+05
   3.549146e+06   2.776373e+06
   1.637880e+05   4.170349e+06
  -3.193650e+06   3.970433e+06
  -4.173761e+06   2.205851e+06
  -2.691534e+06  -3.588162e+05
  -3.419025e+05  -2.236932e+06
   1.057566e+06  -1.980375e+06
   5.726800e+05   1.547063e+04
  -1.074687e+06   1.340545e+06
  -1.935722e+06   4.282031e+05
  -9.656601e+05  -1.215061e+06
   4.998319e+05  -1.128699e+06
   4.113837e+05   3.999722e+05
  -1.121639e+06   6.796632e+05
  -1.905544e+06  -1.382745e+06
  -6.083368e+05  -3.599922e+06
   1.702894e+06  -3.437668e+06
   3.225238e+06  -1.045959e+06
   3.313123e+06   1.510664e+06
   2.247958e+06   2.770131e+06
   4.515645e+05   2.603295e+06
  -1.230008e+06   1.484030e+06
  -1.583260e+06   2.527080e+05
  -4.990642e+05  -4.243282e+04
   3.674947e+05   7.609093e+05
  -4.195088e+05   1.376939e+06
  -1.953360e+06   6.055705e+05
  -2.082926e+06  -9.064481e+05
  -3.906980e+05  -1.453612e+06
   1.192687e+06  -5.805539e+05
   8.854339e+05   4.621692e+05
  -8.768663e+05   5.022125e+05
  -2.190137e+06  -3.557135e+05
  -1.724937e+06  -1.372217e+06
   2.709335e+05  -1.967721e+06
   2.327104e+06  -1.662499e+06
   2.804724e+06  -2.858056e+05
   1.246809e+06   1.287096e+06
  -9.285606e+05   1.550958e+06
  -1.604082e+06   2.113405e+05
  -2.260145e+05  -1.106284e+06
   1.538619e+06  -7.635024e+05
   1.748018e+06   7.949203e+05
   3.297254e+05   1.680647e+06
  -1.124897e+06   9.764402e+05
  -1.274413e+06  -3.396061e+05
  -2.331703e+05  -8.046909e+05
   8.236071e+05  -5.775666e+04
   7.622342e+05   1.068260e+06
  -5.676955e+05   1.454383e+06
  -2.031503e+06   5.743429e+05
  -2.078796e+06  -1.046597e+06
  -4.048121e+05  -2.108238e+06
   1.460919e+06  -1.679066e+06
   1.756668e+06  -2.146067e+05
   5.051994e+05   8.860120e+05
  -6.707935e+05   8.135208e+05
  -6.283189e+05   8.097437e+04
   1.334593e+05  -3.429756e+05
   4.803458e+05  -1.858712e+05
   8.264298e+04   6.372078e+04
  -4.806822e+05  -1.085810e+05
  -5.200323e+05  -7.094286e+05
   2.231196e+05  -1.213201e+06
   1.405903e+06  -9.119750e+05
   2.115908e+06   4.111474e+05
   1.501302e+06   1.964153e+06
  -2.037162e+05   2.451330e+06
  -1.627383e+06   1.422650e+06
  -1.695585e+06  -1.348105e+05
  -8.428761e+05  -8.884134e+05
  -3.111818e+05  -6.149295e+05
  -5.053623e+05  -1.888093e+05
  -6.670692e+05  -3.207149e+05
  -1.033012e+05  -7.923199e+05
   8.926563e+05  -9.144813e+05
   1.462059e+06  -3.216713e+05
   1.046116e+06   7.227324e+05
  -2.614359e+05   1.458133e+06
  -1.737924e+06   1.079692e+06
  -2.272130e+06  -4.820537e+05
  -1.148372e+06  -2.128304e+06
   1.031238e+06  -2.408900e+06
   2.589963e+06  -1.046975e+06
   2.378360e+06   6.797644e+05
   9.429068e+05   1.355992e+06
  -2.248404e+05   9.325108e+05
  -3.734332e+05   4.903510e+05
  -3.599003e+04   7.633736e+05
  -7.445197e+04   1.346943e+06
  -6.751385e+05   1.329249e+06
  -1.320592e+06   3.394839e+05
  -1.369519e+06  -1.081993e+06
  -5.816374e+05  -1.914256e+06
   6.159593e+05  -1.461009e+06
   1.301025e+06  -1.628849e+03
   8.265446e+05   1.307460e+06
  -4.047592e+05   1.421583e+06
  -1.199735e+06   3.988271e+05
  -8.330570e+05  -7.353864e+05
   1.393230e+05  -1.112744e+06
   5.690840e+05  -7.952950e+05
   9.696853e+04  -4.110705e+05
  -4.470206e+05  -3.294183e+05
  -6.735987e+04  -3.847724e+05
   1.173929e+06  -2.184036e+05
   2.109564e+06   3.263403e+05
   1.648326e+06   1.049565e+06
  -4.562529e+04   1.471450e+06
  -1.624709e+06   1.177082e+06
  -1.864232e+06   2.814777e+05
  -8.438770e+05  -5.218054e+05
   2.695980e+05  -5.921581e+05
   5.265324e+05  -2.784643e+04
   4.442741e+04   4.419805e+05
  -4.372389e+05   2.701206e+05
  -4.946335e+05  -3.412824e+05
  -2.842746e+05  -7.225490e+05
  -1.216560e+05  -4.816502e+05
  -1.371955e+05   8.229985e+04
  -2.656321e+05   2.790263e+05
  -2.771990e+05  -2.359002e+05
   1.241591e+05  -9.927085e+05
   9.023484e+05  -1.093188e+06
   1.403699e+06  -2.076067e+05
   8.989616e+05   9.156270e+05
  -4.077908e+05   1.180270e+06
  -1.285274e+06   3.781651e+05
  -7.526974e+05  -5.655221e+05
   7.122590e+05  -6.591844e+05
   1.600814e+06   9.783390e+04
   9.948101e+05   8.751640e+05
  -5.076676e+05   9.877551e+05
  -1.510451e+06   4.621429e+05
  -1.229593e+06  -2.033639e+05
  -1.267465e+05  -5.147621e+05
   6.598590e+05  -2.662557e+05
   4.012946e+05   3.021384e+05
  -5.740283e+05   5.482822e+05
  -1.201999e+06  -4.742484e+04
  -7.199816e+05  -1.177077e+06
   5.450693e+05  -1.743374e+06
   1.476946e+06  -9.364402e+05
   1.284035e+06   7.399944e+05
   2.320984e+05   1.805790e+06
  -7.345758e+05   1.304292e+06
  -9.346071e+05  -1.873146e+05
  -4.303251e+05  -1.205909e+06
   2.383755e+05  -9.701760e+05
   5.768109e+05  -8.057407e+04
   4.565181e+05   3.732014e+05
   1.448800e+05   1.311688e+05
   5.694264e+04  -9.057168e+04
   3.196288e+05   3.096684e+05
   5.404349e+05   9.785121e+05
   1.787498e+05   1.085847e+06
  -7.506235e+05   4.048273e+05
  -1.494727e+06  -4.516066e+05
  -1.280216e+06  -8.323157e+05
  -1.931701e+05  -7.109597e+05
   8.345038e+05  -4.382129e+05
   9.856228e+05  -1.881367e+05
   3.872907e+05   6.278947e+04
  -1.344285e+05   2.330209e+05
  -6.318709e+04   1.945181e+05
   2.375260e+05   7.539803e+04
   6.605412e+04   1.317778e+05
  -6.315978e+05   2.620605e+05
  -1.065603e+06   1.735219e+04
  -5.003346e+05  -6.982858e+05
   7.993572e+05  -1.229671e+06
   1.731863e+06  -8.251316e+05
   1.481435e+06   3.896618e+05
   3.201341e+05   1.414854e+06
  -7.600388e+05   1.422530e+06
  -1.054300e+06   5.907251e+05
  -6.642395e+05  -2.031641e+05
  -1.581574e+05  -3.611657e+05
   3.932190e+04  -8.870254e+04
  -9.398891e+04  -4.785459e+03
  -2.961529e+05  -3.783059e+05
  -2.529241e+05  -8.158855e+05
   1.601256e+05  -7.006224e+05
   6.863289e+05   8.362087e+04
   7.923062e+05   9.243917e+05
   1.812682e+05   1.047152e+06
  -7.356066e+05   3.035779e+05
  -1.078366e+06  -6.736872e+05
  -4.034805e+05  -1.098897e+06
   7.009957e+05  -7.315048e+05
   1.154840e+06   3.804893e+04
   5.754755e+05   6.332060e+05
  -2.768052e+05   7.283123e+05
  -4.059718e+05   3.910593e+05
   2.180122e+05  -8.616575e+03
   6.494765e+05  -6.065778e+04
   1.679199e+05   3.153050e+05
  -8.220737e+05   7.038693e+05
  -1.294869e+06   5.534384e+05
  -8.121119e+05  -1.875314e+05
   7.351135e+04  -8.981076e+05
   5.690491e+05  -8.970034e+05
   4.612599e+05  -2.002044e+05
   8.418768e+04   4.705117e+05
  -2.248896e+05   4.664167e+05
  -3.584002e+05  -1.098463e+05
  -2.775881e+05  -5.782729e+05
   3.337338e+04  -4.631988e+05
   3.990789e+05   2.146262e+04
   5.015680e+05   2.940944e+05
   2.495132e+05   1.111608e+05
  -5.519895e+04  -1.755639e+05
  -8.704482e+04  -9.258269e+04
   6.449680e+04   3.371024e+05
   2.703284e+04   5.927318e+05
  -2.963615e+05   2.876047e+05
  -5.166155e+05  -3.336150e+05
  -2.332468e+05  -6.467139e+05
   3.890879e+05  -3.460629e+05
   7.032716e+05   2.432705e+05
   2.899517e+05   5.617352e+05
  -5.147692e+05   3.903100e+05
  -9.172473e+05  -3.682214e+04
  -5.067388e+05  -3.689913e+05
   2.863505e+05  -4.392445e+05
   6.505057e+05  -2.800511e+05
   2.794569e+05  -3.172243e+04
  -3.126154e+05   1.048767e+05
  -4.004021e+05  -1.641330e+04
   1.331868e+05  -2.775490e+05
   6.979064e+05  -2.970552e+05
