
 $NMID
 id='ANONYMOUS ', fmtdat='(2E16.6)'
 volume=1.0
 tramp=1.0
 $END
  -1.542286e+07  -2.184836e+06
  -8.203309e+06  -1.104466e+07
   3.469693e+06  -1.042695e+07
   8.465731e+06  -3.010700e+06
   4.558448e+06   2.751970e+06
  -1.320700e+06   2.590435e+06
  -2.865459e+06  -8.044360e+05
  -3.798179e+05  -2.999170e+06
   2.302687e+06  -2.415526e+06
   2.896211e+06  -1.142286e+05
   1.624397e+06   2.044277e+06
  -2.303921e+05   2.385696e+06
  -1.183756e+06   5.452436e+05
  -3.426662e+05  -1.633961e+06
   1.470621e+06  -1.638708e+06
   2.184348e+06   7.434729e+05
   7.731196e+05   3.058710e+06
  -1.585677e+06   3.116818e+06
  -3.023663e+06   1.194251e+06
  -2.835208e+06  -9.832232e+05
  -1.516730e+06  -2.234391e+06
   4.972597e+04  -2.353000e+06
   9.480823e+05  -1.655905e+06
   7.001282e+05  -8.765520e+05
   1.770768e+04  -7.500991e+05
   2.822513e+05  -1.061674e+06
   1.656364e+06  -7.688157e+05
   2.540373e+06   4.295276e+05
   1.651370e+06   1.436623e+06
  -1.505218e+05   1.267148e+06
  -1.029906e+06   4.014928e+05
  -5.231400e+05  -9.596155e+04
   3.074440e+05  -3.325318e+04
   5.826939e+05   1.836895e+05
   3.519039e+05   5.237152e+05
  -1.094007e+05   9.824457e+05
  -6.247166e+05   9.094307e+05
  -7.871160e+05  -7.474687e+04
  -3.272689e+05  -9.511705e+05
   1.584411e+05  -5.022551e+05
  -1.505464e+05   5.928125e+05
  -8.402232e+05   4.588852e+05
  -5.506354e+05  -1.027576e+06
   9.392574e+05  -1.679574e+06
   1.998795e+06  -1.019246e+05
   1.178358e+06   2.089810e+06
  -8.505618e+05   2.314542e+06
  -2.139006e+06   3.559879e+05
  -1.690247e+06  -1.611361e+06
  -1.639839e+05  -1.821236e+06
   1.161127e+06  -5.593593e+05
   1.410584e+06   7.752673e+05
   4.882332e+05   1.173374e+06
  -8.044217e+05   5.311466e+05
  -1.238486e+06  -4.778364e+05
  -4.295271e+05  -8.740791e+05
   5.411846e+05  -3.086278e+05
   4.287828e+05   4.096831e+05
  -4.713626e+05   2.523454e+05
  -7.189028e+05  -6.223626e+05
   2.527261e+05  -1.049314e+06
   1.395810e+06  -4.316714e+05
   1.485390e+06   6.043410e+05
   4.950893e+05   1.235678e+06
  -7.574612e+05   1.322205e+06
  -1.604072e+06   9.826974e+05
  -1.731573e+06   1.218412e+05
  -1.041440e+06  -1.054385e+06
   8.879963e+04  -1.698309e+06
   8.079740e+05  -1.236523e+06
   6.455634e+05  -2.687523e+05
   1.287256e+05   1.446550e+05
   6.801683e+04  -1.254779e+05
   4.692877e+05  -2.768849e+05
   6.637005e+05   1.357642e+05
   3.280645e+05   6.106717e+05
  -1.773940e+05   5.062773e+05
  -4.083578e+05  -1.215079e+05
  -2.535844e+05  -6.999533e+05
   2.190210e+05  -7.685335e+05
   8.180587e+05  -2.519242e+05
   1.093863e+06   5.642601e+05
   6.640043e+05   1.156010e+06
  -1.932809e+05   1.133472e+06
  -7.300572e+05   6.517583e+05
  -6.821510e+05   2.326129e+05
  -5.801897e+05   9.298715e+04
  -8.668442e+05  -6.935276e+04
  -1.153224e+06  -5.140097e+05
  -7.623252e+05  -1.007763e+06
   2.668773e+05  -1.137854e+06
   1.155070e+06  -8.139436e+05
   1.258781e+06  -2.523191e+05
   6.497663e+05   2.941225e+05
  -9.676820e+04   5.791859e+05
  -4.159186e+05   4.124952e+05
  -1.360687e+05  -4.397747e+04
   3.826555e+05  -2.638284e+05
   5.442963e+05   1.991227e+04
   1.729926e+05   3.755581e+05
  -2.224022e+05   2.506034e+05
  -8.887220e+04  -1.653192e+05
   3.909053e+05  -1.471351e+05
   5.083501e+05   5.017388e+05
  -2.818803e+04   1.092671e+06
  -7.468497e+05   9.198314e+05
  -1.054966e+06   9.408797e+04
  -8.520639e+05  -7.036481e+05
  -3.880346e+05  -9.889615e+05
   1.103673e+05  -7.598195e+05
   4.503529e+05  -2.911893e+05
   4.354455e+05   6.422859e+04
   1.307416e+05   4.991740e+04
  -4.200209e+04  -2.334217e+05
   2.043071e+05  -3.476976e+05
   5.668925e+05  -3.614715e+04
   5.101762e+05   3.890780e+05
   1.206986e+04   4.293567e+05
  -3.704495e+05   7.217915e+04
  -2.074598e+05  -2.080171e+05
   3.006165e+05  -8.362151e+04
   5.995265e+05   2.830669e+05
   3.649091e+05   5.447637e+05
  -2.504142e+05   5.343609e+05
  -7.774241e+05   2.669706e+05
  -7.842738e+05  -1.422694e+05
  -2.470973e+05  -4.382090e+05
   3.504570e+05  -3.520525e+05
   4.410767e+05   4.631163e+04
  -1.395563e+04   3.027960e+05
  -4.674219e+05   9.167230e+04
  -4.194302e+05  -3.478577e+05
   3.513056e+04  -4.952197e+05
   3.938041e+05  -1.943564e+05
   3.402788e+05   1.913078e+05
   1.118769e+04   2.500283e+05
  -2.277293e+05  -3.579037e+04
  -1.257285e+05  -3.397553e+05
   2.606122e+05  -3.418284e+05
   5.829646e+05   3.598911e+03
   4.746484e+05   4.369271e+05
  -4.925260e+04   5.970014e+05
  -5.200933e+05   3.469116e+05
  -4.961167e+05  -7.267574e+04
  -7.350227e+04  -2.842503e+05
   2.469690e+05  -1.726425e+05
   1.756307e+05   3.662096e+04
  -7.955565e+04   9.299366e+04
  -1.644820e+05   3.813992e+02
  -1.571709e+04  -5.450293e+04
   1.455201e+05   4.747986e+04
   1.078437e+05   2.376380e+05
  -1.477929e+05   3.241763e+05
  -4.519127e+05   1.435130e+05
  -5.404700e+05  -2.726289e+05
  -2.538373e+05  -6.423300e+05
   2.479999e+05  -6.437296e+05
   5.621730e+05  -2.563464e+05
   4.586853e+05   1.803657e+05
   1.475847e+05   3.276969e+05
   4.430641e+03   2.005890e+05
   9.899761e+04   7.549175e+04
   1.595005e+05   1.165171e+05
  -2.064353e+04   2.165128e+05
  -3.140433e+05   1.839956e+05
  -4.299416e+05  -2.957995e+04
  -2.234063e+05  -2.914203e+05
   1.995398e+05  -3.841696e+05
   5.640333e+05  -1.553294e+05
   5.783261e+05   3.124245e+05
   1.489036e+05   6.712480e+05
  -4.605982e+05   5.839490e+05
  -7.877850e+05   9.472731e+04
  -6.056761e+05  -3.728509e+05
  -1.526273e+05  -4.618443e+05
   1.515668e+05  -2.491189e+05
   1.592121e+05  -9.085905e+04
   6.976477e+04  -1.757663e+05
   1.096270e+05  -3.413671e+05
   2.715750e+05  -3.081414e+05
   3.761989e+05   3.101797e+03
   2.820166e+05   3.931513e+05
   6.572707e+03   5.574575e+05
  -2.791177e+05   3.424586e+05
  -3.534648e+05  -1.016934e+05
  -1.293038e+05  -4.192449e+05
   2.160830e+05  -3.634468e+05
   3.667895e+05  -3.097581e+04
   1.900609e+05   2.575432e+05
  -1.086171e+05   3.028548e+05
  -2.148551e+05   1.904512e+05
  -6.514265e+04   1.124041e+05
   8.947837e+04   1.200302e+05
  -1.406767e+04   1.063556e+05
  -3.342778e+05  -2.497015e+04
  -5.445950e+05  -2.408641e+05
  -3.686433e+05  -4.088287e+05
   1.151108e+05  -4.032215e+05
   5.216891e+05  -2.046921e+05
   5.314883e+05   6.228489e+04
   2.038800e+05   2.081988e+05
  -1.096461e+05   1.439410e+05
  -1.500203e+05  -2.798222e+04
   1.299765e+04  -1.157644e+05
   1.361618e+05  -3.270166e+04
   1.056938e+05   1.281338e+05
   1.490842e+04   2.039820e+05
  -7.118928e+03   1.270630e+05
   5.215884e+04  -1.102980e+04
   1.049692e+05  -4.583003e+04
   5.762378e+04   8.718711e+04
  -1.157902e+05   2.510665e+05
  -3.247250e+05   2.234649e+05
  -3.825170e+05  -3.975669e+04
  -1.676186e+05  -3.008633e+05
   1.894086e+05  -2.834506e+05
   3.610095e+05  -8.457481e+03
   1.535834e+05   2.088931e+05
  -2.448080e+05   1.251377e+05
  -4.302325e+05  -1.558939e+05
  -2.044248e+05  -3.293107e+05
   2.226037e+05  -2.395604e+05
   4.603658e+05  -4.919794e+03
   3.253285e+05   1.611790e+05
  -8.424201e+03   1.552143e+05
  -2.039905e+05   2.226017e+04
  -8.764835e+04  -1.077736e+05
   1.912763e+05  -9.540177e+04
   3.087810e+05   1.066016e+05
   9.449258e+04   3.607255e+05
  -2.793108e+05   4.100698e+05
  -4.611355e+05   1.273497e+05
  -2.807668e+05  -2.991042e+05
   8.338635e+04  -5.006251e+05
   3.067545e+05  -2.921166e+05
   2.441096e+05   1.255381e+05
   2.214733e+04   3.657070e+05
  -1.455336e+05   2.527908e+05
  -1.652403e+05  -2.023737e+04
  -9.190239e+04  -1.443087e+05
  -2.664662e+04  -5.571779e+04
  -2.478767e+04   2.350722e+04
  -6.578480e+04  -9.491903e+04
  -6.952177e+04  -2.999595e+05
   3.877072e+04  -3.161434e+05
   2.338112e+05  -6.158240e+04
   3.647112e+05   2.412397e+05
   2.783506e+05   3.345913e+05
  -2.264560e+03   2.068183e+05
  -2.582257e+05   4.233659e+04
  -2.826941e+05  -3.060140e+04
  -1.032129e+05  -3.941763e+04
   5.387317e+04  -4.820016e+04
   3.638803e+04  -5.814773e+04
  -5.274069e+04  -5.075904e+04
  -6.038983e+03  -3.610851e+04
   1.864611e+05  -7.643653e+03
   2.822548e+05   7.842520e+04
   7.848315e+04   2.092526e+05
  -3.047233e+05   2.537010e+05
  -5.180231e+05   9.015411e+04
  -3.565066e+05  -2.076802e+05
   2.866344e+04  -3.983402e+05
   3.108012e+05  -3.219067e+05
   3.200313e+05  -7.372604e+04
   1.549804e+05   1.088007e+05
   1.333600e+04   1.038860e+05
  -1.197728e+04   1.024484e+04
   3.177191e+04   4.300240e+03
   5.302796e+04   1.289657e+05
   3.681775e+03   2.418186e+05
  -9.571617e+04   1.715523e+05
  -1.690286e+05  -7.928903e+04
  -1.301968e+05  -3.028645e+05
   3.435184e+04  -2.809990e+05
   2.101180e+05  -1.524564e+04
   2.239211e+05   2.618603e+05
   2.059020e+04   3.172027e+05
  -2.365299e+05   1.368286e+05
  -3.006467e+05  -9.622597e+04
  -1.097656e+05  -2.069993e+05
   1.213524e+05  -1.716323e+05
   1.355753e+05  -8.046640e+04
  -5.607580e+04  -2.480734e+04
  -1.763128e+05  -3.773767e+04
  -2.131333e+04  -9.362779e+04
   2.755599e+05  -1.227073e+05
   3.945037e+05  -5.424144e+04
   2.078106e+05   1.035392e+05
  -8.658909e+04   2.319053e+05
  -2.172361e+05   2.017557e+05
  -1.305215e+05   2.566786e+04
   1.918194e+04  -1.271502e+05
   9.157340e+04  -1.039315e+05
   7.819687e+04   5.893360e+04
   2.776463e+04   1.742995e+05
  -3.778872e+04   1.173404e+05
  -1.005914e+05  -3.717627e+04
  -1.158431e+05  -1.140236e+05
  -6.294295e+04  -4.853281e+04
   7.103544e+03   4.593041e+04
   2.977792e+04   2.978933e+04
   1.625956e+04  -8.334039e+04
   3.191233e+04  -1.416518e+05
   8.628477e+04  -4.591315e+04
   9.945571e+04   1.190076e+05
   7.969109e+03   1.750173e+05
  -1.268120e+05   5.639799e+04
  -1.612208e+05  -1.148632e+05
  -2.876243e+04  -1.679549e+05
   1.658891e+05  -6.556780e+04
   2.362076e+05   7.730104e+04
   1.050047e+05   1.353303e+05
  -1.041095e+05   9.337476e+04
  -1.865362e+05   2.461021e+04
  -7.457798e+04  -6.925440e+03
   8.528436e+04   7.071564e+03
   9.570045e+04   4.069916e+04
  -6.387531e+04   5.601533e+04
  -2.097161e+05   1.101257e+04
