
 $NMID
 id='ANONYMOUS ', fmtdat='(2E16.6)'
 volume=1.0
 tramp=1.0
 $END
   2.724700e+07  -1.189389e+06
   1.886183e+07   1.250278e+07
   4.766659e+05   1.760216e+07
  -1.169207e+07   1.169497e+07
  -9.974165e+06   1.064913e+06
  -6.236260e+05  -4.995049e+06
   5.558080e+06  -2.417663e+06
   4.173634e+06   4.400164e+06
  -1.270038e+06   7.461514e+06
  -5.090635e+06   3.384926e+06
  -4.493427e+06  -3.371494e+06
  -7.161799e+05  -5.618099e+06
   2.543978e+06  -1.287537e+06
   2.154786e+06   4.561613e+06
  -1.511248e+06   5.517914e+06
  -4.590616e+06   5.993076e+05
  -3.545466e+06  -5.280273e+06
   1.040199e+06  -6.846409e+06
   5.094712e+06  -3.441745e+06
   5.366137e+06   1.312640e+06
   2.493429e+06   3.680261e+06
  -1.467646e+05   3.088812e+06
  -8.499433e+04   1.807625e+06
   1.825240e+06   2.071997e+06
   2.354644e+06   3.702480e+06
  -6.008533e+05   4.466044e+06
  -5.256250e+06   2.679883e+06
  -7.201028e+06  -7.782571e+05
  -4.093647e+06  -3.256623e+06
   1.313078e+06  -2.954092e+06
   3.835375e+06  -5.026312e+05
   1.496128e+06   1.824182e+06
  -2.554736e+06   2.043827e+06
  -3.975582e+06  -1.151542e+05
  -1.931954e+06  -2.936753e+06
   8.495438e+05  -3.852819e+06
   1.750852e+06  -1.791534e+06
   7.501009e+05   1.250254e+06
  -4.379350e+05   1.906059e+06
  -4.594704e+05  -6.118927e+05
   7.018300e+05  -3.133815e+06
   1.967008e+06  -2.214498e+06
   1.949318e+06   1.375205e+06
   1.419828e+05   3.351467e+06
  -2.145131e+06   1.202092e+06
  -2.515636e+06  -2.713534e+06
   9.135054e+04  -4.068295e+06
   3.754804e+06  -1.504647e+06
   5.018375e+06   2.333172e+06
   2.348121e+06   4.056165e+06
  -2.084603e+06   2.706627e+06
  -4.396167e+06  -8.068290e+04
  -2.787293e+06  -1.977342e+06
   7.900198e+05  -1.780594e+06
   2.774472e+06  -1.177129e+05
   1.637567e+06   1.210566e+06
  -7.935141e+05   9.170838e+05
  -1.610644e+06  -4.883779e+05
  -8.905984e+04  -1.303154e+06
   1.666917e+06  -5.627433e+05
   1.294392e+06   9.373242e+05
  -1.051196e+06   1.580853e+06
  -2.827303e+06   5.304146e+05
  -1.877911e+06  -1.631315e+06
   1.287320e+06  -3.368464e+06
   4.076962e+06  -3.176992e+06
   4.416666e+06  -7.277168e+05
   2.545892e+06   2.527356e+06
   3.632731e+05   4.322782e+06
  -6.515024e+05   3.711465e+06
  -6.606622e+05   2.002417e+06
  -7.977359e+05   1.085251e+06
  -1.655236e+06   1.114995e+06
  -2.632168e+06   6.177178e+05
  -2.639946e+06  -1.133990e+06
  -1.244230e+06  -2.770639e+06
   8.450723e+05  -2.384842e+06
   2.222704e+06   4.685512e+04
   1.797042e+06   2.447123e+06
  -2.748346e+05   2.767030e+06
  -2.481329e+06   9.067563e+05
  -3.086317e+06  -1.473880e+06
  -1.723628e+06  -2.669750e+06
   2.217580e+05  -2.321570e+06
   1.126836e+06  -1.368599e+06
   9.469538e+05  -8.854494e+05
   1.096107e+06  -9.968248e+05
   2.416778e+06  -8.696503e+05
   3.774364e+06   2.798647e+05
   3.189485e+06   2.216157e+06
   2.733717e+05   3.719007e+06
  -2.967602e+06   3.573949e+06
  -4.005995e+06   1.641985e+06
  -2.295098e+06  -8.615129e+05
   2.881644e+05  -2.189895e+06
   1.402520e+06  -1.516016e+06
   4.524345e+05   2.147340e+05
  -1.134669e+06   1.112918e+06
  -1.595871e+06   3.250883e+05
  -5.979215e+05  -9.870428e+05
   6.356906e+05  -1.040363e+06
   7.313269e+05   2.946494e+05
  -4.499939e+05   1.188332e+06
  -1.729698e+06   6.060946e+04
  -1.715627e+06  -2.362297e+06
  -1.874571e+04  -3.690044e+06
   2.359194e+06  -2.440534e+06
   3.717277e+06   4.448301e+05
   2.986594e+06   2.670388e+06
   7.153470e+05   2.821421e+06
  -1.284040e+06   1.428272e+06
  -1.567500e+06   1.139597e+05
  -4.598313e+05  -3.624348e+04
   3.600835e+05   6.768252e+05
  -2.239661e+05   1.112488e+06
  -1.492148e+06   5.606605e+05
  -1.779465e+06  -5.397136e+05
  -5.137695e+05  -1.118645e+06
   1.006744e+06  -6.317427e+05
   1.032212e+06   3.774396e+05
  -6.366474e+05   8.329470e+05
  -2.317373e+06   1.539014e+05
  -2.158360e+06  -1.221143e+06
  -6.501884e+04  -2.184144e+06
   2.169405e+06  -1.859188e+06
   2.633125e+06  -3.961347e+05
   1.133545e+06   1.029632e+06
  -7.277956e+05   1.220196e+06
  -1.213678e+06   1.640242e+05
  -8.838427e+04  -8.713011e+05
   1.342187e+06  -6.702867e+05
   1.634499e+06   5.775339e+05
   5.580134e+05   1.505700e+06
  -8.230378e+05   1.147094e+06
  -1.244059e+06  -4.595693e+03
  -4.395993e+05  -6.387108e+05
   6.135221e+05  -1.124604e+05
   6.511582e+05   9.244087e+05
  -5.605435e+05   1.292085e+06
  -1.870986e+06   4.653312e+05
  -1.868236e+06  -9.733239e+05
  -3.957044e+05  -1.883152e+06
   1.222724e+06  -1.553987e+06
   1.567490e+06  -3.162338e+05
   5.743399e+05   7.524391e+05
  -5.480294e+05   8.199133e+05
  -7.086106e+05   7.148659e+04
   4.058973e+03  -5.560085e+05
   6.309261e+05  -4.259468e+05
   4.658336e+05   1.241218e+05
  -2.445947e+05   2.461646e+05
  -6.089080e+05  -3.696317e+05
  -1.228107e+04  -1.071423e+06
   1.202897e+06  -9.162796e+05
   1.948241e+06   3.057134e+05
   1.395221e+06   1.766899e+06
  -1.579107e+05   2.316181e+06
  -1.515483e+06   1.518353e+06
  -1.753266e+06   4.024658e+04
  -1.067262e+06  -9.790189e+05
  -3.816615e+05  -9.786598e+05
  -2.527407e+05  -4.220953e+05
  -3.620298e+05  -1.888114e+05
  -7.112556e+04  -5.594066e+05
   7.257482e+05  -9.080105e+05
   1.399650e+06  -4.632891e+05
   1.174258e+06   7.006828e+05
  -9.219800e+04   1.575046e+06
  -1.617658e+06   1.187443e+06
  -2.203369e+06  -3.661721e+05
  -1.227473e+06  -1.910465e+06
   7.155310e+05  -2.232509e+06
   2.230359e+06  -1.156494e+06
   2.317531e+06   3.733462e+05
   1.201200e+06   1.233312e+06
  -2.947033e+04   1.129736e+06
  -5.245994e+05   6.999687e+05
  -3.593753e+05   6.756838e+05
  -2.161119e+05   1.039669e+06
  -5.496755e+05   1.083449e+06
  -1.111871e+06   2.799152e+05
  -1.231099e+06  -1.008647e+06
  -5.328365e+05  -1.782229e+06
   5.860764e+05  -1.362297e+06
   1.229560e+06  -6.070092e+04
   8.437959e+05   1.102481e+06
  -1.941397e+05   1.307947e+06
  -9.200027e+05   5.804698e+05
  -7.612072e+05  -3.732601e+05
  -9.236738e+04  -8.684919e+05
   2.574243e+05  -7.828100e+05
  -2.042722e+04  -4.889957e+05
  -3.686676e+05  -3.581139e+05
  -3.427600e+04  -3.798437e+05
   9.951131e+05  -2.514683e+05
   1.832534e+06   2.223571e+05
   1.539354e+06   8.634961e+05
   1.366465e+05   1.243855e+06
  -1.302476e+06   1.057137e+06
  -1.657897e+06   4.016595e+05
  -8.507154e+05  -2.588813e+05
   1.565266e+05  -4.520226e+05
   4.308428e+05  -1.207286e+05
  -1.959548e+04   2.793512e+05
  -4.731090e+05   2.142790e+05
  -4.352898e+05  -3.174654e+05
  -1.074786e+05  -7.131278e+05
   3.484680e+04  -4.555908e+05
  -1.462613e+05   1.883411e+05
  -3.697681e+05   3.979303e+05
  -2.908252e+05  -1.987442e+05
   1.877489e+05  -9.774876e+05
   8.216680e+05  -9.918359e+05
   1.112147e+06  -9.762765e+04
   6.516392e+05   8.489369e+05
  -3.702178e+05   9.479109e+05
  -1.081022e+06   2.038772e+05
  -6.767057e+05  -5.739525e+05
   6.163649e+05  -6.523993e+05
   1.565871e+06  -1.270798e+04
   1.152762e+06   7.669306e+05
  -3.067712e+05   1.063768e+06
  -1.453506e+06   6.748489e+05
  -1.300661e+06  -5.998135e+04
  -2.073427e+05  -5.202554e+05
   5.961112e+05  -3.333979e+05
   3.248839e+05   2.272117e+05
  -6.094372e+05   4.334263e+05
  -1.104972e+06  -1.638393e+05
  -5.237632e+05  -1.160154e+06
   6.851885e+05  -1.564039e+06
   1.466835e+06  -7.612051e+05
   1.194044e+06   7.601520e+05
   1.911181e+05   1.738147e+06
  -6.987252e+05   1.317247e+06
  -9.154973e+05  -7.391490e+04
  -5.165547e+05  -1.127006e+06
   8.780480e+04  -9.993615e+05
   5.049587e+05  -1.370090e+05
   5.328754e+05   3.787522e+05
   2.486694e+05   1.629271e+05
   1.146012e+04  -1.218050e+05
   1.424114e+05   2.113892e+05
   4.505169e+05   8.906547e+05
   3.046142e+05   1.056266e+06
  -5.545456e+05   4.118108e+05
  -1.436851e+06  -4.339305e+05
  -1.339944e+06  -7.922415e+05
  -1.984029e+05  -6.457352e+05
   9.030435e+05  -3.959410e+05
   9.764354e+05  -2.176162e+05
   2.723700e+05  -9.728296e+03
  -1.721684e+05   2.062796e+05
   7.100569e+04   2.539573e+05
   3.638656e+05   1.538603e+05
   5.161434e+03   1.321358e+05
  -7.493250e+05   1.807446e+05
  -9.838310e+05  -4.107918e+04
  -2.522324e+05  -6.342489e+05
   9.034949e+05  -1.054151e+06
   1.541980e+06  -6.456923e+05
   1.207234e+06   4.668840e+05
   2.192636e+05   1.358285e+06
  -6.995760e+05   1.277041e+06
  -9.951323e+05   4.395178e+05
  -6.383514e+05  -2.827329e+05
  -8.085038e+04  -3.378929e+05
   1.581613e+05   4.459279e+03
  -4.546885e+04   9.074877e+04
  -3.383814e+05  -3.198959e+05
  -2.793105e+05  -7.717255e+05
   1.919113e+05  -6.235618e+05
   6.671038e+05   1.881895e+05
   6.376499e+05   9.748467e+05
  -5.687450e+03   9.667996e+05
  -7.759310e+05   1.333435e+05
  -9.475101e+05  -7.791268e+05
  -2.632264e+05  -1.030336e+06
   6.940812e+05  -5.682819e+05
   1.014075e+06   1.007509e+05
   4.502738e+05   5.133676e+05
  -2.641303e+05   5.540811e+05
  -2.788453e+05   3.313327e+05
   3.244287e+05   4.802891e+04
   6.419971e+05  -2.022148e+04
   1.082869e+05   2.748464e+05
  -7.882605e+05   6.574225e+05
  -1.126050e+06   5.831884e+05
  -6.383857e+05  -9.583606e+04
   1.005130e+05  -7.913082e+05
   4.475207e+05  -7.801959e+05
   3.132184e+05  -9.150218e+04
   5.058427e+02   4.915936e+05
  -2.441462e+05   3.643394e+05
  -3.365902e+05  -2.214197e+05
  -2.270849e+05  -5.531838e+05
   7.040577e+04  -3.323019e+05
   3.671507e+05   7.911677e+04
   4.259217e+05   2.116807e+05
   2.317285e+05   4.238716e+04
   5.883783e+03  -7.835531e+04
  -8.263479e+04   8.898857e+04
  -1.038032e+05   3.837566e+05
  -2.045834e+05   4.287149e+05
  -3.493291e+05   5.788522e+04
  -3.238077e+05  -4.544235e+05
  -3.105659e+03  -6.241981e+05
   4.294032e+05  -2.559342e+05
   5.751336e+05   3.206219e+05
   1.961167e+05   5.779288e+05
  -4.603224e+05   3.344130e+05
  -7.905488e+05  -1.107355e+05
  -4.299546e+05  -3.630644e+05
   2.793556e+05  -3.191622e+05
   5.848574e+05  -1.405834e+05
   1.750656e+05  -5.772286e+03
  -4.152483e+05  -5.090380e+03
  -4.184942e+05  -1.539757e+05
   2.358322e+05  -3.267940e+05
   8.270483e+05  -2.459879e+05
