
 $NMID
 id='ANONYMOUS ', fmtdat='(2E16.6)'
 volume=1.0
 tramp=1.0
 $END
   2.391407e+07   3.523427e+05
   1.508812e+07   1.264544e+07
  -1.388824e+06   1.536862e+07
  -1.077895e+07   8.523635e+06
  -7.940320e+06  -4.129074e+05
   1.570587e+05  -4.120146e+06
   4.522668e+06  -1.233533e+06
   2.767226e+06   3.870158e+06
  -1.584021e+06   5.631328e+06
  -4.299620e+06   2.211394e+06
  -3.583903e+06  -2.958335e+06
  -4.592015e+05  -4.589978e+06
   2.144422e+06  -1.107421e+06
   1.670900e+06   3.532755e+06
  -1.418565e+06   4.177131e+06
  -3.758391e+06   9.706335e+04
  -2.583271e+06  -4.584991e+06
   1.300964e+06  -5.629463e+06
   4.531502e+06  -2.689615e+06
   4.669029e+06   1.288331e+06
   2.229612e+06   3.394763e+06
  -2.304493e+05   3.035467e+06
  -5.830174e+05   1.758801e+06
   8.974295e+05   1.469589e+06
   1.690875e+06   2.524235e+06
  -3.126708e+05   3.349853e+06
  -4.015244e+06   2.238658e+06
  -5.758331e+06  -4.909171e+05
  -3.418083e+06  -2.648879e+06
   8.568384e+05  -2.550201e+06
   2.942293e+06  -6.641878e+05
   1.330587e+06   1.171365e+06
  -1.619127e+06   1.493785e+06
  -2.802638e+06   7.820146e+04
  -1.561160e+06  -2.028817e+06
   4.360962e+05  -2.979117e+06
   1.405142e+06  -1.606045e+06
   9.273070e+05   9.011140e+05
  -1.262147e+05   1.735871e+06
  -4.926361e+05  -1.607451e+05
   3.553041e+05  -2.315680e+06
   1.530573e+06  -1.659328e+06
   1.456765e+06   1.265454e+06
  -3.033540e+05   2.742746e+06
  -2.177310e+06   6.874830e+05
  -2.038357e+06  -2.640868e+06
   4.571677e+05  -3.511966e+06
   3.291252e+06  -1.100961e+06
   3.918203e+06   2.063495e+06
   1.635482e+06   3.250422e+06
  -1.719750e+06   1.985449e+06
  -3.344273e+06  -2.499279e+05
  -1.998542e+06  -1.643026e+06
   7.951134e+05  -1.330600e+06
   2.253263e+06   9.307482e+04
   1.216831e+06   1.098743e+06
  -7.184376e+05   7.129408e+05
  -1.207630e+06  -4.283697e+05
   7.766806e+04  -8.749210e+05
   1.251013e+06  -1.189014e+05
   6.445355e+05   9.195100e+05
  -1.226170e+06   1.079829e+06
  -2.341350e+06   7.697927e+04
  -1.370765e+06  -1.520152e+06
   1.098383e+06  -2.741383e+06
   3.234092e+06  -2.562513e+06
   3.571991e+06  -6.115513e+05
   2.142432e+06   2.050241e+06
   2.844052e+05   3.495090e+06
  -6.659423e+05   2.870428e+06
  -5.937239e+05   1.366876e+06
  -4.669169e+05   6.799083e+05
  -1.028286e+06   8.937081e+05
  -1.893461e+06   6.586023e+05
  -2.062845e+06  -6.780547e+05
  -1.079153e+06  -2.003078e+06
   5.038315e+05  -1.803162e+06
   1.597435e+06  -3.774232e+04
   1.364152e+06   1.776775e+06
  -1.645131e+05   2.112212e+06
  -1.925088e+06   7.731773e+05
  -2.505670e+06  -1.116937e+06
  -1.442655e+06  -2.195208e+06
   2.159845e+05  -1.985892e+06
   1.040157e+06  -1.147696e+06
   8.771860e+05  -6.431823e+05
   8.961722e+05  -6.816522e+05
   1.857492e+06  -5.913472e+05
   2.883150e+06   2.798894e+05
   2.415712e+06   1.732281e+06
   1.851734e+05   2.834736e+06
  -2.257288e+06   2.724040e+06
  -3.043365e+06   1.301085e+06
  -1.791880e+06  -5.971647e+05
   1.383386e+05  -1.675428e+06
   1.027490e+06  -1.211935e+06
   3.638933e+05   1.390046e+05
  -8.478264e+05   8.677562e+05
  -1.238492e+06   2.501971e+05
  -4.865110e+05  -7.785454e+05
   4.587495e+05  -8.017481e+05
   5.092666e+05   2.127888e+05
  -3.845053e+05   8.064252e+05
  -1.252946e+06  -1.174080e+05
  -1.116703e+06  -1.858677e+06
   1.569351e+05  -2.667666e+06
   1.800896e+06  -1.644310e+06
   2.700675e+06   4.269457e+05
   2.162425e+06   1.975667e+06
   5.247646e+05   2.079012e+06
  -9.563441e+05   1.084095e+06
  -1.184827e+06   1.057884e+05
  -3.502507e+05  -2.828808e+04
   2.700813e+05   5.150585e+05
  -1.956839e+05   8.560267e+05
  -1.169782e+06   4.125944e+05
  -1.356251e+06  -4.500661e+05
  -3.647033e+05  -8.683141e+05
   7.679859e+05  -4.652173e+05
   7.541292e+05   2.791729e+05
  -4.860024e+05   5.760002e+05
  -1.698894e+06   6.976970e+04
  -1.566090e+06  -9.068229e+05
  -2.731521e+04  -1.598338e+06
   1.630276e+06  -1.372638e+06
   1.989364e+06  -2.866861e+05
   8.574153e+05   8.023800e+05
  -5.773048e+05   9.478485e+05
  -9.565092e+05   1.177966e+05
  -7.670499e+04  -6.848102e+05
   1.029217e+06  -5.103928e+05
   1.231982e+06   4.556090e+05
   3.923998e+05   1.137378e+06
  -6.385096e+05   8.328434e+05
  -9.224974e+05  -3.553472e+04
  -3.041270e+05  -4.853894e+05
   4.774275e+05  -7.131116e+04
   4.952679e+05   7.097938e+05
  -4.240213e+05   9.858714e+05
  -1.423065e+06   3.587625e+05
  -1.424000e+06  -7.413445e+05
  -2.945165e+05  -1.436834e+06
   9.441195e+05  -1.174429e+06
   1.193113e+06  -2.243305e+05
   4.225312e+05   5.739544e+05
  -4.196141e+05   6.120313e+05
  -5.222606e+05   6.309760e+04
   5.070417e+03  -3.848697e+05
   4.421552e+05  -2.999374e+05
   3.075118e+05   6.704168e+04
  -1.939017e+05   1.328093e+05
  -4.314354e+05  -3.112756e+05
   2.205635e+04  -8.088042e+05
   9.227129e+05  -6.800950e+05
   1.475838e+06   2.434768e+05
   1.054521e+06   1.348216e+06
  -1.225727e+05   1.751839e+06
  -1.140838e+06   1.129148e+06
  -1.302136e+06   1.870230e+04
  -7.840570e+05  -7.124203e+05
  -2.983977e+05  -6.909971e+05
  -2.293078e+05  -3.024053e+05
  -2.992030e+05  -1.699856e+05
  -4.618754e+04  -4.475682e+05
   5.628089e+05  -6.756941e+05
   1.049962e+06  -3.304680e+05
   8.663530e+05   5.211611e+05
  -8.014109e+04   1.161092e+06
  -1.219386e+06   8.763991e+05
  -1.655993e+06  -2.851713e+05
  -9.075929e+05  -1.449697e+06
   5.727034e+05  -1.681653e+06
   1.704377e+06  -8.461826e+05
   1.733138e+06   3.091572e+05
   8.715488e+05   9.232469e+05
  -3.097504e+04   8.170209e+05
  -3.652463e+05   5.105487e+05
  -2.358546e+05   5.328129e+05
  -1.572937e+05   8.217811e+05
  -4.342407e+05   8.365621e+05
  -8.593181e+05   2.106527e+05
  -9.389558e+05  -7.673940e+05
  -4.049621e+05  -1.352360e+06
   4.429281e+05  -1.033718e+06
   9.272060e+05  -4.006853e+04
   6.251002e+05   8.460284e+05
  -1.699367e+05   9.847285e+05
  -7.105939e+05   4.053957e+05
  -5.629957e+05  -3.210125e+05
  -3.490185e+04  -6.672630e+05
   2.253492e+05  -5.745952e+05
  -8.017021e+03  -3.529781e+05
  -2.876340e+05  -2.690159e+05
  -2.962131e+04  -2.875247e+05
   7.645635e+05  -1.789518e+05
   1.401208e+06   1.868401e+05
   1.160651e+06   6.689104e+05
   7.566950e+04   9.485629e+05
  -1.014928e+06   7.949000e+05
  -1.259811e+06   2.841186e+05
  -6.259859e+05  -2.196350e+05
   1.354090e+05  -3.496317e+05
   3.291304e+05  -7.691708e+04
  -1.529548e+04   2.313687e+05
  -3.542722e+05   1.705091e+05
  -3.335595e+05  -2.430001e+05
  -1.016167e+05  -5.453707e+05
   8.837005e+03  -3.528640e+05
  -1.035147e+05   1.303956e+05
  -2.590074e+05   2.910974e+05
  -2.143332e+05  -1.524351e+05
   1.330859e+05  -7.387324e+05
   6.277225e+05  -7.528877e+05
   8.710510e+05  -7.343320e+04
   5.148882e+05   6.547850e+05
  -2.907369e+05   7.358932e+05
  -8.419541e+05   1.650287e+05
  -5.186162e+05  -4.319254e+05
   4.718216e+05  -4.879083e+05
   1.174386e+06  -4.030335e+02
   8.452376e+05   5.767061e+05
  -2.456732e+05   7.815984e+05
  -1.085142e+06   4.849619e+05
  -9.617172e+05  -5.328078e+04
  -1.487710e+05  -3.853209e+05
   4.497702e+05  -2.418255e+05
   2.490583e+05   1.810371e+05
  -4.576807e+05   3.412227e+05
  -8.460143e+05  -1.115609e+05
  -4.173415e+05  -8.807433e+05
   5.031273e+05  -1.203007e+06
   1.108962e+06  -5.948801e+05
   9.099991e+05   5.694182e+05
   1.500445e+05   1.314158e+06
  -5.238882e+05   9.880710e+05
  -6.839413e+05  -6.602776e+04
  -3.778514e+05  -8.486554e+05
   7.760245e+04  -7.394427e+05
   3.832921e+05  -9.446292e+04
   3.929629e+05   2.780932e+05
   1.774440e+05   1.125841e+05
   1.149929e+04  -8.599196e+04
   1.218072e+05   1.776850e+05
   3.465676e+05   6.811486e+05
   2.172344e+05   7.889032e+05
  -4.358540e+05   3.004489e+05
  -1.085727e+06  -3.259814e+05
  -1.000138e+06  -5.919968e+05
  -1.469601e+05  -4.911196e+05
   6.716771e+05  -3.081706e+05
   7.319812e+05  -1.627463e+05
   2.132909e+05   5.605950e+03
  -1.257828e+05   1.604636e+05
   4.248178e+04   1.775145e+05
   2.635815e+05   9.951331e+04
   1.062169e+04   1.019409e+05
  -5.532828e+05   1.525824e+05
  -7.503707e+05  -2.549260e+04
  -2.150193e+05  -4.947680e+05
   6.724698e+05  -8.186870e+05
   1.185345e+06  -4.996357e+05
   9.415861e+05   3.522914e+05
   1.769081e+05   1.030443e+06
  -5.352664e+05   9.735422e+05
  -7.596954e+05   3.462169e+05
  -4.866459e+05  -2.029646e+05
  -6.878645e+04  -2.595944e+05
   1.105123e+05  -1.310123e+04
  -3.430573e+04   5.540858e+04
  -2.473944e+05  -2.432390e+05
  -2.070603e+05  -5.816652e+05
   1.422465e+05  -4.785515e+05
   5.085473e+05   1.286088e+05
   5.012325e+05   7.319418e+05
   1.522869e+04   7.440391e+05
  -5.863709e+05   1.232330e+05
  -7.335250e+05  -5.771268e+05
  -2.126438e+05  -7.873613e+05
   5.284155e+05  -4.461808e+05
   7.800430e+05   7.286472e+04
   3.469796e+05   4.032544e+05
  -2.067747e+05   4.348052e+05
  -2.248448e+05   2.495091e+05
   2.353345e+05   2.358182e+04
   4.848471e+05  -2.105835e+04
   8.652248e+04   2.135070e+05
  -5.957576e+05   4.994863e+05
  -8.603672e+05   4.297541e+05
  -4.938648e+05  -8.864281e+04
   7.535640e+04  -6.074685e+05
   3.526396e+05  -5.937526e+05
   2.564912e+05  -7.389224e+04
   1.204275e+04   3.711466e+05
  -1.853437e+05   2.863401e+05
  -2.614912e+05  -1.542811e+05
  -1.764358e+05  -4.199345e+05
   5.445497e+04  -2.657888e+05
   2.823172e+05   5.355811e+04
   3.245297e+05   1.702936e+05
   1.726149e+05   3.946728e+04
   2.493438e+03  -7.241336e+04
  -5.303013e+04   4.720618e+04
  -5.608884e+04   2.919528e+05
  -1.354579e+05   3.521114e+05
  -2.680743e+05   7.219744e+04
  -2.716490e+05  -3.368892e+05
  -2.808562e+04  -4.828302e+05
   3.218546e+05  -2.053111e+05
   4.506255e+05   2.371050e+05
   1.599874e+05   4.363131e+05
  -3.533194e+05   2.557738e+05
  -6.113531e+05  -7.907320e+04
  -3.320017e+05  -2.757381e+05
   2.155208e+05  -2.532196e+05
   4.528877e+05  -1.193139e+05
   1.441871e+05  -2.434555e+03
  -3.061681e+05   1.475846e+04
  -3.197989e+05  -9.832070e+04
   1.622882e+05  -2.460193e+05
   6.087665e+05  -1.995265e+05
