
 $NMID
 id='ANONYMOUS ', fmtdat='(2E16.6)'
 volume=1.0
 tramp=1.0
 $END
  -5.639397e+07  -2.873720e+06
  -3.205899e+07  -3.700607e+07
   9.663535e+06  -3.793704e+07
   2.856662e+07  -1.293583e+07
   1.606287e+07   8.251524e+06
  -3.971944e+06   9.177825e+06
  -9.767868e+06  -1.980980e+06
  -2.063810e+06  -9.997953e+06
   6.870341e+06  -8.822411e+06
   9.766814e+06  -1.308173e+06
   6.591936e+06   6.538240e+06
   3.396090e+05   8.528570e+06
  -4.075069e+06   2.543118e+06
  -2.253626e+06  -5.423607e+06
   4.162797e+06  -6.170792e+06
   7.770241e+06   1.847515e+06
   3.818478e+06   1.042853e+07
  -4.452589e+06   1.153755e+07
  -1.039383e+07   5.363147e+06
  -1.069959e+07  -2.553259e+06
  -6.326510e+06  -7.795493e+06
  -3.393474e+05  -8.777346e+06
   3.301985e+06  -6.044493e+06
   2.241352e+06  -2.595686e+06
  -7.914532e+05  -2.016712e+06
  -6.877629e+04  -3.964197e+06
   5.400743e+06  -4.039624e+06
   9.455941e+06  -7.042750e+04
   6.769502e+06   4.377000e+06
   1.232589e+05   5.008696e+06
  -3.656443e+06   2.421145e+06
  -2.417489e+06   4.794545e+04
   4.886900e+05  -7.312809e+05
   2.053569e+06  -3.569000e+05
   2.012047e+06   1.364049e+06
   5.697749e+05   3.779211e+06
  -1.912473e+06   3.760647e+06
  -3.276969e+06  -1.406352e+05
  -1.643230e+06  -3.684173e+06
   8.316400e+05  -2.018947e+06
   2.608271e+05   2.295000e+06
  -2.530084e+06   2.079835e+06
  -2.234148e+06  -3.345796e+06
   2.845827e+06  -6.015211e+06
   7.120120e+06  -6.431110e+05
   4.795671e+06   7.234815e+06
  -2.396667e+06   8.462750e+06
  -7.543452e+06   2.027024e+06
  -6.599028e+06  -4.812024e+06
  -1.408562e+06  -6.064756e+06
   3.609404e+06  -2.421232e+06
   5.052702e+06   1.879935e+06
   2.117783e+06   3.622249e+06
  -2.573874e+06   2.030611e+06
  -4.451320e+06  -1.205019e+06
  -1.764131e+06  -2.843024e+06
   1.795393e+06  -1.267941e+06
   1.629494e+06   1.131178e+06
  -1.446507e+06   8.017786e+05
  -2.387522e+06  -2.000366e+06
   8.960282e+05  -3.507347e+06
   4.833284e+06  -1.651779e+06
   5.244189e+06   1.715788e+06
   2.071137e+06   4.132338e+06
  -2.044940e+06   5.107068e+06
  -5.133225e+06   4.502725e+06
  -6.168867e+06   1.427670e+06
  -4.387321e+06  -3.310171e+06
  -6.250400e+05  -6.117185e+06
   2.147630e+06  -4.579632e+06
   1.872965e+06  -1.028072e+06
   1.211236e+05   3.736290e+05
  -1.022303e+05  -8.964339e+05
   1.540179e+06  -1.698965e+06
   2.706502e+06  -1.793486e+05
   1.884636e+06   1.894803e+06
  -3.667283e+04   2.031636e+06
  -1.450876e+06   1.130647e+05
  -1.477593e+06  -2.073424e+06
   1.448804e+05  -2.836188e+06
   2.769252e+06  -1.495995e+06
   4.338585e+06   1.358314e+06
   3.020984e+06   3.863876e+06
  -2.303541e+05   4.215415e+06
  -2.415692e+06   2.613894e+06
  -2.315826e+06   1.010388e+06
  -1.874362e+06   5.384507e+05
  -2.917888e+06   2.639939e+05
  -4.206645e+06  -1.025063e+06
  -3.232124e+06  -2.920561e+06
   1.289469e+05  -4.030134e+06
   3.346986e+06  -3.604179e+06
   4.163690e+06  -1.839341e+06
   2.562130e+06   5.219741e+05
   1.806760e+05   2.167913e+06
  -1.145476e+06   1.832108e+06
  -5.486363e+05  -5.090233e+04
   1.123707e+06  -1.216456e+06
   1.894735e+06  -2.825860e+05
   8.515465e+05   1.234081e+06
  -5.569040e+05   1.050217e+06
  -3.655648e+05  -4.189953e+05
   1.141157e+06  -5.786601e+05
   1.758088e+06   1.477745e+06
   3.375361e+05   3.535076e+06
  -1.901872e+06   3.208476e+06
  -3.204760e+06   7.763363e+05
  -3.091434e+06  -1.702693e+06
  -1.961779e+06  -2.833147e+06
  -2.465138e+05  -2.536987e+06
   1.285604e+06  -1.341642e+06
   1.539124e+06  -1.343237e+05
   4.777028e+05   7.524421e+04
  -3.016303e+05  -7.585457e+05
   4.984291e+05  -1.301076e+06
   1.926242e+06  -4.529199e+05
   1.949049e+06   1.017663e+06
   2.774929e+05   1.431285e+06
  -1.190755e+06   4.771833e+05
  -8.189777e+05  -5.093514e+05
   8.858359e+05  -4.212287e+05
   2.087432e+06   5.028477e+05
   1.560526e+06   1.448177e+06
  -4.049272e+05   1.876049e+06
  -2.359341e+06   1.436629e+06
  -2.721681e+06   8.005442e+04
  -1.114378e+06  -1.326807e+06
   9.995079e+05  -1.433800e+06
   1.561877e+06  -9.711228e+04
   1.449770e+05   1.080950e+06
  -1.534536e+06   6.308014e+05
  -1.630386e+06  -8.878191e+05
  -1.995385e+05  -1.644994e+06
   1.156198e+06  -8.629147e+05
   1.207203e+06   4.191809e+05
   1.680107e+05   7.951338e+05
  -7.994820e+05   2.769896e+02
  -6.618817e+05  -1.081034e+06
   6.455837e+05  -1.361419e+06
   1.994814e+06  -4.140422e+05
   1.930154e+06   1.150062e+06
   2.453138e+05   2.058945e+06
  -1.523823e+06   1.517932e+06
  -1.708564e+06   8.512054e+04
  -4.251742e+05  -8.901665e+05
   7.036360e+05  -7.373985e+05
   6.090735e+05  -3.308822e+04
  -1.566699e+05   3.198592e+05
  -4.765108e+05   1.404366e+05
  -6.975257e+04  -7.149416e+04
   4.623463e+05   1.390323e+05
   4.542170e+05   7.239776e+05
  -3.002577e+05   1.156326e+06
  -1.418627e+06   7.817711e+05
  -2.010166e+06  -5.423222e+05
  -1.310941e+06  -1.995291e+06
   3.659512e+05  -2.346194e+06
   1.667572e+06  -1.255337e+06
   1.623479e+06   2.509713e+05
   7.449752e+05   9.155690e+05
   2.506708e+05   6.100758e+05
   4.727483e+05   2.108466e+05
   6.246162e+05   3.525621e+05
   4.749245e+04   7.717021e+05
  -9.245189e+05   8.196646e+05
  -1.431611e+06   2.064476e+05
  -9.546430e+05  -7.703732e+05
   3.569528e+05  -1.385378e+06
   1.750183e+06  -9.175916e+05
   2.154489e+06   6.229119e+05
   9.580845e+05   2.131274e+06
  -1.161630e+06   2.251656e+06
  -2.570381e+06   8.298551e+05
  -2.245390e+06  -8.228313e+05
  -8.110377e+05  -1.375273e+06
   2.863658e+05  -8.817376e+05
   3.945821e+05  -4.411715e+05
   8.302860e+04  -7.285288e+05
   1.599485e+05  -1.292249e+06
   7.405094e+05  -1.236146e+06
   1.295774e+06  -2.378358e+05
   1.244512e+06   1.135563e+06
   4.281649e+05   1.883063e+06
  -6.936451e+05   1.364045e+06
  -1.253351e+06  -8.903201e+04
  -7.063772e+05  -1.318146e+06
   4.896049e+05  -1.343470e+06
   1.187711e+06  -3.015341e+05
   7.557430e+05   7.688745e+05
  -2.111620e+05   1.066689e+06
  -6.064582e+05   7.296705e+05
  -1.244050e+05   3.893730e+05
   4.075358e+05   3.467668e+05
   3.835015e+04   3.744775e+05
  -1.147115e+06   1.300992e+05
  -2.011232e+06  -4.588189e+05
  -1.516157e+06  -1.125543e+06
   1.457236e+05  -1.417449e+06
   1.647340e+06  -1.024592e+06
   1.817106e+06  -1.419459e+05
   7.788402e+05   5.640633e+05
  -3.001538e+05   5.539694e+05
  -5.108346e+05  -9.787664e+03
  -1.476556e+04  -4.293204e+05
   4.383669e+05  -2.294698e+05
   4.530126e+05   3.623742e+05
   2.251492e+05   7.127168e+05
   8.553608e+04   4.700629e+05
   1.390615e+05  -6.823465e+04
   2.754248e+05  -2.470893e+05
   2.505004e+05   2.469175e+05
  -1.878847e+05   9.456337e+05
  -9.440147e+05   9.908571e+05
  -1.366754e+06   1.068270e+05
  -8.045843e+05  -9.411035e+05
   4.720774e+05  -1.110131e+06
   1.262899e+06  -2.787490e+05
   6.853641e+05   5.955262e+05
  -7.322896e+05   5.857569e+05
  -1.535087e+06  -2.067761e+05
  -8.955209e+05  -9.148139e+05
   5.607474e+05  -9.166016e+05
   1.488902e+06  -3.373744e+05
   1.169800e+06   2.841559e+05
   8.496853e+04   5.050904e+05
  -6.550365e+05   2.101345e+05
  -3.668358e+05  -3.185274e+05
   5.885781e+05  -4.882011e+05
   1.152591e+06   1.269546e+05
   6.128900e+05   1.180240e+06
  -6.421583e+05   1.639278e+06
  -1.484063e+06   7.998444e+05
  -1.184347e+06  -8.001757e+05
  -9.849520e+04  -1.753674e+06
   7.984014e+05  -1.203778e+06
   8.877727e+05   2.465485e+05
   3.297994e+05   1.192245e+06
  -2.992221e+05   9.183633e+05
  -5.621117e+05   3.753118e+04
  -4.121550e+05  -3.918811e+05
  -1.285984e+05  -1.373326e+05
  -6.205076e+04   8.341071e+04
  -2.892118e+05  -3.189876e+05
  -4.537667e+05  -9.789172e+05
  -9.505708e+04  -1.059139e+06
   7.527510e+05  -3.395685e+05
   1.407327e+06   5.383175e+05
   1.173309e+06   8.914222e+05
   1.369735e+05   6.982797e+05
  -8.320847e+05   3.628325e+05
  -9.618449e+05   1.119140e+05
  -3.704900e+05  -8.675633e+04
   1.448142e+05  -2.145871e+05
   7.672142e+04  -1.838408e+05
  -2.207294e+05  -8.992147e+04
  -5.503158e+04  -1.305588e+05
   6.234784e+05  -2.073321e+05
   1.026505e+06   5.598509e+04
   4.362579e+05   7.041319e+05
  -8.513672e+05   1.127752e+06
  -1.723527e+06   6.774118e+05
  -1.400072e+06  -4.738062e+05
  -2.110414e+05  -1.382796e+06
   8.293098e+05  -1.317891e+06
   1.054184e+06  -4.971600e+05
   6.240467e+05   2.405936e+05
   1.281183e+05   3.577245e+05
  -4.140871e+04   8.205955e+04
   9.192446e+04   1.161706e+04
   2.587746e+05   3.858670e+05
   1.866115e+05   8.034329e+05
  -2.015886e+05   6.632912e+05
  -6.532418e+05  -1.269319e+05
  -6.987417e+05  -9.419898e+05
  -1.044529e+05  -1.018472e+06
   7.261406e+05  -2.420725e+05
   9.904426e+05   7.204848e+05
   3.139130e+05   1.084269e+06
  -7.233774e+05   6.567179e+05
  -1.109104e+06  -1.146815e+05
  -5.124269e+05  -6.490607e+05
   3.149840e+05  -6.834831e+05
   4.185293e+05  -3.502386e+05
  -2.083592e+05  -7.725301e+03
  -6.285961e+05   1.353874e+04
  -1.407396e+05  -3.147299e+05
   8.398026e+05  -6.206964e+05
   1.286708e+06  -4.438826e+05
   7.713999e+05   2.358719e+05
  -1.317246e+05   8.597369e+05
  -6.099415e+05   8.261590e+05
  -4.579739e+05   1.636075e+05
  -4.879338e+04  -4.571653e+05
   2.473487e+05  -4.339060e+05
   3.358704e+05   1.291454e+05
   2.275615e+05   5.753212e+05
  -6.228765e+04   4.442846e+05
  -3.820205e+05  -4.743951e+04
  -4.639519e+05  -3.179010e+05
  -2.334006e+05  -1.249243e+05
   4.284277e+04   1.730486e+05
   7.975866e+04   9.717233e+04
  -3.980083e+04  -3.260162e+05
   1.054841e+04  -5.708900e+05
   3.015147e+05  -2.579036e+05
   4.742832e+05   3.530707e+05
   1.821479e+05   6.356262e+05
  -3.968219e+05   3.062308e+05
  -6.600032e+05  -2.805636e+05
  -2.405534e+05  -5.592190e+05
   5.223679e+05  -3.408953e+05
   8.803085e+05   9.696110e+04
   4.626793e+05   3.894225e+05
  -3.046351e+05   4.040335e+05
  -6.442567e+05   2.264519e+05
  -2.719148e+05   1.269042e+04
   3.054204e+05  -7.894131e+04
   3.820024e+05   4.242804e+04
  -1.470027e+05   2.557654e+05
  -6.899965e+05   2.358713e+05
