
 $NMID
 id='ANONYMOUS ', fmtdat='(2E16.6)'
 volume=1.0
 tramp=1.0
 $END
  -4.579056e+07   6.484096e+05
  -2.883824e+07  -2.650953e+07
   4.191797e+06  -3.080519e+07
   2.187717e+07  -1.398121e+07
   1.444463e+07   3.864336e+06
  -1.747362e+06   7.888950e+06
  -8.459194e+06   2.649337e+05
  -3.488869e+06  -7.916199e+06
   4.413913e+06  -8.917733e+06
   8.117585e+06  -2.647151e+06
   6.146600e+06   5.222680e+06
   7.563794e+05   7.610227e+06
  -3.489743e+06   2.195604e+06
  -2.436409e+06  -5.261939e+06
   3.015315e+06  -6.330086e+06
   6.781795e+06   5.753217e+05
   4.207379e+06   8.482124e+06
  -2.757620e+06   1.010458e+07
  -8.301363e+06   5.061188e+06
  -8.826260e+06  -1.774817e+06
  -5.099417e+06  -6.052141e+06
  -4.367319e+05  -6.539640e+06
   1.739323e+06  -4.515041e+06
   3.891511e+05  -2.641302e+06
  -1.549383e+06  -2.948542e+06
   1.947251e+05  -4.385564e+06
   5.509516e+06  -3.700416e+06
   8.861641e+06   1.079529e+05
   5.966630e+06   3.891075e+06
  -4.049655e+05   4.258756e+06
  -3.835417e+06   1.697906e+06
  -2.053673e+06  -7.640614e+05
   1.513164e+06  -1.332859e+06
   3.044719e+06  -1.287823e+05
   2.054014e+06   2.140649e+06
  -1.041104e+04   3.959663e+06
  -1.818083e+06   3.065733e+06
  -2.228734e+06  -5.426913e+05
  -8.615104e+05  -2.951942e+06
   5.896114e+05  -9.111548e+05
  -1.669240e+05   2.776206e+06
  -2.368187e+06   2.308289e+06
  -2.328340e+06  -2.549497e+06
   1.414272e+06  -5.209836e+06
   5.157753e+06  -1.200401e+06
   4.222398e+06   5.341427e+06
  -1.172455e+06   6.943375e+06
  -6.106905e+06   2.119169e+06
  -6.349330e+06  -3.745287e+06
  -2.079619e+06  -5.441701e+06
   3.050443e+06  -2.784210e+06
   5.090512e+06   1.032066e+06
   2.649455e+06   3.023850e+06
  -1.829292e+06   2.112917e+06
  -3.953135e+06  -5.251356e+05
  -1.890357e+06  -2.191719e+06
   1.387103e+06  -1.227382e+06
   1.742661e+06   8.613858e+05
  -8.018046e+05   1.148048e+06
  -2.281037e+06  -8.397961e+05
  -2.196411e+05  -2.560772e+06
   3.278049e+06  -1.893618e+06
   4.474823e+06   5.938284e+05
   2.228045e+06   3.132890e+06
  -1.662664e+06   4.610381e+06
  -4.793248e+06   4.226453e+06
  -5.622777e+06   1.322626e+06
  -3.825579e+06  -2.990221e+06
  -6.847813e+05  -5.574348e+06
   1.457578e+06  -4.488574e+06
   1.413287e+06  -1.605665e+06
   4.951590e+05  -2.747044e+05
   7.112979e+05  -9.918224e+05
   2.074739e+06  -1.270762e+06
   2.774139e+06   3.840691e+05
   1.685598e+06   2.356405e+06
  -3.969961e+05   2.280095e+06
  -1.882838e+06   4.384679e+04
  -1.726561e+06  -2.343203e+06
   1.664933e+05  -2.949841e+06
   2.736846e+06  -1.349295e+06
   3.993759e+06   1.377429e+06
   2.664971e+06   3.417171e+06
  -1.152197e+05   3.548312e+06
  -1.857018e+06   2.241025e+06
  -1.773058e+06   1.081633e+06
  -1.611141e+06   8.348581e+05
  -2.848031e+06   6.236404e+05
  -4.260826e+06  -6.485895e+05
  -3.447598e+06  -2.689007e+06
  -1.266001e+05  -4.107723e+06
   3.284934e+06  -3.841922e+06
   4.271409e+06  -1.912948e+06
   2.568190e+06   6.602707e+05
   3.319687e+03   2.274339e+06
  -1.287584e+06   1.789452e+06
  -5.279449e+05  -1.189600e+05
   1.164973e+06  -1.248613e+06
   1.849648e+06  -3.562947e+05
   8.035960e+05   1.161111e+06
  -6.059488e+05   1.106847e+06
  -5.669520e+05  -3.873244e+05
   8.844448e+05  -9.341324e+05
   1.905402e+06   8.025301e+05
   1.094064e+06   3.203319e+06
  -1.061218e+06   3.689358e+06
  -3.011273e+06   1.675312e+06
  -3.611203e+06  -1.169564e+06
  -2.595633e+06  -2.903659e+06
  -5.115282e+05  -2.812950e+06
   1.333201e+06  -1.472662e+06
   1.629943e+06  -1.552778e+05
   4.965587e+05   5.273115e+04
  -3.592848e+05  -7.565498e+05
   3.690478e+05  -1.296190e+06
   1.818410e+06  -5.706410e+05
   2.001171e+06   8.098989e+05
   4.351291e+05   1.361391e+06
  -1.163171e+06   5.990959e+05
  -9.738649e+05  -4.671173e+05
   8.203193e+05  -6.581378e+05
   2.331715e+06   1.940066e+05
   1.952592e+06   1.409894e+06
  -1.844718e+05   2.139014e+06
  -2.382714e+06   1.753178e+06
  -2.829947e+06   2.786209e+05
  -1.211336e+06  -1.239075e+06
   8.946864e+05  -1.431972e+06
   1.479941e+06  -1.687873e+05
   1.493231e+05   1.034651e+06
  -1.515145e+06   7.122742e+05
  -1.740538e+06  -7.624002e+05
  -4.087629e+05  -1.672661e+06
   1.054477e+06  -1.069769e+06
   1.306385e+06   2.279449e+05
   3.217973e+05   7.683428e+05
  -7.568999e+05   7.123978e+04
  -7.130171e+05  -1.052816e+06
   6.155982e+05  -1.412387e+06
   2.035404e+06  -4.949470e+05
   2.025000e+06   1.094442e+06
   3.666520e+05   2.084092e+06
  -1.438618e+06   1.647056e+06
  -1.736770e+06   2.295359e+05
  -5.357346e+05  -8.694428e+05
   6.578185e+05  -8.304100e+05
   6.882107e+05  -5.962405e+04
  -9.497940e+04   4.545214e+05
  -5.801511e+05   2.849415e+05
  -2.591721e+05  -1.106119e+05
   3.976812e+05  -4.860588e+04
   5.725756e+05   5.924956e+05
  -1.481395e+05   1.190657e+06
  -1.382703e+06   9.145728e+05
  -2.101341e+06  -4.256639e+05
  -1.457207e+06  -1.973571e+06
   2.491496e+05  -2.466278e+06
   1.670859e+06  -1.475362e+06
   1.781738e+06   1.052410e+05
   9.479973e+05   9.909197e+05
   3.240603e+05   8.151716e+05
   3.909587e+05   3.071993e+05
   5.440690e+05   2.762591e+05
   7.954437e+04   7.120253e+05
  -8.689055e+05   9.244199e+05
  -1.495534e+06   3.615263e+05
  -1.121880e+06  -7.692060e+05
   2.347971e+05  -1.560253e+06
   1.772539e+06  -1.123882e+06
   2.307170e+06   5.020011e+05
   1.174957e+06   2.131266e+06
  -9.761217e+05   2.391544e+06
  -2.540907e+06   1.077480e+06
  -2.422656e+06  -6.208828e+05
  -1.062786e+06  -1.378884e+06
   1.738566e+05  -1.056467e+06
   4.769907e+05  -5.882608e+05
   2.042355e+05  -7.347444e+05
   1.667522e+05  -1.241647e+06
   6.652375e+05  -1.246114e+06
   1.274266e+06  -2.959816e+05
   1.324772e+06   1.114932e+06
   5.324965e+05   1.930060e+06
  -6.575380e+05   1.448452e+06
  -1.313293e+06  -2.692913e+03
  -8.350603e+05  -1.278264e+06
   3.538243e+05  -1.413256e+06
   1.127160e+06  -4.751702e+05
   8.215687e+05   6.110582e+05
  -5.664903e+04   1.041371e+06
  -4.639066e+05   8.126091e+05
  -5.954430e+04   4.627820e+05
   4.156336e+05   3.625942e+05
   4.417939e+04   3.957973e+05
  -1.136934e+06   2.165968e+05
  -2.046222e+06  -3.344167e+05
  -1.631619e+06  -1.037629e+06
  -7.069926e+03  -1.420294e+06
   1.555701e+06  -1.129550e+06
   1.842336e+06  -3.049796e+05
   8.711892e+05   4.396973e+05
  -2.364578e+05   5.438803e+05
  -5.038476e+05   6.153648e+04
  -1.058801e+04  -3.799178e+05
   4.734978e+05  -2.401976e+05
   4.753563e+05   3.524559e+05
   1.927901e+05   7.430239e+05
   4.123361e+04   4.828411e+05
   1.521820e+05  -1.302652e+05
   3.347054e+05  -3.324590e+05
   2.878184e+05   2.343761e+05
  -1.836329e+05   1.012858e+06
  -9.200177e+05   1.061465e+06
  -1.316228e+06   1.371902e+05
  -7.921623e+05  -9.295406e+05
   4.264112e+05  -1.102143e+06
   1.236536e+06  -2.834029e+05
   7.270665e+05   6.053222e+05
  -7.086338e+05   6.626461e+05
  -1.639337e+06  -9.094262e+04
  -1.082034e+06  -8.863791e+05
   4.603681e+05  -1.049979e+06
   1.554492e+06  -5.382925e+05
   1.303436e+06   1.788852e+05
   1.545009e+05   5.408185e+05
  -6.617646e+05   2.911740e+05
  -3.739516e+05  -2.851160e+05
   6.197104e+05  -4.965595e+05
   1.191160e+06   1.312781e+05
   6.221652e+05   1.219960e+06
  -6.677072e+05   1.698200e+06
  -1.539509e+06   8.473399e+05
  -1.264477e+06  -8.046044e+05
  -1.753964e+05  -1.838948e+06
   7.774382e+05  -1.335463e+06
   9.560795e+05   1.649706e+05
   4.556168e+05   1.223987e+06
  -2.032306e+05   1.015293e+06
  -5.668565e+05   9.685438e+04
  -4.969989e+05  -4.031716e+05
  -1.931947e+05  -1.580354e+05
  -4.129907e+04   1.082995e+05
  -2.434509e+05  -2.760797e+05
  -4.939814e+05  -9.811337e+05
  -2.154341e+05  -1.117669e+06
   6.955026e+05  -4.090142e+05
   1.506159e+06   4.958759e+05
   1.329873e+06   8.775889e+05
   1.856007e+05   7.096039e+05
  -9.040720e+05   4.083803e+05
  -1.020187e+06   1.822500e+05
  -3.478648e+05  -3.713442e+04
   1.615864e+05  -2.233508e+05
   1.039349e+04  -2.319904e+05
  -2.990881e+05  -1.254235e+05
  -3.645052e+04  -1.357532e+05
   7.111021e+05  -2.117667e+05
   1.061245e+06   3.439310e+04
   3.856270e+05   6.956133e+05
  -9.002406e+05   1.163829e+06
  -1.716293e+06   7.304206e+05
  -1.390024e+06  -4.674019e+05
  -2.485008e+05  -1.440236e+06
   7.894526e+05  -1.384299e+06
   1.071774e+06  -5.143632e+05
   6.658480e+05   2.635074e+05
   1.187985e+05   3.636078e+05
  -9.463212e+04   4.283839e+04
   7.807048e+04  -3.875590e+04
   3.177561e+05   3.731996e+05
   2.535872e+05   8.301654e+05
  -1.958684e+05   6.826376e+05
  -6.939955e+05  -1.524345e+05
  -7.203483e+05  -9.936710e+05
  -7.572759e+04  -1.042335e+06
   7.803626e+05  -2.135600e+05
   1.031530e+06   7.686822e+05
   3.251724e+05   1.108943e+06
  -7.342965e+05   6.616473e+05
  -1.124425e+06  -9.375782e+04
  -5.241627e+05  -6.091114e+05
   2.928447e+05  -6.647070e+05
   3.685267e+05  -3.703384e+05
  -2.727564e+05  -2.722188e+04
  -6.676429e+05   2.693024e+04
  -1.389626e+05  -3.091879e+05
   8.505890e+05  -6.851270e+05
   1.275282e+06  -5.576458e+05
   7.568988e+05   1.661589e+05
  -1.082848e+05   8.753594e+05
  -5.508992e+05   8.620386e+05
  -4.090306e+05   1.497324e+05
  -3.483461e+04  -4.949899e+05
   2.498174e+05  -4.278002e+05
   3.530311e+05   1.739934e+05
   2.489498e+05   5.912775e+05
  -5.901816e+04   4.155061e+05
  -3.947494e+05  -5.832997e+04
  -4.784077e+05  -2.760379e+05
  -2.491929e+05  -8.886793e+04
   2.768780e+04   1.354037e+05
   9.230383e+04   1.348734e+04
   2.222569e+04  -3.652969e+05
   8.914430e+04  -5.281981e+05
   3.297346e+05  -1.806118e+05
   4.308078e+05   4.072025e+05
   1.178082e+05   6.552079e+05
  -4.265008e+05   3.038434e+05
  -6.577293e+05  -3.010849e+05
  -2.404766e+05  -5.920464e+05
   5.148213e+05  -3.657047e+05
   8.850872e+05   9.191921e+04
   4.783358e+05   3.890322e+05
  -2.997200e+05   3.907314e+05
  -6.437720e+05   2.098081e+05
  -2.401253e+05   1.725987e+04
   3.692681e+05  -4.511663e+04
   4.164545e+05   9.214407e+04
  -1.944990e+05   3.022091e+05
  -7.869930e+05   2.597915e+05
