
 $NMID
 id='ANONYMOUS ', fmtdat='(2E16.6)'
 volume=1.0
 tramp=1.0
 $END
   4.080830e+07   3.085117e+05
   2.419812e+07   2.583530e+07
  -5.925763e+06   2.769472e+07
  -2.022577e+07   1.006521e+07
  -1.173793e+07  -5.590448e+06
   2.653290e+06  -6.711684e+06
   7.052657e+06   1.222846e+06
   1.699659e+06   7.134191e+06
  -4.710585e+06   6.459789e+06
  -6.967592e+06   1.170955e+06
  -4.932733e+06  -4.483038e+06
  -5.239907e+05  -6.088979e+06
   2.838232e+06  -1.976213e+06
   1.790401e+06   3.760588e+06
  -2.792889e+06   4.496950e+06
  -5.626942e+06  -1.123195e+06
  -3.043670e+06  -7.379728e+06
   2.861745e+06  -8.423233e+06
   7.319533e+06  -4.187795e+06
   7.808164e+06   1.485999e+06
   4.847847e+06   5.432655e+06
   5.331774e+05   6.375902e+06
  -2.254050e+06   4.499312e+06
  -1.630546e+06   1.885829e+06
   5.977172e+05   1.308286e+06
   2.332007e+05   2.775703e+06
  -3.663229e+06   3.100670e+06
  -6.742245e+06   4.231300e+05
  -5.018167e+06  -2.887418e+06
  -3.107338e+05  -3.610670e+06
   2.493648e+06  -1.918026e+06
   1.754179e+06  -1.858212e+05
  -2.245565e+05   5.092617e+05
  -1.365913e+06   3.706047e+05
  -1.489837e+06  -8.244442e+05
  -6.011201e+05  -2.650175e+06
   1.227401e+06  -2.790571e+06
   2.416208e+06  -4.038236e+04
   1.355366e+06   2.616967e+06
  -5.503664e+05   1.544878e+06
  -3.178832e+05  -1.584853e+06
   1.718008e+06  -1.550492e+06
   1.689897e+06   2.342235e+06
  -1.907894e+06   4.405973e+06
  -5.160029e+06   6.521267e+05
  -3.687312e+06  -5.095024e+06
   1.491452e+06  -6.181765e+06
   5.372975e+06  -1.695585e+06
   4.859615e+06   3.237308e+06
   1.169823e+06   4.274660e+06
  -2.497537e+06   1.816048e+06
  -3.631331e+06  -1.199151e+06
  -1.587607e+06  -2.518275e+06
   1.799889e+06  -1.517371e+06
   3.224734e+06   7.421159e+05
   1.337665e+06   1.992584e+06
  -1.254470e+06   9.632251e+05
  -1.183722e+06  -7.560666e+05
   1.036924e+06  -5.843105e+05
   1.754473e+06   1.416507e+06
  -6.036374e+05   2.571335e+06
  -3.475414e+06   1.309459e+06
  -3.819001e+06  -1.112821e+06
  -1.596472e+06  -2.920354e+06
   1.287352e+06  -3.727752e+06
   3.489842e+06  -3.404434e+06
   4.356660e+06  -1.250399e+06
   3.274151e+06   2.207695e+06
   6.671298e+05   4.348034e+06
  -1.397170e+06   3.320184e+06
  -1.310695e+06   7.466509e+05
  -5.810181e+04  -3.036831e+05
   1.737301e+05   6.390474e+05
  -9.899151e+05   1.307540e+06
  -1.914774e+06   2.789668e+05
  -1.433300e+06  -1.234944e+06
  -8.702668e+04  -1.427118e+06
   9.899092e+05  -1.507953e+05
   1.112928e+06   1.383795e+06
   1.255819e+04   2.005026e+06
  -1.907302e+06   1.178674e+06
  -3.152515e+06  -7.967038e+05
  -2.309778e+06  -2.659298e+06
   1.984977e+04  -3.043957e+06
   1.659172e+06  -1.963938e+06
   1.641450e+06  -7.899722e+05
   1.320929e+06  -4.261647e+05
   2.053977e+06  -2.715350e+05
   3.006812e+06   5.894550e+05
   2.381268e+06   1.955034e+06
   4.805920e+04   2.847184e+06
  -2.228520e+06   2.662941e+06
  -2.865693e+06   1.461786e+06
  -1.836584e+06  -2.580151e+05
  -2.290201e+05  -1.522774e+06
   7.286885e+05  -1.348115e+06
   3.933348e+05   9.566531e+03
  -7.439838e+05   9.035195e+05
  -1.332449e+06   2.676099e+05
  -6.535973e+05  -8.470056e+05
   3.481150e+05  -7.617769e+05
   2.586572e+05   2.809310e+05
  -7.986444e+05   4.212833e+05
  -1.277842e+06  -1.027854e+06
  -3.112859e+05  -2.501019e+06
   1.277782e+06  -2.291657e+06
   2.236221e+06  -6.004194e+05
   2.203918e+06   1.116232e+06
   1.451235e+06   1.910892e+06
   2.584462e+05   1.759454e+06
  -8.512228e+05   9.908438e+05
  -1.076779e+06   1.555823e+05
  -3.392114e+05  -3.593934e+04
   2.386792e+05   5.242490e+05
  -3.122127e+05   9.385366e+05
  -1.352215e+06   3.847501e+05
  -1.411579e+06  -6.594979e+05
  -2.386959e+05  -1.004882e+06
   8.241535e+05  -3.742984e+05
   5.867001e+05   3.288702e+05
  -6.112457e+05   3.129668e+05
  -1.472270e+06  -2.938205e+05
  -1.129858e+06  -9.594821e+05
   2.254301e+05  -1.318989e+06
   1.606003e+06  -1.085037e+06
   1.911294e+06  -1.498133e+05
   8.315815e+05   9.006823e+05
  -6.597325e+05   1.052369e+06
  -1.107026e+06   1.227175e+05
  -1.437547e+05  -7.631748e+05
   1.061633e+06  -4.999249e+05
   1.177915e+06   5.724070e+05
   1.897393e+05   1.150512e+06
  -7.887446e+05   6.378810e+05
  -8.595119e+05  -2.626587e+05
  -1.373915e+05  -5.554761e+05
   5.680359e+05  -2.507563e+04
   5.064103e+05   7.406754e+05
  -4.050688e+05   9.845942e+05
  -1.391290e+06   3.657654e+05
  -1.403034e+06  -7.410796e+05
  -2.453110e+05  -1.443711e+06
   1.023521e+06  -1.122533e+06
   1.201210e+06  -1.163849e+05
   3.267330e+05   6.130147e+05
  -4.710710e+05   5.413712e+05
  -4.231178e+05   4.671921e+04
   1.006718e+05  -2.207604e+05
   3.208727e+05  -1.086933e+05
   3.797266e+04   4.112374e+04
  -3.342650e+05  -9.637600e+04
  -3.380769e+05  -5.028389e+05
   1.785722e+05  -8.247728e+05
   9.739556e+05  -5.979341e+05
   1.434955e+06   3.125586e+05
   9.943930e+05   1.360077e+06
  -1.739582e+05   1.663622e+06
  -1.126809e+06   9.367968e+05
  -1.143851e+06  -1.224502e+05
  -5.487259e+05  -6.090362e+05
  -1.995859e+05  -4.043935e+05
  -3.513307e+05  -1.246788e+05
  -4.609607e+05  -2.327095e+05
  -6.022665e+04  -5.485954e+05
   6.247328e+05  -6.072238e+05
   9.973863e+05  -1.913228e+05
   6.928581e+05   5.047805e+05
  -2.046157e+05   9.786161e+05
  -1.197320e+06   7.024216e+05
  -1.535343e+06  -3.630877e+05
  -7.447371e+05  -1.467108e+06
   7.460635e+05  -1.625016e+06
   1.784746e+06  -6.681623e+05
   1.603991e+06   5.070166e+05
   6.082667e+05   9.366638e+05
  -1.736690e+05   6.194535e+05
  -2.526582e+05   3.177702e+05
  -2.047585e+04   5.209037e+05
  -6.298626e+04   9.252957e+05
  -4.815374e+05   9.019582e+05
  -9.086231e+05   2.141907e+05
  -9.188761e+05  -7.552068e+05
  -3.696493e+05  -1.310621e+06
   4.387982e+05  -9.855336e+05
   8.844130e+05   1.954768e+04
   5.408398e+05   9.061737e+05
  -3.033300e+05   9.621886e+05
  -8.304751e+05   2.451371e+05
  -5.569382e+05  -5.259292e+05
   1.203866e+05  -7.624886e+05
   4.104269e+05  -5.310457e+05
   7.651868e+04  -2.734652e+05
  -3.018063e+05  -2.280925e+05
  -4.180795e+04  -2.618142e+05
   8.061579e+05  -1.300736e+05
   1.436736e+06   2.550934e+05
   1.106716e+06   7.421046e+05
  -5.961985e+04   1.006061e+06
  -1.131318e+06   7.799277e+05
  -1.275737e+06   1.593482e+05
  -5.637951e+05  -3.768608e+05
   1.960105e+05  -4.035428e+05
   3.612153e+05  -7.327509e+03
   2.668599e+04   3.073652e+05
  -2.983406e+05   1.794956e+05
  -3.329769e+05  -2.391195e+05
  -1.905305e+05  -4.939692e+05
  -8.276656e+04  -3.292798e+05
  -9.352792e+04   4.910714e+04
  -1.789498e+05   1.801295e+05
  -1.838571e+05  -1.652543e+05
   9.493009e+04  -6.714626e+05
   6.300020e+05  -7.325030e+05
   9.668776e+05  -1.258842e+05
   6.073300e+05   6.358699e+05
  -2.944341e+05   8.042300e+05
  -8.851684e+05   2.460335e+05
  -5.054761e+05  -3.931341e+05
   4.958395e+05  -4.368823e+05
   1.084403e+06   9.331396e+04
   6.545659e+05   6.111606e+05
  -3.663974e+05   6.584141e+05
  -1.031771e+06   2.826192e+05
  -8.267047e+05  -1.610302e+05
  -7.515292e+04  -3.500771e+05
   4.534046e+05  -1.681731e+05
   2.709986e+05   2.136350e+05
  -3.949168e+05   3.686758e+05
  -8.180197e+05  -4.356339e+04
  -4.802629e+05  -8.082043e+05
   3.871332e+05  -1.181592e+06
   1.013971e+06  -6.218185e+05
   8.636192e+05   5.181198e+05
   1.341071e+05   1.229437e+06
  -5.171190e+05   8.727262e+05
  -6.312010e+05  -1.448599e+05
  -2.709124e+05  -8.261886e+05
   1.815464e+05  -6.523784e+05
   3.949715e+05  -4.401587e+04
   3.006643e+05   2.587336e+05
   9.170787e+04   8.929223e+04
   4.182184e+04  -5.910821e+04
   2.200755e+05   2.187801e+05
   3.565232e+05   6.742908e+05
   1.004399e+05   7.391396e+05
  -5.228047e+05   2.633269e+05
  -1.008816e+06  -3.273405e+05
  -8.529679e+05  -5.831255e+05
  -1.207420e+05  -4.871515e+05
   5.682605e+05  -2.873141e+05
   6.705814e+05  -1.125296e+05
   2.665397e+05   5.125637e+04
  -9.260201e+04   1.572320e+05
  -5.143129e+04   1.280578e+05
   1.542733e+05   5.066731e+04
   4.566194e+04   9.022634e+04
  -4.262349e+05   1.726028e+05
  -7.257684e+05  -3.933044e+02
  -3.403493e+05  -4.830469e+05
   5.539133e+05  -8.299184e+05
   1.193182e+06  -5.428867e+05
   1.010490e+06   2.811982e+05
   2.018231e+05   9.654232e+05
  -5.372891e+05   9.595477e+05
  -7.251036e+05   3.923299e+05
  -4.483847e+05  -1.432182e+05
  -1.055984e+05  -2.479516e+05
   2.263283e+04  -6.386633e+04
  -6.566124e+04  -8.882425e+03
  -1.934254e+05  -2.628955e+05
  -1.588478e+05  -5.580755e+05
   1.167737e+05  -4.758615e+05
   4.647240e+05   6.141938e+04
   5.309463e+05   6.349688e+05
   1.166607e+05   7.156182e+05
  -5.008389e+05   2.031912e+05
  -7.271587e+05  -4.665951e+05
  -2.643819e+05  -7.531419e+05
   4.853991e+05  -4.931536e+05
   7.881042e+05   3.902718e+04
   3.865582e+05   4.423570e+05
  -1.983003e+05   4.973193e+05
  -2.861489e+05   2.618243e+05
   1.430802e+05  -5.505008e+03
   4.411437e+05  -3.395052e+04
   1.120280e+05   2.177723e+05
  -5.680987e+05   4.674931e+05
  -8.922457e+05   3.555060e+05
  -5.551927e+05  -1.425314e+05
   6.107502e+04  -6.121500e+05
   4.033932e+05  -6.048502e+05
   3.219681e+05  -1.339602e+05
   5.432816e+04   3.190152e+05
  -1.580094e+05   3.174375e+05
  -2.423636e+05  -7.435685e+04
  -1.822999e+05  -3.967034e+05
   2.747775e+04  -3.192099e+05
   2.715240e+05   1.748275e+04
   3.389861e+05   2.099020e+05
   1.681937e+05   8.183926e+04
  -3.759744e+04  -1.241157e+05
  -5.766554e+04  -7.206594e+04
   4.665673e+04   2.273326e+05
   2.035043e+04   4.095012e+05
  -2.025988e+05   2.011050e+05
  -3.541375e+05  -2.278961e+05
  -1.593902e+05  -4.425514e+05
   2.666127e+05  -2.331436e+05
   4.788581e+05   1.711443e+05
   1.928969e+05   3.838705e+05
  -3.565654e+05   2.597337e+05
  -6.265690e+05  -3.440477e+04
  -3.416001e+05  -2.572725e+05
   2.004662e+05  -2.989629e+05
   4.475919e+05  -1.869187e+05
   1.944449e+05  -1.867910e+04
  -2.087195e+05   7.179380e+04
  -2.703402e+05  -1.043372e+04
   8.936904e+04  -1.840771e+05
   4.710826e+05  -1.940490e+05
