
 $NMID
 id='ANONYMOUS ', fmtdat='(2E16.6)'
 volume=1.0
 tramp=1.0
 $END
   4.577231e+07  -1.451576e+06
   2.908137e+07   2.653195e+07
  -4.110571e+06   3.103273e+07
  -2.185119e+07   1.378839e+07
  -1.426516e+07  -4.213857e+06
   1.924132e+06  -7.864866e+06
   8.377865e+06   1.206723e+04
   3.244419e+06   7.927509e+06
  -4.519440e+06   8.604156e+06
  -8.027003e+06   2.457687e+06
  -6.075809e+06  -5.054346e+06
  -8.380942e+05  -7.376305e+06
   3.354843e+06  -2.247724e+06
   2.388323e+06   4.957293e+06
  -2.958033e+06   6.063303e+06
  -6.692675e+06  -6.163490e+05
  -4.184488e+06  -8.348403e+06
   2.653439e+06  -9.995993e+06
   8.147501e+06  -5.149121e+06
   8.822814e+06   1.533089e+06
   5.321346e+06   5.913145e+06
   6.567437e+05   6.668178e+06
  -1.814272e+06   4.714545e+06
  -7.193533e+05   2.560862e+06
   1.333300e+06   2.555133e+06
  -2.347125e+04   4.037967e+06
  -5.066033e+06   3.710616e+06
  -8.494317e+06   1.890046e+05
  -5.926333e+06  -3.602223e+06
   1.349492e+05  -4.177656e+06
   3.514150e+06  -1.849253e+06
   2.006983e+06   4.748291e+05
  -1.186441e+06   1.116474e+06
  -2.629845e+06   2.120713e+05
  -1.945102e+06  -1.779795e+06
  -2.179237e+05  -3.655086e+06
   1.619829e+06  -3.093789e+06
   2.329703e+06   3.183349e+05
   1.093976e+06   2.896089e+06
  -5.421512e+05   1.139594e+06
   6.542029e+03  -2.494984e+06
   2.216983e+06  -2.194871e+06
   2.269598e+06   2.532007e+06
  -1.497628e+06   5.200264e+06
  -5.312529e+06   1.222433e+06
  -4.338217e+06  -5.345210e+06
   1.140255e+06  -6.990004e+06
   6.042888e+06  -2.202717e+06
   6.195402e+06   3.602259e+06
   1.977610e+06   5.250872e+06
  -2.951433e+06   2.642918e+06
  -4.855266e+06  -1.040767e+06
  -2.471782e+06  -2.941048e+06
   1.855608e+06  -2.044481e+06
   3.885405e+06   5.366283e+05
   1.827759e+06   2.175615e+06
  -1.376405e+06   1.216353e+06
  -1.647641e+06  -8.377753e+05
   8.973267e+05  -1.049350e+06
   2.247216e+06   1.001635e+06
   5.037599e+04   2.680037e+06
  -3.414641e+06   1.883778e+06
  -4.459039e+06  -6.677931e+05
  -2.190004e+06  -3.131177e+06
   1.506773e+06  -4.521148e+06
   4.467081e+06  -4.191846e+06
   5.385311e+06  -1.446455e+06
   3.829081e+06   2.765590e+06
   8.007911e+05   5.362455e+06
  -1.411333e+06   4.315369e+06
  -1.414991e+06   1.431952e+06
  -3.917253e+05   1.066727e+05
  -4.569749e+05   9.038267e+05
  -1.785687e+06   1.335114e+06
  -2.592275e+06  -1.623641e+05
  -1.677508e+06  -2.067302e+06
   2.473218e+05  -2.089314e+06
   1.675680e+06  -8.404201e+04
   1.619459e+06   2.117850e+06
  -8.325191e+04   2.759787e+06
  -2.548577e+06   1.377262e+06
  -3.880038e+06  -1.175264e+06
  -2.702836e+06  -3.237217e+06
   1.190304e+04  -3.504633e+06
   1.800713e+06  -2.271352e+06
   1.767130e+06  -1.074969e+06
   1.568726e+06  -7.750912e+05
   2.701827e+06  -5.867520e+05
   4.041088e+06   5.841316e+05
   3.284455e+06   2.505160e+06
   1.670742e+05   3.865328e+06
  -3.020167e+06   3.661423e+06
  -3.956066e+06   1.895953e+06
  -2.431810e+06  -5.262289e+05
  -9.752082e+04  -2.114333e+06
   1.134863e+06  -1.721943e+06
   5.022876e+05   8.675237e+04
  -1.061663e+06   1.199595e+06
  -1.751366e+06   3.652900e+05
  -7.998834e+05  -1.091787e+06
   5.393484e+05  -1.042093e+06
   5.020260e+05   3.719735e+05
  -8.881783e+05   8.367826e+05
  -1.819307e+06  -8.688208e+05
  -9.587807e+05  -3.102521e+06
   1.118681e+06  -3.433723e+06
   2.879408e+06  -1.462091e+06
   3.338533e+06   1.150687e+06
   2.374542e+06   2.679505e+06
   4.844692e+05   2.587161e+06
  -1.211472e+06   1.391709e+06
  -1.511480e+06   1.797431e+05
  -4.650347e+05  -4.280192e+04
   3.458477e+05   7.090561e+05
  -3.454273e+05   1.241326e+06
  -1.733150e+06   5.629199e+05
  -1.906822e+06  -7.656285e+05
  -4.094833e+05  -1.299823e+06
   1.099044e+06  -5.690264e+05
   9.009759e+05   4.357619e+05
  -7.826000e+05   5.964365e+05
  -2.165500e+06  -1.998737e+05
  -1.793553e+06  -1.304504e+06
   1.790732e+05  -1.973641e+06
   2.210296e+06  -1.643794e+06
   2.645453e+06  -2.862325e+05
   1.154783e+06   1.162316e+06
  -8.324570e+05   1.378510e+06
  -1.413880e+06   1.826983e+05
  -1.671686e+05  -9.850047e+05
   1.420961e+06  -6.936831e+05
   1.642652e+06   7.090247e+05
   3.781797e+05   1.571399e+06
  -1.002231e+06   9.928465e+05
  -1.225474e+06  -2.324791e+05
  -2.875907e+05  -7.334405e+05
   7.299462e+05  -7.474108e+04
   6.946625e+05   9.848196e+05
  -5.507093e+05   1.342393e+06
  -1.902367e+06   5.037589e+05
  -1.921504e+06  -9.949277e+05
  -3.722071e+05  -1.956251e+06
   1.339333e+06  -1.565128e+06
   1.631273e+06  -2.255936e+05
   5.008425e+05   8.179380e+05
  -6.167959e+05   7.812244e+05
  -6.325296e+05   6.166487e+04
   9.847246e+04  -4.074415e+05
   5.251107e+05  -2.489641e+05
   2.051124e+05   9.787495e+04
  -3.960875e+05   1.969961e+04
  -5.364138e+05  -5.762419e+05
   1.413557e+05  -1.125944e+06
   1.292333e+06  -8.728224e+05
   1.978354e+06   3.741901e+05
   1.395886e+06   1.833052e+06
  -2.010651e+05   2.309598e+06
  -1.545888e+06   1.384193e+06
  -1.652404e+06  -9.311061e+04
  -8.677558e+05  -9.005691e+05
  -2.985153e+05  -7.145210e+05
  -3.904407e+05  -2.508600e+05
  -5.438575e+05  -2.570470e+05
  -9.242866e+04  -6.826116e+05
   8.089077e+05  -8.741924e+05
   1.391179e+06  -3.458710e+05
   1.040972e+06   6.998038e+05
  -2.131494e+05   1.442730e+06
  -1.644038e+06   1.061479e+06
  -2.160287e+06  -4.442710e+05
  -1.117008e+06  -1.989093e+06
   9.050443e+05  -2.260300e+06
   2.386626e+06  -1.029951e+06
   2.270814e+06   5.760852e+05
   9.805712e+05   1.284366e+06
  -1.709633e+05   9.666168e+05
  -4.224931e+05   5.289215e+05
  -1.446444e+05   6.896341e+05
  -1.189220e+05   1.185612e+06
  -6.109469e+05   1.194206e+06
  -1.201177e+06   3.015738e+05
  -1.261846e+06  -1.023933e+06
  -5.279338e+05  -1.799886e+06
   5.936902e+05  -1.365899e+06
   1.229738e+06  -9.773694e+03
   7.952043e+05   1.198914e+06
  -3.301050e+05   1.333713e+06
  -1.073817e+06   4.425528e+05
  -7.857870e+05  -5.933010e+05
   5.843542e+04  -9.982335e+05
   4.527674e+05  -7.686621e+05
   6.335889e+04  -4.246650e+05
  -3.985603e+05  -3.257607e+05
  -5.060898e+04  -3.661754e+05
   1.071916e+06  -2.170489e+05
   1.936600e+06   2.875643e+05
   1.545404e+06   9.594613e+05
   1.098924e+04   1.347930e+06
  -1.462286e+06   1.089607e+06
  -1.732021e+06   2.987042e+05
  -8.197379e+05  -4.252460e+05
   2.213477e+05  -5.253072e+05
   4.788203e+05  -5.626204e+04
   2.519076e+04   3.674498e+05
  -4.306653e+05   2.337153e+05
  -4.521231e+05  -3.219282e+05
  -2.076564e+05  -6.841422e+05
  -6.152406e+04  -4.473175e+05
  -1.400166e+05   1.118577e+05
  -2.976317e+05   2.999364e+05
  -2.711094e+05  -2.164158e+05
   1.480227e+05  -9.435091e+05
   8.459183e+05  -1.012285e+06
   1.249769e+06  -1.642389e+05
   7.764981e+05   8.544206e+05
  -3.800734e+05   1.055097e+06
  -1.162357e+06   3.026865e+05
  -6.909947e+05  -5.497478e+05
   6.590158e+05  -6.272668e+05
   1.529167e+06   7.343986e+04
   1.002293e+06   8.228715e+05
  -4.357632e+05   9.770535e+05
  -1.446634e+06   4.996601e+05
  -1.208668e+06  -1.650361e+05
  -1.421503e+05  -5.014331e+05
   6.194449e+05  -2.735614e+05
   3.612457e+05   2.666606e+05
  -5.631249e+05   4.814801e+05
  -1.116539e+06  -9.169431e+04
  -6.153522e+05  -1.122760e+06
   5.791466e+05  -1.602048e+06
   1.415793e+06  -8.258208e+05
   1.193731e+06   7.264362e+05
   1.929494e+05   1.711529e+06
  -7.082308e+05   1.249968e+06
  -8.947143e+05  -1.518641e+05
  -4.324241e+05  -1.141093e+06
   1.916571e+05  -9.465651e+05
   5.343949e+05  -9.365049e+04
   4.592813e+05   3.690282e+05
   1.701746e+05   1.435014e+05
   4.261743e+04  -9.866665e+04
   2.508432e+05   2.597924e+05
   4.831746e+05   9.123556e+05
   2.019135e+05   1.041444e+06
  -6.616475e+05   3.926617e+05
  -1.411887e+06  -4.413959e+05
  -1.241312e+06  -8.030016e+05
  -1.829021e+05  -6.633964e+05
   8.258490e+05  -3.941238e+05
   9.467030e+05  -1.799771e+05
   3.372741e+05   3.481410e+04
  -1.427742e+05   2.113086e+05
  -2.211272e+04   2.119581e+05
   2.648181e+05   1.068729e+05
   4.259808e+04   1.244194e+05
  -6.434113e+05   2.124270e+05
  -9.938163e+05  -9.773615e+03
  -3.951278e+05  -6.422742e+05
   8.059789e+05  -1.109081e+06
   1.600489e+06  -7.242885e+05
   1.324340e+06   4.012828e+05
   2.619119e+05   1.337961e+06
  -7.176973e+05   1.313153e+06
  -9.914912e+05   5.097521e+05
  -6.233364e+05  -2.267278e+05
  -1.242354e+05  -3.371169e+05
   7.270125e+04  -4.842899e+04
  -7.921907e+04   2.811772e+04
  -2.971830e+05  -3.495559e+05
  -2.449287e+05  -7.733941e+05
   1.680897e+05  -6.444759e+05
   6.467659e+05   1.210379e+05
   6.974980e+05   9.050183e+05
   1.054170e+05   9.715450e+05
  -7.139949e+05   2.255518e+05
  -9.795655e+05  -6.863267e+05
  -3.330299e+05  -1.029664e+06
   6.701645e+05  -6.416714e+05
   1.059127e+06   6.218523e+04
   5.111977e+05   5.686091e+05
  -2.603896e+05   6.403074e+05
  -3.496964e+05   3.584290e+05
   2.408110e+05   1.814855e+04
   6.195119e+05  -3.849321e+04
   1.404239e+05   2.881054e+05
  -7.835284e+05   6.532332e+05
  -1.195698e+06   5.354607e+05
  -7.255723e+05  -1.500857e+05
   8.384576e+04  -8.250831e+05
   5.104232e+05  -8.230059e+05
   3.909534e+05  -1.594137e+05
   4.725574e+04   4.550243e+05
  -2.218607e+05   4.109699e+05
  -3.298507e+05  -1.445758e+05
  -2.449727e+05  -5.473320e+05
   4.238667e+04  -3.996580e+05
   3.694768e+05   4.221178e+04
   4.578416e+05   2.571138e+05
   2.359999e+05   8.608759e+04
  -3.622958e+04  -1.343369e+05
  -9.054603e+04  -3.039398e+04
   8.410052e+02   3.308191e+05
  -4.765448e+04   5.037207e+05
  -2.929729e+05   1.950507e+05
  -4.230096e+05  -3.553410e+05
  -1.428907e+05  -6.040229e+05
   3.857149e+05  -2.964515e+05
   6.266357e+05   2.597310e+05
   2.408347e+05   5.428088e+05
  -4.777296e+05   3.537092e+05
  -8.350159e+05  -6.290822e+04
  -4.576791e+05  -3.539185e+05
   2.713012e+05  -3.796944e+05
   5.989368e+05  -2.194475e+05
   2.330641e+05  -2.423335e+04
  -3.292212e+05   5.590888e+04
  -3.829437e+05  -6.618657e+04
   1.671267e+05  -2.757462e+05
   7.128256e+05  -2.540032e+05
