
 $NMID
 id='ANONYMOUS ', fmtdat='(2E16.6)'
 volume=1.0
 tramp=1.0
 $END
   3.554665e+07   1.360829e+06
   2.132265e+07   2.056159e+07
  -3.794516e+06   2.307428e+07
  -1.676778e+07   1.083938e+07
  -1.105535e+07  -2.349626e+06
   1.184337e+06  -6.001472e+06
   6.566806e+06  -7.070222e+05
   3.087667e+06   5.987209e+06
  -3.106723e+06   7.396895e+06
  -6.336233e+06   2.362429e+06
  -4.867363e+06  -4.414534e+06
  -3.998005e+05  -6.372825e+06
   3.078980e+06  -1.567557e+06
   2.143172e+06   4.712078e+06
  -2.298923e+06   5.424508e+06
  -5.315559e+06  -3.481467e+05
  -3.258438e+06  -6.718356e+06
   2.300463e+06  -7.878949e+06
   6.660804e+06  -3.639929e+06
   6.795787e+06   1.919262e+06
   3.435212e+06   5.055128e+06
  -2.736387e+05   4.852645e+06
  -1.377002e+06   2.937820e+06
   3.787141e+05   1.873413e+06
   1.881656e+06   2.834266e+06
  -2.450029e+05   4.156264e+06
  -5.123792e+06   3.109332e+06
  -7.743829e+06  -4.891211e+05
  -4.820658e+06  -3.639111e+06
   8.887290e+05  -3.681157e+06
   3.786467e+06  -1.208873e+06
   1.907461e+06   1.175399e+06
  -1.669777e+06   1.689809e+06
  -3.197934e+06   1.979163e+05
  -1.953729e+06  -2.281044e+06
   3.519688e+05  -3.736712e+06
   1.839628e+06  -2.336051e+06
   1.617962e+06   1.005466e+06
   1.817701e+05   2.559665e+06
  -7.163346e+05   2.746569e+05
   2.638730e+05  -2.787961e+06
   2.023803e+06  -2.062915e+06
   1.869582e+06   1.984963e+06
  -9.472066e+05   3.959579e+06
  -3.664561e+06   7.463360e+05
  -2.993611e+06  -4.184114e+06
   9.935556e+05  -5.244851e+06
   4.851101e+06  -1.486272e+06
   5.247623e+06   3.053122e+06
   1.892155e+06   4.467020e+06
  -2.471987e+06   2.452746e+06
  -4.351933e+06  -6.598755e+05
  -2.361809e+06  -2.403727e+06
   1.396406e+06  -1.732475e+06
   3.181696e+06   3.985659e+05
   1.529784e+06   1.738559e+06
  -1.132566e+06   9.775056e+05
  -1.531605e+06  -6.856036e+05
   4.038039e+05  -1.029894e+06
   1.720441e+06   3.387060e+05
   3.989629e+05   1.656199e+06
  -2.244382e+06   1.371240e+06
  -3.376934e+06  -3.337166e+05
  -1.743315e+06  -2.372701e+06
   1.525001e+06  -3.745833e+06
   4.260060e+06  -3.443557e+06
   4.814109e+06  -8.820188e+05
   3.021856e+06   2.739898e+06
   3.745347e+05   4.739118e+06
  -1.144147e+06   3.757209e+06
  -9.701022e+05   1.502558e+06
  -4.315883e+05   5.629775e+05
  -9.433378e+05   1.103644e+06
  -2.190802e+06   1.068669e+06
  -2.645448e+06  -5.988547e+05
  -1.502061e+06  -2.391839e+06
   4.986425e+05  -2.245751e+06
   1.908354e+06  -8.395832e+04
   1.684396e+06   2.197071e+06
  -1.940869e+05   2.701414e+06
  -2.505178e+06   1.082421e+06
  -3.394158e+06  -1.406826e+06
  -2.034651e+06  -2.998713e+06
   2.973380e+05  -2.839233e+06
   1.548237e+06  -1.648348e+06
   1.339469e+06  -8.122943e+05
   1.256021e+06  -7.720910e+05
   2.424035e+06  -6.474819e+05
   3.707323e+06   4.716563e+05
   3.052854e+06   2.303315e+06
   1.702917e+05   3.635942e+06
  -2.905481e+06   3.453372e+06
  -3.873862e+06   1.681572e+06
  -2.326349e+06  -7.043713e+05
   8.869074e+04  -2.129311e+06
   1.274068e+06  -1.590896e+06
   4.965443e+05   1.630814e+05
  -1.079815e+06   1.133079e+06
  -1.644690e+06   3.053947e+05
  -6.640536e+05  -1.050254e+06
   5.923008e+05  -1.031912e+06
   6.051419e+05   2.964190e+05
  -6.057015e+05   9.309034e+05
  -1.597280e+06  -4.034842e+05
  -1.168002e+06  -2.546584e+06
   5.401371e+05  -3.279100e+06
   2.413924e+06  -1.779059e+06
   3.281305e+06   7.608128e+05
   2.539995e+06   2.519702e+06
   5.829912e+05   2.570915e+06
  -1.204331e+06   1.348354e+06
  -1.492309e+06   1.289435e+05
  -4.429155e+05  -4.832855e+04
   3.392939e+05   6.703777e+05
  -2.939338e+05   1.129096e+06
  -1.568751e+06   5.105792e+05
  -1.763195e+06  -6.638818e+05
  -4.243429e+05  -1.178684e+06
   1.019575e+06  -5.842168e+05
   9.430284e+05   3.719860e+05
  -6.367218e+05   6.727049e+05
  -2.101594e+06  -2.669435e+03
  -1.883246e+06  -1.171344e+06
   3.639605e+04  -1.967043e+06
   2.090115e+06  -1.666855e+06
   2.532923e+06  -3.041250e+05
   1.079068e+06   1.078294e+06
  -7.887837e+05   1.243119e+06
  -1.283378e+06   1.302094e+05
  -1.095438e+05  -9.179867e+05
   1.343911e+06  -6.479045e+05
   1.566678e+06   6.341729e+05
   4.330540e+05   1.474492e+06
  -8.778097e+05   1.012156e+06
  -1.176786e+06  -1.215593e+05
  -3.468801e+05  -6.599705e+05
   6.425084e+05  -9.456066e+04
   6.489708e+05   9.118002e+05
  -5.291883e+05   1.264613e+06
  -1.811671e+06   4.605935e+05
  -1.814219e+06  -9.583728e+05
  -3.495093e+05  -1.848234e+06
   1.250203e+06  -1.479612e+06
   1.540083e+06  -2.337778e+05
   5.088135e+05   7.673485e+05
  -5.677355e+05   7.730467e+05
  -6.604733e+05   7.302275e+04
   1.673729e+04  -4.593069e+05
   5.275575e+05  -3.484470e+05
   3.311240e+05   6.410052e+04
  -2.652862e+05   1.050527e+05
  -5.110087e+05  -4.392815e+05
   7.316605e+04  -1.023786e+06
   1.189108e+06  -8.362485e+05
   1.869172e+06   3.382097e+05
   1.318997e+06   1.733171e+06
  -1.909206e+05   2.214634e+06
  -1.470608e+06   1.379291e+06
  -1.621372e+06  -3.124435e+04
  -9.256585e+05  -8.955381e+05
  -3.418624e+05  -8.128904e+05
  -3.170944e+05  -3.419264e+05
  -4.165030e+05  -2.308126e+05
  -5.489409e+04  -5.853009e+05
   7.324413e+05  -8.269154e+05
   1.311601e+06  -3.759120e+05
   1.044847e+06   6.558599e+05
  -1.395374e+05   1.421472e+06
  -1.546219e+06   1.061121e+06
  -2.075816e+06  -3.943225e+05
  -1.108004e+06  -1.862659e+06
   7.881345e+05  -2.131402e+06
   2.207699e+06  -1.020992e+06
   2.181433e+06   4.651034e+05
   1.038545e+06   1.195558e+06
  -8.349506e+04   9.951452e+05
  -4.427710e+05   6.000678e+05
  -2.539254e+05   6.757502e+05
  -1.895775e+05   1.074646e+06
  -5.786404e+05   1.080304e+06
  -1.113697e+06   2.603785e+05
  -1.187502e+06  -9.882891e+05
  -4.952813e+05  -1.723957e+06
   5.771672e+05  -1.307131e+06
   1.178391e+06  -2.868332e+04
   7.721438e+05   1.102225e+06
  -2.597119e+05   1.252178e+06
  -9.420546e+05   4.737882e+05
  -7.152863e+05  -4.632162e+05
  -2.120679e+03  -8.755021e+05
   3.364882e+05  -7.241606e+05
   1.594670e+04  -4.345713e+05
  -3.620435e+05  -3.346155e+05
  -3.543917e+04  -3.560816e+05
   9.825563e+05  -2.071692e+05
   1.788695e+06   2.659837e+05
   1.462355e+06   8.809941e+05
   6.035719e+04   1.227864e+06
  -1.329380e+06   1.004057e+06
  -1.619221e+06   3.199324e+05
  -7.869128e+05  -3.252557e+05
   1.892673e+05  -4.564979e+05
   4.271879e+05  -7.847131e+04
  -1.514647e+04   3.067637e+05
  -4.415227e+05   2.074771e+05
  -4.179861e+05  -3.150822e+05
  -1.378422e+05  -6.811579e+05
  -2.993371e+03  -4.427344e+05
  -1.301598e+05   1.439269e+05
  -3.122629e+05   3.437004e+05
  -2.617759e+05  -1.908909e+05
   1.664078e+05  -9.158022e+05
   8.006891e+05  -9.481055e+05
   1.125577e+06  -1.032840e+05
   6.689154e+05   8.298595e+05
  -3.756987e+05   9.484411e+05
  -1.079939e+06   2.185358e+05
  -6.496453e+05  -5.483124e+05
   6.140736e+05  -6.028642e+05
   1.476137e+06   3.897723e+04
   1.025389e+06   7.557552e+05
  -3.523201e+05   9.646855e+05
  -1.379194e+06   5.573847e+05
  -1.196231e+06  -1.051282e+05
  -1.681606e+05  -4.866118e+05
   5.796657e+05  -2.886636e+05
   3.239382e+05   2.397053e+05
  -5.709160e+05   4.362982e+05
  -1.069812e+06  -1.355882e+05
  -5.343008e+05  -1.109439e+06
   6.314846e+05  -1.518728e+06
   1.399224e+06  -7.457723e+05
   1.139178e+06   7.282136e+05
   1.671962e+05   1.657081e+06
  -6.810325e+05   1.225695e+06
  -8.602444e+05  -1.101514e+05
  -4.485650e+05  -1.082243e+06
   1.296510e+05  -9.260439e+05
   4.919673e+05  -1.080269e+05
   4.782359e+05   3.556578e+05
   2.076927e+05   1.428422e+05
   2.418096e+04  -1.048622e+05
   1.761465e+05   2.331458e+05
   4.360491e+05   8.709008e+05
   2.408676e+05   1.002248e+06
  -5.790406e+05   3.727611e+05
  -1.362624e+06  -4.317942e+05
  -1.234293e+06  -7.687227e+05
  -1.751556e+05  -6.256013e+05
   8.372748e+05  -3.753229e+05
   9.219204e+05  -1.858121e+05
   2.833976e+05   1.756698e+04
  -1.567800e+05   2.012793e+05
   2.894810e+04   2.181441e+05
   3.101228e+05   1.206674e+05
   2.154604e+04   1.248521e+05
  -6.772835e+05   1.887528e+05
  -9.494869e+05  -3.531200e+04
  -2.945623e+05  -6.258503e+05
   8.410796e+05  -1.033472e+06
   1.515736e+06  -6.311928e+05
   1.205969e+06   4.428035e+05
   2.157027e+05   1.298645e+06
  -6.922432e+05   1.229408e+06
  -9.604880e+05   4.415647e+05
  -6.074751e+05  -2.505008e+05
  -9.385118e+04  -3.268003e+05
   1.198606e+05  -2.389312e+04
  -5.255454e+04   5.758873e+04
  -3.020066e+05  -3.175734e+05
  -2.478947e+05  -7.399471e+05
   1.806812e+05  -6.084057e+05
   6.362155e+05   1.555067e+05
   6.343915e+05   9.172730e+05
   3.077906e+04   9.395914e+05
  -7.284562e+05   1.638336e+05
  -9.220487e+05  -7.213029e+05
  -2.705764e+05  -9.958907e+05
   6.670452e+05  -5.696606e+05
   9.921054e+05   9.392395e+04
   4.473362e+05   5.229932e+05
  -2.626712e+05   5.640589e+05
  -3.007853e+05   3.214870e+05
   2.781923e+05   3.130911e+04
   6.067724e+05  -2.235284e+04
   1.126170e+05   2.723058e+05
  -7.599380e+05   6.211514e+05
  -1.109960e+06   5.224546e+05
  -6.422331e+05  -1.283754e+05
   1.006036e+05  -7.732824e+05
   4.663970e+05  -7.554011e+05
   3.384314e+05  -1.054418e+05
   1.747294e+04   4.599496e+05
  -2.322783e+05   3.672343e+05
  -3.237477e+05  -1.836535e+05
  -2.198594e+05  -5.313955e+05
   6.506623e+04  -3.477421e+05
   3.555626e+05   6.455152e+04
   4.156680e+05   2.287641e+05
   2.195072e+05   6.156655e+04
  -6.482592e+03  -1.015815e+05
  -7.316995e+04   3.474290e+04
  -5.571772e+04   3.542346e+05
  -1.426000e+05   4.533137e+05
  -3.243741e+05   1.129071e+05
  -3.549839e+05  -4.069548e+05
  -5.562576e+04  -6.019028e+05
   3.994442e+05  -2.611221e+05
   5.739439e+05   2.922087e+05
   2.036242e+05   5.446868e+05
  -4.528317e+05   3.222269e+05
  -7.788015e+05  -9.782554e+04
  -4.208760e+05  -3.508536e+05
   2.730215e+05  -3.291018e+05
   5.752576e+05  -1.600766e+05
   1.934670e+05  -5.547265e+03
  -3.687045e+05   2.410891e+04
  -3.934183e+05  -1.129810e+05
   1.967699e+05  -2.966235e+05
   7.495627e+05  -2.409426e+05
