
 $NMID
 id='ANONYMOUS ', fmtdat='(2E16.6)'
 volume=1.0
 tramp=1.0
 $END
  -4.810974e+07   3.684285e+06
  -3.173867e+07  -2.693360e+07
   3.164474e+06  -3.300581e+07
   2.253142e+07  -1.518588e+07
   1.510330e+07   4.177060e+06
  -1.826879e+06   8.366109e+06
  -8.763012e+06   1.249461e+05
  -3.551417e+06  -8.232433e+06
   4.509172e+06  -9.017806e+06
   8.309081e+06  -2.759845e+06
   6.552644e+06   4.987009e+06
   1.221826e+06   7.594888e+06
  -3.356268e+06   2.551959e+06
  -2.664394e+06  -4.904458e+06
   2.860165e+06  -6.300035e+06
   7.014005e+06   4.466474e+05
   4.678440e+06   8.569640e+06
  -2.400189e+06   1.056251e+07
  -8.328203e+06   5.767376e+06
  -9.361479e+06  -1.155004e+06
  -5.968998e+06  -5.957526e+06
  -1.082818e+06  -7.096704e+06
   1.793833e+06  -5.187780e+06
   9.125321e+05  -2.699406e+06
  -1.310901e+06  -2.388958e+06
  -2.145493e+05  -3.998328e+06
   4.889192e+06  -4.068604e+06
   8.666829e+06  -6.996932e+05
   6.344398e+06   3.368418e+06
   2.212349e+05   4.335960e+06
  -3.382700e+06   2.182076e+06
  -2.083446e+06  -2.123467e+05
   9.859814e+05  -1.049612e+06
   2.473396e+06  -3.540517e+05
   2.031690e+06   1.576909e+06
   5.074277e+05   3.647522e+06
  -1.471443e+06   3.345351e+06
  -2.545858e+06  -8.893401e+04
  -1.425814e+06  -2.964975e+06
   4.859043e+05  -1.376811e+06
   1.787199e+05   2.424910e+06
  -2.165350e+06   2.302553e+06
  -2.448341e+06  -2.576278e+06
   1.445525e+06  -5.522122e+06
   5.653818e+06  -1.495473e+06
   4.831275e+06   5.466083e+06
  -9.352738e+05   7.419649e+06
  -6.235094e+06   2.579140e+06
  -6.529460e+06  -3.484927e+06
  -2.185089e+06  -5.334031e+06
   2.948614e+06  -2.791172e+06
   4.989585e+06   9.358432e+05
   2.598141e+06   2.965263e+06
  -1.883822e+06   2.188297e+06
  -4.065813e+06  -4.225660e+05
  -1.978432e+06  -2.213678e+06
   1.385283e+06  -1.328727e+06
   1.705345e+06   8.048341e+05
  -9.640900e+05   1.075895e+06
  -2.385791e+06  -1.077981e+06
  -4.770868e+04  -2.901609e+06
   3.619420e+06  -2.100263e+06
   4.717455e+06   6.005978e+05
   2.390544e+06   3.226896e+06
  -1.339204e+06   4.751104e+06
  -4.353617e+06   4.532044e+06
  -5.462484e+06   1.780283e+06
  -4.124882e+06  -2.632044e+06
  -1.103736e+06  -5.478770e+06
   1.312421e+06  -4.486544e+06
   1.460698e+06  -1.449981e+06
   3.625395e+05  -6.621622e+03
   2.869614e+05  -8.848902e+05
   1.625943e+06  -1.488746e+06
   2.591387e+06  -6.393579e+04
   1.821414e+06   1.912538e+06
  -8.293359e+04   2.068882e+06
  -1.610442e+06   1.733391e+05
  -1.698629e+06  -2.014613e+06
  -6.489058e+04  -2.774315e+06
   2.502516e+06  -1.555305e+06
   4.044184e+06   9.676794e+05
   2.981946e+06   3.196583e+06
   1.764941e+05   3.665010e+06
  -1.786437e+06   2.476323e+06
  -1.829694e+06   1.186990e+06
  -1.603376e+06   8.237933e+05
  -2.725814e+06   6.735928e+05
  -4.120198e+06  -4.486059e+05
  -3.423513e+06  -2.410611e+06
  -3.243449e+05  -3.894731e+06
   2.882418e+06  -3.819637e+06
   3.885801e+06  -2.107914e+06
   2.480776e+06   3.780757e+05
   2.375754e+05   2.106524e+06
  -1.028757e+06   1.806455e+06
  -5.136704e+05  -4.335749e+04
   1.000290e+06  -1.261014e+06
   1.758560e+06  -4.554956e+05
   8.798572e+05   1.068658e+06
  -4.775386e+05   1.073217e+06
  -4.915716e+05  -3.562766e+05
   9.059024e+05  -8.383988e+05
   1.878619e+06   9.020996e+05
   1.014674e+06   3.169313e+06
  -1.109010e+06   3.480088e+06
  -2.900217e+06   1.484143e+06
  -3.370373e+06  -1.099390e+06
  -2.434067e+06  -2.597942e+06
  -5.702719e+05  -2.554296e+06
   1.150700e+06  -1.447487e+06
   1.506254e+06  -2.555440e+05
   4.716080e+05   2.301573e+04
  -3.768991e+05  -6.989662e+05
   3.036500e+05  -1.276037e+06
   1.741643e+06  -6.450116e+05
   1.965563e+06   7.059136e+05
   4.619908e+05   1.305062e+06
  -1.083555e+06   6.128448e+05
  -9.044953e+05  -4.013794e+05
   7.791613e+05  -6.001094e+05
   2.166037e+06   1.533216e+05
   1.813678e+06   1.245384e+06
  -1.250174e+05   1.966290e+06
  -2.155302e+06   1.722577e+06
  -2.648866e+06   3.919371e+05
  -1.217620e+06  -1.131371e+06
   7.841940e+05  -1.442265e+06
   1.435621e+06  -2.528159e+05
   2.237566e+05   9.924379e+05
  -1.403513e+06   7.629991e+05
  -1.683099e+06  -6.533307e+05
  -4.309419e+05  -1.569709e+06
   9.818664e+05  -1.025968e+06
   1.239193e+06   2.025640e+05
   3.062161e+05   7.314486e+05
  -7.383763e+05   1.007159e+05
  -7.407950e+05  -9.641929e+05
   4.956388e+05  -1.373915e+06
   1.891842e+06  -5.899653e+05
   1.978920e+06   9.190202e+05
   4.572166e+05   1.957843e+06
  -1.290276e+06   1.634527e+06
  -1.638502e+06   2.910570e+05
  -5.345176e+05  -8.052071e+05
   5.895707e+05  -8.079252e+05
   6.213551e+05  -9.164641e+04
  -9.292697e+04   3.914892e+05
  -5.025149e+05   2.479223e+05
  -1.756683e+05  -8.745723e+04
   4.183689e+05  -7.314044e+03
   5.552054e+05   5.844032e+05
  -1.145922e+05   1.145613e+06
  -1.273953e+06   9.264297e+05
  -2.007942e+06  -3.005093e+05
  -1.481593e+06  -1.790781e+06
   1.070555e+05  -2.330634e+06
   1.497688e+06  -1.444362e+06
   1.655195e+06   3.707248e+04
   8.907025e+05   8.600631e+05
   3.229343e+05   6.766733e+05
   4.196842e+05   2.170668e+05
   5.782859e+05   2.450560e+05
   1.224171e+05   6.991364e+05
  -7.893340e+05   9.099260e+05
  -1.385856e+06   3.901203e+05
  -1.060432e+06  -6.633983e+05
   1.698878e+05  -1.445395e+06
   1.612830e+06  -1.120737e+06
   2.185669e+06   3.649017e+05
   1.194545e+06   1.960129e+06
  -8.344618e+05   2.312903e+06
  -2.372190e+06   1.123393e+06
  -2.302197e+06  -5.035609e+05
  -1.016399e+06  -1.253705e+06
   1.459218e+05  -9.598684e+05
   3.899952e+05  -5.303844e+05
   9.076203e+04  -7.018779e+05
   5.694524e+04  -1.214908e+06
   5.696501e+05  -1.240369e+06
   1.204968e+06  -3.576496e+05
   1.316436e+06   9.765532e+05
   6.081630e+05   1.788361e+06
  -5.380114e+05   1.399132e+06
  -1.234806e+06   5.750578e+04
  -8.447881e+05  -1.181442e+06
   2.899648e+05  -1.357358e+06
   1.077234e+06  -4.744523e+05
   8.169316e+05   5.885009e+05
  -3.417733e+04   1.020225e+06
  -4.444406e+05   7.889401e+05
  -5.395089e+04   4.218270e+05
   4.188894e+05   3.082755e+05
   6.790497e+04   3.657761e+05
  -1.078432e+06   2.591281e+05
  -1.971750e+06  -2.158538e+05
  -1.594784e+06  -9.097467e+05
  -5.342802e+04  -1.364767e+06
   1.441885e+06  -1.160481e+06
   1.736118e+06  -3.633297e+05
   8.374932e+05   4.104377e+05
  -2.084231e+05   5.458088e+05
  -4.844784e+05   6.905780e+04
  -4.508979e+04  -3.806052e+05
   4.197710e+05  -2.575461e+05
   4.716982e+05   3.055473e+05
   2.504498e+05   6.782027e+05
   9.261144e+04   4.477477e+05
   1.354552e+05  -1.097113e+05
   2.775556e+05  -3.025926e+05
   2.781088e+05   2.099561e+05
  -1.058102e+05   9.523828e+05
  -8.116959e+05   1.054862e+06
  -1.266261e+06   2.229728e+05
  -8.312128e+05  -8.287733e+05
   3.399482e+05  -1.089544e+06
   1.167334e+06  -3.644952e+05
   7.211351e+05   5.211381e+05
  -6.409527e+05   6.565678e+05
  -1.537265e+06  -1.749632e+04
  -1.026189e+06  -7.901076e+05
   4.107275e+05  -9.909391e+05
   1.431594e+06  -5.448661e+05
   1.211208e+06   1.252825e+05
   1.573312e+05   4.953337e+05
  -6.127057e+05   2.946939e+05
  -3.779645e+05  -2.570912e+05
   5.408399e+05  -5.139508e+05
   1.128786e+06   3.617826e+04
   6.781890e+05   1.099703e+06
  -5.018745e+05   1.642647e+06
  -1.384128e+06   9.004061e+05
  -1.233366e+06  -6.756124e+05
  -2.686790e+05  -1.711220e+06
   6.591049e+05  -1.280540e+06
   9.032592e+05   1.231357e+05
   4.739566e+05   1.129809e+06
  -1.634020e+05   9.523368e+05
  -5.359727e+05   1.111649e+05
  -4.691229e+05  -3.492948e+05
  -1.683450e+05  -1.332830e+05
  -4.157970e+04   9.821487e+04
  -2.749905e+05  -2.575521e+05
  -5.289193e+05  -8.996936e+05
  -2.369466e+05  -1.035549e+06
   6.604495e+05  -4.198517e+05
   1.436749e+06   3.835218e+05
   1.272239e+06   7.542720e+05
   2.103161e+05   6.616786e+05
  -8.054493e+05   4.332103e+05
  -9.409009e+05   2.179017e+05
  -3.476675e+05  -2.676016e+04
   1.309726e+05  -2.200845e+05
   2.302905e+04  -2.084683e+05
  -2.599245e+05  -8.953455e+04
  -5.194486e+04  -1.228143e+05
   6.266661e+05  -2.462219e+05
   1.001550e+06  -3.621538e+04
   4.412421e+05   6.322147e+05
  -7.526873e+05   1.158373e+06
  -1.586978e+06   8.058034e+05
  -1.364299e+06  -3.411968e+05
  -3.261893e+05  -1.333454e+06
   6.686202e+05  -1.355708e+06
   9.763678e+05  -5.630051e+05
   6.355389e+05   1.949649e+05
   1.439717e+05   3.341437e+05
  -6.213442e+04   5.893566e+04
   8.144188e+04  -2.393902e+04
   3.085938e+05   3.416494e+05
   2.755218e+05   7.667418e+05
  -1.386466e+05   6.578915e+05
  -6.540768e+05  -8.584756e+04
  -7.485354e+05  -8.729880e+05
  -1.608153e+05  -9.750538e+05
   7.029020e+05  -2.694026e+05
   1.020416e+06   6.381461e+05
   3.874259e+05   1.022796e+06
  -6.452574e+05   6.832044e+05
  -1.073996e+06  -1.354135e+04
  -5.444603e+05  -5.574049e+05
   2.356317e+05  -6.649138e+05
   3.446549e+05  -3.771602e+05
  -2.344647e+05  -3.083163e+03
  -6.195503e+05   6.759746e+04
  -1.570962e+05  -2.860431e+05
   7.595604e+05  -6.906388e+05
   1.187074e+06  -5.837464e+05
   7.456537e+05   1.272944e+05
  -4.731204e+04   8.379439e+05
  -4.860144e+05   8.539838e+05
  -3.966156e+05   1.836314e+05
  -7.306567e+04  -4.525358e+05
   2.039285e+05  -4.287581e+05
   3.387121e+05   1.224908e+05
   2.721574e+05   5.398447e+05
  -2.337655e+04   4.121052e+05
  -3.744199e+05  -2.230633e+04
  -4.746630e+05  -2.445785e+05
  -2.410349e+05  -8.151891e+04
   4.606312e+04   1.405832e+05
   9.135580e+04   4.040062e+04
  -2.793711e+04  -3.284669e+05
   9.523775e+03  -5.200566e+05
   2.822365e+05  -2.255512e+05
   4.539619e+05   3.296350e+05
   1.860563e+05   6.016739e+05
  -3.711100e+05   3.202102e+05
  -6.485560e+05  -2.283965e+05
  -2.712205e+05  -5.325761e+05
   4.678377e+05  -3.782729e+05
   8.486683e+05   2.269161e+04
   4.790289e+05   3.357535e+05
  -2.565709e+05   4.007652e+05
  -5.960137e+05   2.555477e+05
  -2.405655e+05   3.571590e+04
   3.197794e+05  -7.893943e+04
   3.855377e+05   3.924916e+04
  -1.474003e+05   2.798887e+05
  -6.932557e+05   2.891874e+05
