
 $NMID
 id='ANONYMOUS ', fmtdat='(2E16.6)'
 volume=1.0
 tramp=1.0
 $END
   5.067368e+07  -1.746137e+06
   3.181369e+07   2.994789e+07
  -5.130396e+06   3.446562e+07
  -2.427978e+07   1.451067e+07
  -1.531954e+07  -5.360446e+06
   2.464120e+06  -8.576248e+06
   9.014475e+06   4.885404e+05
   3.105520e+06   8.714721e+06
  -5.158549e+06   8.938270e+06
  -8.707564e+06   2.340658e+06
  -6.587518e+06  -5.435158e+06
  -9.951384e+05  -7.881905e+06
   3.579066e+06  -2.569117e+06
   2.592584e+06   5.048999e+06
  -3.200819e+06   6.267487e+06
  -7.226937e+06  -8.477507e+05
  -4.441395e+06  -9.110892e+06
   2.989770e+06  -1.085921e+07
   8.948405e+06  -5.666619e+06
   9.790350e+06   1.568725e+06
   6.093824e+06   6.535118e+06
   8.402995e+05   7.627855e+06
  -2.275248e+06   5.426696e+06
  -1.296305e+06   2.609686e+06
   1.219963e+06   2.236675e+06
   2.310778e+05   4.011825e+06
  -5.036826e+06   4.132588e+06
  -8.944472e+06   5.756090e+05
  -6.515764e+06  -3.659650e+06
  -2.058128e+05  -4.580693e+06
   3.488144e+06  -2.307551e+06
   2.231034e+06   1.260057e+05
  -7.997565e+05   1.008255e+06
  -2.358232e+06   4.240063e+05
  -2.081758e+06  -1.492660e+06
  -5.749853e+05  -3.719505e+06
   1.605972e+06  -3.497647e+06
   2.798704e+06   1.216681e+05
   1.499573e+06   3.216097e+06
  -6.260188e+05   1.576171e+06
  -2.509419e+05  -2.409708e+06
   2.251952e+06  -2.258945e+06
   2.385579e+06   2.794362e+06
  -1.859035e+06   5.652468e+06
  -6.090649e+06   1.216811e+06
  -4.819473e+06  -6.006913e+06
   1.374257e+06  -7.731023e+06
   6.632675e+06  -2.426008e+06
   6.569644e+06   3.849205e+06
   1.984617e+06   5.529302e+06
  -3.119728e+06   2.695532e+06
  -5.003039e+06  -1.176894e+06
  -2.465446e+06  -3.130047e+06
   2.078896e+06  -2.136634e+06
   4.177206e+06   6.442486e+05
   1.915476e+06   2.390973e+06
  -1.505747e+06   1.312742e+06
  -1.685535e+06  -8.863685e+05
   1.092026e+06  -9.787171e+05
   2.359055e+06   1.347126e+06
  -2.529575e+05   3.054168e+06
  -3.976882e+06   1.944086e+06
  -4.858326e+06  -9.293836e+05
  -2.293983e+06  -3.487180e+06
   1.531646e+06  -4.877670e+06
   4.573319e+06  -4.572904e+06
   5.686657e+06  -1.714312e+06
   4.236786e+06   2.830527e+06
   9.960318e+05   5.682508e+06
  -1.531642e+06   4.517317e+06
  -1.553987e+06   1.320774e+06
  -2.613537e+05  -9.200861e+04
  -1.534148e+05   9.290413e+05
  -1.607356e+06   1.599809e+06
  -2.659945e+06   1.308248e+05
  -1.887682e+06  -1.903209e+06
   3.674365e+04  -2.081169e+06
   1.568480e+06  -1.902711e+05
   1.669416e+06   2.012267e+06
   3.444057e+04   2.804276e+06
  -2.584100e+06   1.568280e+06
  -4.161781e+06  -1.063065e+06
  -3.021092e+06  -3.397718e+06
  -6.308482e+04  -3.842375e+06
   1.976487e+06  -2.524275e+06
   1.971023e+06  -1.134049e+06
   1.671994e+06  -7.450557e+05
   2.773445e+06  -5.760687e+05
   4.151858e+06   5.817696e+05
   3.393666e+06   2.531567e+06
   2.305471e+05   3.937398e+06
  -2.985983e+06   3.796122e+06
  -3.960715e+06   2.079119e+06
  -2.525174e+06  -3.973120e+05
  -2.478586e+05  -2.138444e+06
   1.051340e+06  -1.837954e+06
   5.297854e+05   4.162815e+04
  -1.027701e+06   1.264602e+06
  -1.799764e+06   4.204265e+05
  -8.827465e+05  -1.116771e+06
   4.905825e+05  -1.077224e+06
   4.572353e+05   3.638688e+05
  -9.587573e+05   7.606303e+05
  -1.830705e+06  -1.057381e+06
  -8.294335e+05  -3.252407e+06
   1.301444e+06  -3.386347e+06
   2.952307e+06  -1.293871e+06
   3.286306e+06   1.232407e+06
   2.327754e+06   2.628002e+06
   5.111660e+05   2.541418e+06
  -1.175642e+06   1.434494e+06
  -1.518371e+06   2.388466e+05
  -4.744819e+05  -3.345751e+04
   3.625308e+05   7.137866e+05
  -3.516905e+05   1.286794e+06
  -1.793886e+06   6.022782e+05
  -1.967092e+06  -7.821611e+05
  -4.175581e+05  -1.338058e+06
   1.109743e+06  -5.838401e+05
   8.844547e+05   4.204825e+05
  -7.988319e+05   5.531893e+05
  -2.139036e+06  -2.283247e+05
  -1.754266e+06  -1.277092e+06
   1.800022e+05  -1.938185e+06
   2.195026e+06  -1.664861e+06
   2.669010e+06  -3.297937e+05
   1.198682e+06   1.179190e+06
  -8.385902e+05   1.449219e+06
  -1.474572e+06   2.174261e+05
  -2.088712e+05  -1.021257e+06
   1.438046e+06  -7.393214e+05
   1.675118e+06   7.058995e+05
   3.788236e+05   1.585875e+06
  -1.020285e+06   9.857370e+05
  -1.228490e+06  -2.532401e+05
  -2.712715e+05  -7.447126e+05
   7.564764e+05  -7.648673e+04
   7.288675e+05   9.939826e+05
  -5.267712e+05   1.379700e+06
  -1.921231e+06   5.601474e+05
  -1.979080e+06  -9.686672e+05
  -4.155260e+05  -1.986671e+06
   1.344590e+06  -1.614980e+06
   1.657292e+06  -2.469999e+05
   5.103027e+05   8.245114e+05
  -6.148935e+05   7.936878e+05
  -6.180656e+05   8.359525e+04
   1.032044e+05  -3.696519e+05
   4.879151e+05  -2.255726e+05
   1.463757e+05   7.315025e+04
  -4.255886e+05  -3.583946e+04
  -5.270267e+05  -6.186601e+05
   1.584459e+05  -1.148162e+06
   1.307884e+06  -8.975866e+05
   2.014678e+06   3.508547e+05
   1.452917e+06   1.838705e+06
  -1.574708e+05   2.340520e+06
  -1.531314e+06   1.407510e+06
  -1.645942e+06  -7.912520e+04
  -8.610876e+05  -8.625133e+05
  -3.172598e+05  -6.519869e+05
  -4.438793e+05  -2.145834e+05
  -5.943811e+05  -2.760547e+05
  -1.050043e+05  -7.213613e+05
   8.197037e+05  -8.916376e+05
   1.394394e+06  -3.525981e+05
   1.038785e+06   6.803432e+05
  -2.054014e+05   1.428974e+06
  -1.640609e+06   1.080607e+06
  -2.183224e+06  -4.160405e+05
  -1.147195e+06  -1.998686e+06
   9.080398e+05  -2.304248e+06
   2.420225e+06  -1.061322e+06
   2.290520e+06   5.721806e+05
   9.703324e+05   1.274885e+06
  -1.724989e+05   9.363278e+05
  -3.811706e+05   5.122891e+05
  -8.083576e+04   7.185736e+05
  -7.791363e+04   1.244205e+06
  -6.108039e+05   1.246788e+06
  -1.231330e+06   3.341030e+05
  -1.308842e+06  -1.011883e+06
  -5.760151e+05  -1.813547e+06
   5.696396e+05  -1.397883e+06
   1.241117e+06  -2.816899e+04
   8.163732e+05   1.213827e+06
  -3.352821e+05   1.355829e+06
  -1.103343e+06   4.320153e+05
  -8.011513e+05  -6.349478e+05
   7.894952e+04  -1.032589e+06
   4.843253e+05  -7.727253e+05
   6.849193e+04  -4.113579e+05
  -4.208512e+05  -3.163448e+05
  -6.387343e+04  -3.687470e+05
   1.097292e+06  -2.315339e+05
   1.988572e+06   2.688434e+05
   1.582773e+06   9.578833e+05
   7.029097e+03   1.379530e+06
  -1.493966e+06   1.134823e+06
  -1.757184e+06   3.160222e+05
  -8.220005e+05  -4.467500e+05
   2.319948e+05  -5.500705e+05
   4.908032e+05  -4.993723e+04
   3.807511e+04   3.966168e+05
  -4.237506e+05   2.556431e+05
  -4.704816e+05  -3.182025e+05
  -2.520679e+05  -6.898082e+05
  -9.610544e+04  -4.569904e+05
  -1.333613e+05   9.927118e+04
  -2.712120e+05   2.919815e+05
  -2.724529e+05  -2.174841e+05
   1.183997e+05  -9.546852e+05
   8.411908e+05  -1.046918e+06
   1.298319e+06  -1.998254e+05
   8.346231e+05   8.579018e+05
  -3.704417e+05   1.101795e+06
  -1.196924e+06   3.509967e+05
  -7.187119e+05  -5.365232e+05
   6.613419e+05  -6.430601e+05
   1.537754e+06   5.528343e+04
   9.969612e+05   8.130060e+05
  -4.425562e+05   9.720287e+05
  -1.440662e+06   5.008360e+05
  -1.200040e+06  -1.564180e+05
  -1.423207e+05  -4.957172e+05
   6.216826e+05  -2.765625e+05
   3.774372e+05   2.726601e+05
  -5.516484e+05   5.150135e+05
  -1.140847e+06  -5.056636e+04
  -6.739930e+05  -1.120860e+06
   5.269013e+05  -1.653999e+06
   1.408369e+06  -8.897594e+05
   1.230151e+06   7.000256e+05
   2.389594e+05   1.724573e+06
  -6.854690e+05   1.267775e+06
  -8.998959e+05  -1.492202e+05
  -4.446732e+05  -1.143133e+06
   1.918106e+05  -9.433708e+05
   5.424891e+05  -9.487992e+04
   4.574938e+05   3.553088e+05
   1.589567e+05   1.306965e+05
   4.604265e+04  -9.362851e+04
   2.815321e+05   2.762641e+05
   5.174763e+05   9.201399e+05
   2.074642e+05   1.039355e+06
  -6.841149e+05   4.015154e+05
  -1.435359e+06  -4.132960e+05
  -1.253915e+06  -7.794558e+05
  -1.960606e+05  -6.711758e+05
   8.100833e+05  -4.245672e+05
   9.456585e+05  -1.984416e+05
   3.543299e+05   4.248169e+04
  -1.330143e+05   2.212378e+05
  -3.557977e+04   1.992525e+05
   2.511370e+05   8.407950e+04
   5.467495e+04   1.258139e+05
  -6.250813e+05   2.453429e+05
  -1.011671e+06   2.011540e+04
  -4.478532e+05  -6.538900e+05
   7.719103e+05  -1.163177e+06
   1.624081e+06  -7.860128e+05
   1.383725e+06   3.689463e+05
   3.085241e+05   1.348493e+06
  -7.033286e+05   1.354652e+06
  -9.971308e+05   5.560383e+05
  -6.373252e+05  -2.012027e+05
  -1.434958e+05  -3.414443e+05
   5.683035e+04  -6.905509e+04
  -8.275401e+04   1.339220e+04
  -2.975594e+05  -3.508963e+05
  -2.584456e+05  -7.752835e+05
   1.507057e+05  -6.632632e+05
   6.581462e+05   9.015570e+04
   7.473672e+05   8.885141e+05
   1.554915e+05   9.913711e+05
  -7.108070e+05   2.716638e+05
  -1.023635e+06  -6.532091e+05
  -3.781859e+05  -1.040820e+06
   6.640875e+05  -6.849253e+05
   1.088054e+06   3.254513e+04
   5.410714e+05   5.813493e+05
  -2.544699e+05   6.747822e+05
  -3.638553e+05   3.720523e+05
   2.280009e+05  -5.063216e+02
   6.233097e+05  -5.940605e+04
   1.555065e+05   2.942841e+05
  -7.770880e+05   6.801947e+05
  -1.211390e+06   5.551015e+05
  -7.549759e+05  -1.537585e+05
   6.385716e+04  -8.473034e+05
   5.153777e+05  -8.514594e+05
   4.155312e+05  -1.805290e+05
   7.221453e+04   4.553316e+05
  -2.136390e+05   4.342035e+05
  -3.421134e+05  -1.206338e+05
  -2.658503e+05  -5.489578e+05
   3.211256e+04  -4.236585e+05
   3.787843e+05   2.559242e+04
   4.741030e+05   2.623998e+05
   2.390280e+05   9.199125e+04
  -4.531178e+04  -1.512123e+05
  -8.530242e+04  -5.660954e+04
   3.679409e+04   3.309933e+05
  -5.875786e+03   5.407796e+05
  -2.897473e+05   2.405134e+05
  -4.675497e+05  -3.348106e+05
  -1.928204e+05  -6.147922e+05
   3.769931e+05  -3.222299e+05
   6.577061e+05   2.383602e+05
   2.697961e+05   5.397728e+05
  -4.812883e+05   3.728902e+05
  -8.615568e+05  -3.629758e+04
  -4.793428e+05  -3.477319e+05
   2.685106e+05  -4.058205e+05
   6.109387e+05  -2.539300e+05
   2.505411e+05  -3.010359e+04
  -3.169660e+05   8.516765e+04
  -3.881897e+05  -3.486424e+04
   1.429806e+05  -2.768928e+05
   6.906863e+05  -2.850438e+05
