
 $NMID
 id='ANONYMOUS ', fmtdat='(2E16.6)'
 volume=1.0
 tramp=1.0
 $END
  -3.715964e+07  -5.914996e+05
  -2.308977e+07  -2.083244e+07
   3.094268e+06  -2.431959e+07
   1.734416e+07  -1.209984e+07
   1.197756e+07   1.944068e+06
  -8.768694e+05   6.354498e+06
  -6.932941e+06   1.025516e+06
  -3.517844e+06  -6.226814e+06
   3.071908e+06  -7.980398e+06
   6.651188e+06  -2.743242e+06
   5.233377e+06   4.491184e+06
   5.851715e+05   6.685883e+06
  -3.118000e+06   1.704507e+06
  -2.248187e+06  -4.948886e+06
   2.382296e+06  -5.825179e+06
   5.671084e+06   2.095140e+05
   3.642639e+06   7.053378e+06
  -2.225952e+06   8.460966e+06
  -6.950485e+06   4.058096e+06
  -7.192737e+06  -1.836257e+06
  -3.708352e+06  -5.164663e+06
   1.071115e+05  -4.993740e+06
   1.192385e+06  -3.134248e+06
  -5.845299e+05  -2.201825e+06
  -1.977369e+06  -3.229190e+06
   3.757343e+05  -4.449075e+06
   5.466593e+06  -3.204864e+06
   8.137709e+06   5.471764e+05
   5.046919e+06   3.739127e+06
  -9.216282e+05   3.722067e+06
  -3.920117e+06   1.146555e+06
  -1.877406e+06  -1.292516e+06
   1.931855e+06  -1.740619e+06
   3.488654e+06  -9.205370e+04
   2.063330e+06   2.514096e+06
  -4.001355e+05   3.976053e+06
  -1.886283e+06   2.474997e+06
  -1.605422e+06  -9.827447e+05
  -1.812951e+05  -2.570243e+06
   6.510598e+05  -1.991859e+05
  -3.836312e+05   2.979897e+06
  -2.188969e+06   2.230739e+06
  -2.058078e+06  -2.034772e+06
   8.452010e+05  -4.221558e+06
   3.764650e+06  -9.569473e+05
   3.219076e+06   4.262212e+06
  -9.066010e+05   5.523693e+06
  -5.066752e+06   1.643531e+06
  -5.614335e+06  -3.198425e+06
  -2.089145e+06  -4.775804e+06
   2.606554e+06  -2.667737e+06
   4.687362e+06   6.472053e+05
   2.628569e+06   2.525330e+06
  -1.370459e+06   1.873640e+06
  -3.352142e+06  -3.205322e+05
  -1.695287e+06  -1.754284e+06
   1.134016e+06  -1.034670e+06
   1.649824e+06   6.970350e+05
  -3.758665e+05   1.144797e+06
  -1.881253e+06  -2.411919e+05
  -5.837524e+05  -1.721282e+06
   2.274129e+06  -1.567188e+06
   3.621772e+06   2.077464e+05
   1.944309e+06   2.466829e+06
  -1.588704e+06   4.005772e+06
  -4.544433e+06   3.683610e+06
  -5.110914e+06   9.513455e+05
  -3.196732e+06  -2.876919e+06
  -4.376057e+05  -5.018592e+06
   1.145389e+06  -4.062742e+06
   1.033265e+06  -1.728790e+06
   5.706878e+05  -6.739415e+05
   1.137044e+06  -1.122907e+06
   2.381432e+06  -1.011673e+06
   2.768082e+06   7.400613e+05
   1.513437e+06   2.578034e+06
  -5.925622e+05   2.359979e+06
  -2.042029e+06   3.005427e+04
  -1.764805e+06  -2.380376e+06
   2.293972e+05  -2.869743e+06
   2.650315e+06  -1.124242e+06
   3.579840e+06   1.492031e+06
   2.170393e+06   3.145095e+06
  -2.618168e+05   2.989727e+06
  -1.589867e+06   1.779917e+06
  -1.408221e+06   9.246085e+05
  -1.360260e+06   8.669639e+05
  -2.626937e+06   7.006138e+05
  -4.002851e+06  -5.183571e+05
  -3.287155e+06  -2.489625e+06
  -1.624736e+05  -3.912055e+06
   3.157103e+06  -3.688278e+06
   4.165879e+06  -1.765187e+06
   2.455178e+06   7.727366e+05
  -1.370298e+05   2.255325e+06
  -1.359134e+06   1.671314e+06
  -4.992052e+05  -1.673907e+05
   1.159414e+06  -1.181301e+06
   1.731297e+06  -3.217961e+05
   6.941206e+05   1.094580e+06
  -6.218580e+05   1.076590e+06
  -6.324159e+05  -3.299557e+05
   6.626901e+05  -1.012995e+06
   1.751114e+06   4.200306e+05
   1.310151e+06   2.762650e+06
  -5.627580e+05   3.597692e+06
  -2.645987e+06   1.972437e+06
  -3.598094e+06  -8.260272e+05
  -2.754441e+06  -2.760970e+06
  -6.055823e+05  -2.797032e+06
   1.312687e+06  -1.447147e+06
   1.602695e+06  -1.319866e+05
   4.780256e+05   4.759538e+04
  -3.523137e+05  -7.183586e+05
   3.166072e+05  -1.197358e+06
   1.665827e+06  -5.386764e+05
   1.873659e+06   7.013834e+05
   4.511549e+05   1.239653e+06
  -1.085527e+06   5.993003e+05
  -9.901378e+05  -4.202967e+05
   7.218594e+05  -7.212326e+05
   2.293892e+06   3.650997e+04
   2.028699e+06   1.305158e+06
  -6.633258e+04   2.136493e+06
  -2.272905e+06   1.782270e+06
  -2.726158e+06   3.170372e+05
  -1.157506e+06  -1.146543e+06
   8.329547e+05  -1.319061e+06
   1.355254e+06  -1.456499e+05
   1.080385e+05   9.620827e+05
  -1.436265e+06   6.777023e+05
  -1.674008e+06  -6.843942e+05
  -4.636932e+05  -1.580668e+06
   9.392632e+05  -1.084730e+06
   1.256688e+06   1.293638e+05
   3.645724e+05   6.965958e+05
  -6.859207e+05   7.682611e+04
  -6.717181e+05  -9.980938e+05
   6.005840e+05  -1.350246e+06
   1.960087e+06  -4.664302e+05
   1.940425e+06   1.050474e+06
   3.633274e+05   1.986593e+06
  -1.344577e+06   1.584867e+06
  -1.649290e+06   2.564022e+05
  -5.435911e+05  -8.100106e+05
   6.063105e+05  -8.148191e+05
   6.944092e+05  -6.705428e+04
  -4.574032e+04   4.918732e+05
  -5.912112e+05   3.521244e+05
  -3.538521e+05  -1.004185e+05
   3.119918e+05  -1.262627e+05
   5.707794e+05   4.876081e+05
  -8.464150e+04   1.122196e+06
  -1.299158e+06   8.996097e+05
  -2.019066e+06  -3.829959e+05
  -1.410251e+06  -1.881722e+06
   2.187488e+05  -2.387206e+06
   1.593437e+06  -1.481090e+06
   1.754737e+06   3.995781e+04
   1.001571e+06   9.739057e+05
   3.646253e+05   8.843066e+05
   3.372499e+05   3.711818e+05
   4.531042e+05   2.515587e+05
   6.298231e+04   6.430135e+05
  -8.043808e+05   9.049024e+05
  -1.442750e+06   3.997873e+05
  -1.139769e+06  -7.335131e+05
   1.682303e+05  -1.554333e+06
   1.695086e+06  -1.139109e+06
   2.246117e+06   4.478994e+05
   1.179322e+06   2.023151e+06
  -8.686851e+05   2.294056e+06
  -2.388743e+06   1.086874e+06
  -2.350928e+06  -5.147556e+05
  -1.113083e+06  -1.298400e+06
   1.010754e+05  -1.076577e+06
   4.887011e+05  -6.428658e+05
   2.796645e+05  -7.200001e+05
   2.055058e+05  -1.152030e+06
   6.246706e+05  -1.160788e+06
   1.199662e+06  -2.750714e+05
   1.271725e+06   1.072393e+06
   5.201634e+05   1.859802e+06
  -6.307211e+05   1.401336e+06
  -1.267785e+06   1.958676e+04
  -8.234230e+05  -1.195315e+06
   2.888291e+05  -1.349960e+06
   1.021985e+06  -5.054493e+05
   7.730154e+05   5.066539e+05
  -2.907217e+03   9.485500e+05
  -3.713638e+05   7.804694e+05
  -2.036688e+04   4.672882e+05
   3.938324e+05   3.641911e+05
   3.847838e+04   3.892849e+05
  -1.068226e+06   2.206975e+05
  -1.937300e+06  -3.005848e+05
  -1.573106e+06  -9.643132e+05
  -5.139030e+04  -1.326815e+06
   1.444087e+06  -1.073971e+06
   1.747343e+06  -3.338506e+05
   8.453192e+05   3.579091e+05
  -2.074071e+05   4.946838e+05
  -4.649926e+05   8.244476e+04
   1.144298e+04  -3.366346e+05
   4.749436e+05  -2.288613e+05
   4.540795e+05   3.391960e+05
   1.518202e+05   7.360417e+05
   4.562594e+03   4.764534e+05
   1.444500e+05  -1.563187e+05
   3.448264e+05  -3.649056e+05
   2.859969e+05   2.181949e+05
  -1.882548e+05   9.966146e+05
  -8.802466e+05   1.020386e+06
  -1.225428e+06   1.015415e+05
  -7.207168e+05  -9.038144e+05
   4.132782e+05  -1.026058e+06
   1.171243e+06  -2.341154e+05
   7.011285e+05   5.943108e+05
  -6.662811e+05   6.498518e+05
  -1.595313e+06  -4.882537e+04
  -1.103447e+06  -8.242906e+05
   3.880562e+05  -1.042316e+06
   1.494729e+06  -5.921792e+05
   1.290559e+06   1.240527e+05
   1.769282e+05   5.261551e+05
  -6.271425e+05   3.046506e+05
  -3.460790e+05  -2.624498e+05
   6.196154e+05  -4.665324e+05
   1.153373e+06   1.528698e+05
   5.721394e+05   1.199526e+06
  -6.854495e+05   1.637192e+06
  -1.511629e+06   8.020129e+05
  -1.227804e+06  -7.886658e+05
  -1.749451e+05  -1.789602e+06
   7.414426e+05  -1.319426e+06
   9.287430e+05   1.263051e+05
   4.750786e+05   1.172919e+06
  -1.513745e+05   9.968233e+05
  -5.345218e+05   1.097577e+05
  -5.107695e+05  -3.882329e+05
  -2.185993e+05  -1.550731e+05
  -2.631934e+04   1.117308e+05
  -1.916453e+05  -2.550410e+05
  -4.663439e+05  -9.422357e+05
  -2.511880e+05  -1.080348e+06
   6.299912e+05  -3.979117e+05
   1.467843e+06   4.720819e+05
   1.326138e+06   8.359490e+05
   1.861160e+05   6.786159e+05
  -9.034457e+05   4.029080e+05
  -9.959538e+05   1.950085e+05
  -3.091027e+05  -2.218164e+04
   1.674355e+05  -2.163889e+05
  -2.884439e+04  -2.346705e+05
  -3.307419e+05  -1.324833e+05
  -2.176731e+04  -1.367557e+05
   7.303661e+05  -2.011904e+05
   1.025400e+06   4.355867e+04
   3.195715e+05   6.783754e+05
  -9.094780e+05   1.113528e+06
  -1.641990e+06   6.769796e+05
  -1.305683e+06  -4.817171e+05
  -2.287611e+05  -1.403814e+06
   7.562753e+05  -1.326657e+06
   1.042064e+06  -4.736455e+05
   6.544139e+05   2.740710e+05
   9.924096e+04   3.547916e+05
  -1.276010e+05   2.686813e+04
   5.859111e+04  -5.954276e+04
   3.222949e+05   3.465579e+05
   2.603012e+05   8.001540e+05
  -1.985858e+05   6.546154e+05
  -6.840879e+05  -1.704859e+05
  -6.808552e+05  -9.906637e+05
  -3.275080e+04  -1.013814e+06
   7.842967e+05  -1.770306e+05
   9.936427e+05   7.791589e+05
   2.905512e+05   1.077186e+06
  -7.229632e+05   6.154666e+05
  -1.073701e+06  -1.058027e+05
  -4.819025e+05  -5.711064e+05
   2.888560e+05  -6.112965e+05
   3.305331e+05  -3.444003e+05
  -2.978838e+05  -3.180706e+04
  -6.558860e+05   2.205053e+04
  -1.220839e+05  -2.958751e+05
   8.232140e+05  -6.668912e+05
   1.203307e+06  -5.564171e+05
   6.960977e+05   1.438521e+05
  -1.113476e+05   8.355335e+05
  -5.098482e+05   8.151750e+05
  -3.700775e+05   1.149602e+05
  -1.927989e+04  -4.959218e+05
   2.522707e+05  -3.981899e+05
   3.495107e+05   1.965490e+05
   2.358125e+05   5.750577e+05
  -7.115859e+04   3.782689e+05
  -3.836120e+05  -6.984223e+04
  -4.485262e+05  -2.507129e+05
  -2.369667e+05  -6.897512e+04
   7.435199e+03   1.122444e+05
   7.877852e+04  -3.233652e+04
   5.738940e+04  -3.804675e+05
   1.498788e+05  -4.926138e+05
   3.489393e+05  -1.266157e+05
   3.861609e+05   4.373026e+05
   6.329623e+04   6.504137e+05
  -4.313643e+05   2.823066e+05
  -6.214117e+05  -3.164555e+05
  -2.192101e+05  -5.887374e+05
   4.919951e+05  -3.466387e+05
   8.428406e+05   1.080789e+05
   4.537858e+05   3.806948e+05
  -2.961145e+05   3.561594e+05
  -6.221592e+05   1.734127e+05
  -2.112919e+05   6.529295e+03
   3.940649e+05  -2.654638e+04
   4.223794e+05   1.196079e+05
  -2.106480e+05   3.167780e+05
  -8.052886e+05   2.573365e+05
