
 $NMID
 id='ANONYMOUS ', fmtdat='(2E16.6)'
 volume=1.0
 tramp=1.0
 $END
   5.668671e+07   5.669116e+05
   3.369611e+07   3.546960e+07
  -7.916146e+06   3.827225e+07
  -2.789427e+07   1.441503e+07
  -1.646428e+07  -7.244493e+06
   3.439180e+06  -9.336897e+06
   9.850815e+06   1.347331e+06
   2.672999e+06   9.841259e+06
  -6.323773e+06   9.298892e+06
  -9.709268e+06   1.897370e+06
  -6.972032e+06  -6.296730e+06
  -7.478698e+05  -8.649387e+06
   4.038408e+06  -2.729786e+06
   2.604191e+06   5.475788e+06
  -3.837871e+06   6.529263e+06
  -7.894005e+06  -1.427822e+06
  -4.362734e+06  -1.030049e+07
   3.917937e+06  -1.182047e+07
   1.021961e+07  -5.845526e+06
   1.086214e+07   2.160920e+06
   6.605915e+06   7.602494e+06
   6.157814e+05   8.728796e+06
  -3.009672e+06   6.070556e+06
  -1.914565e+06   2.667793e+06
   1.096901e+06   2.140294e+06
   2.464056e+05   4.187054e+06
  -5.447568e+06   4.393311e+06
  -9.715149e+06   4.446173e+05
  -7.060031e+06  -4.201859e+06
  -2.269995e+05  -5.106528e+06
   3.754262e+06  -2.581315e+06
   2.504961e+06  -1.238287e+04
  -5.854180e+05   9.458489e+05
  -2.278585e+06   5.020260e+05
  -2.210438e+06  -1.434656e+06
  -6.912932e+05  -3.957797e+06
   1.841042e+06  -3.872496e+06
   3.270245e+06   1.292254e+05
   1.702479e+06   3.684330e+06
  -8.098884e+05   1.943921e+06
  -3.466419e+05  -2.469670e+06
   2.482905e+06  -2.296200e+06
   2.428019e+06   3.233506e+06
  -2.506635e+06   6.138901e+06
  -7.006794e+06   9.429641e+05
  -5.082711e+06  -7.023440e+06
   2.009940e+06  -8.559542e+06
   7.494474e+06  -2.363241e+06
   6.946690e+06   4.532168e+06
   1.800284e+06   6.074026e+06
  -3.514843e+06   2.692237e+06
  -5.267287e+06  -1.579456e+06
  -2.401400e+06  -3.524091e+06
   2.452074e+06  -2.182878e+06
   4.542883e+06   9.725103e+05
   1.932846e+06   2.754378e+06
  -1.741391e+06   1.361832e+06
  -1.738842e+06  -1.046459e+06
   1.337854e+06  -9.046956e+05
   2.467247e+06   1.791340e+06
  -6.621799e+05   3.450777e+06
  -4.675344e+06   1.862213e+06
  -5.315090e+06  -1.416524e+06
  -2.290931e+06  -4.020491e+06
   1.857265e+06  -5.283239e+06
   5.075630e+06  -4.838123e+06
   6.248476e+06  -1.712025e+06
   4.591189e+06   3.215894e+06
   9.034481e+05   6.221036e+06
  -1.912149e+06   4.781347e+06
  -1.780607e+06   1.207786e+06
  -1.534273e+05  -2.554635e+05
   3.036867e+04   9.970185e+05
  -1.628752e+06   1.805089e+06
  -2.846411e+06   2.309913e+05
  -2.043719e+06  -1.959810e+06
  -1.967806e+04  -2.170280e+06
   1.568754e+06  -2.052954e+05
   1.684983e+06   2.102400e+06
  -1.278950e+04   2.963954e+06
  -2.804667e+06   1.654451e+06
  -4.506960e+06  -1.232246e+06
  -3.223817e+06  -3.819219e+06
   7.203619e+04  -4.267818e+06
   2.322014e+06  -2.723827e+06
   2.264004e+06  -1.126895e+06
   1.855231e+06  -6.717846e+05
   2.974168e+06  -4.597111e+05
   4.387293e+06   8.040939e+05
   3.501240e+06   2.823923e+06
   9.924689e+04   4.174799e+06
  -3.272636e+06   3.922181e+06
  -4.238875e+06   2.119043e+06
  -2.689599e+06  -4.417920e+05
  -2.689768e+05  -2.266520e+06
   1.125892e+06  -1.955233e+06
   5.724443e+05   3.901452e+04
  -1.111373e+06   1.320585e+06
  -1.937559e+06   3.892250e+05
  -9.272410e+05  -1.231038e+06
   5.313376e+05  -1.126141e+06
   4.267357e+05   3.977663e+05
  -1.090550e+06   6.886252e+05
  -1.864459e+06  -1.335212e+06
  -6.065146e+05  -3.541644e+06
   1.657596e+06  -3.425903e+06
   3.189805e+06  -1.077372e+06
   3.323383e+06   1.500838e+06
   2.266622e+06   2.808758e+06
   4.341867e+05   2.639942e+06
  -1.267077e+06   1.473445e+06
  -1.600616e+06   2.207847e+05
  -4.996716e+05  -5.083666e+04
   3.565650e+05   7.673419e+05
  -4.362352e+05   1.361167e+06
  -1.949542e+06   5.693979e+05
  -2.059769e+06  -9.278398e+05
  -3.733251e+05  -1.447863e+06
   1.198419e+06  -5.665615e+05
   8.928609e+05   4.719350e+05
  -8.711041e+05   5.092739e+05
  -2.201269e+06  -3.587673e+05
  -1.741501e+06  -1.393468e+06
   2.793496e+05  -1.986864e+06
   2.358051e+06  -1.648580e+06
   2.818213e+06  -2.481560e+05
   1.224962e+06   1.302163e+06
  -9.526619e+05   1.524283e+06
  -1.595902e+06   1.786018e+05
  -1.979915e+05  -1.105716e+06
   1.551534e+06  -7.362139e+05
   1.738362e+06   8.165958e+05
   3.174637e+05   1.684101e+06
  -1.127153e+06   9.722356e+05
  -1.271642e+06  -3.416052e+05
  -2.327040e+05  -8.007932e+05
   8.167132e+05  -4.537190e+04
   7.420054e+05   1.081126e+06
  -5.970337e+05   1.446274e+06
  -2.047741e+06   5.374058e+05
  -2.063887e+06  -1.086030e+06
  -3.706487e+05  -2.116764e+06
   1.485512e+06  -1.657359e+06
   1.760024e+06  -1.920598e+05
   4.974152e+05   8.912454e+05
  -6.808793e+05   8.076951e+05
  -6.396214e+05   7.242302e+04
   1.283308e+05  -3.548497e+05
   4.926050e+05  -1.972477e+05
   1.073461e+05   6.321869e+04
  -4.621720e+05  -9.840232e+04
  -5.130644e+05  -7.002580e+05
   2.313454e+05  -1.206345e+06
   1.418189e+06  -8.939194e+05
   2.113461e+06   4.435899e+05
   1.472148e+06   1.992100e+06
  -2.430692e+05   2.457728e+06
  -1.653681e+06   1.412261e+06
  -1.707354e+06  -1.505543e+05
  -8.509686e+05  -9.106396e+05
  -3.141277e+05  -6.463445e+05
  -4.940715e+05  -2.169153e+05
  -6.458392e+05  -3.302096e+05
  -8.589884e+04  -7.858787e+05
   9.034967e+05  -9.044089e+05
   1.472171e+06  -3.090663e+05
   1.050499e+06   7.413215e+05
  -2.738652e+05   1.469897e+06
  -1.758965e+06   1.065530e+06
  -2.275832e+06  -5.152708e+05
  -1.125262e+06  -2.147722e+06
   1.059935e+06  -2.395068e+06
   2.601924e+06  -1.015500e+06
   2.377253e+06   7.040289e+05
   9.431644e+05   1.369396e+06
  -2.257824e+05   9.454590e+05
  -3.901993e+05   5.038535e+05
  -7.002497e+04   7.682907e+05
  -1.099971e+05   1.339025e+06
  -6.972204e+05   1.311380e+06
  -1.323876e+06   3.142706e+05
  -1.353155e+06  -1.109409e+06
  -5.508529e+05  -1.930564e+06
   6.433356e+05  -1.455864e+06
   1.305604e+06   1.621571e+04
   8.101754e+05   1.317307e+06
  -4.187493e+05   1.415639e+06
  -1.194712e+06   3.900310e+05
  -8.176145e+05  -7.324622e+05
   1.471724e+05  -1.100034e+06
   5.665204e+05  -7.867171e+05
   9.553669e+04  -4.157487e+05
  -4.407978e+05  -3.420359e+05
  -5.966180e+04  -3.890070e+05
   1.174596e+06  -2.008645e+05
   2.101539e+06   3.598671e+05
   1.634670e+06   1.073548e+06
  -6.123820e+04   1.464797e+06
  -1.637300e+06   1.147910e+06
  -1.868072e+06   2.586359e+05
  -8.384100e+05  -5.224018e+05
   2.760847e+05  -5.818446e+05
   5.235116e+05  -2.411178e+04
   3.119600e+04   4.368554e+05
  -4.480021e+05   2.623804e+05
  -4.889580e+05  -3.511283e+05
  -2.638144e+05  -7.347968e+05
  -1.047478e+05  -4.881158e+05
  -1.384307e+05   8.759805e+04
  -2.767249e+05   2.861370e+05
  -2.758773e+05  -2.395179e+05
   1.449750e+05  -9.984360e+05
   9.229960e+05  -1.079728e+06
   1.401127e+06  -1.755638e+05
   8.748325e+05   9.365288e+05
  -4.308080e+05   1.167693e+06
  -1.291004e+06   3.466374e+05
  -7.449427e+05  -5.834421e+05
   7.221632e+05  -6.511048e+05
   1.607624e+06   1.173387e+05
   9.969303e+05   8.881964e+05
  -5.132312e+05   9.889612e+05
  -1.522353e+06   4.544492e+05
  -1.238041e+06  -2.140880e+05
  -1.247960e+05  -5.197734e+05
   6.640273e+05  -2.611486e+05
   3.936226e+05   3.072593e+05
  -5.911139e+05   5.368001e+05
  -1.206230e+06  -7.555790e+04
  -6.943851e+05  -1.199496e+06
   5.883410e+05  -1.739143e+06
   1.505172e+06  -9.092275e+05
   1.276930e+06   7.685671e+05
   2.018439e+05   1.819713e+06
  -7.582570e+05   1.303020e+06
  -9.358371e+05  -1.966032e+05
  -4.188559e+05  -1.215595e+06
   2.455023e+05  -9.733245e+05
   5.770818e+05  -7.453772e+04
   4.590592e+05   3.823766e+05
   1.509769e+05   1.347991e+05
   5.543989e+04  -9.161809e+04
   3.044872e+05   3.137013e+05
   5.221480e+05   9.904224e+05
   1.705213e+05   1.093134e+06
  -7.502892e+05   3.934606e+05
  -1.495193e+06  -4.783761e+05
  -1.280103e+06  -8.553575e+05
  -1.827708e+05  -7.152686e+05
   8.527994e+05  -4.268951e+05
   9.951080e+05  -1.758038e+05
   3.808851e+05   6.662117e+04
  -1.419272e+05   2.316180e+05
  -5.732857e+04   1.966302e+05
   2.473742e+05   8.264160e+04
   6.065753e+04   1.348188e+05
  -6.492837e+05   2.508988e+05
  -1.069843e+06  -4.244884e+03
  -4.765540e+05  -7.114334e+05
   8.341837e+05  -1.217161e+06
   1.749039e+06  -7.899271e+05
   1.470653e+06   4.251736e+05
   2.931021e+05   1.428805e+06
  -7.867466e+05   1.411388e+06
  -1.070368e+06   5.682245e+05
  -6.657861e+05  -2.205907e+05
  -1.484540e+05  -3.661903e+05
   4.998947e+04  -8.478842e+04
  -9.005724e+04  -1.053431e+03
  -2.942131e+05  -3.815145e+05
  -2.430055e+05  -8.229266e+05
   1.755947e+05  -6.991412e+05
   6.907429e+05   1.019427e+05
   7.749296e+05   9.495895e+05
   1.531473e+05   1.055966e+06
  -7.512850e+05   2.842689e+05
  -1.069504e+06  -7.045411e+05
  -3.793830e+05  -1.111601e+06
   7.200459e+05  -7.157166e+05
   1.155248e+06   6.268462e+04
   5.601482e+05   6.415605e+05
  -2.923561e+05   7.183784e+05
  -4.081774e+05   3.818953e+05
   2.274334e+05  -3.382078e+03
   6.555956e+05  -4.824876e+04
   1.598530e+05   3.187694e+05
  -8.380643e+05   6.928961e+05
  -1.302409e+06   5.365289e+05
  -8.030011e+05  -1.987258e+05
   9.159288e+04  -8.975580e+05
   5.817243e+05  -8.856603e+05
   4.603565e+05  -1.852859e+05
   7.250338e+04   4.781141e+05
  -2.367889e+05   4.603427e+05
  -3.598329e+05  -1.237016e+05
  -2.670520e+05  -5.863048e+05
   4.532845e+04  -4.585775e+05
   4.007165e+05   3.204032e+04
   4.947229e+05   3.002496e+05
   2.474685e+05   1.118868e+05
  -4.746657e+04  -1.726286e+05
  -8.308818e+04  -8.329178e+04
   4.983405e+04   3.463287e+05
   7.184793e+02   5.910695e+05
  -3.101576e+05   2.715281e+05
  -5.051207e+05  -3.549828e+05
  -2.100165e+05  -6.575997e+05
   4.014942e+05  -3.375717e+05
   6.980131e+05   2.631091e+05
   2.776975e+05   5.731256e+05
  -5.223205e+05   3.808305e+05
  -9.169140e+05  -5.819625e+04
  -4.999030e+05  -3.806412e+05
   2.969267e+05  -4.304437e+05
   6.579934e+05  -2.621483e+05
   2.759408e+05  -2.427631e+04
  -3.248850e+05   9.547765e+04
  -4.065547e+05  -3.121025e+04
   1.442543e+05  -2.823282e+05
   7.168905e+05  -2.872118e+05
