
 $NMID
 id='ANONYMOUS ', fmtdat='(2E16.6)'
 volume=1.0
 tramp=1.0
 $END
   5.879106e+07   5.493488e+05
   3.453143e+07   3.708514e+07
  -8.635111e+06   3.960676e+07
  -2.882166e+07   1.440620e+07
  -1.659814e+07  -7.870094e+06
   3.774249e+06  -9.507330e+06
   9.946310e+06   1.672784e+06
   2.451163e+06   1.006875e+07
  -6.553854e+06   9.217306e+06
  -9.871740e+06   1.741803e+06
  -7.152288e+06  -6.401443e+06
  -8.593127e+05  -8.786240e+06
   4.114767e+06  -2.891464e+06
   2.740592e+06   5.393088e+06
  -3.851149e+06   6.494268e+06
  -8.029709e+06  -1.555081e+06
  -4.419961e+06  -1.055253e+07
   4.051244e+06  -1.210197e+07
   1.053180e+07  -6.047078e+06
   1.129090e+07   2.162270e+06
   6.972320e+06   7.911992e+06
   6.547339e+05   9.223048e+06
  -3.334326e+06   6.361932e+06
  -2.252975e+06   2.511577e+06
   1.100488e+06   1.787906e+06
   5.115076e+05   4.103936e+06
  -5.294647e+06   4.683255e+06
  -9.853261e+06   7.751640e+05
  -7.344404e+06  -4.147788e+06
  -4.543325e+05  -5.334081e+06
   3.696704e+06  -2.910601e+06
   2.682921e+06  -2.567722e+05
  -2.357215e+05   9.405364e+05
  -2.047263e+06   7.540114e+05
  -2.340648e+06  -1.161546e+06
  -9.957038e+05  -3.952647e+06
   1.799873e+06  -4.092238e+06
   3.569359e+06   3.351324e+04
   1.939050e+06   3.883922e+06
  -9.233358e+05   2.209242e+06
  -5.948155e+05  -2.388927e+06
   2.408909e+06  -2.312086e+06
   2.430398e+06   3.321301e+06
  -2.714481e+06   6.253535e+06
  -7.371644e+06   8.400124e+05
  -5.255343e+06  -7.349998e+06
   2.161962e+06  -8.848654e+06
   7.734502e+06  -2.448866e+06
   7.044043e+06   4.557315e+06
   1.789390e+06   6.074559e+06
  -3.504946e+06   2.667720e+06
  -5.214052e+06  -1.583277e+06
  -2.332570e+06  -3.514849e+06
   2.538525e+06  -2.165541e+06
   4.615592e+06   1.024980e+06
   1.927081e+06   2.822354e+06
  -1.792276e+06   1.387254e+06
  -1.717601e+06  -1.033244e+06
   1.417905e+06  -7.958853e+05
   2.422698e+06   1.989247e+06
  -9.109728e+05   3.570159e+06
  -4.947338e+06   1.795261e+06
  -5.417461e+06  -1.577287e+06
  -2.283929e+06  -4.154060e+06
   1.810382e+06  -5.421777e+06
   5.006834e+06  -5.047336e+06
   6.323074e+06  -1.902242e+06
   4.802940e+06   3.185838e+06
   1.054284e+06   6.305571e+06
  -1.910573e+06   4.789775e+06
  -1.778203e+06   1.080967e+06
   1.521339e+03  -3.616649e+05
   2.726194e+05   1.065939e+06
  -1.482487e+06   2.027387e+06
  -2.884202e+06   4.779184e+05
  -2.214714e+06  -1.795544e+06
  -2.141926e+05  -2.149718e+06
   1.464451e+06  -3.290214e+05
   1.732202e+06   1.945489e+06
   1.143062e+05   2.937161e+06
  -2.766165e+06   1.787382e+06
  -4.633073e+06  -1.100848e+06
  -3.395051e+06  -3.845491e+06
   1.965199e+04  -4.413211e+06
   2.396665e+06  -2.831661e+06
   2.342388e+06  -1.129509e+06
   1.857843e+06  -6.380794e+05
   2.930053e+06  -4.743972e+05
   4.356751e+06   7.261860e+05
   3.523699e+06   2.723559e+06
   2.002172e+05   4.119586e+06
  -3.113307e+06   3.974944e+06
  -4.123188e+06   2.267658e+06
  -2.717986e+06  -3.088648e+05
  -4.066634e+05  -2.249655e+06
   1.024031e+06  -2.021465e+06
   5.861595e+05   4.058574e+03
  -1.048359e+06   1.357304e+06
  -1.923897e+06   4.371860e+05
  -9.747058e+05  -1.218919e+06
   4.712688e+05  -1.136760e+06
   3.891102e+05   3.661534e+05
  -1.084845e+06   6.134209e+05
  -1.798865e+06  -1.410268e+06
  -5.167570e+05  -3.508621e+06
   1.676204e+06  -3.271916e+06
   3.090291e+06  -9.561286e+05
   3.189850e+06   1.445255e+06
   2.224234e+06   2.633247e+06
   4.991032e+05   2.525173e+06
  -1.185409e+06   1.492838e+06
  -1.566987e+06   2.848150e+05
  -4.940034e+05  -3.565892e+04
   3.703983e+05   7.474328e+05
  -4.174224e+05   1.362281e+06
  -1.939216e+06   5.998847e+05
  -2.055654e+06  -8.951467e+05
  -3.803707e+05  -1.431480e+06
   1.169156e+06  -5.777021e+05
   8.674773e+05   4.310341e+05
  -8.400752e+05   4.765758e+05
  -2.118536e+06  -3.234310e+05
  -1.692930e+06  -1.292353e+06
   2.286435e+05  -1.907097e+06
   2.253457e+06  -1.660677e+06
   2.757905e+06  -3.163634e+05
   1.238409e+06   1.265896e+06
  -9.211777e+05   1.546313e+06
  -1.599325e+06   2.104501e+05
  -2.320382e+05  -1.108075e+06
   1.518434e+06  -7.708084e+05
   1.726042e+06   7.694053e+05
   3.321302e+05   1.640278e+06
  -1.091012e+06   9.515530e+05
  -1.237322e+06  -3.289777e+05
  -2.219984e+05  -7.802594e+05
   8.163770e+05  -5.341501e+04
   7.655732e+05   1.053840e+06
  -5.447421e+05   1.451315e+06
  -2.007239e+06   5.974398e+05
  -2.072895e+06  -1.011717e+06
  -4.219048e+05  -2.081352e+06
   1.428909e+06  -1.669763e+06
   1.728074e+06  -2.252026e+05
   5.008547e+05   8.644372e+05
  -6.508967e+05   8.044526e+05
  -6.144085e+05   9.860014e+04
   1.144637e+05  -3.199232e+05
   4.435044e+05  -1.925083e+05
   6.874396e+04   2.805608e+04
  -4.592676e+05  -1.337001e+05
  -4.948770e+05  -6.986635e+05
   2.193072e+05  -1.188082e+06
   1.377465e+06  -9.093113e+05
   2.092693e+06   3.830335e+05
   1.506529e+06   1.924703e+06
  -1.667442e+05   2.422360e+06
  -1.574283e+06   1.419488e+06
  -1.656758e+06  -1.043862e+05
  -8.437645e+05  -8.371898e+05
  -3.436520e+05  -5.767078e+05
  -5.322949e+05  -1.849435e+05
  -6.679124e+05  -3.337567e+05
  -1.001445e+05  -7.926543e+05
   8.707638e+05  -9.053445e+05
   1.426416e+06  -3.331100e+05
   1.036672e+06   6.831359e+05
  -2.287545e+05   1.422782e+06
  -1.689237e+06   1.082412e+06
  -2.242346e+06  -4.426243e+05
  -1.151250e+06  -2.079602e+06
   9.993868e+05  -2.377097e+06
   2.540955e+06  -1.047503e+06
   2.335383e+06   6.440644e+05
   9.327943e+05   1.303736e+06
  -1.976824e+05   8.981586e+05
  -3.346983e+05   4.920338e+05
  -1.202369e+04   7.826790e+05
  -6.493325e+04   1.354818e+06
  -6.653425e+05   1.324808e+06
  -1.309659e+06   3.462180e+05
  -1.371149e+06  -1.054472e+06
  -6.017085e+05  -1.885425e+06
   5.882521e+05  -1.453880e+06
   1.280793e+06  -1.797138e+04
   8.224563e+05   1.281164e+06
  -3.908785e+05   1.397465e+06
  -1.173870e+06   3.850266e+05
  -8.098811e+05  -7.320156e+05
   1.465594e+05  -1.092768e+06
   5.617257e+05  -7.705769e+05
   8.726190e+04  -3.938570e+05
  -4.528705e+05  -3.208353e+05
  -7.495906e+04  -3.807116e+05
   1.158698e+06  -2.219491e+05
   2.090266e+06   3.081415e+05
   1.634935e+06   1.020359e+06
  -4.365260e+04   1.447523e+06
  -1.603607e+06   1.171374e+06
  -1.832166e+06   2.908862e+05
  -8.204455e+05  -5.103089e+05
   2.708945e+05  -5.865681e+05
   5.156398e+05  -2.543630e+04
   4.252641e+04   4.476473e+05
  -4.283357e+05   2.800897e+05
  -4.949456e+05  -3.326720e+05
  -3.018142e+05  -7.209537e+05
  -1.346624e+05  -4.858961e+05
  -1.248110e+05   7.926993e+04
  -2.419615e+05   2.824458e+05
  -2.740659e+05  -2.278917e+05
   1.014610e+05  -9.863333e+05
   8.801796e+05  -1.093040e+06
   1.402094e+06  -2.137779e+05
   9.101243e+05   9.078081e+05
  -3.994154e+05   1.179175e+06
  -1.282954e+06   3.896026e+05
  -7.568796e+05  -5.484405e+05
   6.944456e+05  -6.559385e+05
   1.572266e+06   7.392653e+04
   9.807719e+05   8.361573e+05
  -4.851470e+05   9.634753e+05
  -1.465527e+06   4.694197e+05
  -1.200733e+06  -1.782550e+05
  -1.312445e+05  -4.981867e+05
   6.429289e+05  -2.666819e+05
   3.990181e+05   2.997250e+05
  -5.624845e+05   5.596347e+05
  -1.199243e+06  -2.572249e+04
  -7.401966e+05  -1.162399e+06
   5.110712e+05  -1.748104e+06
   1.451757e+06  -9.587432e+05
   1.285393e+06   7.107304e+05
   2.599078e+05   1.781479e+06
  -6.996138e+05   1.295815e+06
  -9.165124e+05  -1.737343e+05
  -4.366718e+05  -1.177091e+06
   2.213720e+05  -9.472507e+05
   5.658879e+05  -8.200847e+04
   4.536974e+05   3.527206e+05
   1.427158e+05   1.167451e+05
   5.412990e+04  -8.522625e+04
   3.217630e+05   3.177973e+05
   5.487012e+05   9.652433e+05
   1.884375e+05   1.058064e+06
  -7.409113e+05   3.974578e+05
  -1.482938e+06  -4.218402e+05
  -1.271347e+06  -7.929013e+05
  -1.985447e+05  -6.996376e+05
   8.139154e+05  -4.552359e+05
   9.657369e+05  -2.020769e+05
   3.827107e+05   6.706362e+04
  -1.282749e+05   2.364656e+05
  -6.039332e+04   1.794006e+05
   2.355269e+05   5.596361e+04
   7.060366e+04   1.333749e+05
  -6.180286e+05   2.835594e+05
  -1.058286e+06   3.387696e+04
  -5.134166e+05  -7.011993e+05
   7.729196e+05  -1.243751e+06
   1.714170e+06  -8.399610e+05
   1.486686e+06   3.734950e+05
   3.429704e+05   1.398760e+06
  -7.361425e+05   1.418591e+06
  -1.042400e+06   6.049562e+05
  -6.659525e+05  -1.856542e+05
  -1.646840e+05  -3.600936e+05
   3.860766e+04  -1.020727e+05
  -8.753537e+04  -1.140159e+04
  -2.923927e+05  -3.666268e+05
  -2.600608e+05  -7.991900e+05
   1.489138e+05  -6.997037e+05
   6.870787e+05   6.569165e+04
   8.099204e+05   9.054623e+05
   2.014211e+05   1.047038e+06
  -7.305077e+05   3.246881e+05
  -1.090181e+06  -6.483941e+05
  -4.200285e+05  -1.089519e+06
   6.899682e+05  -7.416286e+05
   1.150491e+06   2.345217e+04
   5.758219e+05   6.286596e+05
  -2.731908e+05   7.304510e+05
  -4.034649e+05   3.859885e+05
   2.139421e+05  -2.381727e+04
   6.423758e+05  -7.357461e+04
   1.712112e+05   3.141598e+05
  -8.019033e+05   7.088990e+05
  -1.271233e+06   5.553469e+05
  -8.050598e+05  -1.874295e+05
   6.236655e+04  -8.937183e+05
   5.587098e+05  -8.908801e+05
   4.664779e+05  -1.997203e+05
   9.769866e+04   4.675962e+05
  -2.197942e+05   4.703940e+05
  -3.651262e+05  -9.766712e+04
  -2.850730e+05  -5.697158e+05
   3.254643e+04  -4.663666e+05
   3.997588e+05   1.322389e+04
   4.970459e+05   2.901851e+05
   2.434333e+05   1.095179e+05
  -5.305870e+04  -1.814979e+05
  -7.343470e+04  -9.876216e+04
   8.188531e+04   3.419424e+05
   3.632621e+04   6.098143e+05
  -3.020669e+05   3.044440e+05
  -5.343715e+05  -3.281769e+05
  -2.516482e+05  -6.520495e+05
   3.819249e+05  -3.560191e+05
   7.099905e+05   2.326002e+05
   3.023081e+05   5.545897e+05
  -5.068411e+05   3.928793e+05
  -9.165474e+05  -2.513140e+04
  -5.096629e+05  -3.602499e+05
   2.835758e+05  -4.436007e+05
   6.498396e+05  -2.900185e+05
   2.818996e+05  -2.963451e+04
  -3.097103e+05   1.227787e+05
  -4.048312e+05  -3.820536e+02
   1.170427e+05  -2.817349e+05
   6.797541e+05  -3.187376e+05
