
 $NMID
 id='ANONYMOUS ', fmtdat='(2E16.6)'
 volume=1.0
 tramp=1.0
 $END
  -5.670616e+07   5.685978e+05
  -3.427340e+07  -3.478418e+07
   7.219262e+06  -3.834043e+07
   2.749309e+07  -1.488616e+07
   1.645632e+07   6.901142e+06
  -3.263123e+06   9.334512e+06
  -9.779319e+06  -1.158670e+06
  -2.830689e+06  -9.707391e+06
   6.065835e+06  -9.344194e+06
   9.595218e+06  -2.081116e+06
   7.103363e+06   6.119768e+06
   9.667073e+05   8.612617e+06
  -3.979634e+06   2.832685e+06
  -2.768117e+06  -5.377472e+06
   3.636864e+06  -6.575549e+06
   7.880239e+06   1.257597e+06
   4.571029e+06   1.017094e+07
  -3.651976e+06   1.187128e+07
  -1.008672e+07   6.058749e+06
  -1.092322e+07  -1.932838e+06
  -6.775787e+06  -7.495971e+06
  -7.639210e+05  -8.750811e+06
   2.939434e+06  -6.105985e+06
   1.866816e+06  -2.611969e+06
  -1.207465e+06  -2.031409e+06
  -4.186250e+05  -4.181866e+06
   5.315912e+06  -4.586414e+06
   9.718439e+06  -7.343433e+05
   7.182757e+06   4.026072e+06
   3.618856e+05   5.145738e+06
  -3.706344e+06   2.732075e+06
  -2.561993e+06   9.262291e+04
   4.904326e+05  -1.013528e+06
   2.249385e+06  -6.454221e+05
   2.304110e+06   1.336780e+06
   8.491035e+05   3.962267e+06
  -1.755420e+06   3.941938e+06
  -3.322517e+06  -7.527706e+04
  -1.797137e+06  -3.691537e+06
   8.200230e+05  -1.981881e+06
   4.694743e+05   2.470920e+06
  -2.394006e+06   2.361453e+06
  -2.481057e+06  -3.163875e+06
   2.387064e+06  -6.147928e+06
   6.984375e+06  -1.038449e+06
   5.208222e+06   6.932579e+06
  -1.849545e+06   8.581725e+06
  -7.440515e+06   2.518751e+06
  -7.031848e+06  -4.339951e+06
  -1.945338e+06  -5.982901e+06
   3.413660e+06  -2.762590e+06
   5.261315e+06   1.421908e+06
   2.465425e+06   3.422284e+06
  -2.391190e+06   2.212805e+06
  -4.540941e+06  -8.693553e+05
  -1.978083e+06  -2.695765e+06
   1.707753e+06  -1.393403e+06
   1.752023e+06   9.874447e+05
  -1.301601e+06   8.988213e+05
  -2.454501e+06  -1.744014e+06
   6.348534e+05  -3.423888e+06
   4.633831e+06  -1.912808e+06
   5.306909e+06   1.314552e+06
   2.356578e+06   3.956051e+06
  -1.719851e+06   5.329685e+06
  -4.935603e+06   4.989618e+06
  -6.206593e+06   1.887793e+06
  -4.688884e+06  -3.103240e+06
  -1.074683e+06  -6.195424e+06
   1.773922e+06  -4.799787e+06
   1.713482e+06  -1.222728e+06
   1.110825e+05   2.424713e+05
  -8.995831e+04  -1.044499e+06
   1.581310e+06  -1.902405e+06
   2.870414e+06  -3.437469e+05
   2.141042e+06   1.891269e+06
   1.161607e+05   2.183977e+06
  -1.554134e+06   2.856889e+05
  -1.763924e+06  -2.022431e+06
  -9.333819e+04  -2.960289e+06
   2.757259e+06  -1.747956e+06
   4.554125e+06   1.102134e+06
   3.329515e+06   3.741922e+06
   2.585396e+04   4.276159e+06
  -2.266404e+06   2.773575e+06
  -2.233545e+06   1.166006e+06
  -1.819375e+06   7.094145e+05
  -2.935926e+06   5.452454e+05
  -4.385996e+06  -6.630969e+05
  -3.572890e+06  -2.697201e+06
  -2.367647e+05  -4.150373e+06
   3.126074e+06  -4.018551e+06
   4.157545e+06  -2.263580e+06
   2.710480e+06   3.481263e+05
   3.551990e+05   2.264174e+06
  -1.058892e+06   2.000779e+06
  -5.777342e+05  -1.982436e+04
   1.063735e+06  -1.358144e+06
   1.919493e+06  -4.483217e+05
   9.637719e+05   1.204056e+06
  -4.888814e+05   1.144060e+06
  -4.324309e+05  -3.719455e+05
   1.051417e+06  -6.993939e+05
   1.861884e+06   1.280126e+06
   6.843571e+05   3.479780e+06
  -1.533220e+06   3.413656e+06
  -3.100002e+06   1.148163e+06
  -3.324296e+06  -1.369483e+06
  -2.346897e+06  -2.689311e+06
  -5.325033e+05  -2.599841e+06
   1.207413e+06  -1.514265e+06
   1.588199e+06  -2.791374e+05
   4.989750e+05   3.346629e+04
  -3.801758e+05  -7.514463e+05
   3.943642e+05  -1.366697e+06
   1.924538e+06  -6.239544e+05
   2.074542e+06   8.608042e+05
   4.124239e+05   1.426269e+06
  -1.172102e+06   6.009118e+05
  -9.013685e+05  -4.337218e+05
   8.406497e+05  -5.282041e+05
   2.186467e+06   2.775906e+05
   1.774503e+06   1.310959e+06
  -2.020834e+05   1.974371e+06
  -2.280960e+06   1.719384e+06
  -2.792487e+06   3.435981e+05
  -1.259237e+06  -1.256417e+06
   9.039885e+05  -1.548114e+06
   1.586139e+06  -2.244904e+05
   2.314011e+05   1.099178e+06
  -1.521335e+06   7.838989e+05
  -1.753496e+06  -7.544817e+05
  -3.695379e+05  -1.658396e+06
   1.083678e+06  -9.971926e+05
   1.267470e+06   2.979296e+05
   2.532621e+05   7.836571e+05
  -8.116669e+05   6.796397e+04
  -7.746395e+05  -1.053467e+06
   5.460488e+05  -1.462282e+06
   2.022427e+06  -6.059017e+05
   2.092763e+06   1.011906e+06
   4.394017e+05   2.094573e+06
  -1.423190e+06   1.696897e+06
  -1.742299e+06   2.485561e+05
  -5.222899e+05  -8.675756e+05
   6.490231e+05  -8.243255e+05
   6.330130e+05  -9.761481e+04
  -1.098485e+05   3.518792e+05
  -4.743594e+05   2.163796e+05
  -1.072058e+05  -4.701007e+04
   4.551240e+05   9.137352e+04
   5.251143e+05   6.784192e+05
  -1.924031e+05   1.202927e+06
  -1.379888e+06   9.351752e+05
  -2.117192e+06  -3.699007e+05
  -1.532548e+06  -1.932868e+06
   1.562917e+05  -2.453546e+06
   1.591411e+06  -1.460858e+06
   1.697820e+06   8.728560e+04
   8.800876e+05   8.667678e+05
   3.462994e+05   6.253129e+05
   5.090800e+05   2.027032e+05
   6.538774e+05   3.152374e+05
   1.078413e+05   7.819328e+05
  -8.672757e+05   9.279621e+05
  -1.449466e+06   3.583710e+05
  -1.070363e+06  -6.950728e+05
   2.165738e+05  -1.465957e+06
   1.708612e+06  -1.119846e+06
   2.279997e+06   4.323464e+05
   1.190633e+06   2.095112e+06
  -9.752629e+05   2.413642e+06
  -2.551453e+06   1.093440e+06
  -2.381809e+06  -6.183299e+05
  -9.818280e+05  -1.321146e+06
   1.861425e+05  -9.407775e+05
   3.618068e+05  -5.177925e+05
   4.073735e+04  -7.773453e+05
   6.807676e+04  -1.343334e+06
   6.541518e+05  -1.328711e+06
   1.309291e+06  -3.554396e+05
   1.385824e+06   1.058885e+06
   6.151358e+05   1.902985e+06
  -5.899265e+05   1.471789e+06
  -1.298273e+06   2.883658e+04
  -8.477904e+05  -1.282344e+06
   3.703329e+05  -1.418359e+06
   1.171657e+06  -4.214182e+05
   8.300927e+05   7.046169e+05
  -1.158378e+05   1.095286e+06
  -5.384293e+05   7.941556e+05
  -7.877678e+04   4.126696e+05
   4.527092e+05   3.259959e+05
   7.389691e+04   3.857540e+05
  -1.161874e+06   2.372433e+05
  -2.103449e+06  -2.902180e+05
  -1.660950e+06  -1.013203e+06
   1.602996e+04  -1.456341e+06
   1.593603e+06  -1.193476e+06
   1.847265e+06  -3.181727e+05
   8.451594e+05   4.915899e+05
  -2.586521e+05   5.870094e+05
  -5.180989e+05   3.935322e+04
  -4.299696e+04  -4.369586e+05
   4.371238e+05  -2.790446e+05
   4.990956e+05   3.332687e+05
   2.909913e+05   7.264511e+05
   1.229860e+05   4.865441e+05
   1.311960e+05  -9.137484e+04
   2.601672e+05  -2.966376e+05
   2.821143e+05   2.280847e+05
  -1.072352e+05   1.000547e+06
  -8.824023e+05   1.106635e+06
  -1.393735e+06   2.186073e+05
  -9.052411e+05  -9.075198e+05
   3.929938e+05  -1.178679e+06
   1.278748e+06  -3.879687e+05
   7.633915e+05   5.551393e+05
  -6.956365e+05   6.712907e+05
  -1.600358e+06  -6.001395e+04
  -1.019220e+06  -8.433634e+05
   4.741207e+05  -9.956826e+05
   1.491843e+06  -5.038111e+05
   1.234252e+06   1.670361e+05
   1.424478e+05   5.099774e+05
  -6.496488e+05   2.814243e+05
  -4.013878e+05  -2.943322e+05
   5.713416e+05  -5.578970e+05
   1.207065e+06   3.259904e+04
   7.362280e+05   1.173629e+06
  -5.252504e+05   1.757427e+06
  -1.469030e+06   9.610709e+05
  -1.299762e+06  -7.200729e+05
  -2.658722e+05  -1.804448e+06
   7.064459e+05  -1.322588e+06
   9.348880e+05   1.630630e+05
   4.578766e+05   1.192072e+06
  -2.093516e+05   9.723821e+05
  -5.704330e+05   9.255516e+04
  -4.699544e+05  -3.612306e+05
  -1.549000e+05  -1.251806e+05
  -5.137032e+04   9.144811e+04
  -3.133955e+05  -3.071844e+05
  -5.539875e+05  -9.696084e+05
  -2.073410e+05  -1.077629e+06
   7.338070e+05  -4.129532e+05
   1.504769e+06   4.229521e+05
   1.302705e+06   8.025496e+05
   2.060341e+05   7.052874e+05
  -8.330458e+05   4.583235e+05
  -9.825525e+05   2.107183e+05
  -3.804096e+05  -5.647944e+04
   1.330558e+05  -2.369430e+05
   4.952568e+04  -1.930379e+05
  -2.500362e+05  -6.856668e+04
  -6.597515e+04  -1.337073e+05
   6.377235e+05  -2.777163e+05
   1.066898e+06  -3.318228e+04
   5.008935e+05   6.981768e+05
  -7.891558e+05   1.246152e+06
  -1.718075e+06   8.461117e+05
  -1.483605e+06  -3.762331e+05
  -3.433144e+05  -1.413975e+06
   7.357643e+05  -1.432470e+06
   1.048933e+06  -6.043303e+05
   6.729579e+05   1.949185e+05
   1.612468e+05   3.613572e+05
  -4.806368e+04   9.070189e+04
   8.733477e+04   2.201719e+02
   3.044366e+05   3.681040e+05
   2.702354e+05   8.093546e+05
  -1.510106e+05   7.036101e+05
  -6.940798e+05  -7.554939e+04
  -8.087069e+05  -9.201367e+05
  -1.906606e+05  -1.051061e+06
   7.413969e+05  -3.132937e+05
   1.094082e+06   6.642747e+05
   4.175825e+05   1.096602e+06
  -6.948327e+05   7.398409e+05
  -1.154744e+06  -2.347974e+04
  -5.785118e+05  -6.226198e+05
   2.697476e+05  -7.268067e+05
   3.951946e+05  -3.917227e+05
  -2.265511e+05   1.546590e+04
  -6.515784e+05   7.224570e+04
  -1.701463e+05  -3.133929e+05
   8.099219e+05  -7.193724e+05
   1.276745e+06  -5.760373e+05
   8.051707e+05   1.743696e+05
  -6.108078e+04   8.980452e+05
  -5.509322e+05   8.999118e+05
  -4.559194e+05   1.980061e+05
  -9.117276e+04  -4.751065e+05
   2.214347e+05  -4.682378e+05
   3.659465e+05   1.092577e+05
   2.869107e+05   5.751308e+05
  -3.172805e+04   4.603040e+05
  -4.017784e+05  -1.750199e+04
  -5.014616e+05  -2.836552e+05
  -2.484038e+05  -1.034985e+05
   5.134790e+04   1.728383e+05
   8.040140e+04   8.193556e+04
  -6.547284e+04  -3.470731e+05
  -2.009264e+04  -5.964756e+05
   3.047064e+05  -2.855123e+05
   5.210754e+05   3.389057e+05
   2.348500e+05   6.533799e+05
  -3.891722e+05   3.526442e+05
  -7.075885e+05  -2.390371e+05
  -2.987148e+05  -5.624569e+05
   5.078085e+05  -3.969363e+05
   9.176909e+05   2.721293e+04
   5.118250e+05   3.626135e+05
  -2.831802e+05   4.401141e+05
  -6.496721e+05   2.844289e+05
  -2.754640e+05   3.146989e+04
   3.217484e+05  -1.110710e+05
   4.093419e+05   1.411949e+04
  -1.305742e+05   2.885590e+05
  -7.025934e+05   3.162650e+05
