
 $NMID
 id='ANONYMOUS ', fmtdat='(2E16.6)'
 volume=1.0
 tramp=1.0
 $END
   4.454942e+07  -3.789653e+05
   2.793297e+07   2.593776e+07
  -4.213308e+06   2.995820e+07
  -2.135274e+07   1.351971e+07
  -1.406388e+07  -3.802570e+06
   1.697027e+06  -7.655296e+06
   8.206322e+06  -2.266314e+05
   3.357693e+06   7.699143e+06
  -4.321558e+06   8.644516e+06
  -7.900541e+06   2.545534e+06
  -5.963261e+06  -5.091575e+06
  -7.226008e+05  -7.400507e+06
   3.382365e+06  -2.133391e+06
   2.333126e+06   5.111111e+06
  -2.968143e+06   6.135959e+06
  -6.601070e+06  -5.943555e+05
  -4.057750e+06  -8.287346e+06
   2.739346e+06  -9.845627e+06
   8.123393e+06  -4.904912e+06
   8.601427e+06   1.767273e+06
   4.944681e+06   5.918884e+06
   4.022465e+05   6.369337e+06
  -1.701507e+06   4.397062e+06
  -3.846560e+05   2.596359e+06
   1.481756e+06   2.903374e+06
  -2.312969e+05   4.267352e+06
  -5.385235e+06   3.552876e+06
  -8.609362e+06  -1.606955e+05
  -5.776391e+06  -3.800707e+06
   4.038387e+05  -4.114287e+06
   3.714882e+06  -1.617522e+06
   1.974288e+06   7.501054e+05
  -1.487718e+06   1.277001e+06
  -2.969328e+06   9.870258e+04
  -1.997398e+06  -2.102688e+06
   2.124615e+04  -3.863581e+06
   1.781485e+06  -2.987782e+06
   2.167598e+06   5.238032e+05
   8.272814e+05   2.864380e+06
  -5.712595e+05   8.785362e+05
   1.873814e+05  -2.700544e+06
   2.326729e+06  -2.235660e+06
   2.258117e+06   2.487137e+06
  -1.401098e+06   5.057489e+06
  -5.020446e+06   1.141653e+06
  -4.070786e+06  -5.215793e+06
   1.187183e+06  -6.744709e+06
   5.955733e+06  -2.020775e+06
   6.153460e+06   3.689973e+06
   1.991162e+06   5.314139e+06
  -2.981148e+06   2.693566e+06
  -4.949066e+06  -1.031682e+06
  -2.576041e+06  -2.952183e+06
   1.770586e+06  -2.044181e+06
   3.834876e+06   5.225954e+05
   1.837182e+06   2.127616e+06
  -1.343460e+06   1.181565e+06
  -1.691401e+06  -8.408551e+05
   7.769050e+05  -1.109094e+06
   2.212394e+06   8.209663e+05
   2.068027e+05   2.482190e+06
  -3.196722e+06   1.823981e+06
  -4.357956e+06  -5.978574e+05
  -2.156448e+06  -3.064019e+06
   1.651346e+06  -4.488157e+06
   4.704251e+06  -4.093179e+06
   5.490223e+06  -1.253557e+06
   3.709295e+06   2.936531e+06
   6.384023e+05   5.433757e+06
  -1.438479e+06   4.370926e+06
  -1.386441e+06   1.572565e+06
  -4.981023e+05   2.772564e+05
  -7.158373e+05   9.566317e+05
  -2.033296e+06   1.207794e+06
  -2.690812e+06  -4.025914e+05
  -1.617234e+06  -2.302571e+06
   4.011119e+05  -2.208992e+06
   1.826174e+06  -2.710667e+04
   1.660375e+06   2.289007e+06
  -1.796427e+05   2.866193e+06
  -2.668597e+06   1.294999e+06
  -3.878954e+06  -1.364770e+06
  -2.578027e+06  -3.343260e+06
   1.296172e+05  -3.457504e+06
   1.822806e+06  -2.177322e+06
   1.738492e+06  -1.048729e+06
   1.580066e+06  -8.048554e+05
   2.782857e+06  -5.852530e+05
   4.150572e+06   6.663252e+05
   3.342415e+06   2.647340e+06
   9.215547e+04   4.003211e+06
  -3.231981e+06   3.717991e+06
  -4.174912e+06   1.832863e+06
  -2.492592e+06  -6.580094e+05
   1.382040e+04  -2.210513e+06
   1.260023e+06  -1.733373e+06
   5.070714e+05   1.139226e+05
  -1.140088e+06   1.202291e+06
  -1.795489e+06   3.355782e+05
  -7.734561e+05  -1.129099e+06
   5.890353e+05  -1.068731e+06
   5.410276e+05   3.790917e+05
  -8.685076e+05   8.974899e+05
  -1.847479e+06  -8.001996e+05
  -1.043696e+06  -3.131293e+06
   1.058313e+06  -3.589504e+06
   2.949049e+06  -1.613185e+06
   3.517375e+06   1.164898e+06
   2.512748e+06   2.849166e+06
   4.778572e+05   2.746321e+06
  -1.310840e+06   1.427552e+06
  -1.589223e+06   1.426524e+05
  -4.844441e+05  -5.296335e+04
   3.420142e+05   7.377821e+05
  -3.690158e+05   1.255444e+06
  -1.770746e+06   5.406221e+05
  -1.937561e+06  -7.991149e+05
  -4.130190e+05  -1.320436e+06
   1.131529e+06  -5.678170e+05
   9.362378e+05   4.629316e+05
  -8.107516e+05   6.294298e+05
  -2.271729e+06  -2.136649e+05
  -1.889234e+06  -1.392070e+06
   1.986054e+05  -2.082115e+06
   2.334802e+06  -1.689165e+06
   2.758007e+06  -2.525341e+05
   1.171990e+06   1.211637e+06
  -8.777662e+05   1.386364e+06
  -1.438605e+06   1.565261e+05
  -1.374964e+05  -1.003752e+06
   1.477862e+06  -6.801112e+05
   1.686914e+06   7.535568e+05
   3.866229e+05   1.628210e+06
  -1.030548e+06   1.031765e+06
  -1.265321e+06  -2.297340e+05
  -3.049036e+05  -7.442617e+05
   7.354397e+05  -5.602825e+04
   6.799853e+05   1.034766e+06
  -6.168799e+05   1.369268e+06
  -1.989180e+06   4.623609e+05
  -1.963840e+06  -1.083673e+06
  -3.413512e+05  -2.032477e+06
   1.411733e+06  -1.594035e+06
   1.691271e+06  -2.146068e+05
   5.157129e+05   8.448078e+05
  -6.431380e+05   7.998026e+05
  -6.648796e+05   5.347610e+04
   1.010834e+05  -4.371075e+05
   5.683570e+05  -2.669238e+05
   2.475384e+05   1.132480e+05
  -3.937687e+05   4.270140e+04
  -5.558484e+05  -5.868420e+05
   1.560774e+05  -1.163319e+06
   1.358546e+06  -8.810207e+05
   2.046446e+06   4.332620e+05
   1.405348e+06   1.936633e+06
  -2.602743e+05   2.402599e+06
  -1.637504e+06   1.426209e+06
  -1.735674e+06  -1.137804e+05
  -9.196440e+05  -9.700240e+05
  -3.142086e+05  -7.951502e+05
  -3.825389e+05  -3.032549e+05
  -5.305717e+05  -2.773813e+05
  -7.204828e+04  -7.001858e+05
   8.577940e+05  -8.982365e+05
   1.466589e+06  -3.403423e+05
   1.091301e+06   7.624681e+05
  -2.426147e+05   1.522589e+06
  -1.740886e+06   1.081991e+06
  -2.246973e+06  -5.091291e+05
  -1.126861e+06  -2.087325e+06
   9.724613e+05  -2.322023e+06
   2.484974e+06  -1.028817e+06
   2.354607e+06   6.233812e+05
   1.023917e+06   1.349473e+06
  -1.769595e+05   1.025967e+06
  -4.674743e+05   5.697409e+05
  -2.027484e+05   7.168010e+05
  -1.710714e+05   1.211325e+06
  -6.581521e+05   1.210588e+06
  -1.245081e+06   2.788357e+05
  -1.283312e+06  -1.096847e+06
  -5.045806e+05  -1.885065e+06
   6.512793e+05  -1.406403e+06
   1.278605e+06   1.327182e+04
   8.024169e+05   1.252781e+06
  -3.569569e+05   1.373818e+06
  -1.102355e+06   4.514665e+05
  -7.943744e+05  -6.050655e+05
   6.635285e+04  -1.014890e+06
   4.608113e+05  -7.858381e+05
   6.096177e+04  -4.484419e+05
  -4.051488e+05  -3.574197e+05
  -4.110308e+04  -3.880951e+05
   1.112662e+06  -2.021284e+05
   1.995624e+06   3.442743e+05
   1.582345e+06   1.025879e+06
  -7.926976e+03   1.384079e+06
  -1.528192e+06   1.087633e+06
  -1.797270e+06   2.820049e+05
  -8.427594e+05  -4.363786e+05
   2.366218e+05  -5.292313e+05
   4.922024e+05  -5.496985e+04
   8.118288e+03   3.742746e+05
  -4.631645e+05   2.342942e+05
  -4.628995e+05  -3.467719e+05
  -1.863073e+05  -7.280994e+05
  -3.906481e+04  -4.727378e+05
  -1.489660e+05   1.257785e+05
  -3.278836e+05   3.208065e+05
  -2.793214e+05  -2.338280e+05
   1.867691e+05  -9.896009e+05
   9.085841e+05  -1.028604e+06
   1.289942e+06  -1.211796e+05
   7.679992e+05   9.159583e+05
  -4.265458e+05   1.074059e+06
  -1.212160e+06   2.682974e+05
  -7.065531e+05  -5.953884e+05
   6.959341e+05  -6.412753e+05
   1.597403e+06   9.981481e+04
   1.047183e+06   8.707968e+05
  -4.567741e+05   1.018756e+06
  -1.517668e+06   5.122888e+05
  -1.267329e+06  -1.839016e+05
  -1.462100e+05  -5.271808e+05
   6.464107e+05  -2.774653e+05
   3.616497e+05   2.821105e+05
  -6.086002e+05   4.809243e+05
  -1.162212e+06  -1.359927e+05
  -6.004678e+05  -1.195462e+06
   6.615511e+05  -1.654859e+06
   1.507784e+06  -8.189891e+05
   1.229401e+06   7.923580e+05
   1.599790e+05   1.795109e+06
  -7.663471e+05   1.296700e+06
  -9.300126e+05  -1.686379e+05
  -4.339894e+05  -1.196216e+06
   2.069180e+05  -9.857191e+05
   5.537021e+05  -8.829174e+04
   4.804577e+05   3.956023e+05
   1.856537e+05   1.535590e+05
   4.070042e+04  -1.042424e+05
   2.363202e+05   2.742094e+05
   4.751614e+05   9.612139e+05
   2.010534e+05   1.088776e+06
  -6.826230e+05   3.915825e+05
  -1.465394e+06  -4.932319e+05
  -1.289668e+06  -8.632720e+05
  -1.757185e+05  -6.940890e+05
   8.834790e+05  -3.943505e+05
   9.954235e+05  -1.708365e+05
   3.397098e+05   4.084368e+04
  -1.581496e+05   2.175050e+05
  -1.207891e+04   2.238634e+05
   2.898689e+05   1.221936e+05
   3.472919e+04   1.337749e+05
  -6.943494e+05   2.042866e+05
  -1.035831e+06  -4.087269e+04
  -3.738752e+05  -6.844916e+05
   8.852935e+05  -1.132326e+06
   1.682105e+06  -7.013591e+05
   1.356952e+06   4.665822e+05
   2.340703e+05   1.407669e+06
  -7.813125e+05   1.345784e+06
  -1.051245e+06   4.955401e+05
  -6.485821e+05  -2.609890e+05
  -1.135968e+05  -3.567078e+05
   9.236413e+04  -4.373557e+04
  -7.590846e+04   3.535441e+04
  -3.058181e+05  -3.662572e+05
  -2.403875e+05  -8.107918e+05
   1.959272e+05  -6.648206e+05
   6.764826e+05   1.521735e+05
   6.981181e+05   9.739474e+05
   6.897391e+04   1.019448e+06
  -7.632203e+05   2.062524e+05
  -1.003842e+06  -7.555436e+05
  -3.112960e+05  -1.085691e+06
   7.221590e+05  -6.426817e+05
   1.098328e+06   9.957168e+04
   5.069695e+05   6.006712e+05
  -2.926346e+05   6.482055e+05
  -3.642712e+05   3.571618e+05
   2.652633e+05   2.552103e+04
   6.519099e+05  -2.255034e+04
   1.339783e+05   3.037638e+05
  -8.342342e+05   6.627311e+05
  -1.248204e+06   5.329924e+05
  -7.379223e+05  -1.700431e+05
   1.117607e+05  -8.542448e+05
   5.454358e+05  -8.369148e+05
   4.033215e+05  -1.430686e+05
   3.252829e+04   4.836067e+05
  -2.473277e+05   4.173191e+05
  -3.450146e+05  -1.704300e+05
  -2.394344e+05  -5.789278e+05
   6.130160e+04  -4.070089e+05
   3.855080e+05   5.882836e+04
   4.644790e+05   2.740278e+05
   2.417593e+05   8.926186e+04
  -2.557628e+04  -1.343149e+05
  -8.748477e+04  -1.632583e+04
  -2.088280e+04   3.574212e+05
  -8.892135e+04   5.196702e+05
  -3.247225e+05   1.781155e+05
  -4.218290e+05  -4.002755e+05
  -1.138640e+05  -6.427954e+05
   4.182853e+05  -2.954352e+05
   6.422137e+05   2.982227e+05
   2.322408e+05   5.797383e+05
  -5.057120e+05   3.533497e+05
  -8.649020e+05  -9.578099e+04
  -4.647693e+05  -3.831926e+05
   2.961030e+05  -3.804873e+05
   6.312920e+05  -2.017481e+05
   2.359942e+05  -1.463157e+04
  -3.598456e+05   4.451786e+04
  -4.066606e+05  -8.994491e+04
   1.891829e+05  -2.937764e+05
   7.672398e+05  -2.508273e+05
