
 $NMID
 id='ANONYMOUS ', fmtdat='(2E16.6)'
 volume=1.0
 tramp=1.0
 $END
  -6.531951e+06  -9.583070e+05
  -3.780047e+06  -3.698470e+06
   6.819499e+05  -4.046712e+06
   3.113920e+06  -2.250667e+06
   2.267166e+06   5.595301e+04
  -2.959283e+04   1.133058e+06
  -1.319779e+06   3.994531e+05
  -8.207076e+05  -1.116167e+06
   4.937249e+05  -1.691967e+06
   1.273827e+06  -6.277350e+05
   9.530515e+05   9.710326e+05
  -1.817380e+04   1.385158e+06
  -6.794479e+05   2.182360e+05
  -4.043118e+05  -1.179315e+06
   5.075222e+05  -1.270472e+06
   1.082639e+06   1.666969e+04
   6.398950e+05   1.371552e+06
  -5.042433e+05   1.572908e+06
  -1.357075e+06   6.064988e+05
  -1.241926e+06  -5.610633e+05
  -4.205846e+05  -1.030301e+06
   2.337216e+05  -7.406461e+05
   1.365913e+05  -3.549362e+05
  -4.126714e+05  -4.692224e+05
  -5.369386e+05  -9.504596e+05
   2.504736e+05  -1.108121e+06
   1.394528e+06  -5.254276e+05
   1.769907e+06   4.196889e+05
   8.966337e+05   9.560471e+05
  -4.477756e+05   7.187377e+05
  -1.003230e+06   2.476524e+04
  -3.605441e+05  -5.175569e+05
   6.659593e+05  -4.946319e+05
   1.002143e+06   8.734310e+04
   4.396933e+05   7.846417e+05
  -3.102963e+05   9.639056e+05
  -5.177978e+05   3.870451e+05
  -1.650625e+05  -3.870624e+05
   2.034306e+05  -4.954826e+05
   1.521704e+05   1.848599e+05
  -2.375989e+05   7.838064e+05
  -5.350826e+05   4.894514e+05
  -4.064065e+05  -3.832059e+05
   8.592615e+04  -7.560740e+05
   5.215143e+05  -1.440358e+05
   4.495330e+05   7.563083e+05
  -2.012835e+05   9.327198e+05
  -9.566730e+05   1.988173e+05
  -1.125253e+06  -7.194464e+05
  -4.457817e+05  -1.030840e+06
   5.676981e+05  -5.891698e+05
   1.045349e+06   1.307870e+05
   6.113750e+05   5.344708e+05
  -2.343678e+05   3.830692e+05
  -6.530551e+05  -6.620645e+04
  -3.412631e+05  -3.333869e+05
   2.206342e+05  -1.849511e+05
   3.734563e+05   1.569583e+05
   9.384293e+03   2.954155e+05
  -3.687129e+05   9.775839e+04
  -2.558125e+05  -2.035005e+05
   2.795503e+05  -2.860500e+05
   6.526795e+05  -2.405006e+04
   3.717548e+05   4.400835e+05
  -4.332060e+05   7.774509e+05
  -1.109090e+06   6.581369e+05
  -1.116644e+06   3.211269e+04
  -5.425164e+05  -7.222726e+05
   5.429315e+04  -1.075123e+06
   2.617046e+05  -8.671823e+05
   1.853119e+05  -4.596996e+05
   1.970871e+05  -2.714903e+05
   4.420309e+05  -2.739099e+05
   6.954606e+05  -1.059816e+05
   6.533750e+05   3.535384e+05
   2.557171e+05   7.345722e+05
  -2.641650e+05   5.889878e+05
  -5.568539e+05  -5.020801e+04
  -3.951853e+05  -6.449742e+05
   1.374393e+05  -6.809309e+05
   6.473412e+05  -1.550040e+05
   7.240964e+05   4.669909e+05
   3.297614e+05   7.238632e+05
  -1.511646e+05   5.590570e+05
  -3.315393e+05   2.776255e+05
  -2.512458e+05   1.667486e+05
  -2.818101e+05   2.063063e+05
  -6.041468e+05   1.493370e+05
  -9.098194e+05  -1.661363e+05
  -7.208978e+05  -6.234373e+05
   2.707481e+04  -9.174516e+05
   8.203581e+05  -8.047256e+05
   1.035270e+06  -3.048307e+05
   5.531265e+05   2.765789e+05
  -1.266649e+05   5.452767e+05
  -3.922221e+05   3.450727e+05
  -1.097801e+05  -6.703094e+04
   3.102327e+05  -2.477053e+05
   4.005779e+05  -3.573151e+04
   1.175530e+05   2.629317e+05
  -1.832932e+05   2.438579e+05
  -1.733329e+05  -8.229188e+04
   1.236632e+05  -2.721205e+05
   3.972470e+05   1.920465e+04
   3.502709e+05   5.913134e+05
  -6.444861e+04   8.765145e+05
  -6.039577e+05   5.383145e+05
  -8.867197e+05  -1.805492e+05
  -6.768645e+05  -7.115075e+05
  -1.170852e+05  -7.077922e+05
   3.509027e+05  -3.229170e+05
   3.915631e+05   9.399230e+03
   1.120940e+05   2.032335e+04
  -7.132776e+04  -1.746625e+05
   8.493749e+04  -2.632362e+05
   3.784792e+05  -9.405814e+04
   4.165897e+05   1.778105e+05
   9.482456e+04   2.828052e+05
  -2.603359e+05   1.289806e+05
  -2.448090e+05  -1.132790e+05
   1.678479e+05  -1.877329e+05
   5.649963e+05   9.825786e+03
   5.032634e+05   3.410454e+05
  -2.794961e+04   5.342353e+05
  -5.724971e+05   4.059752e+05
  -6.545821e+05   3.395869e+04
  -2.495710e+05  -2.805100e+05
   2.128802e+05  -2.776232e+05
   3.012484e+05  -4.194091e+03
  -3.972550e+03   2.179488e+05
  -3.467645e+05   1.295511e+05
  -3.842327e+05  -1.809453e+05
  -1.006492e+05  -3.781329e+05
   2.238717e+05  -2.586374e+05
   2.994523e+05   2.828636e+04
   9.158118e+04   1.622489e+05
  -1.512159e+05   9.639600e+03
  -1.353759e+05  -2.440699e+05
   1.712175e+05  -3.041128e+05
   4.728541e+05  -6.738736e+04
   4.349062e+05   2.867920e+05
   4.933488e+04   4.718354e+05
  -3.381699e+05   3.489814e+05
  -3.902573e+05   3.852679e+04
  -1.219089e+05  -1.963958e+05
   1.530158e+05  -1.869222e+05
   1.769484e+05  -2.832817e+03
  -8.685554e+03   1.356178e+05
  -1.613832e+05   9.493242e+04
  -1.155782e+05  -3.398792e+04
   5.725596e+04  -5.248426e+04
   1.351516e+05   1.011778e+05
  -2.312956e+04   2.585687e+05
  -3.161656e+05   1.938178e+05
  -4.696925e+05  -1.231114e+05
  -2.981830e+05  -4.684657e+05
   9.492660e+04  -5.652106e+05
   4.058542e+05  -3.374128e+05
   4.297605e+05   2.833776e+04
   2.436223e+05   2.619852e+05
   7.921558e+04   2.509347e+05
   5.556593e+04   1.164965e+05
   8.014761e+04   6.022032e+04
  -3.780469e+02   1.386126e+05
  -1.988999e+05   2.034856e+05
  -3.523030e+05   8.137016e+04
  -2.734610e+05  -1.971107e+05
   5.572876e+04  -3.832604e+05
   4.230797e+05  -2.533679e+05
   5.315875e+05   1.418496e+05
   2.543267e+05   4.960640e+05
  -2.294385e+05   5.259376e+05
  -5.716980e+05   2.267825e+05
  -5.557684e+05  -1.448172e+05
  -2.666420e+05  -3.256226e+05
   2.812298e+04  -2.750026e+05
   1.421955e+05  -1.647535e+05
   1.080683e+05  -1.641354e+05
   8.444367e+04  -2.520208e+05
   1.646488e+05  -2.500861e+05
   2.802611e+05  -3.863217e+04
   2.775975e+05   2.793129e+05
   8.706400e+04   4.515569e+05
  -1.777085e+05   3.208389e+05
  -3.026750e+05  -1.453874e+04
  -1.783528e+05  -2.894514e+05
   7.900824e+04  -3.127530e+05
   2.345829e+05  -1.172605e+05
   1.711005e+05   1.086559e+05
  -7.652305e+02   2.098192e+05
  -7.973766e+04   1.805134e+05
  -3.923052e+03   1.190900e+05
   8.261266e+04   9.855538e+04
  -6.736555e+02   9.502670e+04
  -2.491621e+05   3.551383e+04
  -4.424309e+05  -1.021338e+05
  -3.548011e+05  -2.493521e+05
  -1.477672e+03  -3.044230e+05
   3.456745e+05  -2.230042e+05
   4.139803e+05  -5.722498e+04
   1.983301e+05   8.158981e+04
  -5.112623e+04   1.045359e+05
  -1.064362e+05   1.844293e+04
   1.502322e+04  -6.861825e+04
   1.229147e+05  -4.221619e+04
   9.904091e+04   8.934906e+04
   8.625357e+03   1.817324e+05
  -2.068308e+04   1.144558e+05
   3.831100e+04  -4.389626e+04
   9.858069e+04  -9.236935e+04
   6.636707e+04   5.518864e+04
  -6.962737e+04   2.376785e+05
  -2.269244e+05   2.230366e+05
  -2.765766e+05  -8.335699e+03
  -1.379220e+05  -2.288265e+05
   1.176212e+05  -2.226902e+05
   2.732656e+05  -1.992291e+04
   1.531271e+05   1.586761e+05
  -1.664724e+05   1.444965e+05
  -3.836434e+05  -3.308252e+04
  -2.651268e+05  -2.117238e+05
   9.734045e+04  -2.514295e+05
   3.690540e+05  -1.328884e+05
   3.166359e+05   4.248619e+04
   3.969318e+04   1.313815e+05
  -1.527991e+05   6.750562e+04
  -7.276414e+04  -6.454745e+04
   1.627448e+05  -9.264889e+04
   2.701808e+05   6.866586e+04
   1.005735e+05   3.018370e+05
  -2.095717e+05   3.711793e+05
  -3.825221e+05   1.522629e+05
  -2.764382e+05  -2.168824e+05
  -5.233977e+03  -4.330784e+05
   2.021375e+05  -3.077512e+05
   2.214291e+05   3.903492e+04
   1.001630e+05   2.873592e+05
  -4.316655e+04   2.413267e+05
  -1.259588e+05   2.098330e+04
  -1.231438e+05  -1.041304e+05
  -5.882871e+04  -4.399103e+04
  -4.705496e+03   2.903189e+04
  -2.703156e+04  -5.832891e+04
  -8.802375e+04  -2.311158e+05
  -5.085379e+04  -2.645479e+05
   1.447246e+05  -8.470164e+04
   3.432508e+05   1.412147e+05
   3.114033e+05   2.247231e+05
   3.265117e+04   1.631586e+05
  -2.329770e+05   7.777884e+04
  -2.449602e+05   3.103586e+04
  -6.510294e+04  -5.763574e+03
   4.798389e+04  -4.743785e+04
  -1.371129e+04  -6.188562e+04
  -8.851470e+04  -4.427745e+04
   2.184883e+03  -3.391040e+04
   1.912355e+05  -2.905026e+04
   2.421001e+05   3.492817e+04
   4.453629e+04   1.667264e+05
  -2.512520e+05   2.397920e+05
  -3.972620e+05   1.183791e+05
  -2.864127e+05  -1.490488e+05
  -2.078457e+04  -3.414204e+05
   2.044734e+05  -2.962743e+05
   2.580396e+05  -8.306521e+04
   1.521826e+05   8.548165e+04
   1.111752e+04   8.653630e+04
  -4.154218e+04  -2.959754e+03
   1.104102e+04  -2.095059e+04
   7.506213e+04   8.540242e+04
   5.024327e+04   1.957738e+05
  -6.348029e+04   1.493346e+05
  -1.620080e+05  -6.287717e+04
  -1.345661e+05  -2.584152e+05
   2.662939e+04  -2.413489e+05
   1.979932e+05  -1.460402e+04
   2.167162e+05   2.172445e+05
   3.870193e+04   2.623552e+05
  -1.874358e+05   1.227444e+05
  -2.478721e+05  -5.156077e+04
  -9.580088e+04  -1.386581e+05
   8.135559e+04  -1.289974e+05
   7.673991e+04  -7.220518e+04
  -8.068378e+04  -1.755168e+04
  -1.594232e+05  -1.029170e+04
  -1.910532e+04  -7.117167e+04
   2.101501e+05  -1.427548e+05
   2.892213e+05  -1.144087e+05
   1.520667e+05   4.130767e+04
  -4.541926e+04   1.924919e+05
  -1.298873e+05   1.786401e+05
  -8.052506e+04   1.157104e+04
   1.137227e+04  -1.229780e+05
   7.078820e+04  -8.383922e+04
   7.993558e+04   6.352386e+04
   4.231064e+04   1.424148e+05
  -2.794060e+04   8.013669e+04
  -8.959419e+04  -2.901584e+04
  -9.787287e+04  -6.300254e+04
  -5.460088e+04  -1.571293e+04
  -5.641727e+03   1.976895e+04
   1.869894e+04  -2.112325e+04
   3.461554e+04  -9.588227e+04
   6.518788e+04  -1.045261e+05
   9.243146e+04  -5.742950e+03
   7.045567e+04   1.241744e+05
  -1.565177e+04   1.584000e+05
  -1.138213e+05   5.335045e+04
  -1.350170e+05  -9.542045e+04
  -3.465999e+04  -1.489480e+05
   1.219332e+05  -7.027028e+04
   1.928883e+05   4.863656e+04
   9.691101e+04   1.009237e+05
  -7.860810e+04   7.124251e+04
  -1.497587e+05   1.885598e+04
  -4.310959e+04  -4.920753e+03
   1.051070e+05   9.496869e+03
   1.024688e+05   4.815700e+04
  -6.534085e+04   7.747588e+04
  -2.113582e+05   4.376712e+04
