
 $NMID
 id='ANONYMOUS ', fmtdat='(2E16.6)'
 volume=1.0
 tramp=1.0
 $END
   1.646474e+07  -8.399860e+05
   1.174674e+07   7.031978e+06
   8.072094e+05   1.056786e+07
  -6.913604e+06   7.666205e+06
  -6.337811e+06   1.186046e+06
  -6.545815e+05  -3.106677e+06
   3.499150e+06  -1.835290e+06
   2.886848e+06   2.653054e+06
  -5.858838e+05   4.907194e+06
  -3.161640e+06   2.347258e+06
  -2.849189e+06  -2.102754e+06
  -4.500958e+05  -3.586641e+06
   1.616952e+06  -7.622537e+05
   1.387256e+06   3.017876e+06
  -9.067727e+05   3.638863e+06
  -2.888925e+06   5.088000e+05
  -2.311247e+06  -3.253871e+06
   5.481719e+05  -4.289836e+06
   3.114687e+06  -2.144666e+06
   3.252238e+06   8.431795e+05
   1.407348e+06   2.224527e+06
  -1.424035e+05   1.716464e+06
   1.318146e+05   9.613049e+05
   1.443878e+06   1.385966e+06
   1.621126e+06   2.605936e+06
  -4.921649e+05   3.004663e+06
  -3.526836e+06   1.651178e+06
  -4.662616e+06  -6.417921e+05
  -2.541501e+06  -2.143146e+06
   9.886730e+05  -1.830345e+06
   2.571663e+06  -1.780486e+05
   9.177874e+05   1.344578e+06
  -1.857866e+06   1.409972e+06
  -2.769070e+06  -1.551422e+05
  -1.248578e+06  -2.077996e+06
   6.956559e+05  -2.564704e+06
   1.173192e+06  -1.059390e+06
   3.314429e+05   9.021629e+05
  -4.329914e+05   1.154233e+06
  -2.690185e+05  -5.715262e+05
   5.639090e+05  -2.133215e+06
   1.304565e+06  -1.467753e+06
   1.276674e+06   8.198297e+05
   2.480242e+05   2.089115e+06
  -1.146961e+06   8.299462e+05
  -1.527975e+06  -1.558845e+06
  -4.869134e+04  -2.458222e+06
   2.293587e+06  -9.450691e+05
   3.239281e+06   1.457966e+06
   1.587764e+06   2.616686e+06
  -1.330676e+06   1.807781e+06
  -2.902078e+06   9.316790e+03
  -1.886598e+06  -1.254203e+06
   4.381989e+05  -1.172119e+06
   1.757788e+06  -1.342785e+05
   1.078911e+06   7.274596e+05
  -4.780945e+05   5.863596e+05
  -1.071785e+06  -3.047652e+05
  -1.367385e+05  -9.070736e+05
   1.084646e+06  -5.153446e+05
   9.957226e+05   4.920215e+05
  -4.903431e+05   1.052793e+06
  -1.755773e+06   4.672640e+05
  -1.233223e+06  -9.583924e+05
   8.453537e+05  -2.133422e+06
   2.690069e+06  -2.000931e+06
   2.850087e+06  -4.012582e+05
   1.564326e+06   1.662733e+06
   1.856372e+05   2.782385e+06
  -3.824351e+05   2.424841e+06
  -3.933896e+05   1.393448e+06
  -5.907919e+05   8.020684e+05
  -1.224878e+06   7.338766e+05
  -1.827215e+06   3.148067e+05
  -1.742555e+06  -8.653589e+05
  -7.594217e+05  -1.915024e+06
   6.403184e+05  -1.602589e+06
   1.530324e+06   6.751560e+04
   1.191976e+06   1.677745e+06
  -2.212106e+05   1.840808e+06
  -1.648021e+06   5.441194e+05
  -1.969554e+06  -1.021032e+06
  -1.047800e+06  -1.725821e+06
   1.667619e+05  -1.434014e+06
   6.857737e+05  -8.308640e+05
   5.591827e+05  -5.779972e+05
   6.975547e+05  -6.840951e+05
   1.595491e+06  -5.927476e+05
   2.494390e+06   1.817223e+05
   2.106050e+06   1.472474e+06
   1.674033e+05   2.469692e+06
  -1.998234e+06   2.354318e+06
  -2.683690e+06   1.041739e+06
  -1.506521e+06  -6.200466e+05
   2.446810e+05  -1.459454e+06
   9.678675e+05  -9.776114e+05
   2.936324e+05   1.577834e+05
  -7.702469e+05   7.248117e+05
  -1.051618e+06   2.035334e+05
  -3.742881e+05  -6.500113e+05
   4.405307e+05  -6.873689e+05
   5.078516e+05   1.982365e+05
  -2.735517e+05   8.279860e+05
  -1.159229e+06   1.148569e+05
  -1.207410e+06  -1.530243e+06
  -8.689434e+04  -2.500568e+06
   1.556850e+06  -1.707922e+06
   2.520275e+06   2.637661e+05
   2.028442e+06   1.809963e+06
   4.744821e+05   1.911227e+06
  -8.735533e+05   9.453059e+05
  -1.050049e+06   5.772692e+04
  -3.058688e+05  -2.681925e+04
   2.369875e+05   4.512108e+05
  -1.444016e+05   7.301406e+05
  -9.768549e+05   3.662861e+05
  -1.174145e+06  -3.502744e+05
  -3.465251e+05  -7.346164e+05
   6.685335e+05  -4.210765e+05
   6.986521e+05   2.558701e+05
  -4.205111e+05   5.749830e+05
  -1.565528e+06   1.164542e+05
  -1.465243e+06  -8.274012e+05
  -4.704997e+04  -1.479782e+06
   1.459256e+06  -1.244430e+06
   1.758924e+06  -2.553585e+05
   7.482078e+05   6.822176e+05
  -4.822490e+05   7.951931e+05
  -7.917046e+05   1.016394e+05
  -4.692439e+04  -5.700724e+05
   8.922760e+05  -4.361940e+05
   1.086817e+06   3.847537e+05
   3.785861e+05   1.004600e+06
  -5.429545e+05   7.756475e+05
  -8.345566e+05   8.486665e+03
  -3.037711e+05  -4.227484e+05
   3.999576e+05  -7.583980e+04
   4.246131e+05   6.149349e+05
  -3.831387e+05   8.528897e+05
  -1.247441e+06   2.938518e+05
  -1.234108e+06  -6.596338e+05
  -2.534784e+05  -1.252072e+06
   8.155928e+05  -1.027921e+06
   1.042804e+06  -2.086764e+05
   3.850745e+05   5.010000e+05
  -3.657384e+05   5.472841e+05
  -4.802465e+05   4.217764e+04
   2.128649e+02  -3.859916e+05
   4.362154e+05  -2.943616e+05
   3.335037e+05   9.238023e+04
  -1.541364e+05   1.856282e+05
  -4.131065e+05  -2.326978e+05
  -1.558486e+04  -7.116614e+05
   8.009259e+05  -6.076750e+05
   1.295029e+06   2.110110e+05
   9.184932e+05   1.181956e+06
  -1.180855e+05   1.544345e+06
  -1.020550e+06   1.014165e+06
  -1.180448e+06   2.496707e+04
  -7.216194e+05  -6.705626e+05
  -2.510678e+05  -6.807253e+05
  -1.502241e+05  -2.968819e+05
  -2.243264e+05  -1.193974e+05
  -4.338531e+04  -3.617129e+05
   4.830743e+05  -6.045341e+05
   9.389206e+05  -3.096842e+05
   7.901736e+05   4.774715e+05
  -6.347125e+04   1.063411e+06
  -1.086416e+06   7.921826e+05
  -1.471567e+06  -2.533331e+05
  -8.160584e+05  -1.277025e+06
   4.752547e+05  -1.483679e+06
   1.482903e+06  -7.690262e+05
   1.549815e+06   2.476698e+05
   8.130466e+05   8.295671e+05
  -1.721154e+04   7.701628e+05
  -3.667594e+05   4.771296e+05
  -2.640273e+05   4.433915e+05
  -1.583418e+05   6.766945e+05
  -3.669871e+05   7.091049e+05
  -7.347822e+05   1.779646e+05
  -8.109473e+05  -6.794899e+05
  -3.431398e+05  -1.190561e+06
   3.998323e+05  -9.038527e+05
   8.210113e+05  -3.629502e+04
   5.605999e+05   7.330051e+05
  -1.259486e+05   8.703385e+05
  -6.055121e+05   3.954281e+05
  -5.059231e+05  -2.336949e+05
  -7.120283e+04  -5.700602e+05
   1.595002e+05  -5.243652e+05
  -1.680603e+04  -3.333640e+05
  -2.399628e+05  -2.438731e+05
  -1.844366e+04  -2.544532e+05
   6.586692e+05  -1.648798e+05
   1.211585e+06   1.537542e+05
   1.021041e+06   5.778336e+05
   9.533392e+04   8.226779e+05
  -8.607933e+05   6.949318e+05
  -1.103007e+06   2.664487e+05
  -5.707301e+05  -1.639126e+05
   1.005043e+05  -2.944879e+05
   2.846714e+05  -8.407653e+04
  -1.782366e+04   1.772420e+05
  -3.205133e+05   1.369660e+05
  -2.863975e+05  -2.140915e+05
  -5.685288e+04  -4.772894e+05
   3.551716e+04  -3.027551e+05
  -1.005778e+05   1.314659e+05
  -2.575185e+05   2.706155e+05
  -1.946191e+05  -1.331810e+05
   1.362709e+05  -6.528466e+05
   5.523350e+05  -6.539320e+05
   7.285001e+05  -5.318052e+04
   4.169837e+05   5.682135e+05
  -2.510477e+05   6.196186e+05
  -7.131479e+05   1.203373e+05
  -4.453287e+05  -3.895050e+05
   4.120652e+05  -4.334733e+05
   1.048724e+06  -4.580310e+03
   7.777316e+05   5.167392e+05
  -2.016099e+05   7.169522e+05
  -9.772147e+05   4.554952e+05
  -8.768108e+05  -4.107677e+04
  -1.402052e+05  -3.510869e+05
   3.986293e+05  -2.238603e+05
   2.122572e+05   1.496504e+05
  -4.129562e+05   2.794782e+05
  -7.333540e+05  -1.236291e+05
  -3.318536e+05  -7.792705e+05
   4.772310e+05  -1.032665e+06
   9.870881e+05  -4.901893e+05
   7.900776e+05   5.184791e+05
   1.143309e+05   1.162585e+06
  -4.754661e+05   8.795080e+05
  -6.129510e+05  -4.899854e+04
  -3.442634e+05  -7.550979e+05
   5.697893e+04  -6.721455e+05
   3.356228e+05  -9.219116e+04
   3.591892e+05   2.583852e+05
   1.715512e+05   1.134378e+05
   6.020877e+03  -8.372927e+04
   8.421306e+04   1.358200e+05
   2.912844e+05   5.945452e+05
   2.046909e+05   7.093764e+05
  -3.631290e+05   2.739938e+05
  -9.572279e+05  -2.993402e+05
  -8.968752e+05  -5.383595e+05
  -1.293452e+05  -4.305378e+05
   6.120159e+05  -2.564383e+05
   6.558666e+05  -1.410691e+05
   1.763767e+05  -9.646958e+03
  -1.189052e+05   1.353529e+05
   5.342340e+04   1.751187e+05
   2.498851e+05   1.110500e+05
  -1.044962e+03   8.826781e+04
  -5.101187e+05   1.105676e+05
  -6.542300e+05  -3.717660e+04
  -1.505873e+05  -4.216994e+05
   6.180555e+05  -6.897262e+05
   1.026062e+06  -4.130742e+05
   7.896946e+05   3.241472e+05
   1.321834e+05   9.083322e+05
  -4.733326e+05   8.433394e+05
  -6.658447e+05   2.793804e+05
  -4.240843e+05  -1.984592e+05
  -4.749162e+04  -2.252592e+05
   1.124508e+05   1.029781e+04
  -2.883574e+04   6.646842e+04
  -2.275646e+05  -2.136196e+05
  -1.838681e+05  -5.169184e+05
   1.343084e+05  -4.120724e+05
   4.442503e+05   1.367611e+05
   4.115191e+05   6.600209e+05
  -2.090301e+04   6.423553e+05
  -5.225316e+05   7.386086e+04
  -6.216932e+05  -5.342928e+05
  -1.616514e+05  -6.877771e+05
   4.678707e+05  -3.667564e+05
   6.706092e+05   7.729165e+04
   2.917819e+05   3.394595e+05
  -1.790620e+05   3.595317e+05
  -1.813562e+05   2.175287e+05
   2.231559e+05   3.841092e+04
   4.299374e+05  -6.845679e+03
   6.747162e+04   1.822864e+05
  -5.307568e+05   4.329430e+05
  -7.492652e+05   3.861916e+05
  -4.177419e+05  -6.212980e+04
   7.371141e+04  -5.234671e+05
   2.975090e+05  -5.139771e+05
   2.012575e+05  -5.372414e+04
  -8.069248e+03   3.303724e+05
  -1.667024e+05   2.365082e+05
  -2.222236e+05  -1.572093e+05
  -1.456839e+05  -3.706920e+05
   5.085001e+04  -2.144011e+05
   2.434175e+05   5.874834e+04
   2.802104e+05   1.395126e+05
   1.544737e+05   2.583678e+04
   7.481939e+03  -4.639128e+04
  -5.687219e+04   6.984060e+04
  -8.242145e+04   2.583361e+05
  -1.527431e+05   2.749917e+05
  -2.363482e+05   2.257395e+04
  -2.019318e+05  -3.128523e+05
   1.559268e+04  -4.158357e+05
   2.915008e+05  -1.631325e+05
   3.754419e+05   2.226802e+05
   1.219384e+05   3.892396e+05
  -3.073900e+05   2.181439e+05
  -5.214206e+05  -8.320996e+04
  -2.813453e+05  -2.455527e+05
   1.883377e+05  -2.050794e+05
   3.884039e+05  -8.247820e+04
   1.111230e+05  -1.793208e+03
  -2.837778e+05  -1.334344e+04
  -2.797972e+05  -1.143073e+05
   1.667060e+05  -2.198000e+05
   5.635448e+05  -1.555228e+05
