
 $NMID
 id='ANONYMOUS ', fmtdat='(2E16.6)'
 volume=1.0
 tramp=1.0
 $END
   5.606429e+07  -4.289113e+05
   3.370814e+07   3.455873e+07
  -7.336900e+06   3.788131e+07
  -2.721016e+07   1.451900e+07
  -1.615261e+07  -6.962451e+06
   3.300871e+06  -9.188602e+06
   9.609559e+06   1.238504e+06
   2.697674e+06   9.579912e+06
  -6.028360e+06   9.124518e+06
  -9.451723e+06   1.976943e+06
  -6.988632e+06  -6.040636e+06
  -9.507763e+05  -8.475016e+06
   3.924308e+06  -2.805997e+06
   2.728118e+06   5.253944e+06
  -3.587556e+06   6.423425e+06
  -7.752805e+06  -1.284980e+06
  -4.464814e+06  -1.004028e+07
   3.644494e+06  -1.169060e+07
   9.975333e+06  -5.957887e+06
   1.080002e+07   1.921690e+06
   6.709343e+06   7.433554e+06
   7.407125e+05   8.694863e+06
  -2.971438e+06   6.051800e+06
  -1.924158e+06   2.525035e+06
   1.166948e+06   1.909850e+06
   4.577254e+05   4.071480e+06
  -5.178801e+06   4.541987e+06
  -9.549504e+06   7.715733e+05
  -7.093409e+06  -3.947460e+06
  -4.004020e+05  -5.093265e+06
   3.617561e+06  -2.744835e+06
   2.547761e+06  -1.467739e+05
  -3.996800e+05   9.815967e+05
  -2.144651e+06   6.793087e+05
  -2.277650e+06  -1.250629e+06
  -8.906806e+05  -3.878482e+06
   1.719408e+06  -3.908917e+06
   3.326050e+06   5.494180e+04
   1.811225e+06   3.665413e+06
  -8.302889e+05   2.005574e+06
  -5.092242e+05  -2.396953e+06
   2.335720e+06  -2.307437e+06
   2.424293e+06   3.129359e+06
  -2.404794e+06   6.048554e+06
  -6.935947e+06   9.794730e+05
  -5.129835e+06  -6.882167e+06
   1.868815e+06  -8.473957e+06
   7.352872e+06  -2.469709e+06
   6.898837e+06   4.278305e+06
   1.883748e+06   5.868678e+06
  -3.351870e+06   2.690318e+06
  -5.138269e+06  -1.412127e+06
  -2.389054e+06  -3.361894e+06
   2.370415e+06  -2.160597e+06
   4.466012e+06   8.760002e+05
   1.931571e+06   2.664771e+06
  -1.688537e+06   1.368359e+06
  -1.708978e+06  -9.703568e+05
   1.299087e+06  -8.534421e+05
   2.394135e+06   1.764228e+06
  -6.881491e+05   3.387268e+06
  -4.612459e+06   1.849973e+06
  -5.224202e+06  -1.341487e+06
  -2.297541e+06  -3.916308e+06
   1.689196e+06  -5.247998e+06
   4.831983e+06  -4.919917e+06
   6.100929e+06  -1.875631e+06
   4.633617e+06   3.044191e+06
   1.070505e+06   6.091098e+06
  -1.753939e+06   4.700029e+06
  -1.686957e+06   1.162486e+06
  -7.515264e+04  -2.679338e+05
   1.441078e+05   1.032797e+06
  -1.514120e+06   1.907605e+06
  -2.815671e+06   3.876973e+05
  -2.128726e+06  -1.816102e+06
  -1.534219e+05  -2.130819e+06
   1.495573e+06  -3.026913e+05
   1.729695e+06   1.948210e+06
   1.120103e+05   2.891562e+06
  -2.694820e+06   1.734885e+06
  -4.485658e+06  -1.060441e+06
  -3.291488e+06  -3.679971e+06
  -2.687274e+04  -4.223734e+06
   2.245661e+06  -2.737475e+06
   2.211525e+06  -1.137086e+06
   1.786567e+06  -6.806002e+05
   2.867165e+06  -5.265248e+05
   4.285396e+06   6.468223e+05
   3.494246e+06   2.630256e+06
   2.409157e+05   4.051319e+06
  -3.036750e+06   3.935124e+06
  -4.049754e+06   2.236623e+06
  -2.658381e+06  -3.172199e+05
  -3.734115e+05  -2.212115e+06
   1.018109e+06  -1.970871e+06
   5.689281e+05   1.194329e+04
  -1.030150e+06   1.334682e+06
  -1.877728e+06   4.449490e+05
  -9.520536e+05  -1.178618e+06
   4.675204e+05  -1.121287e+06
   4.128707e+05   3.582162e+05
  -1.032073e+06   6.635793e+05
  -1.805391e+06  -1.279395e+06
  -6.365633e+05  -3.405703e+06
   1.521576e+06  -3.303318e+06
   3.020264e+06  -1.083177e+06
   3.219413e+06   1.343283e+06
   2.276196e+06   2.602227e+06
   5.257023e+05   2.520059e+06
  -1.168327e+06   1.482184e+06
  -1.547766e+06   2.827151e+05
  -4.872689e+05  -3.103871e+04
   3.729678e+05   7.321015e+05
  -3.858916e+05   1.337398e+06
  -1.884080e+06   6.124172e+05
  -2.028219e+06  -8.417937e+05
  -4.015676e+05  -1.394370e+06
   1.142202e+06  -5.873385e+05
   8.744414e+05   4.177863e+05
  -8.181731e+05   5.054031e+05
  -2.119865e+06  -2.729358e+05
  -1.719780e+06  -1.267021e+06
   1.942619e+05  -1.913118e+06
   2.215024e+06  -1.677322e+06
   2.721185e+06  -3.423690e+05
   1.232350e+06   1.226169e+06
  -8.824743e+05   1.518628e+06
  -1.555001e+06   2.228409e+05
  -2.317693e+05  -1.077287e+06
   1.484033e+06  -7.707405e+05
   1.711534e+06   7.336504e+05
   3.595022e+05   1.615175e+06
  -1.056480e+06   9.680486e+05
  -1.232397e+06  -2.932150e+05
  -2.431645e+05  -7.635173e+05
   7.942765e+05  -6.594160e+04
   7.598898e+05   1.026934e+06
  -5.271158e+05   1.430033e+06
  -1.971878e+06   5.999105e+05
  -2.047072e+06  -9.803385e+05
  -4.349834e+05  -2.043826e+06
   1.386123e+06  -1.659579e+06
   1.699734e+06  -2.452087e+05
   5.096700e+05   8.451486e+05
  -6.309877e+05   8.043161e+05
  -6.138402e+05   9.983831e+04
   1.058218e+05  -3.351133e+05
   4.531988e+05  -2.079643e+05
   9.444896e+04   3.852952e+04
  -4.455879e+05  -1.001516e+05
  -5.072956e+05  -6.667429e+05
   1.905454e+05  -1.172981e+06
   1.345007e+06  -9.138434e+05
   2.066347e+06   3.557632e+05
   1.501327e+06   1.881934e+06
  -1.440584e+05   2.393127e+06
  -1.544968e+06   1.425967e+06
  -1.650158e+06  -8.133535e+04
  -8.562573e+05  -8.350786e+05
  -3.428606e+05  -5.969710e+05
  -5.063837e+05  -1.922317e+05
  -6.444710e+05  -3.116819e+05
  -1.059706e+05  -7.677628e+05
   8.454156e+05  -9.053033e+05
   1.409787e+06  -3.502255e+05
   1.041256e+06   6.714601e+05
  -2.078510e+05   1.423035e+06
  -1.660735e+06   1.093264e+06
  -2.222349e+06  -4.149491e+05
  -1.163861e+06  -2.039504e+06
   9.494327e+05  -2.355301e+06
   2.487800e+06  -1.068798e+06
   2.319960e+06   6.002394e+05
   9.537071e+05   1.282000e+06
  -1.796467e+05   9.091440e+05
  -3.432229e+05   5.021728e+05
  -2.859752e+04   7.637420e+05
  -6.036610e+04   1.318656e+06
  -6.375481e+05   1.301950e+06
  -1.279771e+06   3.510000e+05
  -1.357117e+06  -1.028593e+06
  -6.073241e+05  -1.854484e+06
   5.697696e+05  -1.438212e+06
   1.265197e+06  -3.159362e+04
   8.282546e+05   1.250061e+06
  -3.612740e+05   1.383157e+06
  -1.144079e+06   4.071818e+05
  -8.086245e+05  -6.930173e+05
   1.172699e+05  -1.070547e+06
   5.291351e+05  -7.719438e+05
   7.685384e+04  -3.986449e+05
  -4.447513e+05  -3.158787e+05
  -7.435466e+04  -3.759780e+05
   1.134792e+06  -2.328580e+05
   2.055608e+06   2.797792e+05
   1.622397e+06   9.855499e+05
  -1.684051e+04   1.421734e+06
  -1.556555e+06   1.168294e+06
  -1.801353e+06   3.124054e+05
  -8.215980e+05  -4.816668e+05
   2.541533e+05  -5.750104e+05
   5.056784e+05  -3.685981e+04
   4.319313e+04   4.306612e+05
  -4.244881e+05   2.757428e+05
  -4.889051e+05  -3.238760e+05
  -2.911647e+05  -7.089648e+05
  -1.257650e+05  -4.761528e+05
  -1.257751e+05   8.682021e+04
  -2.475991e+05   2.881430e+05
  -2.745854e+05  -2.217795e+05
   9.874172e+04  -9.760197e+05
   8.578548e+05  -1.082973e+06
   1.365316e+06  -2.179173e+05
   8.911568e+05   8.848473e+05
  -3.815989e+05   1.155186e+06
  -1.251387e+06   3.853373e+05
  -7.480984e+05  -5.380802e+05
   6.771312e+05  -6.558109e+05
   1.558353e+06   5.465934e+04
   9.907619e+05   8.175305e+05
  -4.616074e+05   9.671116e+05
  -1.449257e+06   4.909735e+05
  -1.198911e+06  -1.599234e+05
  -1.389932e+05  -4.947576e+05
   6.320887e+05  -2.744191e+05
   3.931938e+05   2.877325e+05
  -5.544548e+05   5.493541e+05
  -1.179756e+06  -2.451377e+04
  -7.272437e+05  -1.142749e+06
   5.023570e+05  -1.720602e+06
   1.429075e+06  -9.471432e+05
   1.271813e+06   6.961479e+05
   2.672429e+05   1.758571e+06
  -6.828166e+05   1.290449e+06
  -9.101405e+05  -1.578348e+05
  -4.479336e+05  -1.159718e+06
   2.029883e+05  -9.449984e+05
   5.561282e+05  -9.020101e+04
   4.573393e+05   3.484191e+05
   1.491358e+05   1.188649e+05
   5.035562e+04  -8.788934e+04
   3.098662e+05   3.027441e+05
   5.451018e+05   9.452995e+05
   2.031948e+05   1.047582e+06
  -7.177888e+05   4.026270e+05
  -1.468726e+06  -4.063357e+05
  -1.270247e+06  -7.759302e+05
  -2.027634e+05  -6.875991e+05
   8.080746e+05  -4.521956e+05
   9.557914e+05  -2.087608e+05
   3.727315e+05   5.680419e+04
  -1.278819e+05   2.326468e+05
  -5.006265e+04   1.848626e+05
   2.415304e+05   6.182524e+04
   6.639675e+04   1.306833e+05
  -6.178513e+05   2.770737e+05
  -1.041800e+06   3.755717e+04
  -4.965741e+05  -6.827948e+05
   7.626101e+05  -1.223273e+06
   1.676870e+06  -8.338867e+05
   1.454852e+06   3.615177e+05
   3.425916e+05   1.378422e+06
  -7.137044e+05   1.401329e+06
  -1.022436e+06   5.963694e+05
  -6.579838e+05  -1.850558e+05
  -1.603367e+05  -3.528136e+05
   4.457198e+04  -9.261266e+04
  -8.499306e+04  -3.006887e+03
  -2.962103e+05  -3.580316e+05
  -2.655593e+05  -7.877161e+05
   1.440432e+05  -6.883551e+05
   6.782119e+05   6.790736e+04
   7.965498e+05   8.932263e+05
   1.942709e+05   1.027479e+06
  -7.219530e+05   3.135325e+05
  -1.073470e+06  -6.410445e+05
  -4.143669e+05  -1.069860e+06
   6.758238e+05  -7.278432e+05
   1.129246e+06   1.797941e+04
   5.677847e+05   6.086001e+05
  -2.621751e+05   7.133696e+05
  -3.871913e+05   3.830409e+05
   2.186411e+05  -1.903289e+04
   6.350108e+05  -7.422988e+04
   1.681016e+05   3.063517e+05
  -7.870533e+05   7.050306e+05
  -1.244801e+06   5.636827e+05
  -7.882204e+05  -1.709869e+05
   5.618328e+04  -8.780757e+05
   5.372854e+05  -8.802881e+05
   4.485224e+05  -1.956533e+05
   9.341956e+04   4.629372e+05
  -2.144810e+05   4.599501e+05
  -3.590345e+05  -1.021601e+05
  -2.829959e+05  -5.601906e+05
   2.968313e+04  -4.523731e+05
   3.930208e+05   1.415238e+04
   4.904973e+05   2.771770e+05
   2.419044e+05   1.017219e+05
  -5.102414e+04  -1.714725e+05
  -7.624714e+04  -8.422787e+04
   7.039330e+04   3.388627e+05
   2.602449e+04   5.883598e+05
  -2.973115e+05   2.861938e+05
  -5.157569e+05  -3.272555e+05
  -2.373727e+05  -6.390917e+05
   3.776398e+05  -3.481192e+05
   6.946307e+05   2.293826e+05
   2.961297e+05   5.473158e+05
  -4.949645e+05   3.895635e+05
  -8.982019e+05  -2.218715e+04
  -5.020402e+05  -3.520520e+05
   2.756453e+05  -4.329635e+05
   6.351054e+05  -2.827047e+05
   2.712542e+05  -3.111624e+04
  -3.116952e+05   1.139774e+05
  -4.002023e+05  -8.019051e+03
   1.224601e+05  -2.817870e+05
   6.801687e+05  -3.143738e+05
