
 $NMID
 id='ANONYMOUS ', fmtdat='(2E16.6)'
 volume=1.0
 tramp=1.0
 $END
  -1.193453e+07  -1.279434e+06
  -8.065209e+06  -4.466592e+06
  -8.202792e+05  -6.855529e+06
   4.762771e+06  -6.490330e+06
   5.122074e+06  -2.288649e+06
   1.126442e+06   2.281126e+06
  -2.786306e+06   2.339277e+06
  -2.991767e+06  -1.820672e+06
  -5.774553e+04  -4.631472e+06
   2.518463e+06  -2.432126e+06
   2.332216e+06   1.977364e+06
   1.427344e+05   3.317644e+06
  -1.583517e+06   3.783871e+05
  -1.236968e+06  -3.189267e+06
   7.353171e+05  -3.575010e+06
   2.375153e+06  -6.326046e+05
   1.899816e+06   2.682324e+06
  -5.117407e+05   3.467064e+06
  -2.603115e+06   1.398396e+06
  -2.347928e+06  -1.230944e+06
  -3.648306e+05  -1.952614e+06
   7.365737e+05  -7.772679e+05
  -4.223538e+05  -1.026014e+04
  -2.229304e+06  -1.213762e+06
  -2.008461e+06  -3.140771e+06
   8.143345e+05  -3.361609e+06
   3.979942e+06  -1.294357e+06
   4.623045e+06   1.298453e+06
   2.022311e+06   2.437542e+06
  -1.598845e+06   1.616644e+06
  -2.955939e+06  -3.263007e+05
  -8.566086e+05  -1.935855e+06
   2.409116e+06  -1.803416e+06
   3.389872e+06   3.015376e+05
   1.312064e+06   2.635303e+06
  -1.181398e+06   2.840750e+06
  -1.435496e+06   6.806346e+05
   1.126677e+05  -1.381207e+06
   1.062649e+06  -1.016622e+06
   3.601249e+05   1.169989e+06
  -8.722127e+05   2.499710e+06
  -1.383587e+06   1.495088e+06
  -1.142629e+06  -6.026657e+05
  -5.396632e+05  -1.557636e+06
   2.894653e+05  -6.010115e+05
   8.103781e+05   1.056746e+06
   5.258204e+04   1.654620e+06
  -1.839449e+06   5.245171e+05
  -2.940306e+06  -1.402665e+06
  -1.602764e+06  -2.475741e+06
   1.236158e+06  -1.825981e+06
   2.891306e+06  -1.354749e+05
   1.982448e+06   1.109333e+06
  -2.171864e+05   1.072540e+06
  -1.495537e+06   1.805464e+05
  -9.879363e+05  -5.454790e+05
   3.825467e+05  -4.694017e+05
   1.093636e+06   2.724911e+05
   4.233676e+05   9.837137e+05
  -8.931590e+05   9.390768e+05
  -1.298850e+06   5.181328e+04
  -1.333076e+05  -8.405940e+05
   1.308381e+06  -6.700634e+05
   1.069108e+06   6.408427e+05
  -1.016241e+06   1.867138e+06
  -2.917648e+06   1.669693e+06
  -2.814702e+06   4.206509e+03
  -1.179419e+06  -1.867085e+06
   1.426098e+05  -2.690552e+06
   3.318229e+05  -2.330280e+06
   2.112470e+05  -1.590406e+06
   7.219770e+05  -1.159298e+06
   1.696401e+06  -8.783098e+05
   2.280093e+06  -9.105761e+04
   1.906441e+06   1.302896e+06
   6.375911e+05   2.331067e+06
  -9.246647e+05   1.816555e+06
  -1.811414e+06  -1.467749e+05
  -1.272562e+06  -1.939327e+06
   3.829102e+05  -1.972658e+06
   1.799875e+06  -3.530126e+05
   1.832033e+06   1.332691e+06
   6.947478e+05   1.787059e+06
  -3.946397e+05   1.172891e+06
  -6.268768e+05   5.281580e+05
  -3.835399e+05   4.743571e+05
  -6.150861e+05   7.333469e+05
  -1.624451e+06   6.261811e+05
  -2.552746e+06  -2.354054e+05
  -2.131195e+06  -1.589173e+06
  -8.541260e+04  -2.594173e+06
   2.235359e+06  -2.391420e+06
   2.949778e+06  -9.118634e+05
   1.562133e+06   8.475711e+05
  -4.443338e+05   1.599145e+06
  -1.178377e+06   9.535364e+05
  -3.002129e+05  -2.269863e+05
   8.869500e+05  -7.169800e+05
   1.089183e+06  -1.433394e+05
   2.988978e+05   6.952957e+05
  -5.348636e+05   7.196541e+05
  -5.996086e+05  -1.970510e+05
   1.720187e+05  -9.504131e+05
   1.152004e+06  -3.489947e+05
   1.399737e+06   1.409750e+06
   3.441507e+05   2.674360e+06
  -1.513746e+06   2.016916e+06
  -2.746496e+06  -1.552365e+05
  -2.269822e+06  -1.982744e+06
  -5.049965e+05  -2.120193e+06
   9.972057e+05  -9.850942e+05
   1.146197e+06   4.551157e+03
   3.231011e+05   4.156780e+04
  -2.342693e+05  -4.828810e+05
   1.607456e+05  -7.257511e+05
   9.877520e+05  -3.275151e+05
   1.183298e+06   3.701113e+05
   3.542555e+05   7.394439e+05
  -7.029711e+05   4.317255e+05
  -7.722909e+05  -2.799737e+05
   4.143638e+05  -6.589200e+05
   1.700875e+06  -1.719084e+05
   1.634267e+06   9.013339e+05
   7.119551e+04   1.631582e+06
  -1.590058e+06   1.324885e+06
  -1.879836e+06   2.227604e+05
  -7.508479e+05  -7.252340e+05
   5.324067e+05  -7.705915e+05
   7.905725e+05  -5.058991e+04
  -9.526512e+03   5.826103e+05
  -9.520674e+05   4.113475e+05
  -1.131651e+06  -4.228838e+05
  -4.075423e+05  -1.058877e+06
   5.514870e+05  -8.381142e+05
   8.824683e+05  -4.049794e+04
   3.446220e+05   4.274000e+05
  -3.936011e+05   6.655033e+04
  -4.085623e+05  -6.616669e+05
   4.553226e+05  -8.795513e+05
   1.339901e+06  -2.422547e+05
   1.270090e+06   7.596745e+05
   2.140712e+05   1.325705e+06
  -8.848968e+05   1.048121e+06
  -1.097933e+06   1.965762e+05
  -4.052354e+05  -5.289463e+05
   3.936593e+05  -5.748848e+05
   5.387519e+05  -3.010220e+04
   2.138842e+04   4.529596e+05
  -5.007280e+05   3.571184e+05
  -4.353138e+05  -1.041160e+05
   1.100828e+05  -2.512608e+05
   4.385722e+05   1.981550e+05
   2.769977e+04   7.332114e+05
  -8.530013e+05   6.192652e+05
  -1.359711e+06  -2.666353e+05
  -9.212951e+05  -1.285262e+06
   1.849299e+05  -1.643258e+06
   1.119390e+06  -1.074592e+06
   1.283932e+06  -1.918702e+04
   8.058205e+05   7.605881e+05
   2.796413e+05   8.145201e+05
   1.156411e+05   3.861900e+05
   1.732824e+05   1.289338e+05
   1.481709e+04   3.511618e+05
  -5.154453e+05   6.277292e+05
  -1.011242e+06   3.244762e+05
  -8.629917e+05  -5.370847e+05
   7.038147e+04  -1.165240e+06
   1.180245e+06  -8.329989e+05
   1.568176e+06   3.119864e+05
   8.410343e+05   1.370762e+06
  -5.205784e+05   1.541615e+06
  -1.563557e+06   7.805298e+05
  -1.644730e+06  -2.717125e+05
  -8.942159e+05  -8.937814e+05
  -2.502602e+02  -8.627726e+05
   4.340239e+05  -5.523172e+05
   3.701632e+05  -4.715766e+05
   2.410079e+05  -6.769111e+05
   4.140566e+05  -7.018198e+05
   7.672505e+05  -1.428248e+05
   8.239484e+05   7.613904e+05
   3.110111e+05   1.282340e+06
  -4.676211e+05   9.453010e+05
  -8.755587e+05   1.591760e+04
  -5.731442e+05  -7.764169e+05
   1.351444e+05  -9.068011e+05
   6.086873e+05  -4.263338e+05
   5.071881e+05   2.069576e+05
   8.728637e+04   5.621136e+05
  -1.336708e+05   5.441056e+05
   3.235915e+04   3.711927e+05
   2.376789e+05   2.834560e+05
   3.762568e+03   2.776850e+05
  -6.849800e+05   1.508840e+05
  -1.250367e+06  -2.074401e+05
  -1.055474e+06  -6.357687e+05
  -9.531059e+04  -8.430203e+05
   9.049407e+05  -6.814854e+05
   1.161143e+06  -2.596284e+05
   6.005713e+05   1.485509e+05
  -1.059303e+05   2.828591e+05
  -2.888065e+05   9.325523e+04
   4.701679e+04  -1.638400e+05
   3.629298e+05  -1.277132e+05
   2.900751e+05   2.417771e+05
   9.159354e+03   5.277784e+05
  -8.147469e+04   3.305698e+05
   1.102421e+05  -1.597519e+05
   3.034255e+05  -3.123649e+05
   2.068166e+05   1.440490e+05
  -1.856449e+05   7.038619e+05
  -6.140809e+05   6.650552e+05
  -7.424606e+05  -6.501616e+03
  -3.799700e+05  -6.328099e+05
   3.010423e+05  -6.163219e+05
   7.485613e+05  -5.925634e+04
   4.544463e+05   4.452548e+05
  -4.455487e+05   4.484851e+05
  -1.125809e+06  -1.528600e+04
  -8.491855e+05  -5.610376e+05
   2.032561e+05  -7.744505e+05
   1.055576e+06  -4.952921e+05
   9.561258e+05   4.638356e+04
   1.546877e+05   3.831194e+05
  -4.252780e+05   2.374154e+05
  -2.060308e+05  -1.600979e+05
   4.716829e+05  -2.675091e+05
   7.787989e+05   1.894553e+05
   2.920792e+05   8.655096e+05
  -5.934918e+05   1.075728e+06
  -1.097251e+06   4.604731e+05
  -8.216787e+05  -6.012691e+05
  -6.865345e+04  -1.255310e+06
   5.417180e+05  -9.371802e+05
   6.537018e+05   5.556732e+04
   3.574760e+05   8.127955e+05
  -5.674547e+04   7.249492e+05
  -3.509263e+05   9.439423e+04
  -3.950503e+05  -2.910193e+05
  -2.035513e+05  -1.301842e+05
   7.099270e+02   9.423614e+04
  -4.695375e+04  -1.411260e+05
  -2.717011e+05  -6.441883e+05
  -2.179760e+05  -7.652703e+05
   3.664000e+05  -2.745583e+05
   1.015540e+06   3.607585e+05
   9.624218e+05   6.073320e+05
   1.216385e+05   4.593540e+05
  -6.893795e+05   2.507048e+05
  -7.138418e+05   1.334911e+05
  -1.658355e+05   1.162893e+04
   1.428503e+05  -1.392794e+05
  -8.033068e+04  -1.963770e+05
  -2.954799e+05  -1.383404e+05
   1.616722e+04  -9.906730e+04
   5.848031e+05  -9.134241e+04
   6.960426e+05   8.067335e+04
   9.637559e+04   4.642731e+05
  -7.262489e+05   6.970161e+05
  -1.102286e+06   3.649235e+05
  -7.962193e+05  -4.111156e+05
  -8.671242e+04  -9.853461e+05
   5.417346e+05  -8.662211e+05
   7.299041e+05  -2.458180e+05
   4.520267e+05   2.481111e+05
   2.691976e+04   2.459152e+05
  -1.494700e+05  -2.702086e+04
   1.939455e+04  -8.683935e+04
   2.439195e+05   2.269740e+05
   1.827408e+05   5.580860e+05
  -1.715603e+05   4.290333e+05
  -4.788595e+05  -1.863588e+05
  -3.946326e+05  -7.498405e+05
   8.719894e+04  -6.908871e+05
   5.867364e+05  -2.982094e+04
   6.350031e+05   6.306395e+05
   1.188239e+05   7.468712e+05
  -5.290284e+05   3.486118e+05
  -7.011883e+05  -1.287950e+05
  -2.733912e+05  -3.630806e+05
   2.147749e+05  -3.492621e+05
   1.837866e+05  -2.109820e+05
  -2.642335e+05  -5.535613e+04
  -4.676052e+05  -1.700188e+04
  -5.271599e+04  -1.957903e+05
   5.883940e+05  -4.390962e+05
   7.937655e+05  -3.875608e+05
   4.127579e+05   7.483957e+04
  -1.106696e+05   5.462575e+05
  -3.251803e+05   5.176650e+05
  -1.977835e+05   2.191479e+04
   3.621938e+04  -3.667740e+05
   1.990103e+05  -2.317856e+05
   2.369920e+05   2.016471e+05
   1.330549e+05   4.057018e+05
  -7.738551e+04   2.075763e+05
  -2.589008e+05  -8.575141e+04
  -2.799177e+05  -1.501909e+05
  -1.596008e+05  -2.160360e+04
  -2.679573e+04   3.462436e+04
   5.385347e+04  -1.083342e+05
   1.291043e+05  -2.951991e+05
   2.294480e+05  -2.734752e+05
   2.797885e+05   2.579136e+04
   1.766917e+05   3.806841e+05
  -7.810168e+04   4.586585e+05
  -3.350989e+05   1.508479e+05
  -3.785415e+05  -2.775774e+05
  -1.004449e+05  -4.351799e+05
   3.343781e+05  -2.114918e+05
   5.423458e+05   1.309840e+05
   2.809924e+05   2.800942e+05
  -2.172114e+05   1.919976e+05
  -4.194714e+05   4.451992e+04
  -1.019833e+05  -1.280163e+04
   3.330823e+05   4.089324e+04
   3.101586e+05   1.601305e+05
  -2.063602e+05   2.471912e+05
  -6.450750e+05   1.445457e+05
