
 $NMID
 id='ANONYMOUS ', fmtdat='(2E16.6)'
 volume=1.0
 tramp=1.0
 $END
   8.841053e+06   1.654111e+06
   5.231079e+06   4.407331e+06
  -4.490866e+05   5.159901e+06
  -3.936248e+06   3.715001e+06
  -3.349384e+06   7.606793e+05
  -3.459834e+05  -1.507638e+06
   1.875895e+06  -1.040964e+06
   1.564748e+06   1.425496e+06
  -3.810115e+05   2.784664e+06
  -1.785339e+06   1.246348e+06
  -1.434084e+06  -1.422574e+06
   2.639291e+04  -2.137301e+06
   1.033655e+06  -2.271972e+05
   6.500545e+05   2.012846e+06
  -6.828855e+05   2.159954e+06
  -1.605950e+06   1.686662e+05
  -1.076234e+06  -1.959444e+06
   5.938594e+05  -2.345937e+06
   1.917033e+06  -8.857493e+05
   1.699999e+06   8.993709e+05
   3.612555e+05   1.462718e+06
  -5.002467e+05   7.732270e+05
   4.720942e+04   1.964357e+05
   1.147336e+06   7.635208e+05
   1.132163e+06   1.868928e+06
  -5.256072e+05   2.042570e+06
  -2.506547e+06   7.832517e+05
  -2.935132e+06  -8.842508e+05
  -1.291613e+06  -1.621925e+06
   9.812772e+05  -1.051846e+06
   1.812291e+06   1.910177e+05
   5.430826e+05   1.128229e+06
  -1.389852e+06   1.012761e+06
  -1.978441e+06  -1.913912e+05
  -7.989405e+05  -1.534534e+06
   6.672092e+05  -1.719421e+06
   8.999284e+05  -5.031101e+05
   4.227836e+04   7.971172e+05
  -5.881074e+05   7.129000e+05
  -2.573316e+05  -5.908763e+05
   5.188948e+05  -1.488525e+06
   9.049959e+05  -8.869285e+05
   6.700100e+05   4.895742e+05
   9.071700e+04   1.060130e+06
  -4.548955e+05   2.541018e+05
  -5.267957e+05  -9.559098e+05
   2.043795e+05  -1.234459e+06
   1.365938e+06  -2.590543e+05
   1.834414e+06   1.086384e+06
   8.597487e+05   1.649411e+06
  -8.661474e+05   1.050745e+06
  -1.777938e+06  -7.905423e+04
  -1.132186e+06  -7.717316e+05
   2.427163e+05  -6.073525e+05
   9.701657e+05   2.067584e+04
   5.620521e+05   4.186871e+05
  -3.007984e+05   2.621770e+05
  -6.443247e+05  -2.168558e+05
  -1.624888e+05  -5.409330e+05
   5.520546e+05  -4.041140e+05
   6.228173e+05   8.823502e+04
  -1.475886e+05   4.605964e+05
  -9.144405e+05   2.371628e+05
  -6.253138e+05  -5.491994e+05
   7.114960e+05  -1.228463e+06
   1.891517e+06  -1.055096e+06
   1.838516e+06   1.895738e+04
   7.894320e+05   1.230321e+06
  -1.359944e+05   1.744182e+06
  -3.220690e+05   1.445556e+06
  -1.888567e+05   9.113587e+05
  -3.959177e+05   6.519633e+05
  -9.688938e+05   5.397310e+05
  -1.376439e+06   8.760863e+04
  -1.175636e+06  -7.760579e+05
  -3.874354e+05  -1.407410e+06
   5.590481e+05  -1.079628e+06
   1.063199e+06   1.158354e+05
   7.215538e+05   1.189731e+06
  -2.690811e+05   1.201237e+06
  -1.131370e+06   2.065989e+05
  -1.169334e+06  -8.587217e+05
  -4.556620e+05  -1.185876e+06
   2.797614e+05  -8.165911e+05
   4.752316e+05  -3.735721e+05
   3.189183e+05  -2.853559e+05
   4.303229e+05  -4.113558e+05
   1.036997e+06  -3.179145e+05
   1.589952e+06   2.360847e+05
   1.282225e+06   1.054356e+06
  -2.128526e+04   1.612125e+06
  -1.443672e+06   1.432915e+06
  -1.840969e+06   5.187728e+05
  -9.568913e+05  -5.351262e+05
   2.806734e+05  -9.769989e+05
   7.249706e+05  -5.768979e+05
   1.751036e+05   1.409703e+05
  -5.636791e+05   4.215724e+05
  -6.796362e+05   5.100821e+04
  -1.713357e+05  -4.460658e+05
   3.369977e+05  -4.171697e+05
   3.315754e+05   1.447049e+05
  -1.646731e+05   5.310152e+05
  -7.000356e+05   9.409334e+04
  -7.426672e+05  -9.437170e+05
  -6.239040e+04  -1.595060e+06
   9.928826e+05  -1.109832e+06
   1.636873e+06   1.985930e+05
   1.303659e+06   1.248630e+06
   2.522977e+05   1.290927e+06
  -6.265833e+05   5.869696e+05
  -6.986755e+05  -1.841011e+04
  -1.964013e+05  -3.062847e+04
   1.263512e+05   3.072756e+05
  -1.372056e+05   4.475469e+05
  -6.367763e+05   1.631777e+05
  -7.136868e+05  -2.844697e+05
  -1.727745e+05  -4.708085e+05
   4.547233e+05  -2.269928e+05
   4.494097e+05   2.045486e+05
  -2.894802e+05   3.752792e+05
  -1.038729e+06   3.589426e+04
  -9.543959e+05  -5.958213e+05
   1.199864e+04  -9.842772e+05
   1.009328e+06  -7.589931e+05
   1.157622e+06  -8.392308e+04
   4.384046e+05   4.718894e+05
  -3.597080e+05   4.658271e+05
  -4.993525e+05   4.561362e+03
   2.344821e+04  -3.678509e+05
   6.049254e+05  -2.242953e+05
   6.788917e+05   3.014909e+05
   2.029947e+05   6.575928e+05
  -3.703692e+05   4.755532e+05
  -5.284672e+05  -2.171659e+04
  -1.741463e+05  -2.737710e+05
   2.623150e+05  -1.513084e+04
   2.384239e+05   4.366880e+05
  -3.099363e+05   5.441175e+05
  -8.441754e+05   1.207807e+05
  -7.722113e+05  -5.042217e+05
  -9.582689e+04  -8.279662e+05
   5.786742e+05  -6.202249e+05
   6.767743e+05  -8.537470e+04
   2.203965e+05   3.336165e+05
  -2.637597e+05   3.306884e+05
  -3.200094e+05  -3.041148e+02
   1.216065e+04  -2.663975e+05
   3.113015e+05  -1.922852e+05
   2.447668e+05   7.207910e+04
  -8.728932e+04   1.339191e+05
  -2.620159e+05  -1.495641e+05
   1.160084e+04  -4.602424e+05
   5.501012e+05  -3.620573e+05
   8.385971e+05   2.017875e+05
   5.408824e+05   8.214228e+05
  -1.524342e+05   1.006973e+06
  -7.103561e+05   6.227727e+05
  -7.761719e+05  -2.407707e+04
  -4.630449e+05  -4.671166e+05
  -1.562376e+05  -4.743747e+05
  -8.503079e+04  -2.249455e+05
  -1.260833e+05  -9.525160e+04
  -7.176956e+03  -2.336276e+05
   3.364446e+05  -3.787935e+05
   6.328624e+05  -1.754069e+05
   5.174100e+05   3.447210e+05
  -7.275239e+04   7.073760e+05
  -7.492312e+05   4.821632e+05
  -9.595157e+05  -2.322435e+05
  -4.759095e+05  -8.724379e+05
   3.782880e+05  -9.394164e+05
   9.958913e+05  -4.292169e+05
   9.967195e+05   2.239914e+05
   5.055289e+05   5.693480e+05
  -2.984518e+04   5.105226e+05
  -2.639503e+05   3.161446e+05
  -2.151242e+05   2.899790e+05
  -1.554208e+05   4.295504e+05
  -2.789717e+05   4.335111e+05
  -4.862493e+05   7.149147e+04
  -4.945710e+05  -4.899341e+05
  -1.624330e+05  -7.994537e+05
   3.104899e+05  -5.720396e+05
   5.390238e+05   1.680721e+04
   3.283807e+05   5.022249e+05
  -1.192588e+05   5.559549e+05
  -3.994048e+05   2.298757e+05
  -3.069556e+05  -1.649770e+05
  -2.137541e+04  -3.608358e+05
   1.177622e+05  -3.267949e+05
  -3.512668e+03  -2.187646e+05
  -1.475907e+05  -1.750038e+05
  -1.686346e+03  -1.708779e+05
   4.349123e+05  -7.608897e+04
   7.815804e+05   1.620472e+05
   6.378394e+05   4.266798e+05
   2.167826e+04   5.334571e+05
  -5.941161e+05   4.019310e+05
  -7.272290e+05   1.206834e+05
  -3.586062e+05  -1.244930e+05
   8.023865e+04  -1.804854e+05
   1.848857e+05  -4.369399e+04
  -2.532816e+04   1.117320e+05
  -2.181784e+05   7.667503e+04
  -1.763798e+05  -1.531725e+05
  -1.064012e+04  -3.227652e+05
   4.398323e+04  -2.023978e+05
  -6.839776e+04   8.883296e+04
  -1.848282e+05   1.775754e+05
  -1.270236e+05  -9.628906e+04
   1.203259e+05  -4.316399e+05
   3.983355e+05  -4.040879e+05
   4.811925e+05   1.238159e+04
   2.396107e+05   4.024939e+05
  -2.015521e+05   3.892806e+05
  -4.757099e+05   3.429801e+04
  -2.745083e+05  -2.795800e+05
   2.871689e+05  -2.642272e+05
   6.869549e+05   3.979074e+04
   4.937027e+05   3.655064e+05
  -1.534305e+05   4.607547e+05
  -6.560056e+05   2.638245e+05
  -5.755420e+05  -5.876608e+04
  -7.981268e+04  -2.356391e+05
   2.692232e+05  -1.287087e+05
   1.270935e+05   1.101822e+05
  -2.927089e+05   1.629419e+05
  -4.801926e+05  -1.241053e+05
  -1.756101e+05  -5.368727e+05
   3.733867e+05  -6.584166e+05
   6.788284e+05  -2.723679e+05
   4.952479e+05   3.808478e+05
   1.983545e+04   7.709407e+05
  -3.513871e+05   5.585971e+05
  -3.982551e+05  -5.662327e+04
  -1.934808e+05  -5.092217e+05
   6.313280e+04  -4.378375e+05
   2.229390e+05  -4.477432e+04
   2.286436e+05   1.855551e+05
   1.122965e+05   8.110726e+04
   4.880165e+03  -5.376280e+04
   3.973575e+04   9.702678e+04
   1.582609e+05   4.060244e+05
   1.051435e+05   4.714612e+05
  -2.452778e+05   1.570582e+05
  -6.150989e+05  -2.423291e+05
  -5.682448e+05  -3.922116e+05
  -6.452734e+04  -2.879245e+05
   4.188905e+05  -1.431138e+05
   4.381114e+05  -6.434441e+04
   1.107250e+05   2.922058e+03
  -8.645109e+04   8.355713e+04
   3.482493e+04   1.147571e+05
   1.679100e+05   8.365618e+04
  -6.675031e+03   6.187951e+04
  -3.494288e+05   5.174342e+04
  -4.301285e+05  -5.973604e+04
  -6.962784e+04  -2.921828e+05
   4.490552e+05  -4.246584e+05
   6.958615e+05  -2.133080e+05
   5.003116e+05   2.615567e+05
   4.123338e+04   6.073208e+05
  -3.539620e+05   5.292843e+05
  -4.567668e+05   1.477148e+05
  -2.739013e+05  -1.546412e+05
  -1.756594e+04  -1.540118e+05
   8.156221e+04   1.059035e+04
  -1.719748e+04   4.424371e+04
  -1.400998e+05  -1.484993e+05
  -9.642909e+04  -3.480560e+05
   1.124331e+05  -2.642076e+05
   2.903206e+05   1.158422e+05
   2.374048e+05   4.620976e+05
  -5.258262e+04   4.264820e+05
  -3.552214e+05   2.037655e+04
  -3.851109e+05  -3.887080e+05
  -6.868863e+04  -4.637879e+05
   3.308498e+05  -2.155976e+05
   4.372723e+05   8.836371e+04
   1.692933e+05   2.385787e+05
  -1.408534e+05   2.238860e+05
  -1.286794e+05   1.287670e+05
   1.505407e+05   3.274167e+04
   2.856295e+05   1.605362e+04
   3.330987e+04   1.240958e+05
  -3.703935e+05   2.588339e+05
  -5.054209e+05   2.157261e+05
  -2.638376e+05  -6.291619e+04
   7.701743e+04  -3.392404e+05
   2.196373e+05  -3.176804e+05
   1.343057e+05  -1.800822e+04
  -2.196843e+04   2.211556e+05
  -1.247413e+05   1.462422e+05
  -1.428276e+05  -1.178772e+05
  -7.698490e+04  -2.522044e+05
   4.896874e+04  -1.363068e+05
   1.588047e+05   5.288365e+04
   1.730512e+05   1.047716e+05
   9.774783e+04   2.224592e+04
   1.253859e+04  -2.946362e+04
  -3.418750e+04   4.918263e+04
  -7.000276e+04   1.740493e+05
  -1.263827e+05   1.771605e+05
  -1.664429e+05  -1.390067e+03
  -1.169799e+05  -2.260157e+05
   3.716021e+04  -2.809334e+05
   2.041590e+05  -9.315729e+04
   2.365363e+05   1.708131e+05
   6.060833e+04   2.664408e+05
  -2.130789e+05   1.265969e+05
  -3.390296e+05  -8.540178e+04
  -1.717794e+05  -1.773726e+05
   1.376151e+05  -1.224303e+05
   2.624663e+05  -2.977180e+04
   7.052735e+04   8.048657e+03
  -1.937129e+05  -2.225478e+04
  -1.843188e+05  -9.212320e+04
   1.218507e+05  -1.422807e+05
   3.847231e+05  -7.957140e+04
