
 $NMID
 id='ANONYMOUS ', fmtdat='(2E16.6)'
 volume=1.0
 tramp=1.0
 $END
  -4.478960e+07  -1.413937e+06
  -2.661726e+07  -2.682221e+07
   5.457344e+06  -2.946658e+07
   2.144124e+07  -1.269495e+07
   1.350814e+07   4.008063e+06
  -1.919532e+06   7.394663e+06
  -7.960053e+06   1.021173e+05
  -3.137716e+06  -7.550191e+06
   4.289899e+06  -8.449242e+06
   7.793273e+06  -2.380749e+06
   5.883726e+06   5.278823e+06
   5.920491e+05   7.520035e+06
  -3.554636e+06   2.069827e+06
  -2.431448e+06  -5.242567e+06
   2.935398e+06  -6.130780e+06
   6.499942e+06   7.227744e+05
   3.840745e+06   8.349318e+06
  -2.989612e+06   9.732433e+06
  -8.308900e+06   4.634623e+06
  -8.622474e+06  -2.141919e+06
  -4.701305e+06  -6.263241e+06
   3.176085e+04  -6.449320e+06
   1.999726e+06  -4.132479e+06
   2.892671e+05  -2.258859e+06
  -1.800371e+06  -2.844725e+06
   1.116820e+05  -4.489010e+06
   5.615947e+06  -3.736690e+06
   8.924285e+06   2.342716e+05
   5.863304e+06   4.056755e+06
  -5.894378e+05   4.362772e+06
  -4.020966e+06   1.716949e+06
  -2.225052e+06  -8.836022e+05
   1.439384e+06  -1.593261e+06
   3.159514e+06  -3.370117e+05
   2.239031e+06   2.178873e+06
   5.871819e+03   4.117359e+06
  -1.970728e+06   3.032483e+06
  -2.279341e+06  -7.891301e+05
  -6.744780e+05  -3.102304e+06
   8.200180e+05  -8.117632e+05
  -8.072394e+04   2.908511e+06
  -2.322020e+06   2.300949e+06
  -2.177643e+06  -2.502960e+06
   1.521452e+06  -4.894052e+06
   4.971929e+06  -8.162862e+05
   3.817054e+06   5.400733e+06
  -1.440440e+06   6.648126e+06
  -6.051408e+06   1.833165e+06
  -6.148921e+06  -3.762070e+06
  -1.996352e+06  -5.296099e+06
   2.959507e+06  -2.701110e+06
   4.940317e+06   9.826961e+05
   2.565110e+06   2.894541e+06
  -1.783795e+06   1.970632e+06
  -3.806168e+06  -5.982697e+05
  -1.769532e+06  -2.143647e+06
   1.382876e+06  -1.146147e+06
   1.701148e+06   8.267746e+05
  -6.991640e+05   1.032990e+06
  -2.039368e+06  -8.091309e+05
  -7.299038e+04  -2.288764e+06
   3.168007e+06  -1.584127e+06
   4.222370e+06   7.041819e+05
   2.036548e+06   3.066628e+06
  -1.755687e+06   4.533271e+06
  -4.859642e+06   4.170848e+06
  -5.650881e+06   1.214513e+06
  -3.755899e+06  -3.109179e+06
  -5.814571e+05  -5.567484e+06
   1.446972e+06  -4.363354e+06
   1.272533e+06  -1.545276e+06
   3.754198e+05  -3.890415e+05
   7.326529e+05  -1.179222e+06
   2.203691e+06  -1.376068e+06
   2.916208e+06   3.951675e+05
   1.788954e+06   2.433388e+06
  -3.599135e+05   2.383993e+06
  -1.929624e+06   1.367013e+05
  -1.810141e+06  -2.313899e+06
   1.400953e+05  -2.977644e+06
   2.781482e+06  -1.346774e+06
   4.006769e+06   1.455947e+06
   2.571422e+06   3.489552e+06
  -2.501402e+05   3.512540e+06
  -1.918991e+06   2.117909e+06
  -1.740698e+06   9.762998e+05
  -1.542831e+06   7.991489e+05
  -2.782906e+06   6.331531e+05
  -4.208020e+06  -6.171347e+05
  -3.431719e+06  -2.642731e+06
  -1.617140e+05  -4.080297e+06
   3.244991e+06  -3.866889e+06
   4.283462e+06  -1.956639e+06
   2.614461e+06   6.661751e+05
   2.080170e+04   2.331278e+06
  -1.308932e+06   1.830420e+06
  -5.449538e+05  -1.267108e+05
   1.165265e+06  -1.267978e+06
   1.842009e+06  -3.545873e+05
   7.917669e+05   1.173806e+06
  -5.981840e+05   1.127515e+06
  -5.736100e+05  -3.437714e+05
   7.992193e+05  -9.023039e+05
   1.778661e+06   7.405329e+05
   1.069199e+06   3.041232e+06
  -9.183135e+05   3.553736e+06
  -2.823111e+06   1.690402e+06
  -3.543682e+06  -1.033754e+06
  -2.660442e+06  -2.783714e+06
  -5.906309e+05  -2.784839e+06
   1.313124e+06  -1.499695e+06
   1.639218e+06  -1.789685e+05
   4.956029e+05   4.723800e+04
  -3.647228e+05  -7.479859e+05
   3.643998e+05  -1.276099e+06
   1.797776e+06  -5.586861e+05
   1.971599e+06   7.908413e+05
   4.319124e+05   1.331404e+06
  -1.141560e+06   6.040221e+05
  -9.785130e+05  -4.330708e+05
   7.699169e+05  -6.602719e+05
   2.290654e+06   1.244664e+05
   1.976498e+06   1.329037e+06
  -1.153151e+05   2.116825e+06
  -2.327171e+06   1.786885e+06
  -2.808564e+06   3.168926e+05
  -1.205782e+06  -1.219644e+06
   8.934867e+05  -1.418834e+06
   1.469035e+06  -1.574173e+05
   1.417381e+05   1.037411e+06
  -1.504624e+06   7.181623e+05
  -1.729969e+06  -7.347999e+05
  -4.293794e+05  -1.638078e+06
   1.009679e+06  -1.065380e+06
   1.277781e+06   1.969547e+05
   3.262806e+05   7.378956e+05
  -7.438765e+05   6.682078e+04
  -7.149320e+05  -1.045706e+06
   6.049565e+05  -1.417490e+06
   2.031252e+06  -5.131647e+05
   2.030914e+06   1.075111e+06
   3.827822e+05   2.070903e+06
  -1.412969e+06   1.646426e+06
  -1.716855e+06   2.461836e+05
  -5.408577e+05  -8.489666e+05
   6.383015e+05  -8.307217e+05
   6.902542e+05  -7.927222e+04
  -6.285526e+04   4.504354e+05
  -5.569158e+05   3.167312e+05
  -2.783965e+05  -7.181984e+04
   3.562708e+05  -4.441196e+04
   5.539575e+05   5.633493e+05
  -1.327554e+05   1.166629e+06
  -1.359250e+06   9.203702e+05
  -2.093462e+06  -4.001443e+05
  -1.470702e+06  -1.950680e+06
   2.158439e+05  -2.461689e+06
   1.631385e+06  -1.497530e+06
   1.768483e+06   6.231553e+04
   9.809484e+05   9.552411e+05
   3.749470e+05   8.135424e+05
   4.106007e+05   3.308421e+05
   5.272684e+05   2.909686e+05
   6.955396e+04   7.063459e+05
  -8.475259e+05   9.240106e+05
  -1.473438e+06   3.868686e+05
  -1.137292e+06  -7.360734e+05
   1.904709e+05  -1.551755e+06
   1.738019e+06  -1.147560e+06
   2.302641e+06   4.631534e+05
   1.195069e+06   2.095432e+06
  -9.396375e+05   2.373527e+06
  -2.499554e+06   1.092645e+06
  -2.402603e+06  -5.733719e+05
  -1.083724e+06  -1.331362e+06
   1.303054e+05  -1.046982e+06
   4.511761e+05  -6.172549e+05
   2.089670e+05  -7.658912e+05
   1.774131e+05  -1.248261e+06
   6.617973e+05  -1.238541e+06
   1.267813e+06  -2.975156e+05
   1.333444e+06   1.101463e+06
   5.533207e+05   1.920475e+06
  -6.395589e+05   1.454114e+06
  -1.305261e+06   1.610384e+04
  -8.391979e+05  -1.254990e+06
   3.324750e+05  -1.396043e+06
   1.092735e+06  -4.746650e+05
   7.962233e+05   5.917979e+05
  -5.370715e+04   1.012954e+06
  -4.408141e+05   7.911445e+05
  -4.029675e+04   4.550830e+05
   4.223800e+05   3.632150e+05
   4.984560e+04   3.978493e+05
  -1.124182e+06   2.212932e+05
  -2.033530e+06  -3.202176e+05
  -1.629133e+06  -1.012461e+06
  -1.689000e+04  -1.395760e+06
   1.536343e+06  -1.123447e+06
   1.818776e+06  -3.224491e+05
   8.544279e+05   4.152198e+05
  -2.362851e+05   5.331368e+05
  -4.909806e+05   6.446061e+04
  -2.475318e+02  -3.806928e+05
   4.753584e+05  -2.503549e+05
   4.775558e+05   3.486184e+05
   1.999009e+05   7.556384e+05
   4.274268e+04   4.958520e+05
   1.401201e+05  -1.370499e+05
   3.206263e+05  -3.517855e+05
   2.889002e+05   2.267197e+05
  -1.686633e+05   1.021404e+06
  -9.076681e+05   1.067132e+06
  -1.314855e+06   1.302166e+05
  -7.949553e+05  -9.361622e+05
   4.270554e+05  -1.098956e+06
   1.241227e+06  -2.811944e+05
   7.362784e+05   5.994141e+05
  -6.941992e+05   6.660568e+05
  -1.629097e+06  -6.124141e+04
  -1.092384e+06  -8.484985e+05
   4.280545e+05  -1.041467e+06
   1.522665e+06  -5.673257e+05
   1.295014e+06   1.442859e+05
   1.671839e+05   5.304862e+05
  -6.480892e+05   2.990970e+05
  -3.696425e+05  -2.831788e+05
   6.224259e+05  -5.074400e+05
   1.201173e+06   1.223778e+05
   6.364689e+05   1.226283e+06
  -6.579424e+05   1.717482e+06
  -1.539917e+06   8.686303e+05
  -1.277812e+06  -7.906066e+05
  -2.009587e+05  -1.837064e+06
   7.508102e+05  -1.346160e+06
   9.475759e+05   1.460149e+05
   4.728024e+05   1.204940e+06
  -1.775384e+05   1.005440e+06
  -5.574761e+05   1.020309e+05
  -5.069773e+05  -3.870949e+05
  -2.021227e+05  -1.457317e+05
  -3.502002e+04   1.056966e+05
  -2.337656e+05  -2.852492e+05
  -5.005839e+05  -9.777105e+05
  -2.365989e+05  -1.100763e+06
   6.813163e+05  -4.032742e+05
   1.511279e+06   4.734394e+05
   1.343403e+06   8.465176e+05
   1.924002e+05   7.035871e+05
  -9.024966e+05   4.297363e+05
  -1.013571e+06   2.006503e+05
  -3.381473e+05  -3.942336e+04
   1.611622e+05  -2.289346e+05
  -3.449821e+03  -2.213310e+05
  -3.124657e+05  -1.105221e+05
  -3.707320e+04  -1.407822e+05
   7.182868e+05  -2.331196e+05
   1.064570e+06   2.467188e+04
   3.845368e+05   7.097897e+05
  -8.986079e+05   1.184198e+06
  -1.713700e+06   7.379412e+05
  -1.396997e+06  -4.702463e+05
  -2.660634e+05  -1.443098e+06
   7.760581e+05  -1.388079e+06
   1.074582e+06  -5.234261e+05
   6.770987e+05   2.562610e+05
   1.207969e+05   3.679089e+05
  -1.061814e+05   5.285399e+04
   6.691423e+04  -3.850347e+04
   3.202072e+05   3.616258e+05
   2.651601e+05   8.215407e+05
  -1.916855e+05   6.866242e+05
  -7.057793e+05  -1.448436e+05
  -7.381233e+05  -9.964309e+05
  -8.130983e+04  -1.055777e+06
   7.934845e+05  -2.262032e+05
   1.051040e+06   7.653236e+05
   3.344125e+05   1.113842e+06
  -7.372515e+05   6.691165e+05
  -1.127415e+06  -8.854283e+04
  -5.199690e+05  -6.075884e+05
   2.967260e+05  -6.633302e+05
   3.634829e+05  -3.631471e+05
  -2.817186e+05  -1.402533e+04
  -6.705395e+05   3.704618e+04
  -1.389003e+05  -3.109602e+05
   8.413153e+05  -6.957109e+05
   1.256944e+06  -5.655801e+05
   7.458122e+05   1.659618e+05
  -1.032902e+05   8.763621e+05
  -5.424524e+05   8.567983e+05
  -4.119178e+05   1.398868e+05
  -4.319864e+04  -5.027150e+05
   2.521864e+05  -4.308997e+05
   3.658801e+05   1.730054e+05
   2.556684e+05   5.905959e+05
  -6.490491e+04   4.159566e+05
  -4.001322e+05  -5.593289e+04
  -4.732302e+05  -2.719188e+05
  -2.437367e+05  -8.392471e+04
   1.915010e+04   1.376452e+05
   7.535392e+04   6.718133e+03
   1.635772e+04  -3.828021e+05
   1.020028e+05  -5.464102e+05
   3.495414e+05  -1.845096e+05
   4.435197e+05   4.210678e+05
   1.205048e+05   6.738067e+05
  -4.305770e+05   3.125050e+05
  -6.663494e+05  -3.034974e+05
  -2.497683e+05  -5.968365e+05
   5.116680e+05  -3.680927e+05
   8.895890e+05   9.004566e+04
   4.823392e+05   3.873124e+05
  -3.036356e+05   3.917317e+05
  -6.508962e+05   2.109794e+05
  -2.390124e+05   1.100993e+04
   3.817827e+05  -5.805991e+04
   4.314564e+05   8.707872e+04
  -1.874854e+05   3.167607e+05
  -7.907960e+05   2.844921e+05
