
 $NMID
 id='ANONYMOUS ', fmtdat='(2E16.6)'
 volume=1.0
 tramp=1.0
 $END
   2.985981e+07   2.006774e+06
   1.618469e+07   1.995291e+07
  -5.765645e+06   1.975530e+07
  -1.493078e+07   6.205266e+06
  -7.901442e+06  -4.596516e+06
   2.277082e+06  -4.597109e+06
   4.823977e+06   1.241041e+06
   8.064588e+05   5.068024e+06
  -3.533344e+06   4.274167e+06
  -4.931708e+06   5.091943e+05
  -3.424828e+06  -3.387812e+06
  -2.468594e+05  -4.410579e+06
   2.149689e+06  -1.389161e+06
   1.298374e+06   2.683759e+06
  -2.040037e+06   3.065895e+06
  -3.942140e+06  -1.041173e+06
  -1.899678e+06  -5.410288e+06
   2.387195e+06  -5.950378e+06
   5.494396e+06  -2.761584e+06
   5.697570e+06   1.398949e+06
   3.363769e+06   4.260422e+06
   3.919164e+04   4.794007e+06
  -2.001568e+06   3.132537e+06
  -1.313977e+06   1.037323e+06
   5.559842e+05   7.167576e+05
   3.054018e+05   2.020532e+06
  -2.669986e+06   2.342999e+06
  -4.967157e+06   2.953060e+05
  -3.653421e+06  -2.223358e+06
  -1.769293e+05  -2.778354e+06
   1.902803e+06  -1.518810e+06
   1.452957e+06  -1.604637e+05
   4.643774e+04   5.098600e+05
  -9.402339e+05   4.905024e+05
  -1.230854e+06  -5.028144e+05
  -5.530094e+05  -2.005669e+06
   9.932913e+05  -2.081343e+06
   1.918451e+06   1.010820e+05
   9.472960e+05   2.090601e+06
  -6.077447e+05   1.179313e+06
  -3.776130e+05  -1.181878e+06
   1.197595e+06  -1.094473e+06
   1.096991e+06   1.729589e+06
  -1.604791e+06   3.021175e+06
  -3.801150e+06   1.214047e+05
  -2.433202e+06  -3.921061e+06
   1.395684e+06  -4.404570e+06
   3.982676e+06  -1.019435e+06
   3.385171e+06   2.426705e+06
   7.252419e+05   3.013407e+06
  -1.769377e+06   1.210886e+06
  -2.485282e+06  -8.919920e+05
  -1.023201e+06  -1.759507e+06
   1.336342e+06  -9.762773e+05
   2.263851e+06   6.508573e+05
   8.616953e+05   1.461926e+06
  -9.409688e+05   6.413636e+05
  -8.070993e+05  -5.361334e+05
   7.366900e+05  -2.857416e+05
   1.082269e+06   1.127291e+06
  -6.805834e+05   1.746843e+06
  -2.594882e+06   6.807535e+05
  -2.640346e+06  -1.001962e+06
  -9.928600e+05  -2.155847e+06
   1.013368e+06  -2.689986e+06
   2.568667e+06  -2.471247e+06
   3.209735e+06  -8.674317e+05
   2.390116e+06   1.692554e+06
   4.306799e+05   3.179841e+06
  -1.049682e+06   2.302963e+06
  -8.738435e+05   4.204097e+05
   1.080232e+05  -2.072498e+05
   2.237097e+05   6.040695e+05
  -7.335911e+05   1.097497e+06
  -1.483294e+06   2.884930e+05
  -1.157873e+06  -8.735395e+05
  -1.590181e+05  -1.078595e+06
   6.903789e+05  -2.083740e+05
   8.521821e+05   9.188317e+05
   5.708346e+04   1.447062e+06
  -1.397982e+06   8.848464e+05
  -2.328680e+06  -6.010238e+05
  -1.654986e+06  -2.004654e+06
   1.114095e+05  -2.243803e+06
   1.297142e+06  -1.372521e+06
   1.214533e+06  -4.851592e+05
   9.199846e+05  -2.498267e+05
   1.424212e+06  -1.773891e+05
   2.111277e+06   4.131278e+05
   1.687654e+06   1.367647e+06
   6.199254e+04   2.008269e+06
  -1.543154e+06   1.924851e+06
  -2.035487e+06   1.108449e+06
  -1.359576e+06  -1.508822e+05
  -2.204279e+05  -1.124480e+06
   5.068934e+05  -1.016421e+06
   2.998712e+05  -1.200378e+02
  -5.183062e+05   6.689992e+05
  -9.527151e+05   1.956468e+05
  -4.749279e+05  -6.212164e+05
   2.279937e+05  -5.607486e+05
   1.673891e+05   1.655206e+05
  -5.298455e+05   2.360115e+05
  -7.998286e+05  -7.611231e+05
  -1.278293e+05  -1.696866e+06
   8.822833e+05  -1.477384e+06
   1.462631e+06  -3.472663e+05
   1.465630e+06   7.319451e+05
   1.032484e+06   1.242518e+06
   2.371126e+05   1.198087e+06
  -5.760170e+05   7.258730e+05
  -7.665580e+05   1.411271e+05
  -2.404336e+05  -2.036090e+04
   1.740648e+05   3.663829e+05
  -2.269038e+05   6.603982e+05
  -9.628034e+05   2.651791e+05
  -9.879614e+05  -4.690521e+05
  -1.586361e+05  -7.021698e+05
   5.722964e+05  -2.657475e+05
   4.078122e+05   2.057563e+05
  -4.005261e+05   2.012025e+05
  -9.913016e+05  -1.763503e+05
  -7.889103e+05  -6.115260e+05
   1.174187e+05  -8.943009e+05
   1.089330e+06  -7.826414e+05
   1.336740e+06  -1.348881e+05
   5.889488e+05   6.321774e+05
  -4.747043e+05   7.515476e+05
  -7.947310e+05   8.106852e+04
  -1.047054e+05  -5.546425e+05
   7.497085e+05  -3.647285e+05
   8.276958e+05   3.907513e+05
   1.385008e+05   7.900469e+05
  -5.341347e+05   4.349225e+05
  -5.818347e+05  -1.780289e+05
  -8.801931e+04  -3.745802e+05
   4.017805e+05  -1.113813e+04
   3.664191e+05   5.232997e+05
  -2.743892e+05   7.083877e+05
  -9.849731e+05   2.827459e+05
  -1.007196e+06  -5.068746e+05
  -1.896483e+05  -1.018390e+06
   7.113285e+05  -7.989286e+05
   8.397628e+05  -9.172016e+04
   2.308511e+05   4.215067e+05
  -3.213640e+05   3.815333e+05
  -2.942081e+05   5.160720e+04
   5.040940e+04  -1.378157e+05
   1.949745e+05  -8.937653e+04
   1.859100e+04  -9.561196e+03
  -2.140519e+05  -9.441193e+04
  -2.161434e+05  -3.497364e+05
   1.262671e+05  -5.684291e+05
   6.767844e+05  -4.268833e+05
   1.013914e+06   2.020462e+05
   7.204689e+05   9.479582e+05
  -9.342600e+04   1.175407e+06
  -7.637252e+05   6.740511e+05
  -7.893521e+05  -5.796571e+04
  -4.013326e+05  -3.901523e+05
  -1.813857e+05  -2.588943e+05
  -2.812818e+05  -9.280334e+04
  -3.297255e+05  -1.846887e+05
  -3.638411e+04  -3.960429e+05
   4.306190e+05  -4.280522e+05
   6.857835e+05  -1.491273e+05
   4.932589e+05   3.261623e+05
  -1.143848e+05   6.734341e+05
  -8.185006e+05   5.097366e+05
  -1.081061e+06  -2.263368e+05
  -5.387235e+05  -1.013503e+06
   5.107933e+05  -1.139905e+06
   1.241522e+06  -4.789638e+05
   1.115400e+06   3.323286e+05
   4.309064e+05   6.240126e+05
  -9.550787e+04   4.146944e+05
  -1.444844e+05   2.358259e+05
   3.410098e+03   3.998113e+05
  -4.308145e+04   6.770638e+05
  -3.426102e+05   6.446726e+05
  -6.468743e+05   1.573091e+05
  -6.643127e+05  -5.227888e+05
  -2.836561e+05  -9.216313e+05
   2.932490e+05  -7.054744e+05
   6.197880e+05  -3.653546e+02
   3.843737e+05   6.294980e+05
  -2.068582e+05   6.695573e+05
  -5.717240e+05   1.613400e+05
  -3.748460e+05  -3.758392e+05
   9.613889e+04  -5.274285e+05
   2.879100e+05  -3.560120e+05
   4.407778e+04  -1.805858e+05
  -2.237292e+05  -1.586913e+05
  -3.695343e+04  -1.862419e+05
   5.673391e+05  -9.466087e+04
   1.017977e+06   1.715729e+05
   7.845955e+05   5.103095e+05
  -4.366215e+04   7.010217e+05
  -7.986665e+05   5.528202e+05
  -8.899110e+05   1.216041e+05
  -3.819163e+05  -2.598286e+05
   1.445509e+05  -2.838405e+05
   2.489701e+05  -2.183198e+03
   1.422569e+04   2.275214e+05
  -2.089479e+05   1.393322e+05
  -2.404227e+05  -1.659202e+05
  -1.526093e+05  -3.590165e+05
  -7.028935e+04  -2.447579e+05
  -5.444904e+04   3.372068e+04
  -1.062994e+05   1.362942e+05
  -1.295917e+05  -1.116016e+05
   4.838618e+04  -4.810053e+05
   4.364172e+05  -5.278557e+05
   6.978201e+05  -9.102282e+04
   4.468397e+05   4.566360e+05
  -2.089644e+05   5.785775e+05
  -6.398611e+05   1.838301e+05
  -3.692990e+05  -2.700495e+05
   3.416885e+05  -3.115301e+05
   7.562320e+05   4.501211e+04
   4.601857e+05   4.025404e+05
  -2.413504e+05   4.512019e+05
  -7.009756e+05   2.121054e+05
  -5.697005e+05  -9.081723e+04
  -5.934048e+04  -2.366582e+05
   3.107823e+05  -1.216145e+05
   1.921630e+05   1.530625e+05
  -2.773426e+05   2.771005e+05
  -5.907474e+05  -1.392136e+04
  -3.645678e+05  -5.745590e+05
   2.527932e+05  -8.606289e+05
   7.134449e+05  -4.692527e+05
   6.260131e+05   3.495282e+05
   1.214538e+05   8.674742e+05
  -3.412840e+05   6.233400e+05
  -4.379766e+05  -9.161637e+04
  -2.013780e+05  -5.691092e+05
   1.138406e+05  -4.485749e+05
   2.741732e+05  -3.244759e+04
   2.157368e+05   1.669630e+05
   6.577275e+04   4.970064e+04
   2.675591e+04  -3.730426e+04
   1.581670e+05   1.681271e+05
   2.635457e+05   4.765552e+05
   8.226389e+04   5.068145e+05
  -3.676721e+05   1.804899e+05
  -7.185085e+05  -2.100935e+05
  -6.089918e+05  -3.840886e+05
  -9.132841e+04  -3.414662e+05
   3.934742e+05  -2.246254e+05
   4.663284e+05  -9.451167e+04
   1.864946e+05   4.243854e+04
  -6.207766e+04   1.174503e+05
  -3.252686e+04   7.684268e+04
   1.121774e+05   1.707871e+04
   3.679488e+04   6.781740e+04
  -2.982504e+05   1.462743e+05
  -5.188650e+05   1.323151e+04
  -2.554113e+05  -3.560564e+05
   3.801984e+05  -6.141818e+05
   8.487282e+05  -4.020738e+05
   7.353966e+05   1.938066e+05
   1.655446e+05   6.851075e+05
  -3.686586e+05   6.886824e+05
  -5.158706e+05   2.949821e+05
  -3.272936e+05  -8.845985e+04
  -8.148554e+04  -1.795939e+05
   1.827323e+04  -5.992260e+04
  -3.949965e+04  -1.262553e+04
  -1.358699e+05  -1.782270e+05
  -1.211052e+05  -3.876161e+05
   7.565185e+04  -3.435176e+05
   3.387152e+05   2.894819e+04
   4.003211e+05   4.450572e+05
   1.002998e+05   5.204289e+05
  -3.610268e+05   1.660137e+05
  -5.380780e+05  -3.173136e+05
  -2.044516e+05  -5.382678e+05
   3.438199e+05  -3.649307e+05
   5.663342e+05   1.757581e+04
   2.770681e+05   3.171053e+05
  -1.430254e+05   3.603229e+05
  -2.047540e+05   1.821605e+05
   1.016272e+05  -1.945894e+04
   3.133418e+05  -3.612946e+04
   8.297174e+04   1.572517e+05
  -3.929710e+05   3.421274e+05
  -6.219778e+05   2.564950e+05
  -3.923348e+05  -1.052767e+05
   3.587817e+04  -4.386138e+05
   2.833666e+05  -4.291048e+05
   2.385419e+05  -9.310221e+04
   5.156227e+04   2.298086e+05
  -1.115315e+05   2.329640e+05
  -1.834118e+05  -4.378657e+04
  -1.380810e+05  -2.798491e+05
   2.165149e+04  -2.335618e+05
   1.978987e+05   6.006579e+03
   2.391515e+05   1.489095e+05
   1.147772e+05   5.744944e+04
  -2.307024e+04  -9.559891e+04
  -2.595655e+04  -5.649238e+04
   4.935822e+04   1.723087e+05
   1.867836e+04   3.149046e+05
  -1.563080e+05   1.602462e+05
  -2.733332e+05  -1.641830e+05
  -1.302156e+05  -3.290394e+05
   1.881917e+05  -1.779681e+05
   3.531353e+05   1.167737e+05
   1.506282e+05   2.729474e+05
  -2.512274e+05   1.890143e+05
  -4.531103e+05  -1.678810e+04
  -2.492611e+05  -1.793526e+05
   1.445120e+05  -2.193566e+05
   3.252109e+05  -1.423149e+05
   1.426093e+05  -9.585632e+03
  -1.511011e+05   6.947087e+04
  -2.023059e+05   6.537542e+03
   4.967735e+04  -1.392989e+05
   3.260479e+05  -1.624187e+05
