
 $NMID
 id='ANONYMOUS ', fmtdat='(2E16.6)'
 volume=1.0
 tramp=1.0
 $END
  -2.968875e+07  -2.915492e+03
  -1.760950e+07  -1.865905e+07
   4.234327e+06  -2.009315e+07
   1.455460e+07  -7.337512e+06
   8.419841e+06   4.001483e+06
  -1.908217e+06   4.829852e+06
  -5.041761e+06  -8.649793e+05
  -1.232143e+06  -5.104538e+06
   3.326651e+06  -4.640894e+06
   4.988875e+06  -8.743179e+05
   3.615559e+06   3.197809e+06
   4.572523e+05   4.402866e+06
  -2.048840e+06   1.475134e+06
  -1.373039e+06  -2.676268e+06
   1.940601e+06  -3.251123e+06
   4.056716e+06   7.779970e+05
   2.251879e+06   5.310354e+06
  -2.011059e+06   6.112783e+06
  -5.286388e+06   3.091496e+06
  -5.703861e+06  -1.028422e+06
  -3.573902e+06  -3.949620e+06
  -3.985360e+05  -4.670138e+06
   1.667251e+06  -3.264854e+06
   1.189297e+06  -1.290020e+06
  -4.998914e+05  -8.588718e+05
  -2.700971e+05  -2.010108e+06
   2.598359e+06  -2.352958e+06
   4.906038e+06  -4.378964e+05
   3.701220e+06   2.036366e+06
   2.817188e+05   2.665124e+06
  -1.800803e+06   1.483364e+06
  -1.328415e+06   1.788670e+05
   8.234299e+04  -4.200682e+05
   9.655366e+05  -3.699851e+05
   1.146798e+06   5.357139e+05
   5.283506e+05   1.937143e+06
  -8.683427e+05   2.067493e+06
  -1.806963e+06   3.461510e+04
  -1.023689e+06  -1.934811e+06
   4.377050e+05  -1.151417e+06
   3.114011e+05   1.153238e+06
  -1.198623e+06   1.148463e+06
  -1.229238e+06  -1.675150e+06
   1.369703e+06  -3.175196e+06
   3.749075e+06  -4.586714e+05
   2.695518e+06   3.696810e+06
  -1.063070e+06   4.486722e+06
  -3.891319e+06   1.266813e+06
  -3.542050e+06  -2.276965e+06
  -8.922846e+05  -3.047466e+06
   1.760862e+06  -1.331077e+06
   2.607449e+06   8.047542e+05
   1.158472e+06   1.772120e+06
  -1.285353e+06   1.094650e+06
  -2.328224e+06  -5.114862e+05
  -9.735121e+05  -1.423842e+06
   9.008821e+05  -7.043675e+05
   8.561512e+05   5.205748e+05
  -7.354317e+05   3.981441e+05
  -1.237125e+06  -1.025961e+06
   4.678137e+05  -1.837679e+06
   2.519408e+06  -9.292602e+05
   2.748665e+06   7.959900e+05
   1.160972e+06   2.098692e+06
  -8.855431e+05   2.724451e+06
  -2.474936e+06   2.539233e+06
  -3.150825e+06   9.807873e+05
  -2.423676e+06  -1.565790e+06
  -5.530287e+05  -3.148318e+06
   9.590535e+05  -2.400360e+06
   9.100468e+05  -5.269702e+05
  -2.038831e+03   2.150017e+05
  -1.717294e+05  -5.066681e+05
   6.965248e+05  -1.017747e+06
   1.414184e+06  -2.695588e+05
   1.103405e+06   8.590707e+05
   1.237802e+05   1.047279e+06
  -7.052292e+05   1.620887e+05
  -8.493886e+05  -9.526596e+05
  -6.519370e+04  -1.451021e+06
   1.364198e+06  -9.028228e+05
   2.315975e+06   5.222658e+05
   1.721465e+06   1.907461e+06
   1.420089e+04   2.219896e+06
  -1.195250e+06   1.440196e+06
  -1.182692e+06   5.764176e+05
  -9.367502e+05   3.155448e+05
  -1.462114e+06   2.312443e+05
  -2.168808e+06  -3.626847e+05
  -1.752461e+06  -1.353291e+06
  -1.006748e+05  -2.044512e+06
   1.538260e+06  -1.973089e+06
   2.034201e+06  -1.133246e+06
   1.345929e+06   1.381739e+05
   2.146973e+05   1.106108e+06
  -4.940502e+05   1.004909e+06
  -2.901939e+05   3.322072e+03
   5.142571e+05  -6.744877e+05
   9.561829e+05  -2.211242e+05
   4.911304e+05   6.033715e+05
  -2.289641e+05   5.619351e+05
  -1.862480e+05  -1.858508e+05
   5.544105e+05  -2.980250e+05
   9.047427e+05   7.253978e+05
   2.426572e+05   1.768446e+06
  -8.663659e+05   1.625372e+06
  -1.556522e+06   4.501547e+05
  -1.575795e+06  -7.397180e+05
  -1.083404e+06  -1.308682e+06
  -2.389613e+05  -1.244409e+06
   5.835606e+05  -7.378004e+05
   7.727497e+05  -1.437718e+05
   2.447909e+05   1.737137e+04
  -1.838055e+05  -3.707385e+05
   2.078628e+05  -6.799741e+05
   9.668419e+05  -3.012937e+05
   1.024673e+06   4.470037e+05
   1.881952e+05   7.149710e+05
  -5.816395e+05   2.858267e+05
  -4.259392e+05  -2.158907e+05
   4.227966e+05  -2.304203e+05
   1.047795e+06   1.715848e+05
   8.279984e+05   6.450621e+05
  -1.218891e+05   9.399576e+05
  -1.117625e+06   8.172085e+05
  -1.366262e+06   1.554691e+05
  -6.161706e+05  -6.294367e+05
   4.560951e+05  -7.723084e+05
   7.975117e+05  -1.084296e+05
   1.196162e+05   5.508607e+05
  -7.530173e+05   3.843490e+05
  -8.565610e+05  -3.834350e+05
  -1.607276e+05  -8.155829e+05
   5.465689e+05  -4.688847e+05
   6.145252e+05   1.692484e+05
   1.067072e+05   3.905945e+05
  -4.080278e+05   2.710264e+04
  -3.816675e+05  -5.223577e+05
   2.676088e+05  -7.200931e+05
   9.934515e+05  -2.987939e+05
   1.028610e+06   4.991235e+05
   2.105717e+05   1.032310e+06
  -7.093880e+05   8.292291e+05
  -8.581109e+05   1.107621e+05
  -2.470238e+05  -4.302347e+05
   3.240085e+05  -3.981532e+05
   3.015520e+05  -4.819023e+04
  -6.114747e+04   1.545732e+05
  -2.178863e+05   8.861698e+04
  -2.524814e+04  -1.596195e+04
   2.349288e+05   7.145147e+04
   2.454808e+05   3.529495e+05
  -1.119851e+05   5.916988e+05
  -6.844118e+05   4.507107e+05
  -1.037732e+06  -1.897902e+05
  -7.478902e+05  -9.534728e+05
   8.201128e+04  -1.199264e+06
   7.804383e+05  -6.998452e+05
   8.183055e+05   5.571664e+04
   4.110313e+05   4.133673e+05
   1.649607e+05   2.775966e+05
   2.661239e+05   8.407887e+04
   3.374445e+05   1.648592e+05
   5.222779e+04   3.960209e+05
  -4.333754e+05   4.486408e+05
  -7.068245e+05   1.620590e+05
  -5.093215e+05  -3.388425e+05
   1.175260e+05  -7.014787e+05
   8.374892e+05  -5.332495e+05
   1.109607e+06   2.203052e+05
   5.687255e+05   1.032046e+06
  -4.984902e+05   1.180224e+06
  -1.263120e+06   5.181292e+05
  -1.157070e+06  -3.238896e+05
  -4.561765e+05  -6.485548e+05
   1.034784e+05  -4.409814e+05
   1.638696e+05  -2.371345e+05
  -1.759284e+03  -3.854248e+05
   2.626463e+04  -6.741940e+05
   3.289365e+05  -6.604607e+05
   6.505125e+05  -1.741054e+05
   6.806057e+05   5.208996e+05
   2.993585e+05   9.332342e+05
  -2.901403e+05   7.202032e+05
  -6.344031e+05   8.296208e+03
  -4.075653e+05  -6.370287e+05
   1.964112e+05  -6.942644e+05
   5.871230e+05  -1.887540e+05
   4.046289e+05   3.684579e+05
  -7.508572e+04   5.467891e+05
  -2.838358e+05   3.835051e+05
  -4.626145e+04   1.938414e+05
   2.250183e+05   1.570785e+05
   3.777250e+04   1.877732e+05
  -5.761681e+05   1.105085e+05
  -1.038846e+06  -1.518121e+05
  -8.112158e+05  -5.067086e+05
   2.336001e+04  -7.211434e+05
   7.974925e+05  -5.838096e+05
   9.100331e+05  -1.429564e+05
   4.072800e+05   2.575824e+05
  -1.348889e+05   2.936007e+05
  -2.574445e+05   1.144910e+04
  -2.382109e+04  -2.239061e+05
   2.102071e+05  -1.391723e+05
   2.458525e+05   1.642089e+05
   1.528887e+05   3.545692e+05
   7.006873e+04   2.390577e+05
   6.236649e+04  -3.680285e+04
   1.182885e+05  -1.360028e+05
   1.353622e+05   1.134154e+05
  -4.856459e+04   4.867377e+05
  -4.353408e+05   5.425680e+05
  -6.974713e+05   1.105328e+05
  -4.552438e+05  -4.473949e+05
   1.958927e+05  -5.874833e+05
   6.362107e+05  -1.979300e+05
   3.752521e+05   2.698941e+05
  -3.448207e+05   3.248727e+05
  -7.779900e+05  -3.848491e+04
  -4.818561e+05  -4.165001e+05
   2.444456e+05  -4.758712e+05
   7.266465e+05  -2.277923e+05
   5.925942e+05   9.164868e+04
   6.305128e+04   2.465596e+05
  -3.193730e+05   1.308265e+05
  -1.993088e+05  -1.488841e+05
   2.759162e+05  -2.784578e+05
   5.931276e+05   9.313601e+03
   3.698248e+05   5.724928e+05
  -2.476848e+05   8.656720e+05
  -7.153873e+05   4.772287e+05
  -6.363906e+05  -3.496267e+05
  -1.298619e+05  -8.806220e+05
   3.462450e+05  -6.398404e+05
   4.539230e+05   8.798801e+04
   2.145025e+05   5.835864e+05
  -1.127275e+05   4.684031e+05
  -2.814205e+05   3.994707e+04
  -2.223382e+05  -1.746890e+05
  -6.797363e+04  -5.788006e+04
  -2.796847e+04   4.181850e+04
  -1.635215e+05  -1.574112e+05
  -2.736373e+05  -4.776147e+05
  -9.065612e+04  -5.241309e+05
   3.700285e+05  -1.978538e+05
   7.335643e+05   2.080794e+05
   6.268047e+05   3.928097e+05
   9.851997e+04   3.468547e+05
  -3.999951e+05   2.250817e+05
  -4.772554e+05   9.925938e+04
  -1.920472e+05  -3.362039e+04
   6.228219e+04  -1.169871e+05
   3.319740e+04  -8.850153e+04
  -1.128992e+05  -2.707227e+04
  -3.615811e+04  -6.529925e+04
   3.018937e+05  -1.407094e+05
   5.237209e+05  -1.873623e+04
   2.593650e+05   3.453389e+05
  -3.777841e+05   6.169098e+05
  -8.487433e+05   4.202797e+05
  -7.391783e+05  -1.802668e+05
  -1.720353e+05  -6.908947e+05
   3.633923e+05  -7.040535e+05
   5.145506e+05  -3.024660e+05
   3.286475e+05   8.971166e+04
   8.317545e+04   1.775894e+05
  -1.569867e+04   5.132618e+04
   4.510064e+04   7.229949e+03
   1.439939e+05   1.826202e+05
   1.282578e+05   3.957436e+05
  -7.213482e+04   3.468243e+05
  -3.387096e+05  -3.000979e+04
  -4.027554e+05  -4.445686e+05
  -1.041808e+05  -5.169894e+05
   3.582847e+05  -1.636006e+05
   5.401212e+05   3.166776e+05
   2.110143e+05   5.381182e+05
  -3.393222e+05   3.697223e+05
  -5.704654e+05  -8.949879e+03
  -2.880512e+05  -3.118023e+05
   1.335753e+05  -3.644743e+05
   2.013630e+05  -1.929880e+05
  -1.028565e+05   1.202840e+04
  -3.169523e+05   3.727729e+04
  -8.617211e+04  -1.554332e+05
   3.961987e+05  -3.513184e+05
   6.314755e+05  -2.750999e+05
   4.019977e+05   9.291834e+04
  -2.923488e+04   4.432857e+05
  -2.773654e+05   4.434354e+05
  -2.324908e+05   1.022543e+05
  -4.984863e+04  -2.296663e+05
   1.071827e+05  -2.342553e+05
   1.797478e+05   4.563629e+04
   1.420666e+05   2.813563e+05
  -1.409994e+04   2.327160e+05
  -1.975382e+05  -5.002428e+03
  -2.477567e+05  -1.443360e+05
  -1.211821e+05  -5.536940e+04
   2.836771e+04   9.113574e+04
   3.796683e+04   5.258698e+04
  -4.361188e+04  -1.663326e+05
  -2.434843e+04  -3.025137e+05
   1.459568e+05  -1.547447e+05
   2.668770e+05   1.577221e+05
   1.293709e+05   3.203570e+05
  -1.868920e+05   1.773504e+05
  -3.525890e+05  -1.120274e+05
  -1.511318e+05  -2.726233e+05
   2.508872e+05  -1.956664e+05
   4.545629e+05   9.673911e+03
   2.533334e+05   1.772886e+05
  -1.390736e+05   2.216460e+05
  -3.209889e+05   1.467665e+05
  -1.411719e+05   1.612163e+04
   1.497434e+05  -6.206069e+04
   1.982667e+05  -2.595748e+03
  -5.602723e+04   1.371423e+05
  -3.323932e+05   1.573335e+05
