
 $NMID
 id='ANONYMOUS ', fmtdat='(2E16.6)'
 volume=1.0
 tramp=1.0
 $END
   2.348494e+07  -1.073664e+06
   1.616892e+07   1.117654e+07
   1.037081e+05   1.535156e+07
  -1.029563e+07   9.695514e+06
  -8.486247e+06   4.442667e+05
  -3.153387e+05  -4.318213e+06
   4.771775e+06  -1.784772e+06
   3.337500e+06   3.874386e+06
  -1.304305e+06   6.175061e+06
  -4.385009e+06   2.682402e+06
  -3.768807e+06  -2.872049e+06
  -5.779781e+05  -4.698078e+06
   2.127442e+06  -1.117293e+06
   1.751840e+06   3.735922e+06
  -1.355881e+06   4.523192e+06
  -3.897397e+06   3.923442e+05
  -2.925216e+06  -4.523427e+06
   9.720412e+05  -5.794700e+06
   4.361144e+06  -2.917846e+06
   4.603336e+06   1.074505e+06
   2.239253e+06   3.133210e+06
  -3.263606e+04   2.766533e+06
  -1.801952e+05   1.709572e+06
   1.269076e+06   1.755947e+06
   1.787794e+06   2.930331e+06
  -4.702948e+05   3.568531e+06
  -4.238758e+06   2.219498e+06
  -5.915053e+06  -5.750415e+05
  -3.449163e+06  -2.664581e+06
   9.686496e+05  -2.473226e+06
   3.068736e+06  -4.951161e+05
   1.228532e+06   1.371447e+06
  -1.983662e+06   1.552884e+06
  -3.109042e+06  -1.080814e+05
  -1.529843e+06  -2.303517e+06
   6.367819e+05  -3.088890e+06
   1.407220e+06  -1.537308e+06
   7.136079e+05   9.296407e+05
  -2.331322e+05   1.601216e+06
  -3.523253e+05  -3.607441e+05
   5.396461e+05  -2.474018e+06
   1.624032e+06  -1.780984e+06
   1.611496e+06   1.212077e+06
  -3.805218e+03   2.879406e+06
  -1.986431e+06   1.005453e+06
  -2.198377e+06  -2.386865e+06
   1.354804e+05  -3.528996e+06
   3.212078e+06  -1.281382e+06
   4.155356e+06   1.995920e+06
   1.864726e+06   3.392207e+06
  -1.771373e+06   2.187813e+06
  -3.607972e+06  -1.575598e+05
  -2.234017e+06  -1.700382e+06
   7.310389e+05  -1.478986e+06
   2.346070e+06  -4.535415e+04
   1.349795e+06   1.066892e+06
  -6.892400e+05   7.739617e+05
  -1.311493e+06  -4.322015e+05
   1.407474e+04  -1.053442e+06
   1.421122e+06  -3.342971e+05
   9.734146e+05   9.194614e+05
  -1.036527e+06   1.329492e+06
  -2.432877e+06   3.407228e+05
  -1.553021e+06  -1.443127e+06
   1.065516e+06  -2.807090e+06
   3.335938e+06  -2.626048e+06
   3.643122e+06  -6.285760e+05
   2.146243e+06   2.063047e+06
   3.143018e+05   3.576899e+06
  -6.030421e+05   3.057873e+06
  -6.164453e+05   1.580528e+06
  -6.353382e+05   7.877952e+05
  -1.253759e+06   8.573906e+05
  -2.055047e+06   5.301743e+05
  -2.112867e+06  -8.554419e+05
  -1.018057e+06  -2.189041e+06
   6.534579e+05  -1.897717e+06
   1.756559e+06   4.450453e+04
   1.425791e+06   1.967603e+06
  -2.223420e+05   2.237115e+06
  -2.013612e+06   7.584474e+05
  -2.547455e+06  -1.177940e+06
  -1.461185e+06  -2.203323e+06
   1.635792e+05  -1.966170e+06
   9.615832e+05  -1.177163e+06
   8.324591e+05  -7.334390e+05
   9.312119e+05  -7.878398e+05
   1.984441e+06  -6.716443e+05
   3.074731e+06   2.678655e+05
   2.577925e+06   1.832354e+06
   1.943023e+05   3.022884e+06
  -2.423285e+06   2.881636e+06
  -3.244064e+06   1.324703e+06
  -1.860517e+06  -6.823333e+05
   2.156554e+05  -1.760667e+06
   1.121919e+06  -1.233453e+06
   3.701483e+05   1.650932e+05
  -9.167669e+05   9.021766e+05
  -1.306811e+06   2.616966e+05
  -4.976135e+05  -8.085990e+05
   5.131334e+05  -8.412380e+05
   5.763183e+05   2.490299e+05
  -4.063300e+05   9.394636e+05
  -1.417897e+06  -2.761919e+04
  -1.326566e+06  -1.986586e+06
   9.590934e+04  -2.981731e+06
   1.974926e+06  -1.893114e+06
   2.984921e+06   4.415453e+05
   2.354357e+06   2.187678e+06
   5.419113e+05   2.272080e+06
  -1.042681e+06   1.143953e+06
  -1.265038e+06   8.694518e+04
  -3.728221e+05  -3.308299e+04
   2.880247e+05   5.518842e+05
  -1.934487e+05   9.111375e+05
  -1.229017e+06   4.505979e+05
  -1.452084e+06  -4.609862e+05
  -4.070772e+05  -9.245362e+05
   8.247600e+05  -5.054236e+05
   8.255703e+05   3.142006e+05
  -5.306992e+05   6.534631e+05
  -1.866455e+06   8.393551e+04
  -1.712474e+06  -1.009541e+06
  -2.003585e+04  -1.754118e+06
   1.771194e+06  -1.476650e+06
   2.136083e+06  -2.976439e+05
   9.160284e+05   8.504097e+05
  -6.017611e+05   9.983888e+05
  -9.996637e+05   1.307718e+05
  -7.583369e+04  -7.139988e+05
   1.095275e+06  -5.392875e+05
   1.322954e+06   4.856476e+05
   4.316910e+05   1.229863e+06
  -6.879290e+05   9.163338e+05
  -1.009946e+06  -2.659992e+04
  -3.446608e+05  -5.287324e+05
   5.042774e+05  -8.855967e+04
   5.258827e+05   7.526559e+05
  -4.574059e+05   1.044284e+06
  -1.516363e+06   3.694529e+05
  -1.509933e+06  -7.982155e+05
  -3.091137e+05  -1.531789e+06
   1.007131e+06  -1.253576e+06
   1.277829e+06  -2.411616e+05
   4.578146e+05   6.192250e+05
  -4.530590e+05   6.604673e+05
  -5.695282e+05   5.402263e+04
   1.278065e+04  -4.392211e+05
   5.049623e+05  -3.273596e+05
   3.559444e+05   1.023983e+05
  -2.118949e+05   1.811380e+05
  -4.856405e+05  -3.187126e+05
   7.778290e+03  -8.712935e+05
   9.849266e+05  -7.310021e+05
   1.576446e+06   2.632333e+05
   1.118907e+06   1.441982e+06
  -1.447707e+05   1.873255e+06
  -1.239442e+06   1.210578e+06
  -1.413558e+06   1.083425e+04
  -8.422010e+05  -7.964180e+05
  -2.932547e+05  -7.769953e+05
  -2.091717e+05  -3.293676e+05
  -3.045732e+05  -1.575987e+05
  -5.572741e+04  -4.608291e+05
   5.994823e+05  -7.269658e+05
   1.134416e+06  -3.560121e+05
   9.338754e+05   5.755737e+05
  -9.516559e+04   1.263984e+06
  -1.318166e+06   9.407634e+05
  -1.777067e+06  -3.154421e+05
  -9.749045e+05  -1.558993e+06
   6.044196e+05  -1.805911e+06
   1.823616e+06  -9.157157e+05
   1.872308e+06   3.304829e+05
   9.499525e+05   1.011301e+06
  -4.232158e+04   9.040089e+05
  -4.233036e+05   5.497513e+05
  -2.793850e+05   5.430548e+05
  -1.725516e+05   8.493965e+05
  -4.543496e+05   8.821725e+05
  -9.073816e+05   2.226002e+05
  -9.925764e+05  -8.239483e+05
  -4.207594e+05  -1.446372e+06
   4.824407e+05  -1.099401e+06
   9.957939e+05  -3.885568e+04
   6.741049e+05   9.039086e+05
  -1.738267e+05   1.060456e+06
  -7.598853e+05   4.565377e+05
  -6.176496e+05  -3.213183e+05
  -6.063839e+04  -7.137079e+05
   2.262223e+05  -6.329907e+05
  -7.206843e+03  -3.925791e+05
  -2.972158e+05  -2.897502e+05
  -2.576155e+04  -3.062084e+05
   8.120217e+05  -1.952944e+05
   1.488273e+06   1.945873e+05
   1.241425e+06   7.140489e+05
   9.623469e+04   1.015244e+06
  -1.070196e+06   8.515017e+05
  -1.350164e+06   3.091841e+05
  -6.867694e+05  -2.259632e+05
   1.330412e+05  -3.702932e+05
   3.531632e+05  -9.100747e+04
  -1.435446e+04   2.313841e+05
  -3.817950e+05   1.708820e+05
  -3.513391e+05  -2.602416e+05
  -8.844874e+04  -5.749154e+05
   2.474930e+04  -3.669907e+05
  -1.199730e+05   1.458325e+05
  -2.972050e+05   3.119526e+05
  -2.317399e+05  -1.635851e+05
   1.561365e+05  -7.858903e+05
   6.715391e+05  -7.981255e+05
   9.077697e+05  -7.794581e+04
   5.299193e+05   6.895153e+05
  -3.047793e+05   7.714947e+05
  -8.800953e+05   1.653876e+05
  -5.444976e+05  -4.670303e+05
   5.061088e+05  -5.227131e+05
   1.265585e+06   5.935893e+03
   9.182156e+05   6.331968e+05
  -2.646640e+05   8.541833e+05
  -1.181601e+06   5.250311e+05
  -1.046798e+06  -6.452310e+04
  -1.600507e+05  -4.216281e+05
   4.864143e+05  -2.626432e+05
   2.644563e+05   1.876803e+05
  -4.917960e+05   3.495928e+05
  -8.928316e+05  -1.342075e+05
  -4.223075e+05  -9.383335e+05
   5.567612e+05  -1.262669e+06
   1.187762e+06  -6.104340e+05
   9.610745e+05   6.205401e+05
   1.434483e+05   1.405941e+06
  -5.749864e+05   1.057058e+06
  -7.395903e+05  -7.083372e+04
  -4.055582e+05  -9.166310e+05
   8.424216e+04  -8.054476e+05
   4.113868e+05  -1.052829e+05
   4.238307e+05   3.096020e+05
   1.950167e+05   1.326875e+05
   1.235123e+04  -9.745618e+04
   1.214827e+05   1.737979e+05
   3.615117e+05   7.244692e+05
   2.333123e+05   8.567656e+05
  -4.583689e+05   3.297509e+05
  -1.158439e+06  -3.608072e+05
  -1.072920e+06  -6.511272e+05
  -1.555053e+05  -5.249249e+05
   7.282462e+05  -3.136739e+05
   7.898065e+05  -1.671865e+05
   2.250140e+05  -3.892831e+03
  -1.387326e+05   1.660341e+05
   4.920656e+04   2.042653e+05
   2.863431e+05   1.245253e+05
   5.703046e+03   1.057127e+05
  -6.000187e+05   1.424369e+05
  -7.959332e+05  -3.707036e+04
  -2.094645e+05  -5.136939e+05
   7.306813e+05  -8.499103e+05
   1.254616e+06  -5.185234e+05
   9.806851e+05   3.799318e+05
   1.713683e+05   1.098556e+06
  -5.747123e+05   1.031154e+06
  -8.066353e+05   3.537800e+05
  -5.129512e+05  -2.290611e+05
  -6.615873e+04  -2.731138e+05
   1.217492e+05   2.101346e+03
  -4.014078e+04   6.940110e+04
  -2.693901e+05  -2.631238e+05
  -2.191805e+05  -6.263933e+05
   1.571045e+05  -5.045010e+05
   5.365329e+05   1.519983e+05
   5.132082e+05   7.874501e+05
  -3.274662e+03   7.814722e+05
  -6.237747e+05   1.084613e+05
  -7.629631e+05  -6.300332e+05
  -2.109904e+05  -8.345471e+05
   5.628371e+05  -4.598600e+05
   8.222156e+05   8.489719e+04
   3.655126e+05   4.208961e+05
  -2.158673e+05   4.519723e+05
  -2.316835e+05   2.688621e+05
   2.566053e+05   4.001810e+04
   5.178293e+05  -1.319340e+04
   8.800715e+04   2.235765e+05
  -6.416234e+05   5.267128e+05
  -9.196872e+05   4.625318e+05
  -5.221079e+05  -8.414423e+04
   8.484224e+04  -6.416947e+05
   3.705846e+05  -6.318458e+05
   2.582718e+05  -7.714722e+04
  -1.022368e+02   3.949451e+05
  -1.979404e+05   2.959430e+05
  -2.697053e+05  -1.764582e+05
  -1.813342e+05  -4.484296e+05
   5.656960e+04  -2.724438e+05
   2.963745e+05   6.389101e+04
   3.458519e+05   1.765126e+05
   1.879531e+05   3.854796e+04
   1.944258e+03  -6.647795e+04
  -6.914673e+04   6.391721e+04
  -8.018875e+04   3.054042e+05
  -1.573944e+05   3.488434e+05
  -2.780523e+05   5.287435e+04
  -2.645245e+05  -3.623783e+05
  -7.331428e+03  -5.023512e+05
   3.458176e+05  -2.064978e+05
   4.659467e+05   2.585956e+05
   1.575279e+05   4.660533e+05
  -3.754126e+05   2.690531e+05
  -6.412523e+05  -9.099296e+04
  -3.473106e+05  -2.955475e+05
   2.268705e+05  -2.603470e+05
   4.742611e+05  -1.153519e+05
   1.453044e+05  -5.281822e+03
  -3.298369e+05  -3.534324e+03
  -3.345896e+05  -1.218866e+05
   1.889050e+05  -2.590538e+05
   6.633325e+05  -1.933004e+05
