
 $NMID
 id='ANONYMOUS ', fmtdat='(2E16.6)'
 volume=1.0
 tramp=1.0
 $END
   1.749341e+07   4.021092e+05
   1.151983e+07   7.746902e+06
   2.053281e+05   1.067196e+07
  -7.196620e+06   7.776422e+06
  -6.385676e+06   1.437855e+06
  -7.121915e+05  -3.085079e+06
   3.514696e+06  -2.061619e+06
   3.070052e+06   2.623664e+06
  -4.400417e+05   5.204059e+06
  -3.252693e+06   2.525478e+06
  -3.025506e+06  -2.357472e+06
  -4.257816e+05  -3.958879e+06
   1.856527e+06  -7.672055e+05
   1.599521e+06   3.387621e+06
  -8.951354e+05   3.981040e+06
  -3.014764e+06   5.295740e+05
  -2.372447e+06  -3.496663e+06
   7.089602e+05  -4.524644e+06
   3.445305e+06  -2.111091e+06
   3.467179e+06   1.189400e+06
   1.258161e+06   2.613270e+06
  -5.101582e+05   1.796732e+06
   8.953942e+03   7.358515e+05
   1.790407e+06   1.262709e+06
   2.079983e+06   2.892382e+06
  -4.785677e+05   3.504267e+06
  -4.070209e+06   1.915302e+06
  -5.316609e+06  -7.948232e+05
  -2.788609e+06  -2.520183e+06
   1.267636e+06  -2.136913e+06
   3.063541e+06  -2.121864e+05
   1.171691e+06   1.638000e+06
  -2.072765e+06   1.837108e+06
  -3.264052e+06   4.662480e+02
  -1.577411e+06  -2.402969e+06
   7.761028e+05  -3.042194e+06
   1.437457e+06  -1.159582e+06
   3.856492e+05   1.226445e+06
  -6.549054e+05   1.402966e+06
  -4.805431e+05  -7.624040e+05
   5.700693e+05  -2.542175e+06
   1.425134e+06  -1.675876e+06
   1.339315e+06   8.544005e+05
   2.651282e+05   2.090357e+06
  -1.078273e+06   6.696869e+05
  -1.407115e+06  -1.733062e+06
   9.092396e+04  -2.500469e+06
   2.497065e+06  -8.690388e+05
   3.516816e+06   1.601621e+06
   1.778789e+06   2.816913e+06
  -1.402726e+06   2.007444e+06
  -3.172880e+06   1.023746e+05
  -2.101426e+06  -1.284495e+06
   4.249279e+05  -1.224338e+06
   1.858737e+06  -1.336729e+05
   1.139279e+06   7.552622e+05
  -5.189885e+05   6.038199e+05
  -1.188916e+06  -3.001448e+05
  -2.655433e+05  -9.496214e+05
   1.032821e+06  -6.581117e+05
   1.057959e+06   3.036408e+05
  -4.059660e+05   9.639899e+05
  -1.761748e+06   4.970638e+05
  -1.261188e+06  -9.892290e+05
   1.000574e+06  -2.346470e+06
   3.072889e+06  -2.235308e+06
   3.229353e+06  -3.888358e+05
   1.711510e+06   1.953611e+06
   1.538025e+05   3.127260e+06
  -3.815901e+05   2.650333e+06
  -3.090697e+05   1.555819e+06
  -5.835343e+05   1.025697e+06
  -1.427971e+06   9.905463e+05
  -2.187487e+06   4.378918e+05
  -2.094547e+06  -9.954616e+05
  -9.494310e+05  -2.240437e+06
   6.965114e+05  -1.911131e+06
   1.786498e+06  -5.904877e+03
   1.438309e+06   1.878335e+06
  -2.160759e+05   2.113605e+06
  -1.896938e+06   6.226252e+05
  -2.238026e+06  -1.203482e+06
  -1.115399e+06  -1.988321e+06
   2.790195e+05  -1.574942e+06
   7.993738e+05  -8.376016e+05
   5.848171e+05  -5.795692e+05
   7.224943e+05  -7.632355e+05
   1.749964e+06  -7.043438e+05
   2.788681e+06   1.485207e+05
   2.393381e+06   1.607794e+06
   2.456306e+05   2.778651e+06
  -2.212494e+06   2.711482e+06
  -3.046262e+06   1.238389e+06
  -1.748545e+06  -7.001369e+05
   2.582801e+05  -1.704009e+06
   1.110754e+06  -1.146200e+06
   3.466720e+05   1.846852e+05
  -8.686099e+05   8.437703e+05
  -1.182487e+06   2.405397e+05
  -4.185659e+05  -7.408546e+05
   4.891985e+05  -8.008311e+05
   5.894191e+05   1.851576e+05
  -2.275125e+05   9.281379e+05
  -1.218734e+06   2.118250e+05
  -1.387707e+06  -1.586156e+06
  -2.596882e+05  -2.744220e+06
   1.596986e+06  -1.991404e+06
   2.823925e+06   1.542118e+05
   2.386119e+06   1.944077e+06
   6.239034e+05   2.149972e+06
  -9.685959e+05   1.103878e+06
  -1.200071e+06   9.296638e+04
  -3.468318e+05  -2.290562e+04
   2.784426e+05   5.025797e+05
  -1.494972e+05   8.126029e+05
  -1.084003e+06   4.177517e+05
  -1.312130e+06  -3.651449e+05
  -4.018610e+05  -8.036815e+05
   7.360769e+05  -4.907369e+05
   8.027454e+05   2.560387e+05
  -4.301573e+05   6.646826e+05
  -1.749512e+06   2.094827e+05
  -1.699398e+06  -8.614925e+05
  -1.268312e+05  -1.668434e+06
   1.601237e+06  -1.459247e+06
   1.978412e+06  -3.402414e+05
   8.525106e+05   7.488831e+05
  -5.354425e+05   8.946995e+05
  -8.849736e+05   1.152535e+05
  -5.206095e+04  -6.460732e+05
   9.986563e+05  -5.089019e+05
   1.230304e+06   4.012910e+05
   4.606359e+05   1.109369e+06
  -5.703973e+05   8.873001e+05
  -9.268317e+05   4.743136e+04
  -3.567347e+05  -4.517392e+05
   4.406413e+05  -8.815180e+04
   4.891088e+05   6.867538e+05
  -4.180909e+05   9.750541e+05
  -1.409360e+06   3.597704e+05
  -1.411583e+06  -7.207107e+05
  -3.140260e+05  -1.407424e+06
   8.930516e+05  -1.175428e+06
   1.165611e+06  -2.629522e+05
   4.484639e+05   5.479001e+05
  -3.930720e+05   6.266973e+05
  -5.482470e+05   6.808784e+04
  -3.021162e+04  -4.387718e+05
   4.773278e+05  -3.668829e+05
   4.002544e+05   7.303437e+04
  -1.385478e+05   2.147426e+05
  -4.594656e+05  -2.331296e+05
  -4.050622e+04  -7.887258e+05
   8.832899e+05  -7.040126e+05
   1.466200e+06   2.049603e+05
   1.065778e+06   1.313561e+06
  -9.153919e+04   1.751719e+06
  -1.117813e+06   1.182495e+06
  -1.332842e+06   7.631196e+04
  -8.561205e+05  -7.290996e+05
  -3.323523e+05  -7.756000e+05
  -1.850162e+05  -3.573096e+05
  -2.390277e+05  -1.424585e+05
  -4.513058e+04  -4.030521e+05
   5.241730e+05  -6.921601e+05
   1.046614e+06  -3.833947e+05
   9.170634e+05   5.091201e+05
  -2.474791e+04   1.205116e+06
  -1.198793e+06   9.318993e+05
  -1.671404e+06  -2.409826e+05
  -9.581346e+05  -1.412663e+06
   4.917994e+05  -1.675803e+06
   1.640960e+06  -9.037075e+05
   1.748808e+06   2.241246e+05
   9.532432e+05   8.965976e+05
   2.466863e+04   8.716798e+05
  -3.946083e+05   5.715260e+05
  -3.037963e+05   5.291824e+05
  -1.827873e+05   7.714983e+05
  -4.049922e+05   8.008672e+05
  -8.254635e+05   2.106609e+05
  -9.339249e+05  -7.524079e+05
  -4.181674e+05  -1.340646e+06
   4.306551e+05  -1.034825e+06
   9.259021e+05  -6.536551e+04
   6.487858e+05   8.065834e+05
  -1.143706e+05   9.762233e+05
  -6.538953e+05   4.585850e+05
  -5.575368e+05  -2.401640e+05
  -9.290107e+04  -6.222089e+05
   1.534487e+05  -5.815139e+05
  -3.909336e+04  -3.742268e+05
  -2.794008e+05  -2.756356e+05
  -2.747249e+04  -2.906257e+05
   7.348040e+05  -1.986443e+05
   1.365443e+06   1.493857e+05
   1.163660e+06   6.240270e+05
   1.275517e+05   9.122903e+05
  -9.516036e+05   7.930678e+05
  -1.230270e+06   3.300455e+05
  -6.381416e+05  -1.576231e+05
   1.092397e+05  -3.256825e+05
   3.115901e+05  -1.022929e+05
  -2.717123e+04   1.999069e+05
  -3.649692e+05   1.660917e+05
  -3.287760e+05  -2.370883e+05
  -7.253120e+04  -5.515306e+05
   3.830959e+04  -3.540973e+05
  -1.039779e+05   1.572896e+05
  -2.807720e+05   3.268489e+05
  -2.236550e+05  -1.430230e+05
   1.375913e+05  -7.499895e+05
   6.103596e+05  -7.521831e+05
   8.222304e+05  -6.135570e+04
   4.786122e+05   6.455516e+05
  -2.786529e+05   7.012876e+05
  -8.100341e+05   1.402372e+05
  -5.164159e+05  -4.337177e+05
   4.514631e+05  -4.998435e+05
   1.184134e+06  -4.074848e+04
   9.001419e+05   5.488143e+05
  -1.939779e+05   8.121070e+05
  -1.081231e+06   5.537152e+05
  -9.920907e+05  -8.823178e+03
  -1.740556e+05  -3.899268e+05
   4.394683e+05  -2.658910e+05
   2.385301e+05   1.652118e+05
  -4.690738e+05   3.287320e+05
  -8.412677e+05  -1.276184e+05
  -3.936494e+05  -8.869667e+05
   5.261324e+05  -1.191255e+06
   1.117203e+06  -5.815719e+05
   9.127411e+05   5.706612e+05
   1.613679e+05   1.318232e+06
  -5.103667e+05   1.013498e+06
  -6.907370e+05  -3.298973e+04
  -4.139438e+05  -8.391921e+05
   3.573659e+04  -7.578046e+05
   3.723847e+05  -1.132197e+05
   4.199070e+05   2.777803e+05
   2.046204e+05   1.182502e+05
   4.804188e+02  -9.378174e+04
   8.719127e+04   1.589712e+05
   3.413030e+05   6.689160e+05
   2.584130e+05   7.910895e+05
  -3.961813e+05   3.112394e+05
  -1.094663e+06  -3.126912e+05
  -1.036784e+06  -5.782455e+05
  -1.569569e+05  -4.825927e+05
   6.929633e+05  -3.137692e+05
   7.390591e+05  -1.819045e+05
   1.913331e+05  -1.223346e+04
  -1.339738e+05   1.590385e+05
   7.516800e+04   1.913754e+05
   2.973609e+05   1.134491e+05
  -7.066141e+02   1.041722e+05
  -5.860492e+05   1.461903e+05
  -7.455470e+05  -2.869129e+04
  -1.712055e+05  -4.876284e+05
   6.956032e+05  -8.037361e+05
   1.157346e+06  -4.837927e+05
   9.025645e+05   3.633427e+05
   1.719261e+05   1.032693e+06
  -5.179942e+05   9.646807e+05
  -7.552849e+05   3.294366e+05
  -4.924606e+05  -2.167710e+05
  -5.676874e+04  -2.585008e+05
   1.385262e+05   4.317116e+03
  -2.287195e+04   7.713926e+04
  -2.635490e+05  -2.307579e+05
  -2.238417e+05  -5.785231e+05
   1.455311e+05  -4.718348e+05
   5.152317e+05   1.464975e+05
   4.862081e+05   7.488376e+05
  -1.538479e+04   7.395819e+05
  -6.038969e+05   9.667050e+04
  -7.255038e+05  -5.998174e+05
  -1.961415e+05  -7.829580e+05
   5.301546e+05  -4.252751e+05
   7.634722e+05   7.762014e+04
   3.303473e+05   3.798393e+05
  -2.024602e+05   4.070332e+05
  -1.980789e+05   2.429261e+05
   2.625837e+05   3.210845e+04
   4.908663e+05  -1.949016e+04
   7.773687e+04   2.072741e+05
  -5.912490e+05   5.053513e+05
  -8.312850e+05   4.537064e+05
  -4.646235e+05  -6.457812e+04
   7.475401e+04  -5.951478e+05
   3.244629e+05  -5.818915e+05
   2.282089e+05  -5.414444e+04
  -5.199793e+02   3.819197e+05
  -1.890818e+05   2.715279e+05
  -2.638014e+05  -1.772917e+05
  -1.739940e+05  -4.190170e+05
   6.052470e+04  -2.426925e+05
   2.810121e+05   6.321214e+04
   3.150499e+05   1.512176e+05
   1.715172e+05   2.291410e+04
   1.540859e+04  -5.305304e+04
  -5.098193e+04   8.791419e+04
  -8.901127e+04   3.086181e+05
  -1.839571e+05   3.256683e+05
  -2.843260e+05   2.771108e+04
  -2.397232e+05  -3.658880e+05
   1.466516e+04  -4.867640e+05
   3.333873e+05  -1.938500e+05
   4.339007e+05   2.521367e+05
   1.484863e+05   4.451383e+05
  -3.439356e+05   2.523265e+05
  -5.952685e+05  -8.866436e+04
  -3.244344e+05  -2.747572e+05
   2.147848e+05  -2.341662e+05
   4.451476e+05  -9.677477e+04
   1.239173e+05   1.889452e+03
  -3.338509e+05  -3.931461e+03
  -3.310391e+05  -1.251686e+05
   1.833920e+05  -2.635142e+05
   6.439235e+05  -2.009166e+05
