
 $NMID
 id='ANONYMOUS ', fmtdat='(2E16.6)'
 volume=1.0
 tramp=1.0
 $END
  -5.391844e+07   1.437004e+06
  -3.361433e+07  -3.261363e+07
   6.038988e+06  -3.691338e+07
   2.632156e+07  -1.487695e+07
   1.628538e+07   6.376782e+06
  -2.934180e+06   9.172548e+06
  -9.660385e+06  -9.411430e+05
  -2.963251e+06  -9.473970e+06
   5.886939e+06  -9.248792e+06
   9.357741e+06  -2.152260e+06
   6.826720e+06   5.835523e+06
   8.942370e+05   8.240790e+06
  -3.748409e+06   2.677945e+06
  -2.519568e+06  -5.221942e+06
   3.604961e+06  -6.405364e+06
   7.660839e+06   1.120927e+06
   4.497123e+06   9.748426e+06
  -3.388231e+06   1.144336e+07
  -9.550558e+06   5.895470e+06
  -1.035990e+07  -1.695184e+06
  -6.510777e+06  -6.930599e+06
  -9.645122e+05  -8.199250e+06
   2.526049e+06  -5.949371e+06
   1.728798e+06  -2.838884e+06
  -9.354692e+05  -2.201656e+06
  -1.604030e+05  -3.959093e+06
   5.122343e+06  -4.151018e+06
   9.175918e+06  -5.254055e+05
   6.755580e+06   3.828838e+06
   3.178803e+05   4.730814e+06
  -3.457340e+06   2.394454e+06
  -2.232300e+06   3.321357e+04
   7.032918e+05  -7.660931e+05
   2.178723e+06  -3.106513e+05
   1.981492e+06   1.405695e+06
   6.061008e+05   3.676982e+06
  -1.626847e+06   3.664568e+06
  -2.991313e+06   3.092560e+04
  -1.702631e+06  -3.336869e+06
   5.766296e+05  -1.832137e+06
   2.349228e+05   2.302865e+06
  -2.384847e+06   2.224736e+06
  -2.446078e+06  -3.044415e+06
   2.170991e+06  -6.028968e+06
   6.649549e+06  -1.251271e+06
   5.118442e+06   6.480540e+06
  -1.590688e+06   8.260182e+06
  -7.062801e+06   2.494473e+06
  -6.770070e+06  -4.202743e+06
  -1.855682e+06  -5.847293e+06
   3.366625e+06  -2.673209e+06
   5.147743e+06   1.455712e+06
   2.411664e+06   3.400705e+06
  -2.302727e+06   2.202433e+06
  -4.403846e+06  -8.025648e+05
  -1.952744e+06  -2.602094e+06
   1.625931e+06  -1.360707e+06
   1.703595e+06   9.962687e+05
  -1.293280e+06   9.829532e+05
  -2.529093e+06  -1.623045e+06
   4.156243e+05  -3.412538e+06
   4.401647e+06  -2.039897e+06
   5.196212e+06   1.157284e+06
   2.353055e+06   3.792706e+06
  -1.657347e+06   5.062039e+06
  -4.755154e+06   4.648892e+06
  -5.892670e+06   1.720735e+06
  -4.393112e+06  -2.942885e+06
  -9.597651e+05  -5.894417e+06
   1.759837e+06  -4.654590e+06
   1.759759e+06  -1.254247e+06
   2.690379e+05   2.695250e+05
   2.595849e+04  -8.223081e+05
   1.503821e+06  -1.611365e+06
   2.618616e+06  -1.849883e+05
   1.861953e+06   1.850993e+06
  -3.574241e+04   2.017703e+06
  -1.501593e+06   1.248840e+05
  -1.574533e+06  -2.049304e+06
   2.646325e+04  -2.819807e+06
   2.638140e+06  -1.575289e+06
   4.266058e+06   1.109275e+06
   3.124980e+06   3.545352e+06
   5.182299e+04   4.042006e+06
  -2.114561e+06   2.664263e+06
  -2.134276e+06   1.165997e+06
  -1.796780e+06   6.991158e+05
  -2.880839e+06   4.715383e+05
  -4.235392e+06  -7.465170e+05
  -3.381398e+06  -2.701379e+06
  -1.019683e+05  -4.013525e+06
   3.139433e+06  -3.756246e+06
   4.043245e+06  -2.008186e+06
   2.535608e+06   4.233476e+05
   2.334845e+05   2.131059e+06
  -1.067211e+06   1.835570e+06
  -5.321167e+05  -3.628284e+04
   1.061559e+06  -1.252188e+06
   1.850686e+06  -3.841398e+05
   8.927219e+05   1.157253e+06
  -5.147417e+05   1.066223e+06
  -4.214584e+05  -4.082613e+05
   1.079760e+06  -7.155605e+05
   1.890560e+06   1.255813e+06
   6.741002e+05   3.470469e+06
  -1.604590e+06   3.418770e+06
  -3.164976e+06   1.106137e+06
  -3.273738e+06  -1.477402e+06
  -2.180304e+06  -2.771391e+06
  -3.864280e+05  -2.565350e+06
   1.225383e+06  -1.401925e+06
   1.529114e+06  -1.991661e+05
   4.796306e+05   4.931596e+04
  -3.434525e+05  -7.380369e+05
   4.051488e+05  -1.315206e+06
   1.865789e+06  -5.677691e+05
   1.995520e+06   8.764683e+05
   3.763626e+05   1.397462e+06
  -1.156554e+06   5.510401e+05
  -8.641141e+05  -4.700171e+05
   8.621257e+05  -5.081695e+05
   2.155277e+06   3.609430e+05
   1.683910e+06   1.382767e+06
  -2.932617e+05   1.937970e+06
  -2.290834e+06   1.583481e+06
  -2.715965e+06   2.333970e+05
  -1.185633e+06  -1.246859e+06
   8.974427e+05  -1.467313e+06
   1.524099e+06  -1.892354e+05
   1.976618e+05   1.049123e+06
  -1.485807e+06   7.096732e+05
  -1.679578e+06  -7.846962e+05
  -3.107217e+05  -1.635345e+06
   1.097921e+06  -9.528206e+05
   1.245057e+06   3.289265e+05
   2.344852e+05   7.841883e+05
  -7.856993e+05   5.482081e+04
  -7.143602e+05  -1.033450e+06
   5.718543e+05  -1.383418e+06
   1.960903e+06  -5.119790e+05
   1.977645e+06   1.041335e+06
   3.580651e+05   2.032397e+06
  -1.425747e+06   1.598262e+06
  -1.697324e+06   1.883538e+05
  -4.831766e+05  -8.630329e+05
   6.585483e+05  -7.809243e+05
   6.161063e+05  -5.847425e+04
  -1.400349e+05   3.542969e+05
  -4.965007e+05   1.789729e+05
  -1.054575e+05  -9.239513e+04
   4.664727e+05   7.281580e+04
   5.161417e+05   6.771843e+05
  -2.156329e+05   1.173447e+06
  -1.366197e+06   8.647980e+05
  -2.033318e+06  -4.267896e+05
  -1.413847e+06  -1.913649e+06
   2.401801e+05  -2.361648e+06
   1.605067e+06  -1.355960e+06
   1.654677e+06   1.582000e+05
   8.086679e+05   9.005120e+05
   2.705462e+05   6.359116e+05
   4.505407e+05   1.970244e+05
   6.228273e+05   2.960223e+05
   9.431986e+04   7.491434e+05
  -8.713173e+05   8.756618e+05
  -1.427172e+06   2.940382e+05
  -1.008682e+06  -7.296674e+05
   2.796572e+05  -1.426328e+06
   1.704599e+06  -1.022898e+06
   2.191586e+06   5.042959e+05
   1.084383e+06   2.074649e+06
  -1.016647e+06   2.315575e+06
  -2.510067e+06   9.870828e+05
  -2.302480e+06  -6.834803e+05
  -9.110357e+05  -1.340772e+06
   2.354136e+05  -9.260205e+05
   3.978085e+05  -4.738200e+05
   7.228521e+04  -7.113521e+05
   9.442275e+04  -1.269506e+06
   6.583368e+05  -1.260473e+06
   1.266260e+06  -3.074502e+05
   1.295665e+06   1.064155e+06
   5.247263e+05   1.853452e+06
  -6.207985e+05   1.395169e+06
  -1.258081e+06  -1.845910e+04
  -7.853531e+05  -1.269583e+06
   4.000252e+05  -1.371830e+06
   1.159956e+06  -3.912890e+05
   8.072220e+05   6.975802e+05
  -1.261844e+05   1.069590e+06
  -5.434060e+05   7.759514e+05
  -9.865005e+04   4.094723e+05
   4.175519e+05   3.264462e+05
   5.431362e+04   3.717174e+05
  -1.129690e+06   1.990306e+05
  -2.020279e+06  -3.377735e+05
  -1.575832e+06  -1.031866e+06
   4.848570e+04  -1.417360e+06
   1.566808e+06  -1.114142e+06
   1.802894e+06  -2.532453e+05
   8.225448e+05   5.037959e+05
  -2.566283e+05   5.633719e+05
  -5.087591e+05   2.854414e+04
  -3.821217e+04  -4.121100e+05
   4.288572e+05  -2.451463e+05
   4.681704e+05   3.359933e+05
   2.456620e+05   6.943622e+05
   9.620106e+04   4.573524e+05
   1.420593e+05  -8.452909e+04
   2.792657e+05  -2.672639e+05
   2.666413e+05   2.325979e+05
  -1.465921e+05   9.535300e+05
  -8.857222e+05   1.035540e+06
  -1.334122e+06   1.790543e+05
  -8.346209e+05  -8.862089e+05
   4.039127e+05  -1.117825e+06
   1.226138e+06  -3.363389e+05
   7.097453e+05   5.604987e+05
  -6.965336e+05   6.279081e+05
  -1.552317e+06  -1.196394e+05
  -9.632022e+05  -8.711384e+05
   5.025605e+05  -9.638675e+05
   1.481986e+06  -4.342235e+05
   1.200923e+06   2.175502e+05
   1.172840e+05   5.068612e+05
  -6.441697e+05   2.523864e+05
  -3.804710e+05  -2.909022e+05
   5.639036e+05  -5.067930e+05
   1.148093e+06   7.609643e+04
   6.563560e+05   1.142549e+06
  -5.669293e+05   1.653218e+06
  -1.439657e+06   8.605267e+05
  -1.218579e+06  -7.414395e+05
  -1.852818e+05  -1.746163e+06
   7.386261e+05  -1.250014e+06
   9.065363e+05   1.921497e+05
   4.015255e+05   1.176689e+06
  -2.424766e+05   9.460074e+05
  -5.582753e+05   7.407749e+04
  -4.395019e+05  -3.769034e+05
  -1.436412e+05  -1.393038e+05
  -5.550944e+04   9.175962e+04
  -2.946592e+05  -2.882009e+05
  -4.998013e+05  -9.472013e+05
  -1.606245e+05  -1.061150e+06
   7.208954e+05  -3.880428e+05
   1.434013e+06   4.658663e+05
   1.228484e+06   8.353359e+05
   1.756456e+05   6.880374e+05
  -8.208459e+05   3.980661e+05
  -9.599051e+05   1.630368e+05
  -3.690764e+05  -5.654550e+04
   1.367440e+05  -2.181747e+05
   5.858721e+04  -2.000777e+05
  -2.335109e+05  -9.248840e+04
  -5.615349e+04  -1.253492e+05
   6.218708e+05  -2.258313e+05
   1.022279e+06   6.630163e+03
   4.531875e+05   6.669217e+05
  -7.990638e+05   1.152549e+06
  -1.669497e+06   7.579038e+05
  -1.399407e+06  -3.996079e+05
  -2.738494e+05  -1.366665e+06
   7.540943e+05  -1.352899e+06
   1.020196e+06  -5.401587e+05
   6.317434e+05   2.163758e+05
   1.403818e+05   3.466683e+05
  -4.371025e+04   7.019775e+04
   9.303070e+04  -3.888256e+03
   2.853517e+05   3.710272e+05
   2.315137e+05   7.940001e+05
  -1.685166e+05   6.668456e+05
  -6.547764e+05  -1.035015e+05
  -7.311648e+05  -9.073938e+05
  -1.422285e+05  -1.000157e+06
   7.118102e+05  -2.614638e+05
   1.012299e+06   6.768488e+05
   3.592676e+05   1.059112e+06
  -6.845671e+05   6.802036e+05
  -1.102505e+06  -5.893279e+04
  -5.406854e+05  -6.088202e+05
   2.725304e+05  -6.861104e+05
   3.881232e+05  -3.728276e+05
  -2.162575e+05  -7.683384e+03
  -6.272614e+05   4.144443e+04
  -1.533516e+05  -3.021951e+05
   8.063659e+05  -6.616852e+05
   1.254919e+06  -5.198843e+05
   7.742367e+05   1.816857e+05
  -8.680519e+04   8.579856e+05
  -5.542710e+05   8.542929e+05
  -4.326576e+05   1.841646e+05
  -6.302089e+04  -4.540259e+05
   2.234148e+05  -4.373672e+05
   3.359462e+05   1.219264e+05
   2.534334e+05   5.611302e+05
  -3.747378e+04   4.351389e+05
  -3.798848e+05  -3.232378e+04
  -4.783053e+05  -2.847960e+05
  -2.420424e+05  -1.066709e+05
   5.073753e+04   1.597282e+05
   9.321711e+04   7.690511e+04
  -3.861116e+04  -3.211258e+05
  -4.722788e+03  -5.471560e+05
   2.833334e+05  -2.503272e+05
   4.699855e+05   3.322474e+05
   1.945110e+05   6.154047e+05
  -3.821646e+05   3.167571e+05
  -6.606475e+05  -2.495184e+05
  -2.597552e+05  -5.459693e+05
   4.994841e+05  -3.654341e+05
   8.728387e+05   5.418851e+04
   4.767681e+05   3.634608e+05
  -2.791207e+05   4.098745e+05
  -6.223569e+05   2.496549e+05
  -2.614390e+05   2.891878e+04
   3.064091e+05  -7.940418e+04
   3.802615e+05   3.694185e+04
  -1.464532e+05   2.633202e+05
  -6.896571e+05   2.599219e+05
