
 $NMID
 id='ANONYMOUS ', fmtdat='(2E16.6)'
 volume=1.0
 tramp=1.0
 $END
  -3.901399e+07   1.465568e+06
  -2.532782e+07  -2.158303e+07
   2.560428e+06  -2.622819e+07
   1.821657e+07  -1.284178e+07
   1.262374e+07   2.515382e+06
  -1.088880e+06   6.813462e+06
  -7.306287e+06   7.291863e+05
  -3.447866e+06  -6.653019e+06
   3.408304e+06  -8.031729e+06
   6.928298e+06  -2.683286e+06
   5.458836e+06   4.394058e+06
   8.085674e+05   6.648629e+06
  -3.010599e+06   1.923376e+06
  -2.267193e+06  -4.677866e+06
   2.430162e+06  -5.729371e+06
   5.885730e+06   2.272444e+05
   3.896183e+06   7.201654e+06
  -2.086644e+06   8.796620e+06
  -7.015162e+06   4.523145e+06
  -7.567532e+06  -1.402954e+06
  -4.361397e+06  -5.077702e+06
  -4.255592e+05  -5.432404e+06
   1.244440e+06  -3.743481e+06
  -4.065555e+04  -2.354881e+06
  -1.585246e+06  -2.811323e+06
   1.843122e+05  -4.035029e+06
   4.953595e+06  -3.307859e+06
   7.856972e+06   7.131941e+04
   5.229987e+06   3.369311e+06
  -4.483833e+05   3.694057e+06
  -3.484652e+06   1.417413e+06
  -1.795520e+06  -8.386521e+05
   1.543145e+06  -1.349033e+06
   2.938690e+06  -1.131036e+05
   1.887381e+06   2.061995e+06
  -8.883166e+04   3.607710e+06
  -1.603707e+06   2.632662e+06
  -1.807826e+06  -5.684245e+05
  -6.304043e+05  -2.516596e+06
   4.947229e+05  -5.999142e+05
  -2.039273e+05   2.601866e+06
  -2.075105e+06   2.138201e+06
  -2.119403e+06  -2.114310e+06
   9.599360e+05  -4.512058e+06
   4.229871e+06  -1.197209e+06
   3.693631e+06   4.404593e+06
  -7.823128e+05   5.931556e+06
  -5.189070e+06   1.948477e+06
  -5.673118e+06  -3.109925e+06
  -2.037103e+06  -4.742147e+06
   2.603642e+06  -2.591186e+06
   4.579541e+06   7.178470e+05
   2.502563e+06   2.569680e+06
  -1.478845e+06   1.917990e+06
  -3.448707e+06  -3.142282e+05
  -1.731311e+06  -1.824165e+06
   1.157385e+06  -1.099642e+06
   1.591993e+06   7.049853e+05
  -5.777084e+05   1.096179e+06
  -2.016503e+06  -5.083075e+05
  -4.228063e+05  -2.093501e+06
   2.620011e+06  -1.750102e+06
   3.856969e+06   2.885333e+05
   2.042965e+06   2.598483e+06
  -1.390777e+06   4.055234e+06
  -4.214372e+06   3.780060e+06
  -4.940340e+06   1.205054e+06
  -3.348240e+06  -2.604960e+06
  -6.636109e+05  -4.899535e+06
   1.138887e+06  -4.018772e+06
   1.156199e+06  -1.562356e+06
   5.056302e+05  -3.868913e+05
   7.917186e+05  -9.317390e+05
   1.970012e+06  -1.084509e+06
   2.522139e+06   4.337380e+05
   1.504015e+06   2.201221e+06
  -4.058030e+05   2.109893e+06
  -1.780286e+06   4.857762e+04
  -1.626270e+06  -2.142856e+06
   1.280875e+05  -2.677625e+06
   2.446979e+06  -1.206169e+06
   3.535425e+06   1.216416e+06
   2.346313e+06   2.969575e+06
  -6.369037e+04   3.058032e+06
  -1.547711e+06   1.946956e+06
  -1.476891e+06   9.919642e+05
  -1.384840e+06   8.183632e+05
  -2.536526e+06   6.544270e+05
  -3.842101e+06  -4.728849e+05
  -3.161815e+06  -2.340817e+06
  -1.995006e+05  -3.704804e+06
   2.906999e+06  -3.528829e+06
   3.846670e+06  -1.772093e+06
   2.319083e+06   6.004106e+05
  -1.189279e+04   2.070062e+06
  -1.172565e+06   1.614051e+06
  -4.728195e+05  -1.166916e+05
   1.045451e+06  -1.139660e+06
   1.650533e+06  -3.492215e+05
   7.213205e+05   1.024238e+06
  -5.448275e+05   1.012466e+06
  -5.524690e+05  -3.340665e+05
   7.307705e+05  -9.134437e+05
   1.737757e+06   5.697483e+05
   1.154587e+06   2.793129e+06
  -7.489337e+05   3.407719e+06
  -2.640513e+06   1.706636e+06
  -3.351570e+06  -9.072975e+05
  -2.485653e+06  -2.593302e+06
  -5.406561e+05  -2.576193e+06
   1.194290e+06  -1.362458e+06
   1.482484e+06  -1.587671e+05
   4.503966e+05   3.854478e+04
  -3.407115e+05  -6.762181e+05
   2.958938e+05  -1.165653e+06
   1.607547e+06  -5.494614e+05
   1.813206e+06   6.701283e+05
   4.323600e+05   1.204333e+06
  -1.033882e+06   5.719315e+05
  -9.097877e+05  -4.012848e+05
   7.154403e+05  -6.446783e+05
   2.142154e+06   8.982232e+04
   1.845122e+06   1.237777e+06
  -1.000524e+05   1.973924e+06
  -2.128018e+06   1.659717e+06
  -2.561222e+06   3.150440e+05
  -1.117318e+06  -1.085502e+06
   7.723564e+05  -1.293043e+06
   1.312227e+06  -1.765820e+05
   1.426769e+05   9.201836e+05
  -1.351829e+06   6.688019e+05
  -1.591436e+06  -6.447905e+05
  -4.232734e+05  -1.502978e+06
   9.159441e+05  -1.010017e+06
   1.193184e+06   1.547613e+05
   3.256273e+05   6.804808e+05
  -6.706973e+05   8.349277e+04
  -6.596546e+05  -9.348629e+05
   5.354399e+05  -1.285204e+06
   1.833577e+06  -4.786310e+05
   1.848337e+06   9.552537e+05
   3.713288e+05   1.874524e+06
  -1.261402e+06   1.517362e+06
  -1.563315e+06   2.497758e+05
  -5.104434e+05  -7.715899e+05
   5.742658e+05  -7.698796e+05
   6.337724e+05  -6.580047e+04
  -6.720725e+04   4.353462e+05
  -5.376703e+05   2.915741e+05
  -2.723945e+05  -1.018725e+05
   3.412006e+05  -8.318230e+04
   5.411506e+05   5.000486e+05
  -9.265066e+04   1.076410e+06
  -1.226824e+06   8.597767e+05
  -1.909762e+06  -3.409322e+05
  -1.355599e+06  -1.756468e+06
   1.786308e+05  -2.242245e+06
   1.487632e+06  -1.384463e+06
   1.632346e+06   4.835611e+04
   9.024412e+05   8.948728e+05
   3.163700e+05   7.699267e+05
   3.397034e+05   2.936560e+05
   4.744004e+05   2.303186e+05
   8.278030e+04   6.274430e+05
  -7.610820e+05   8.585372e+05
  -1.352286e+06   3.694685e+05
  -1.048728e+06  -6.794868e+05
   1.710266e+05  -1.438000e+06
   1.586047e+06  -1.066885e+06
   2.107670e+06   4.059659e+05
   1.117372e+06   1.903714e+06
  -8.192431e+05   2.183738e+06
  -2.266588e+06   1.038593e+06
  -2.215885e+06  -4.955058e+05
  -1.017244e+06  -1.227908e+06
   1.223563e+05  -9.843979e+05
   4.379894e+05  -5.636835e+05
   2.016151e+05  -6.659573e+05
   1.420624e+05  -1.108322e+06
   5.730827e+05  -1.126988e+06
   1.138514e+06  -2.878224e+05
   1.216338e+06   9.865561e+05
   5.162995e+05   1.739254e+06
  -5.709784e+05   1.324386e+06
  -1.191730e+06   2.647663e+04
  -7.864320e+05  -1.132840e+06
   2.785610e+05  -1.285604e+06
   9.949753e+05  -4.700089e+05
   7.543215e+05   5.105005e+05
  -1.224048e+04   9.294864e+05
  -3.809480e+05   7.487106e+05
  -3.563905e+04   4.301640e+05
   3.787544e+05   3.257126e+05
   4.455635e+04   3.597850e+05
  -1.017389e+06   2.211655e+05
  -1.848162e+06  -2.587236e+05
  -1.497552e+06  -9.005508e+05
  -4.831396e+04  -1.275454e+06
   1.370152e+06  -1.048023e+06
   1.656861e+06  -3.221732e+05
   8.033715e+05   3.621371e+05
  -1.957844e+05   4.880712e+05
  -4.500888e+05   7.351043e+04
  -1.099959e+04  -3.319294e+05
   4.306653e+05  -2.227004e+05
   4.347340e+05   3.107452e+05
   1.736717e+05   6.733161e+05
   3.251468e+04   4.372741e+05
   1.373246e+05  -1.309613e+05
   3.086181e+05  -3.197737e+05
   2.680689e+05   2.053245e+05
  -1.547904e+05   9.258817e+05
  -8.128866e+05   9.760008e+05
  -1.172370e+06   1.393915e+05
  -7.175826e+05  -8.275615e+05
   3.655946e+05  -9.925543e+05
   1.104657e+06  -2.655832e+05
   6.674196e+05   5.397148e+05
  -6.259399e+05   6.167029e+05
  -1.493971e+06  -4.355305e+04
  -1.017043e+06  -7.795214e+05
   3.832559e+05  -9.729262e+05
   1.403351e+06  -5.379228e+05
   1.198571e+06   1.270209e+05
   1.578100e+05   4.910713e+05
  -5.928102e+05   2.835067e+05
  -3.395486e+05  -2.466769e+05
   5.593929e+05  -4.539669e+05
   1.080275e+06   1.084830e+05
   5.722135e+05   1.099965e+06
  -5.906679e+05   1.545156e+06
  -1.387973e+06   7.852304e+05
  -1.159968e+06  -7.128175e+05
  -1.896186e+05  -1.668249e+06
   6.818836e+05  -1.233371e+06
   8.734792e+05   1.231905e+05
   4.453679e+05   1.101360e+06
  -1.537892e+05   9.324839e+05
  -5.090346e+05   1.036142e+05
  -4.673725e+05  -3.593466e+05
  -1.882203e+05  -1.435583e+05
  -3.172057e+04   1.023135e+05
  -2.114670e+05  -2.386433e+05
  -4.604117e+05  -8.782262e+05
  -2.278072e+05  -1.013084e+06
   6.097233e+05  -3.863875e+05
   1.377714e+06   4.235364e+05
   1.234210e+06   7.730031e+05
   1.826247e+05   6.381724e+05
  -8.233104e+05   3.850547e+05
  -9.265030e+05   1.872701e+05
  -3.078853e+05  -2.110555e+04
   1.466745e+05  -2.042510e+05
  -6.525995e+03  -2.171351e+05
  -2.862000e+05  -1.160334e+05
  -3.032616e+04  -1.231797e+05
   6.551724e+05  -1.987471e+05
   9.614025e+05   1.732785e+04
   3.424462e+05   6.217340e+05
  -8.092422e+05   1.062279e+06
  -1.535470e+06   6.815274e+05
  -1.252104e+06  -4.078835e+05
  -2.438079e+05  -1.304186e+06
   6.896869e+05  -1.264170e+06
   9.630374e+05  -4.752294e+05
   6.097951e+05   2.353614e+05
   1.081175e+05   3.274339e+05
  -9.598348e+04   3.247866e+04
   6.629648e+04  -4.523408e+04
   3.003571e+05   3.295636e+05
   2.486511e+05   7.488055e+05
  -1.691143e+05   6.193888e+05
  -6.340280e+05  -1.357557e+05
  -6.613116e+05  -8.977521e+05
  -7.142681e+04  -9.421877e+05
   7.114067e+05  -1.938199e+05
   9.431683e+05   6.917671e+05
   3.042921e+05   9.995188e+05
  -6.571331e+05   6.023825e+05
  -1.014889e+06  -7.066435e+04
  -4.781535e+05  -5.354908e+05
   2.538913e+05  -5.962461e+05
   3.182218e+05  -3.392781e+05
  -2.586399e+05  -2.497483e+04
  -6.078308e+05   3.305720e+04
  -1.271053e+05  -2.759072e+05
   7.604952e+05  -6.362234e+05
   1.138320e+06  -5.344258e+05
   6.781389e+05   1.296843e+05
  -8.528527e+04   7.909750e+05
  -4.761389e+05   7.860372e+05
  -3.572534e+05   1.344738e+05
  -3.330890e+04  -4.526854e+05
   2.217794e+05  -3.857114e+05
   3.231603e+05   1.621713e+05
   2.333160e+05   5.325996e+05
  -4.951198e+04   3.684929e+05
  -3.582690e+05  -5.115178e+04
  -4.347456e+05  -2.358289e+05
  -2.273862e+05  -7.047733e+04
   2.237343e+04   1.143878e+05
   8.417751e+04  -5.397934e+03
   2.857463e+04  -3.376136e+05
   9.211639e+04  -4.687670e+05
   3.020255e+05  -1.503782e+05
   3.832076e+05   3.741902e+05
   9.898392e+04   5.933816e+05
  -3.870511e+05   2.768701e+05
  -5.940282e+05  -2.695059e+05
  -2.217477e+05  -5.370712e+05
   4.581566e+05  -3.379822e+05
   7.977702e+05   7.430813e+04
   4.365675e+05   3.456529e+05
  -2.656420e+05   3.512211e+05
  -5.775430e+05   1.907269e+05
  -2.094812e+05   1.786215e+04
   3.450053e+05  -3.802931e+04
   3.830342e+05   8.869696e+04
  -1.810632e+05   2.834479e+05
  -7.245457e+05   2.465730e+05
