
 $NMID
 id='ANONYMOUS ', fmtdat='(2E16.6)'
 volume=1.0
 tramp=1.0
 $END
   5.063596e+07   2.011003e+05
   3.092001e+07   3.078820e+07
  -6.060979e+06   3.421557e+07
  -2.479711e+07   1.402056e+07
  -1.542974e+07  -5.576768e+06
   2.594699e+06  -8.581610e+06
   9.166298e+06   5.726313e+05
   3.047747e+06   8.889269e+06
  -5.440194e+06   9.074119e+06
  -8.912570e+06   2.214267e+06
  -6.445334e+06  -5.768950e+06
  -6.463754e+05  -8.061561e+06
   3.735663e+06  -2.384525e+06
   2.396024e+06   5.377521e+06
  -3.504489e+06   6.376697e+06
  -7.299460e+06  -1.038623e+06
  -4.190090e+06  -9.352058e+06
   3.381670e+06  -1.085233e+07
   9.192943e+06  -5.337890e+06
   9.696520e+06   2.000673e+06
   5.730887e+06   6.741162e+06
   5.172509e+05   7.503837e+06
  -2.307472e+06   5.247836e+06
  -1.140168e+06   2.731157e+06
   1.217157e+06   2.627765e+06
  -1.018678e+05   4.239554e+06
  -5.489913e+06   3.872630e+06
  -9.168042e+06   4.468683e+03
  -6.368922e+06  -4.074391e+06
   1.549019e+05  -4.573378e+06
   3.759553e+06  -2.000728e+06
   2.181007e+06   4.223042e+05
  -1.137064e+06   1.054162e+06
  -2.656689e+06   1.806944e+05
  -2.020027e+06  -1.840302e+06
  -2.227997e+05  -3.889346e+06
   1.832202e+06  -3.378844e+06
   2.652321e+06   3.311066e+05
   1.223830e+06   3.234723e+06
  -6.391633e+05   1.380282e+06
   1.296340e+04  -2.584187e+06
   2.459893e+06  -2.246438e+06
   2.350026e+06   2.894238e+06
  -1.961159e+06   5.649670e+06
  -6.021294e+06   1.084993e+06
  -4.588076e+06  -6.120836e+06
   1.595908e+06  -7.678069e+06
   6.741662e+06  -2.177490e+06
   6.560300e+06   4.187167e+06
   1.862989e+06   5.767749e+06
  -3.315386e+06   2.690570e+06
  -5.158602e+06  -1.378709e+06
  -2.487148e+06  -3.311701e+06
   2.148488e+06  -2.133169e+06
   4.220379e+06   7.770128e+05
   1.886971e+06   2.477041e+06
  -1.561534e+06   1.274489e+06
  -1.724434e+06  -9.810384e+05
   1.085735e+06  -1.048152e+06
   2.398918e+06   1.309944e+06
  -1.837482e+05   3.018805e+06
  -3.945039e+06   1.889890e+06
  -4.877338e+06  -1.010167e+06
  -2.235024e+06  -3.567565e+06
   1.799207e+06  -4.870525e+06
   4.949170e+06  -4.397737e+06
   5.882861e+06  -1.411860e+06
   4.104956e+06   3.111218e+06
   7.008652e+05   5.841368e+06
  -1.737627e+06   4.596265e+06
  -1.634777e+06   1.407664e+06
  -3.759619e+05  -2.654501e+03
  -3.893834e+05   9.253162e+05
  -1.853498e+06   1.434119e+06
  -2.744546e+06  -1.574399e+05
  -1.762156e+06  -2.177089e+06
   2.630061e+05  -2.181782e+06
   1.720268e+06  -5.416141e+04
   1.630484e+06   2.262760e+06
  -1.603103e+05   2.927254e+06
  -2.763624e+06   1.425472e+06
  -4.167641e+06  -1.358221e+06
  -2.857842e+06  -3.604770e+06
   1.252422e+05  -3.853218e+06
   2.076886e+06  -2.440122e+06
   2.008657e+06  -1.090522e+06
   1.743498e+06  -7.370120e+05
   2.915982e+06  -4.914369e+05
   4.293208e+06   8.014852e+05
   3.404321e+06   2.809163e+06
   2.732881e+04   4.122229e+06
  -3.341931e+06   3.786110e+06
  -4.263168e+06   1.900956e+06
  -2.581306e+06  -6.061250e+05
  -7.366976e+04  -2.241741e+06
   1.235870e+06  -1.816265e+06
   5.374351e+05   9.133950e+04
  -1.157986e+06   1.245805e+06
  -1.886428e+06   3.336654e+05
  -8.344641e+05  -1.197161e+06
   5.928449e+05  -1.091067e+06
   4.922801e+05   4.129747e+05
  -1.011939e+06   8.116610e+05
  -1.895577e+06  -1.087084e+06
  -8.175142e+05  -3.398496e+06
   1.427770e+06  -3.566230e+06
   3.154348e+06  -1.338754e+06
   3.457018e+06   1.413625e+06
   2.361202e+06   2.924309e+06
   3.999838e+05   2.735826e+06
  -1.328320e+06   1.431618e+06
  -1.606946e+06   1.463392e+05
  -4.939197e+05  -6.236387e+04
   3.401875e+05   7.660847e+05
  -4.226052e+05   1.315940e+06
  -1.882304e+06   5.354671e+05
  -2.007748e+06  -9.008155e+05
  -3.795915e+05  -1.408367e+06
   1.189795e+06  -5.576754e+05
   9.224015e+05   4.946882e+05
  -8.640808e+05   5.728856e+05
  -2.267546e+06  -3.281242e+05
  -1.814347e+06  -1.452519e+06
   2.842714e+05  -2.061115e+06
   2.405134e+06  -1.642250e+06
   2.818265e+06  -1.997857e+05
   1.187829e+06   1.287625e+06
  -9.425209e+05   1.450783e+06
  -1.528517e+06   1.469608e+05
  -1.522917e+05  -1.062261e+06
   1.538645e+06  -6.884185e+05
   1.717481e+06   8.223020e+05
   3.282984e+05   1.684716e+06
  -1.113039e+06   1.001008e+06
  -1.286568e+06  -3.106106e+05
  -2.641486e+05  -7.930015e+05
   7.845839e+05  -4.653336e+04
   7.020340e+05   1.074645e+06
  -6.327225e+05   1.406611e+06
  -2.039084e+06   4.682436e+05
  -2.008050e+06  -1.127079e+06
  -3.227635e+05  -2.096354e+06
   1.488543e+06  -1.614600e+06
   1.745949e+06  -1.740045e+05
   4.971629e+05   8.897161e+05
  -6.854955e+05   8.026966e+05
  -6.632137e+05   4.614064e+04
   1.266685e+05  -4.074848e+05
   5.498478e+05  -2.251123e+05
   1.832984e+05   1.044660e+05
  -4.359548e+05  -2.272765e+04
  -5.369502e+05  -6.549293e+05
   2.101342e+05  -1.194135e+06
   1.413221e+06  -8.727470e+05
   2.088164e+06   4.769030e+05
   1.414582e+06   2.002997e+06
  -3.000071e+05   2.443766e+06
  -1.691270e+06   1.400766e+06
  -1.739150e+06  -1.698225e+05
  -8.711059e+05  -9.764049e+05
  -2.881611e+05  -7.412483e+05
  -4.232044e+05  -2.656101e+05
  -5.856512e+05  -3.042622e+05
  -7.183993e+04  -7.432339e+05
   9.014626e+05  -8.938926e+05
   1.488450e+06  -3.017715e+05
   1.064881e+06   7.814730e+05
  -2.914809e+05   1.508397e+06
  -1.785728e+06   1.051934e+06
  -2.271028e+06  -5.581333e+05
  -1.100613e+06  -2.157311e+06
   1.061941e+06  -2.365465e+06
   2.583979e+06  -9.918937e+05
   2.381549e+06   7.123804e+05
   9.714690e+05   1.399243e+06
  -2.277112e+05   1.000030e+06
  -4.535723e+05   5.301302e+05
  -1.556063e+05   7.325553e+05
  -1.605703e+05   1.272201e+06
  -6.994406e+05   1.257106e+06
  -1.295731e+06   2.781834e+05
  -1.306070e+06  -1.133952e+06
  -4.956808e+05  -1.930956e+06
   6.791681e+05  -1.429002e+06
   1.304079e+06   3.840589e+04
   7.940344e+05   1.309829e+06
  -4.127224e+05   1.403899e+06
  -1.168803e+06   4.136757e+05
  -8.106628e+05  -6.818582e+05
   1.165851e+05  -1.068030e+06
   5.282572e+05  -7.936683e+05
   8.929576e+04  -4.400705e+05
  -4.155962e+05  -3.585045e+05
  -4.199185e+04  -3.904070e+05
   1.154091e+06  -1.860630e+05
   2.055524e+06   3.852265e+05
   1.604470e+06   1.084416e+06
  -5.233529e+04   1.438564e+06
  -1.608737e+06   1.103801e+06
  -1.854726e+06   2.433663e+05
  -8.478965e+05  -4.969143e+05
   2.626279e+05  -5.560760e+05
   5.142257e+05  -3.444102e+04
   1.574111e+04   4.026196e+05
  -4.628846e+05   2.367678e+05
  -4.711549e+05  -3.594252e+05
  -2.073999e+05  -7.344548e+05
  -5.983903e+04  -4.791114e+05
  -1.508707e+05   1.057701e+05
  -3.170121e+05   2.982600e+05
  -2.763353e+05  -2.424544e+05
   1.879334e+05  -9.942701e+05
   9.385589e+05  -1.044653e+06
   1.348742e+06  -1.314488e+05
   8.061629e+05   9.394249e+05
  -4.457110e+05   1.117508e+06
  -1.256778e+06   2.876807e+05
  -7.166002e+05  -6.068220e+05
   7.265074e+05  -6.392694e+05
   1.616121e+06   1.408430e+05
   1.018094e+06   9.123887e+05
  -5.095435e+05   1.010191e+06
  -1.549497e+06   4.606727e+05
  -1.265362e+06  -2.273664e+05
  -1.267068e+05  -5.339185e+05
   6.680269e+05  -2.615229e+05
   3.764199e+05   3.007031e+05
  -6.115119e+05   4.968646e+05
  -1.185153e+06  -1.301873e+05
  -6.237795e+05  -1.212849e+06
   6.623268e+05  -1.687810e+06
   1.529987e+06  -8.349531e+05
   1.243300e+06   8.108340e+05
   1.447769e+05   1.822527e+06
  -7.962947e+05   1.295215e+06
  -9.405279e+05  -2.010508e+05
  -4.089718e+05  -1.226510e+06
   2.468770e+05  -9.895103e+05
   5.724249e+05  -7.448835e+04
   4.667743e+05   4.052418e+05
   1.677492e+05   1.539250e+05
   5.117811e+04  -1.001734e+05
   2.668299e+05   2.928772e+05
   4.834171e+05   9.892152e+05
   1.673363e+05   1.108676e+06
  -7.271681e+05   3.884196e+05
  -1.481179e+06  -5.192344e+05
  -1.279298e+06  -8.956906e+05
  -1.681960e+05  -7.127894e+05
   8.835114e+05  -3.911748e+05
   1.007897e+06  -1.541370e+05
   3.625027e+05   5.569154e+04
  -1.560927e+05   2.209673e+05
  -3.949412e+04   2.176841e+05
   2.680882e+05   1.154555e+05
   4.438634e+04   1.337276e+05
  -6.809482e+05   2.085747e+05
  -1.056841e+06  -4.309995e+04
  -4.111676e+05  -7.012093e+05
   8.870967e+05  -1.157701e+06
   1.734214e+06  -7.185404e+05
   1.406458e+06   4.703569e+05
   2.351910e+05   1.429791e+06
  -8.125668e+05   1.372070e+06
  -1.073031e+06   5.128158e+05
  -6.535776e+05  -2.570991e+05
  -1.240284e+05  -3.634378e+05
   7.160965e+04  -5.657353e+04
  -8.687922e+04   1.947946e+04
  -2.977684e+05  -3.837784e+05
  -2.286820e+05  -8.289839e+05
   1.994433e+05  -6.809751e+05
   6.820093e+05   1.440347e+05
   7.166207e+05   9.803195e+05
   8.883250e+04   1.039299e+06
  -7.626183e+05   2.255667e+05
  -1.022054e+06  -7.552783e+05
  -3.241463e+05  -1.107658e+06
   7.345969e+05  -6.658451e+05
   1.128461e+06   1.014938e+05
   5.269643e+05   6.297662e+05
  -3.018187e+05   6.794654e+05
  -3.921496e+05   3.685495e+05
   2.477096e+05   2.232928e+04
   6.577166e+05  -2.104960e+04
   1.417254e+05   3.135045e+05
  -8.549708e+05   6.655422e+05
  -1.294935e+06   5.190109e+05
  -7.728105e+05  -1.935353e+05
   1.177371e+05  -8.774190e+05
   5.794199e+05  -8.585288e+05
   4.311396e+05  -1.599879e+05
   3.981600e+04   4.827245e+05
  -2.495841e+05   4.340723e+05
  -3.468491e+05  -1.573046e+05
  -2.426081e+05  -5.901050e+05
   5.845278e+04  -4.308088e+05
   3.922637e+05   5.424138e+04
   4.790942e+05   2.950582e+05
   2.468172e+05   1.045559e+05
  -3.633159e+04  -1.509532e+05
  -9.236210e+04  -4.810175e+04
   1.495945e+03   3.490204e+05
  -5.457757e+04   5.458080e+05
  -3.164452e+05   2.126572e+05
  -4.498898e+05  -3.852652e+05
  -1.452217e+05  -6.488277e+05
   4.170682e+05  -3.065494e+05
   6.634315e+05   2.936546e+05
   2.419281e+05   5.829114e+05
  -5.225373e+05   3.599917e+05
  -8.906547e+05  -9.313734e+04
  -4.765939e+05  -3.921430e+05
   3.026262e+05  -4.001170e+05
   6.477959e+05  -2.195580e+05
   2.551396e+05  -1.768540e+04
  -3.444048e+05   5.660266e+04
  -4.033280e+05  -7.365658e+04
   1.785872e+05  -2.836312e+05
   7.545551e+05  -2.486183e+05
