
 $NMID
 id='ANONYMOUS ', fmtdat='(2E16.6)'
 volume=1.0
 tramp=1.0
 $END
  -3.315840e+07   1.779829e+06
  -2.262541e+07  -1.643538e+07
   3.861983e+05  -2.193954e+07
   1.477090e+07  -1.293420e+07
   1.161652e+07   1.988173e+05
   4.503729e+04   6.009066e+06
  -6.568589e+06   1.931362e+06
  -4.166813e+06  -5.519830e+06
   2.149326e+06  -8.115332e+06
   6.079065e+06  -3.335576e+06
   5.123976e+06   3.898186e+06
   8.250107e+05   6.286743e+06
  -2.825456e+06   1.616960e+06
  -2.307088e+06  -4.817875e+06
   1.935104e+06  -5.894853e+06
   5.346723e+06  -3.492097e+05
   3.920446e+06   6.273272e+06
  -1.431195e+06   7.975351e+06
  -6.053255e+06   4.099333e+06
  -6.490591e+06  -1.331294e+06
  -3.397544e+06  -4.338099e+06
  -1.555774e+05  -4.137980e+06
   4.769485e+05  -2.697072e+06
  -1.218373e+06  -2.344230e+06
  -2.131614e+06  -3.552636e+06
   4.791036e+05  -4.492130e+06
   5.361709e+06  -3.044583e+06
   7.774493e+06   5.106990e+05
   4.740152e+06   3.413012e+06
  -1.006497e+06   3.355238e+06
  -3.845364e+06   8.762717e+05
  -1.650502e+06  -1.510475e+06
   2.300588e+06  -1.831432e+06
   3.746643e+06   6.635497e+04
   1.975382e+06   2.732266e+06
  -5.978269e+05   3.911982e+06
  -1.745714e+06   2.202973e+06
  -1.178918e+06  -1.003103e+06
   1.521199e+04  -2.199012e+06
   4.521829e+05   1.618973e+05
  -5.567460e+05   3.054621e+06
  -2.104607e+06   2.293201e+06
  -2.135207e+06  -1.724821e+06
   2.430267e+05  -4.005954e+06
   3.067395e+06  -1.331586e+06
   3.159280e+06   3.464975e+06
  -3.004263e+05   5.018544e+06
  -4.480640e+06   1.802408e+06
  -5.541182e+06  -2.724447e+06
  -2.361855e+06  -4.528153e+06
   2.390761e+06  -2.808122e+06
   4.698650e+06   3.276092e+05
   2.828594e+06   2.313690e+06
  -1.093098e+06   1.944113e+06
  -3.186631e+06  -2.179830e+04
  -1.774462e+06  -1.505853e+06
   9.673599e+05  -1.045836e+06
   1.687421e+06   5.969056e+05
  -1.761195e+05   1.307060e+06
  -1.921349e+06   1.804887e+05
  -1.053836e+06  -1.467612e+06
   1.712224e+06  -1.778159e+06
   3.395384e+06  -2.700517e+05
   2.066287e+06   2.083054e+06
  -1.363877e+06   3.801910e+06
  -4.301579e+06   3.570220e+06
  -4.814372e+06   9.696504e+05
  -2.985532e+06  -2.648217e+06
  -5.203277e+05  -4.743490e+06
   8.625336e+05  -4.025449e+06
   9.025619e+05  -1.941405e+06
   7.451901e+05  -8.509365e+05
   1.399359e+06  -1.064851e+06
   2.478457e+06  -8.078546e+05
   2.693369e+06   9.149227e+05
   1.386001e+06   2.667338e+06
  -7.207273e+05   2.373827e+06
  -2.149900e+06  -2.625767e+04
  -1.804669e+06  -2.448137e+06
   2.322098e+05  -2.857359e+06
   2.574026e+06  -1.067136e+06
   3.400263e+06   1.425242e+06
   2.061652e+06   2.891488e+06
  -1.433407e+05   2.715849e+06
  -1.325153e+06   1.676200e+06
  -1.196565e+06   9.880704e+05
  -1.267669e+06   9.839469e+05
  -2.585279e+06   8.306894e+05
  -3.985899e+06  -3.658070e+05
  -3.333991e+06  -2.370022e+06
  -2.576654e+05  -3.891360e+06
   3.084344e+06  -3.723326e+06
   4.127209e+06  -1.766147e+06
   2.403934e+06   7.977114e+05
  -1.964448e+05   2.236301e+06
  -1.374218e+06   1.618626e+06
  -4.785658e+05  -1.851942e+05
   1.151629e+06  -1.173215e+06
   1.691779e+06  -3.525855e+05
   6.765531e+05   1.043679e+06
  -6.304136e+05   1.075701e+06
  -6.969209e+05  -3.299193e+05
   5.909890e+05  -1.146172e+06
   1.836584e+06   1.839235e+05
   1.591421e+06   2.662807e+06
  -2.917401e+05   3.780163e+06
  -2.606654e+06   2.277157e+06
  -3.765146e+06  -6.600935e+05
  -2.928192e+06  -2.783076e+06
  -6.723309e+05  -2.863944e+06
   1.311298e+06  -1.466878e+06
   1.606459e+06  -1.344036e+05
   4.779675e+05   3.909688e+04
  -3.696569e+05  -7.090188e+05
   2.605287e+05  -1.188495e+06
   1.608149e+06  -5.873341e+05
   1.881581e+06   6.146497e+05
   5.095645e+05   1.207843e+06
  -1.066617e+06   6.393954e+05
  -1.033594e+06  -4.083957e+05
   7.039740e+05  -8.008300e+05
   2.366031e+06  -5.955075e+04
   2.137608e+06   1.295714e+06
  -3.751640e+03   2.210112e+06
  -2.261954e+06   1.867445e+06
  -2.731841e+06   3.810987e+05
  -1.183024e+06  -1.100490e+06
   7.766916e+05  -1.308348e+06
   1.309333e+06  -1.806671e+05
   1.160647e+05   9.296834e+05
  -1.409076e+06   7.021283e+05
  -1.697235e+06  -6.322373e+05
  -5.317291e+05  -1.580279e+06
   9.028854e+05  -1.150873e+06
   1.288067e+06   6.522023e+04
   4.173082e+05   6.890867e+05
  -6.657174e+05   1.086022e+05
  -6.856997e+05  -9.714479e+05
   5.769441e+05  -1.349371e+06
   1.943773e+06  -4.916074e+05
   1.948072e+06   1.012299e+06
   4.049942e+05   1.969326e+06
  -1.296504e+06   1.614630e+06
  -1.642166e+06   3.053452e+05
  -5.773487e+05  -7.975674e+05
   5.856108e+05  -8.400741e+05
   7.127474e+05  -7.035906e+04
  -3.308726e+04   5.367762e+05
  -6.284000e+05   3.899494e+05
  -4.107573e+05  -1.278051e+05
   2.998306e+05  -1.968830e+05
   6.154948e+05   4.407457e+05
  -2.814345e+04   1.127552e+06
  -1.270833e+06   9.382743e+05
  -2.026229e+06  -3.349216e+05
  -1.445443e+06  -1.847181e+06
   1.755591e+05  -2.397127e+06
   1.580362e+06  -1.536720e+06
   1.791539e+06  -3.440064e+03
   1.050079e+06   9.977047e+05
   3.668990e+05   9.449742e+05
   2.944585e+05   3.884151e+05
   4.247483e+05   2.100867e+05
   8.143736e+04   6.121661e+05
  -7.755418e+05   9.326766e+05
  -1.450208e+06   4.466805e+05
  -1.179518e+06  -7.296493e+05
   1.321492e+05  -1.598127e+06
   1.685480e+06  -1.195123e+06
   2.271041e+06   4.020052e+05
   1.242219e+06   2.001429e+06
  -7.912341e+05   2.322352e+06
  -2.353629e+06   1.166448e+06
  -2.391224e+06  -4.419976e+05
  -1.185618e+06  -1.295494e+06
   7.220516e+04  -1.129089e+06
   5.198691e+05  -6.764521e+05
   3.144407e+05  -6.983080e+05
   1.945305e+05  -1.113214e+06
   5.830409e+05  -1.152655e+06
   1.174458e+06  -2.974283e+05
   1.282827e+06   1.047749e+06
   5.503967e+05   1.849823e+06
  -6.087538e+05   1.411256e+06
  -1.273825e+06   4.910602e+04
  -8.623361e+05  -1.168192e+06
   2.369699e+05  -1.363825e+06
   9.965743e+05  -5.672208e+05
   7.992339e+05   4.449106e+05
   5.788795e+04   9.370436e+05
  -3.191346e+05   8.106472e+05
  -2.570359e+03   4.908813e+05
   3.889553e+05   3.618871e+05
   3.926856e+04   3.895278e+05
  -1.051824e+06   2.523439e+05
  -1.926384e+06  -2.462749e+05
  -1.596959e+06  -9.199046e+05
  -1.097388e+05  -1.317923e+06
   1.390573e+06  -1.106021e+06
   1.738349e+06  -3.897084e+05
   8.758642e+05   3.131149e+05
  -1.780147e+05   4.889027e+05
  -4.603442e+05   1.085950e+05
   6.665796e+03  -3.121879e+05
   4.784780e+05  -2.263384e+05
   4.554631e+05   3.297726e+05
   1.373220e+05   7.288560e+05
  -1.054691e+04   4.675817e+05
   1.516179e+05  -1.743622e+05
   3.657647e+05  -3.838826e+05
   2.957643e+05   2.114664e+05
  -1.853214e+05   1.002162e+06
  -8.573151e+05   1.032162e+06
  -1.186753e+06   1.208900e+05
  -7.076850e+05  -8.781709e+05
   3.841458e+05  -1.010058e+06
   1.139145e+06  -2.387531e+05
   7.039139e+05   5.877768e+05
  -6.503280e+05   6.696043e+05
  -1.613440e+06  -1.099413e+04
  -1.154371e+06  -8.125366e+05
   3.542612e+05  -1.080944e+06
   1.506956e+06  -6.514057e+05
   1.324197e+06   9.242875e+04
   1.967534e+05   5.349873e+05
  -6.245616e+05   3.295338e+05
  -3.466818e+05  -2.449754e+05
   6.176947e+05  -4.603235e+05
   1.145489e+06   1.504284e+05
   5.656702e+05   1.189439e+06
  -6.807007e+05   1.627289e+06
  -1.504079e+06   8.041426e+05
  -1.235520e+06  -7.783599e+05
  -1.974780e+05  -1.792708e+06
   7.277042e+05  -1.345983e+06
   9.438713e+05   9.803899e+04
   5.122725e+05   1.172421e+06
  -1.199674e+05   1.022474e+06
  -5.314695e+05   1.305735e+05
  -5.316599e+05  -3.911221e+05
  -2.360096e+05  -1.650056e+05
  -2.060349e+04   1.206025e+05
  -1.772365e+05  -2.296611e+05
  -4.754153e+05  -9.273450e+05
  -2.875493e+05  -1.091698e+06
   6.031702e+05  -4.232566e+05
   1.481130e+06   4.520606e+05
   1.361100e+06   8.254260e+05
   2.014119e+05   6.737305e+05
  -9.146224e+05   4.077762e+05
  -1.003874e+06   2.144274e+05
  -3.002273e+05  -6.660616e+02
   1.702994e+05  -2.143893e+05
  -4.779650e+04  -2.536835e+05
  -3.492197e+05  -1.488447e+05
  -1.499440e+04  -1.339619e+05
   7.470143e+05  -1.932433e+05
   1.020602e+06   3.425924e+04
   2.992681e+05   6.560998e+05
  -9.085900e+05   1.104017e+06
  -1.610805e+06   6.903082e+05
  -1.279879e+06  -4.639623e+05
  -2.376479e+05  -1.400220e+06
   7.288929e+05  -1.331999e+06
   1.028140e+06  -4.733500e+05
   6.556468e+05   2.783095e+05
   9.507416e+04   3.487497e+05
  -1.399186e+05   7.733154e+03
   5.734023e+04  -7.786390e+04
   3.397853e+05   3.400150e+05
   2.798054e+05   8.000958e+05
  -1.920052e+05   6.505809e+05
  -6.837962e+05  -1.774516e+05
  -6.745779e+05  -9.895837e+05
  -2.370144e+04  -1.000092e+06
   7.850811e+05  -1.613441e+05
   9.876624e+05   7.815195e+05
   2.909182e+05   1.065376e+06
  -7.110311e+05   6.073484e+05
  -1.061208e+06  -9.346652e+04
  -4.833082e+05  -5.452244e+05
   2.710135e+05  -5.964625e+05
   3.071126e+05  -3.514762e+05
  -3.131194e+05  -4.343710e+04
  -6.584115e+05   2.515876e+04
  -1.208714e+05  -2.875671e+05
   8.151332e+05  -6.793067e+05
   1.185544e+06  -5.921795e+05
   6.852994e+05   1.121712e+05
  -9.912670e+04   8.280064e+05
  -4.795269e+05   8.203603e+05
  -3.438076e+05   1.142633e+05
  -1.217545e+04  -4.983768e+05
   2.460798e+05  -3.891991e+05
   3.452054e+05   2.089878e+05
   2.396429e+05   5.709347e+05
  -6.421655e+04   3.614934e+05
  -3.800385e+05  -7.209222e+04
  -4.503503e+05  -2.307667e+05
  -2.419263e+05  -5.553003e+04
   6.189715e+03   9.523684e+04
   8.998471e+04  -6.041404e+04
   8.064777e+04  -3.811731e+05
   1.685924e+05  -4.608645e+05
   3.440477e+05  -9.540488e+04
   3.597622e+05   4.422424e+05
   3.998336e+04   6.382534e+05
  -4.322557e+05   2.748609e+05
  -6.079933e+05  -3.149109e+05
  -2.141424e+05  -5.882206e+05
   4.809993e+05  -3.515976e+05
   8.294459e+05   1.012499e+05
   4.523072e+05   3.730385e+05
  -2.859821e+05   3.463998e+05
  -6.078299e+05   1.667847e+05
  -1.964397e+05   1.200662e+04
   4.057573e+05  -9.295573e+03
   4.221031e+05   1.367170e+05
  -2.268517e+05   3.233514e+05
  -8.257200e+05   2.544767e+05
