
 $NMID
 id='ANONYMOUS ', fmtdat='(2E16.6)'
 volume=1.0
 tramp=1.0
 $END
   2.040766e+07   1.615589e+06
   1.274698e+07   1.062636e+07
  -1.089087e+06   1.281246e+07
  -9.357480e+06   7.830339e+06
  -7.330980e+06   3.391392e+05
  -1.764288e+05  -3.634208e+06
   4.205703e+06  -1.546821e+06
   2.871685e+06   3.442134e+06
  -1.308773e+06   5.529326e+06
  -3.964640e+06   2.248939e+06
  -3.137687e+06  -2.887745e+06
  -1.309848e+05  -4.339515e+06
   2.070696e+06  -7.514716e+05
   1.386871e+06   3.696883e+06
  -1.449277e+06   4.132207e+06
  -3.447165e+06   1.670683e+05
  -2.283235e+06  -4.194206e+06
   1.266309e+06  -5.038318e+06
   4.090898e+06  -2.153885e+06
   3.917108e+06   1.494474e+06
   1.466874e+06   3.042939e+06
  -5.262120e+05   2.248832e+06
  -2.250613e+05   1.147352e+06
   1.439801e+06   1.552985e+06
   1.768235e+06   3.041874e+06
  -7.278873e+05   3.528305e+06
  -4.343396e+06   1.761545e+06
  -5.584755e+06  -1.144667e+06
  -2.896015e+06  -2.870566e+06
   1.343802e+06  -2.235268e+06
   3.136593e+06  -1.091604e+05
   1.115088e+06   1.627114e+06
  -2.147763e+06   1.587749e+06
  -3.203788e+06  -2.564751e+05
  -1.409704e+06  -2.467695e+06
   9.297764e+05  -3.030178e+06
   1.543475e+06  -1.233400e+06
   4.701351e+05   1.160876e+06
  -5.962843e+05   1.495875e+06
  -4.181936e+05  -6.093345e+05
   7.294245e+05  -2.492864e+06
   1.647961e+06  -1.615739e+06
   1.365307e+06   1.139267e+06
  -8.914395e+04   2.443770e+06
  -1.574915e+06   6.479605e+05
  -1.576363e+06  -2.225356e+06
   3.996913e+05  -2.970460e+06
   2.941134e+06  -8.089148e+05
   3.673804e+06   2.104023e+06
   1.571610e+06   3.224615e+06
  -1.735327e+06   1.958594e+06
  -3.362882e+06  -2.829186e+05
  -2.032013e+06  -1.630900e+06
   6.811950e+05  -1.268965e+06
   2.081435e+06   9.481803e+04
   1.142363e+06   9.969570e+05
  -6.632649e+05   6.208019e+05
  -1.210100e+06  -4.580703e+05
  -5.974277e+04  -9.838007e+05
   1.218946e+06  -3.987096e+05
   9.300515e+05   6.443380e+05
  -7.996479e+05   1.035190e+06
  -2.087232e+06   2.374306e+05
  -1.282248e+06  -1.314401e+06
   1.240800e+06  -2.492167e+06
   3.398805e+06  -2.188221e+06
   3.484640e+06  -2.353431e+05
   1.770076e+06   2.176298e+06
  -3.740375e+04   3.370412e+06
  -7.061504e+05   2.792146e+06
  -5.493022e+05   1.519630e+06
  -6.467743e+05   8.850954e+05
  -1.412790e+06   8.656426e+05
  -2.189179e+06   3.484169e+05
  -2.067059e+06  -1.089059e+06
  -8.341076e+05  -2.308251e+06
   8.178061e+05  -1.871911e+06
   1.780348e+06   1.425813e+05
   1.298205e+06   2.031539e+06
  -3.835700e+05   2.164606e+06
  -2.018782e+06   5.400765e+05
  -2.307832e+06  -1.387499e+06
  -1.115787e+06  -2.207312e+06
   3.774813e+05  -1.749709e+06
   9.666982e+05  -9.227460e+05
   7.518904e+05  -5.882126e+05
   8.746762e+05  -7.096939e+05
   1.912972e+06  -5.506636e+05
   2.914418e+06   4.232533e+05
   2.358263e+06   1.901818e+06
   6.599142e+03   2.918551e+06
  -2.526845e+06   2.632479e+06
  -3.248548e+06   1.053623e+06
  -1.761145e+06  -8.318760e+05
   3.672843e+05  -1.727153e+06
   1.211627e+06  -1.110051e+06
   3.455133e+05   2.078632e+05
  -9.639977e+05   8.082435e+05
  -1.264445e+06   1.508972e+05
  -3.937706e+05  -8.145625e+05
   5.666616e+05  -7.820620e+05
   5.666340e+05   2.603793e+05
  -3.796033e+05   9.048740e+05
  -1.309384e+06  -2.638066e+03
  -1.218029e+06  -1.866453e+06
   1.136323e+05  -2.847418e+06
   1.903675e+06  -1.810134e+06
   2.871845e+06   4.930830e+05
   2.226234e+06   2.224496e+06
   4.302632e+05   2.252482e+06
  -1.086683e+06   1.054519e+06
  -1.240360e+06   8.948926e+02
  -3.566548e+05  -5.384561e+04
   2.435743e+05   5.499962e+05
  -2.398240e+05   8.477805e+05
  -1.190494e+06   3.421250e+05
  -1.346000e+06  -5.205789e+05
  -3.327039e+05  -8.932044e+05
   8.215069e+05  -4.369561e+05
   7.953622e+05   3.476856e+05
  -5.263496e+05   6.280917e+05
  -1.819159e+06   2.205756e+04
  -1.643274e+06  -1.054148e+06
   4.530139e+04  -1.716970e+06
   1.791538e+06  -1.347907e+06
   2.079854e+06  -1.688508e+05
   8.212293e+05   8.648637e+05
  -6.432227e+05   9.007028e+05
  -9.505501e+05   4.678382e+04
  -8.095196e+03  -6.876455e+05
   1.088935e+06  -4.446871e+05
   1.242254e+06   5.389858e+05
   3.580659e+05   1.199568e+06
  -6.938056e+05   8.513374e+05
  -9.649787e+05  -6.261058e+04
  -3.100592e+05  -5.153774e+05
   4.836351e+05  -5.087600e+04
   4.575293e+05   7.625741e+05
  -5.138553e+05   9.839220e+05
  -1.495196e+06   2.598912e+05
  -1.408579e+06  -8.684220e+05
  -2.030948e+05  -1.493977e+06
   1.039839e+06  -1.143138e+06
   1.237318e+06  -1.604312e+05
   4.060810e+05   6.160339e+05
  -4.727055e+05   6.102856e+05
  -5.646520e+05   1.806278e+04
   2.232412e+04  -4.429419e+05
   5.179666e+05  -3.164102e+05
   3.769499e+05   1.122101e+05
  -1.847135e+05   1.874388e+05
  -4.523207e+05  -3.059851e+05
   4.125680e+04  -8.303020e+05
   9.857294e+05  -6.518746e+05
   1.506639e+06   3.437036e+05
   9.941788e+05   1.458581e+06
  -2.489808e+05   1.805018e+06
  -1.263805e+06   1.111495e+06
  -1.374657e+06  -5.334933e+04
  -7.956057e+05  -8.197912e+05
  -2.614612e+05  -7.968793e+05
  -1.757259e+05  -3.593420e+05
  -2.614125e+05  -1.715360e+05
  -2.018932e+04  -4.356039e+05
   6.100437e+05  -6.705537e+05
   1.116359e+06  -2.962427e+05
   8.907634e+05   6.045063e+05
  -1.434252e+05   1.231127e+06
  -1.324975e+06   8.498465e+05
  -1.706715e+06  -4.006509e+05
  -8.602557e+05  -1.556790e+06
   6.754926e+05  -1.701830e+06
   1.798848e+06  -7.833171e+05
   1.789342e+06   4.082483e+05
   8.824577e+05   1.020678e+06
  -7.062146e+04   8.862987e+05
  -4.472458e+05   5.336845e+05
  -3.309744e+05   5.189190e+05
  -2.387871e+05   7.994180e+05
  -4.926555e+05   8.099725e+05
  -8.834339e+05   1.527413e+05
  -9.072269e+05  -8.594337e+05
  -3.187056e+05  -1.425814e+06
   5.349391e+05  -1.035213e+06
   9.656703e+05   1.803078e+04
   5.992702e+05   9.041533e+05
  -2.184854e+05   1.007495e+06
  -7.395088e+05   4.048700e+05
  -5.656874e+05  -3.240320e+05
  -2.700596e+04  -6.728292e+05
   2.343843e+05  -5.922755e+05
   4.296632e+03  -3.840456e+05
  -2.691156e+05  -3.028858e+05
  -6.467075e+03  -3.003368e+05
   7.877385e+05  -1.417248e+05
   1.416241e+06   2.747508e+05
   1.155348e+06   7.567119e+05
   4.085805e+04   9.729249e+05
  -1.072658e+06   7.491409e+05
  -1.313784e+06   2.252235e+05
  -6.473175e+05  -2.404979e+05
   1.469786e+05  -3.392667e+05
   3.390087e+05  -7.256620e+04
  -3.601254e+04   2.141550e+05
  -3.843205e+05   1.420189e+05
  -3.219296e+05  -2.725766e+05
  -4.114150e+04  -5.693131e+05
   5.705517e+04  -3.590729e+05
  -1.215773e+05   1.439717e+05
  -3.113865e+05   3.005070e+05
  -2.187444e+05  -1.688155e+05
   1.996633e+05  -7.592217e+05
   6.973841e+05  -7.317747e+05
   8.732550e+05  -8.076837e+03
   4.583028e+05   7.054146e+05
  -3.454795e+05   7.170900e+05
  -8.577461e+05   9.263700e+04
  -4.987893e+05  -4.883045e+05
   5.152951e+05  -4.766814e+05
   1.225541e+06   7.003727e+04
   8.665379e+05   6.549265e+05
  -2.882928e+05   8.157024e+05
  -1.169113e+06   4.583182e+05
  -1.016568e+06  -1.092817e+05
  -1.379383e+05  -4.175192e+05
   4.823845e+05  -2.305493e+05
   2.390746e+05   1.958365e+05
  -5.058576e+05   3.060343e+05
  -8.595552e+05  -1.931683e+05
  -3.436404e+05  -9.434410e+05
   6.296131e+05  -1.189886e+06
   1.195874e+06  -5.143025e+05
   8.946951e+05   6.627099e+05
   5.516236e+04   1.373353e+06
  -6.165754e+05   9.966285e+05
  -7.114309e+05  -1.033121e+05
  -3.468507e+05  -9.076808e+05
   1.164865e+05  -7.775545e+05
   4.005054e+05  -8.111773e+04
   4.011828e+05   3.239019e+05
   1.907150e+05   1.397199e+05
   1.340794e+04  -9.460676e+04
   9.293723e+04   1.752098e+05
   3.015391e+05   7.229845e+05
   1.859598e+05   8.414526e+05
  -4.512641e+05   2.891195e+05
  -1.102797e+06  -4.177260e+05
  -1.010800e+06  -6.900542e+05
  -1.203598e+05  -5.152192e+05
   7.327838e+05  -2.635532e+05
   7.770445e+05  -1.199667e+05
   2.090534e+05   7.348099e+03
  -1.480188e+05   1.527265e+05
   4.789077e+04   2.011986e+05
   2.837249e+05   1.391247e+05
  -4.354445e+03   1.058562e+05
  -6.034962e+05   1.031298e+05
  -7.695709e+05  -8.806333e+04
  -1.555255e+05  -5.157221e+05
   7.727519e+05  -7.771599e+05
   1.243596e+06  -4.151786e+05
   9.167652e+05   4.394622e+05
   9.600514e+04   1.078716e+06
  -6.183823e+05   9.600026e+05
  -8.066493e+05   2.868738e+05
  -4.878775e+05  -2.586745e+05
  -4.298743e+04  -2.710990e+05
   1.298953e+05   1.147698e+04
  -3.661772e+04   7.055992e+04
  -2.487485e+05  -2.663027e+05
  -1.782242e+05  -6.190705e+05
   1.868715e+05  -4.781920e+05
   5.162220e+05   1.868391e+05
   4.456826e+05   8.048457e+05
  -6.345659e+04   7.610853e+05
  -6.217575e+05   5.938514e+04
  -7.012739e+05  -6.682889e+05
  -1.462579e+05  -8.242082e+05
   5.787412e+05  -4.044455e+05
   7.882839e+05   1.379625e+05
   3.199245e+05   4.264702e+05
  -2.405600e+05   4.158669e+05
  -2.344265e+05   2.406948e+05
   2.564413e+05   5.385062e+04
   5.058315e+05   1.927202e+04
   6.776256e+04   2.216723e+05
  -6.538045e+05   4.721696e+05
  -9.091736e+05   3.949136e+05
  -4.885850e+05  -1.106174e+05
   1.243314e+05  -6.133460e+05
   3.918615e+05  -5.823051e+05
   2.489420e+05  -4.843748e+04
  -2.754757e+04   3.885734e+05
  -2.139305e+05   2.705793e+05
  -2.545970e+05  -1.954149e+05
  -1.469223e+05  -4.467768e+05
   7.717539e+04  -2.541682e+05
   2.845308e+05   8.410842e+04
   3.188448e+05   1.882013e+05
   1.773844e+05   4.389739e+04
   1.297347e+04  -5.989502e+04
  -6.495259e+04   7.077971e+04
  -1.056970e+05   3.013609e+05
  -1.942968e+05   3.265474e+05
  -2.845332e+05   2.135454e+04
  -2.273442e+05  -3.822495e+05
   3.798667e+04  -4.951777e+05
   3.540264e+05  -1.765556e+05
   4.326914e+05   2.875208e+05
   1.211102e+05   4.668934e+05
  -3.788036e+05   2.352650e+05
  -6.128975e+05  -1.340603e+05
  -3.159121e+05  -3.095449e+05
   2.390487e+05  -2.320008e+05
   4.680959e+05  -7.350109e+04
   1.351165e+05   8.142253e+03
  -3.316581e+05  -2.685339e+04
  -3.242973e+05  -1.468537e+05
   2.044327e+05  -2.480884e+05
   6.674909e+05  -1.509219e+05
