
 $NMID
 id='ANONYMOUS ', fmtdat='(2E16.6)'
 volume=1.0
 tramp=1.0
 $END
   3.251124e+07   8.402585e+05
   2.056347e+07   1.702548e+07
  -1.736856e+06   2.079099e+07
  -1.467213e+07   1.188794e+07
  -1.103236e+07  -2.349185e+05
   6.732919e+04  -5.650701e+06
   6.291116e+06  -1.895035e+06
   3.988749e+06   5.311668e+06
  -2.115458e+06   7.959320e+06
  -5.957252e+06   3.174655e+06
  -4.915497e+06  -4.145648e+06
  -5.406444e+05  -6.400007e+06
   3.000237e+06  -1.432998e+06
   2.264591e+06   5.070366e+06
  -2.009013e+06   5.916050e+06
  -5.209526e+06   1.885806e+05
  -3.574544e+06  -6.331196e+06
   1.791335e+06  -7.757340e+06
   6.226480e+06  -3.632399e+06
   6.323289e+06   1.872488e+06
   2.879051e+06   4.649075e+06
  -4.174543e+05   3.984659e+06
  -6.624088e+05   2.256399e+06
   1.501351e+06   2.122975e+06
   2.437059e+06   3.785528e+06
  -5.988629e+05   4.822778e+06
  -5.815235e+06   2.997757e+06
  -8.094320e+06  -9.341151e+05
  -4.644890e+06  -3.826638e+06
   1.401251e+06  -3.485556e+06
   4.244457e+06  -7.233806e+05
   1.797885e+06   1.840051e+06
  -2.507851e+06   2.156335e+06
  -4.133515e+06  -1.786556e+04
  -2.155873e+06  -3.043393e+06
   8.039944e+05  -4.237852e+06
   2.032846e+06  -2.131261e+06
   1.127624e+06   1.370703e+06
  -3.587675e+05   2.358156e+06
  -6.624903e+05  -4.059374e+05
   6.477838e+05  -3.353808e+06
   2.210615e+06  -2.343515e+06
   2.036911e+06   1.736521e+06
  -3.283770e+05   3.777775e+06
  -2.844769e+06   9.797527e+05
  -2.726301e+06  -3.565885e+06
   6.011071e+05  -4.772314e+06
   4.521960e+06  -1.466817e+06
   5.473287e+06   2.924182e+06
   2.311355e+06   4.595029e+06
  -2.438206e+06   2.813405e+06
  -4.754162e+06  -3.542046e+05
  -2.855196e+06  -2.316600e+06
   1.077564e+06  -1.864954e+06
   3.127775e+06   1.224776e+05
   1.699918e+06   1.510818e+06
  -9.945465e+05   9.764802e+05
  -1.714661e+06  -6.152261e+05
   5.493764e+04  -1.286660e+06
   1.766048e+06  -2.858229e+05
   1.035943e+06   1.196727e+06
  -1.564117e+06   1.527571e+06
  -3.222637e+06   1.896397e+05
  -1.920803e+06  -2.066163e+06
   1.596925e+06  -3.793691e+06
   4.635740e+06  -3.500148e+06
   5.024540e+06  -7.362032e+05
   2.898407e+06   2.943169e+06
   2.926077e+05   4.902056e+06
  -9.456756e+05   4.042964e+06
  -8.182672e+05   2.004179e+06
  -7.326207e+05   1.048136e+06
  -1.609435e+06   1.257919e+06
  -2.800413e+06   8.147857e+05
  -2.927356e+06  -1.119443e+06
  -1.436164e+06  -2.958159e+06
   8.364315e+05  -2.583526e+06
   2.338318e+06   1.684381e+04
   1.912211e+06   2.618497e+06
  -3.142914e+05   3.015670e+06
  -2.762735e+06   1.009699e+06
  -3.476661e+06  -1.679277e+06
  -1.925817e+06  -3.107046e+06
   3.573538e+05  -2.720762e+06
   1.435918e+06  -1.544816e+06
   1.189283e+06  -8.981698e+05
   1.260336e+06  -9.844403e+05
   2.656154e+06  -8.316235e+05
   4.104970e+06   4.410706e+05
   3.411752e+06   2.514313e+06
   2.028710e+05   4.054140e+06
  -3.298520e+06   3.836675e+06
  -4.392079e+06   1.757859e+06
  -2.529124e+06  -9.342013e+05
   2.825900e+05  -2.395802e+06
   1.525452e+06  -1.679269e+06
   5.076150e+05   2.245781e+05
  -1.246504e+06   1.209186e+06
  -1.765726e+06   3.185879e+05
  -6.548176e+05  -1.116301e+06
   6.921035e+05  -1.128614e+06
   7.460161e+05   3.220060e+05
  -5.436426e+05   1.186693e+06
  -1.805720e+06  -1.165080e+05
  -1.635076e+06  -2.638777e+06
   1.964479e+05  -3.860703e+06
   2.593299e+06  -2.407804e+06
   3.903142e+06   6.222244e+05
   3.099811e+06   2.895045e+06
   7.136345e+05   3.016875e+06
  -1.403847e+06   1.529215e+06
  -1.701135e+06   1.123355e+05
  -4.989726e+05  -4.880577e+04
   3.742375e+05   7.441427e+05
  -2.923905e+05   1.212378e+06
  -1.666553e+06   5.616205e+05
  -1.921560e+06  -6.623600e+05
  -5.066190e+05  -1.241212e+06
   1.111043e+06  -6.507632e+05
   1.087795e+06   4.231326e+05
  -7.055187e+05   8.418787e+05
  -2.460611e+06   8.601154e+04
  -2.256711e+06  -1.341337e+06
  -1.466336e+04  -2.316025e+06
   2.372789e+06  -1.943419e+06
   2.856761e+06  -3.668122e+05
   1.204330e+06   1.159626e+06
  -8.414335e+05   1.327408e+06
  -1.353314e+06   1.422463e+05
  -8.341486e+04  -9.720603e+05
   1.482311e+06  -7.012822e+05
   1.753487e+06   6.756218e+05
   5.463864e+05   1.637418e+06
  -9.261352e+05   1.190900e+06
  -1.326358e+06  -5.926550e+04
  -4.345572e+05  -7.009334e+05
   6.814276e+05  -9.505013e+04
   6.914805e+05   1.027149e+06
  -6.335423e+05   1.400676e+06
  -2.046636e+06   4.756764e+05
  -2.017081e+06  -1.096678e+06
  -3.868946e+05  -2.059887e+06
   1.372903e+06  -1.656955e+06
   1.708740e+06  -2.967810e+05
   5.937932e+05   8.298125e+05
  -6.153549e+05   8.685588e+05
  -7.575303e+05   7.175336e+04
   1.433975e+04  -5.707886e+05
   6.584555e+05  -4.335025e+05
   4.648017e+05   1.140203e+05
  -2.722165e+05   2.129267e+05
  -6.235332e+05  -4.374923e+05
   3.460660e+04  -1.157116e+06
   1.331348e+06  -9.582955e+05
   2.107406e+06   3.790021e+05
   1.477706e+06   1.952153e+06
  -2.173683e+05   2.506392e+06
  -1.663346e+06   1.598560e+06
  -1.875901e+06   2.210571e+03
  -1.118239e+06  -1.050600e+06
  -4.093010e+05  -1.020512e+06
  -3.043366e+05  -4.490983e+05
  -4.112143e+05  -2.390148e+05
  -5.876900e+04  -6.296553e+05
   8.137032e+05  -9.596905e+05
   1.514976e+06  -4.605016e+05
   1.241364e+06   7.687668e+05
  -1.342075e+05   1.675986e+06
  -1.768734e+06   1.238386e+06
  -2.371021e+06  -4.437828e+05
  -1.274779e+06  -2.096441e+06
   8.469357e+05  -2.397196e+06
   2.453012e+06  -1.182658e+06
   2.482920e+06   4.720244e+05
   1.243796e+06   1.346521e+06
  -5.798789e+04   1.187209e+06
  -5.496423e+05   7.338059e+05
  -3.697921e+05   7.495604e+05
  -2.511197e+05   1.156611e+06
  -6.351763e+05   1.178056e+06
  -1.227547e+06   2.796931e+05
  -1.322250e+06  -1.121233e+06
  -5.453255e+05  -1.945884e+06
   6.609929e+05  -1.468468e+06
   1.330783e+06  -3.697216e+04
   8.802875e+05   1.221409e+06
  -2.566522e+05   1.407506e+06
  -1.019299e+06   5.784191e+05
  -8.027711e+05  -4.545844e+05
  -4.972362e+04  -9.500484e+05
   3.216631e+05  -8.245481e+05
  -6.977905e+03  -5.133522e+05
  -4.015945e+05  -3.931383e+05
  -3.425269e+04  -4.124299e+05
   1.093186e+06  -2.429889e+05
   1.995065e+06   2.931726e+05
   1.647727e+06   9.792183e+05
   9.768462e+04   1.356444e+06
  -1.459621e+06   1.114804e+06
  -1.808180e+06   3.846327e+05
  -8.984482e+05  -3.182686e+05
   1.947014e+05  -4.930892e+05
   4.710619e+05  -1.090452e+05
  -2.774538e+04   3.208998e+05
  -5.128616e+05   2.315055e+05
  -4.693033e+05  -3.545880e+05
  -1.224538e+05  -7.812067e+05
   3.006395e+04  -5.018993e+05
  -1.539160e+05   1.906294e+05
  -3.877673e+05   4.170832e+05
  -3.071414e+05  -2.217792e+05
   2.117345e+05  -1.056190e+06
   9.147559e+05  -1.062875e+06
   1.236185e+06  -8.364057e+04
   7.111741e+05   9.455120e+05
  -4.300353e+05   1.037994e+06
  -1.198935e+06   2.099670e+05
  -7.291592e+05  -6.324639e+05
   6.846214e+05  -6.896376e+05
   1.686266e+06   2.313334e+04
   1.209566e+06   8.468707e+05
  -3.631449e+05   1.123842e+06
  -1.571805e+06   6.810465e+05
  -1.386644e+06  -9.505385e+04
  -2.078395e+05  -5.592126e+05
   6.506435e+05  -3.402190e+05
   3.505324e+05   2.616508e+05
  -6.663982e+05   4.716622e+05
  -1.205168e+06  -1.869261e+05
  -5.661226e+05  -1.271346e+06
   7.581532e+05  -1.701927e+06
   1.603840e+06  -8.157745e+05
   1.286263e+06   8.406630e+05
   1.802002e+05   1.886284e+06
  -7.763611e+05   1.406579e+06
  -9.818525e+05  -1.061029e+05
  -5.269045e+05  -1.226405e+06
   1.234783e+05  -1.065150e+06
   5.507738e+05  -1.304541e+05
   5.614385e+05   4.117802e+05
   2.569019e+05   1.705892e+05
   1.710118e+04  -1.255461e+05
   1.629351e+05   2.496833e+05
   4.766225e+05   9.810225e+05
   2.981333e+05   1.139765e+06
  -6.236750e+05   4.242906e+05
  -1.547722e+06  -4.946398e+05
  -1.424675e+06  -8.754233e+05
  -2.000672e+05  -7.056436e+05
   9.751620e+05  -4.212692e+05
   1.055549e+06  -2.163727e+05
   3.015317e+05   7.232132e+03
  -1.864157e+05   2.245954e+05
   6.237690e+04   2.616256e+05
   3.815114e+05   1.566223e+05
   9.726503e+03   1.458311e+05
  -8.032775e+05   1.981603e+05
  -1.071714e+06  -5.775457e+04
  -2.839802e+05  -7.077292e+05
   9.892650e+05  -1.146448e+06
   1.701527e+06  -6.807102e+05
   1.326660e+06   5.288759e+05
   2.229639e+05   1.479223e+06
  -7.877792e+05   1.377884e+06
  -1.093957e+06   4.709160e+05
  -6.910013e+05  -3.079233e+05
  -8.860307e+04  -3.721369e+05
   1.635307e+05  -8.675715e+03
  -5.011636e+04   8.486259e+04
  -3.525809e+05  -3.536924e+05
  -2.844145e+05  -8.394285e+05
   2.173653e+05  -6.790109e+05
   7.241279e+05   2.035086e+05
   6.912067e+05   1.064177e+06
  -6.246365e+03   1.060744e+06
  -8.439175e+05   1.514425e+05
  -1.028896e+06  -8.509793e+05
  -2.786781e+05  -1.129607e+06
   7.666529e+05  -6.184039e+05
   1.109629e+06   1.253430e+05
   4.838921e+05   5.793400e+05
  -3.039882e+05   6.103988e+05
  -3.218095e+05   3.521719e+05
   3.414452e+05   4.519164e+04
   6.955524e+05  -1.574703e+04
   1.164289e+05   3.053592e+05
  -8.659221e+05   6.998282e+05
  -1.238553e+06   5.996045e+05
  -6.995222e+05  -1.317502e+05
   1.234621e+05  -8.640437e+05
   5.130551e+05  -8.397272e+05
   3.600330e+05  -9.685453e+04
   2.701705e+03   5.325355e+05
  -2.724077e+05   4.005489e+05
  -3.678799e+05  -2.337737e+05
  -2.402272e+05  -6.052473e+05
   8.433907e+04  -3.725193e+05
   4.010787e+05   8.678545e+04
   4.592430e+05   2.471701e+05
   2.472959e+05   5.714546e+04
   6.646469e+03  -9.755726e+04
  -8.102068e+04   7.610346e+04
  -9.819084e+04   4.166852e+05
  -2.126100e+05   4.883924e+05
  -3.847189e+05   8.324189e+04
  -3.683611e+05  -4.932061e+05
  -1.593491e+04  -6.879465e+05
   4.677507e+05  -2.807806e+05
   6.324934e+05   3.536121e+05
   2.130846e+05   6.296434e+05
  -5.100018e+05   3.563163e+05
  -8.676315e+05  -1.308177e+05
  -4.655730e+05  -4.028006e+05
   3.133179e+05  -3.516933e+05
   6.470334e+05  -1.532659e+05
   2.008426e+05  -5.148338e+02
  -4.432994e+05   4.928320e+03
  -4.546014e+05  -1.574785e+05
   2.461935e+05  -3.494239e+05
   8.852800e+05  -2.649157e+05
