
 $NMID
 id='ANONYMOUS ', fmtdat='(2E16.6)'
 volume=1.0
 tramp=1.0
 $END
  -5.740103e+07  -2.120750e+06
  -3.292600e+07  -3.743893e+07
   9.567234e+06  -3.873926e+07
   2.889945e+07  -1.321980e+07
   1.622900e+07   8.452324e+06
  -4.060882e+06   9.319375e+06
  -9.846829e+06  -2.081729e+06
  -2.029117e+06  -1.010933e+07
   6.928099e+06  -8.819044e+06
   9.835307e+06  -1.303903e+06
   6.730984e+06   6.495927e+06
   4.851175e+05   8.550630e+06
  -4.057827e+06   2.668022e+06
  -2.347755e+06  -5.312195e+06
   4.115357e+06  -6.152841e+06
   7.849010e+06   1.839140e+06
   3.947685e+06   1.049535e+07
  -4.386674e+06   1.170466e+07
  -1.046244e+07   5.580494e+06
  -1.092299e+07  -2.399367e+06
  -6.618788e+06  -7.840399e+06
  -5.018084e+05  -9.021554e+06
   3.390035e+06  -6.265511e+06
   2.439261e+06  -2.562686e+06
  -7.458880e+05  -1.793503e+06
  -2.385228e+05  -3.853268e+06
   5.210887e+06  -4.204568e+06
   9.440287e+06  -3.528265e+05
   6.928296e+06   4.232230e+06
   3.289697e+05   5.082433e+06
  -3.535100e+06   2.620580e+06
  -2.471338e+06   2.380827e+05
   2.755713e+05  -6.708169e+05
   1.863898e+06  -4.803735e+05
   2.044757e+06   1.161537e+06
   7.723011e+05   3.705709e+06
  -1.817925e+06   3.880236e+06
  -3.424562e+06  -1.189401e+04
  -1.833710e+06  -3.735576e+06
   8.376799e+05  -2.190978e+06
   4.087861e+05   2.194495e+06
  -2.458255e+06   2.085031e+06
  -2.262852e+06  -3.366938e+06
   2.895977e+06  -6.109305e+06
   7.316189e+06  -6.877096e+05
   4.978925e+06   7.334208e+06
  -2.370725e+06   8.636708e+06
  -7.623529e+06   2.159226e+06
  -6.663753e+06  -4.744294e+06
  -1.437242e+06  -6.029981e+06
   3.574716e+06  -2.418921e+06
   5.011957e+06   1.847878e+06
   2.091025e+06   3.597273e+06
  -2.602057e+06   2.043067e+06
  -4.491034e+06  -1.188098e+06
  -1.783568e+06  -2.859158e+06
   1.804359e+06  -1.297882e+06
   1.615221e+06   1.110505e+06
  -1.499478e+06   7.568121e+05
  -2.396473e+06  -2.099214e+06
   9.954563e+05  -3.608844e+06
   4.971961e+06  -1.682264e+06
   5.319238e+06   1.750529e+06
   2.107805e+06   4.179780e+06
  -1.950626e+06   5.172400e+06
  -5.004707e+06   4.629994e+06
  -6.144478e+06   1.587988e+06
  -4.510506e+06  -3.212975e+06
  -7.670676e+05  -6.110789e+06
   2.104351e+06  -4.578596e+06
   1.876964e+06  -9.610790e+05
   4.914500e+04   4.591857e+05
  -2.622171e+05  -8.926682e+05
   1.398764e+06  -1.809115e+06
   2.674887e+06  -3.491188e+05
   1.963242e+06   1.748218e+06
   8.908219e+04   1.978664e+06
  -1.361539e+06   1.785742e+05
  -1.487306e+06  -1.953409e+06
   5.404485e+04  -2.787728e+06
   2.702003e+06  -1.580488e+06
   4.381420e+06   1.224243e+06
   3.139379e+06   3.813434e+06
  -1.457605e+05   4.275508e+06
  -2.413555e+06   2.694677e+06
  -2.344553e+06   1.036057e+06
  -1.869403e+06   5.292977e+05
  -2.874513e+06   2.840935e+05
  -4.163930e+06  -9.508148e+05
  -3.234360e+06  -2.822453e+06
   5.027190e+04  -3.963715e+06
   3.204589e+06  -3.615855e+06
   4.039719e+06  -1.928381e+06
   2.549170e+06   4.188495e+05
   2.733141e+05   2.124366e+06
  -1.056680e+06   1.854216e+06
  -5.488640e+05  -2.390012e+04
   1.067008e+06  -1.229993e+06
   1.868257e+06  -3.204326e+05
   8.822470e+05   1.207689e+06
  -5.098283e+05   1.045736e+06
  -3.392566e+05  -4.019880e+05
   1.140966e+06  -5.383396e+05
   1.733654e+06   1.514277e+06
   3.016049e+05   3.512068e+06
  -1.907648e+06   3.119034e+06
  -3.146104e+06   7.067096e+05
  -3.001176e+06  -1.663001e+06
  -1.918532e+06  -2.710250e+06
  -2.822789e+05  -2.445441e+06
   1.219258e+06  -1.342495e+06
   1.500953e+06  -1.766037e+05
   4.702610e+05   6.358582e+04
  -3.103417e+05  -7.390009e+05
   4.759889e+05  -1.296136e+06
   1.903319e+06  -4.803436e+05
   1.939379e+06   9.810507e+05
   2.875279e+05   1.411988e+06
  -1.162889e+06   4.848898e+05
  -7.969336e+05  -4.813939e+05
   8.660317e+05  -4.008281e+05
   2.026728e+06   4.791231e+05
   1.518038e+06   1.379226e+06
  -3.734358e+05   1.814875e+06
  -2.275117e+06   1.436251e+06
  -2.662073e+06   1.287246e+05
  -1.120462e+06  -1.289555e+06
   9.629557e+05  -1.442034e+06
   1.550966e+06  -1.267721e+05
   1.722352e+05   1.070852e+06
  -1.498041e+06   6.534418e+05
  -1.614063e+06  -8.467865e+05
  -2.113851e+05  -1.607869e+06
   1.127051e+06  -8.487591e+05
   1.182203e+06   4.071557e+05
   1.629870e+05   7.799106e+05
  -7.942791e+05   1.033206e+04
  -6.756157e+05  -1.051677e+06
   6.017407e+05  -1.354039e+06
   1.949252e+06  -4.545502e+05
   1.922440e+06   1.086359e+06
   2.827409e+05   2.018677e+06
  -1.471108e+06   1.519568e+06
  -1.675979e+06   1.108093e+05
  -4.270173e+05  -8.667705e+05
   6.781681e+05  -7.320186e+05
   5.868397e+05  -4.849088e+04
  -1.513337e+05   2.964607e+05
  -4.451194e+05   1.321218e+05
  -4.126645e+04  -5.623652e+04
   4.653359e+05   1.566736e+05
   4.460793e+05   7.197499e+05
  -2.869760e+05   1.140438e+06
  -1.380389e+06   7.903203e+05
  -1.982638e+06  -4.938455e+05
  -1.327913e+06  -1.931958e+06
   3.089891e+05  -2.304759e+06
   1.603384e+06  -1.252352e+06
   1.580435e+06   2.197447e+05
   7.316454e+05   8.641166e+05
   2.598361e+05   5.596314e+05
   4.894750e+05   1.815656e+05
   6.378424e+05   3.452869e+05
   6.201835e+04   7.696618e+05
  -8.953601e+05   8.174919e+05
  -1.392863e+06   2.219370e+05
  -9.379183e+05  -7.283570e+05
   3.270095e+05  -1.346377e+06
   1.692148e+06  -9.239161e+05
   2.117371e+06   5.680246e+05
   9.724625e+05   2.070648e+06
  -1.108258e+06   2.228866e+06
  -2.511886e+06   8.525298e+05
  -2.206303e+06  -7.752349e+05
  -7.998740e+05  -1.326401e+06
   2.701778e+05  -8.471285e+05
   3.588976e+05  -4.258194e+05
   4.104078e+04  -7.248837e+05
   1.212157e+05  -1.289535e+06
   7.077393e+05  -1.238365e+06
   1.274712e+06  -2.621401e+05
   1.248304e+06   1.086572e+06
   4.617411e+05   1.836678e+06
  -6.489922e+05   1.352449e+06
  -1.228037e+06  -6.394885e+04
  -7.134903e+05  -1.284031e+06
   4.647702e+05  -1.325434e+06
   1.168797e+06  -3.018467e+05
   7.528834e+05   7.613103e+05
  -2.038294e+05   1.058916e+06
  -5.985883e+05   7.201342e+05
  -1.198616e+05   3.741462e+05
   4.117652e+05   3.279573e+05
   4.841319e+04   3.651607e+05
  -1.128261e+06   1.471585e+05
  -1.990217e+06  -4.143997e+05
  -1.508439e+06  -1.078706e+06
   1.279066e+05  -1.398946e+06
   1.609241e+06  -1.039511e+06
   1.781449e+06  -1.668527e+05
   7.665265e+05   5.520127e+05
  -2.912291e+05   5.554631e+05
  -5.037342e+05  -6.793991e+03
  -2.606527e+04  -4.318759e+05
   4.203355e+05  -2.387270e+05
   4.539961e+05   3.457829e+05
   2.492272e+05   6.936432e+05
   1.056956e+05   4.612058e+05
   1.312762e+05  -6.172380e+04
   2.525375e+05  -2.399805e+05
   2.480659e+05   2.375727e+05
  -1.568864e+05   9.284381e+05
  -9.055958e+05   9.936791e+05
  -1.354268e+06   1.383201e+05
  -8.235513e+05  -9.087205e+05
   4.420208e+05  -1.110030e+06
   1.243614e+06  -3.101601e+05
   6.877023e+05   5.655552e+05
  -7.078427e+05   5.864388e+05
  -1.501599e+06  -1.755037e+05
  -8.796523e+05  -8.764598e+05
   5.395479e+05  -8.966167e+05
   1.443840e+06  -3.455462e+05
   1.138532e+06   2.598189e+05
   8.830882e+04   4.884063e+05
  -6.372623e+05   2.134547e+05
  -3.692928e+05  -3.092768e+05
   5.619713e+05  -4.988461e+05
   1.136029e+06   9.022164e+04
   6.392167e+05   1.141385e+06
  -5.809718e+05   1.629018e+06
  -1.432314e+06   8.269445e+05
  -1.180063e+06  -7.529426e+05
  -1.380906e+05  -1.713058e+06
   7.531139e+05  -1.189970e+06
   8.702801e+05   2.290438e+05
   3.406543e+05   1.158953e+06
  -2.816254e+05   8.968674e+05
  -5.514824e+05   4.374482e+04
  -4.049431e+05  -3.706360e+05
  -1.211113e+05  -1.264799e+05
  -6.146313e+04   7.945335e+04
  -3.009584e+05  -3.152352e+05
  -4.699751e+05  -9.522235e+05
  -1.067019e+05  -1.030032e+06
   7.408681e+05  -3.439562e+05
   1.388196e+06   4.948880e+05
   1.158724e+06   8.439082e+05
   1.478732e+05   6.824026e+05
  -7.982614e+05   3.773080e+05
  -9.350988e+05   1.286997e+05
  -3.705649e+05  -8.384320e+04
   1.338317e+05  -2.152625e+05
   7.974331e+04  -1.738191e+05
  -2.089875e+05  -7.414264e+04
  -6.131190e+04  -1.271347e+05
   5.954616e+05  -2.248879e+05
   1.009231e+06   2.810302e+04
   4.592282e+05   6.859908e+05
  -7.993167e+05   1.134248e+06
  -1.682440e+06   7.099787e+05
  -1.398103e+06  -4.290207e+05
  -2.440946e+05  -1.349271e+06
   7.855542e+05  -1.313615e+06
   1.023573e+06  -5.192530e+05
   6.172905e+05   2.145818e+05
   1.385728e+05   3.490087e+05
  -3.112411e+04   9.036879e+04
   9.177208e+04   1.749211e+04
   2.567097e+05   3.738609e+05
   1.974357e+05   7.817204e+05
  -1.803072e+05   6.576639e+05
  -6.431018e+05  -1.010684e+05
  -7.155293e+05  -9.012129e+05
  -1.380154e+05  -1.000071e+06
   7.023762e+05  -2.664723e+05
   9.940029e+05   6.739384e+05
   3.403196e+05   1.057607e+06
  -6.936796e+05   6.691238e+05
  -1.095714e+06  -8.421950e+04
  -5.216843e+05  -6.325117e+05
   2.956597e+05  -6.865764e+05
   4.108333e+05  -3.531310e+05
  -1.961725e+05   3.647577e+03
  -6.137425e+05   3.057795e+04
  -1.482121e+05  -3.077992e+05
   8.078167e+05  -6.271860e+05
   1.256400e+06  -4.566489e+05
   7.689095e+05   2.225906e+05
  -1.086390e+05   8.497464e+05
  -5.871510e+05   8.259147e+05
  -4.561103e+05   1.755014e+05
  -6.488638e+04  -4.444672e+05
   2.316168e+05  -4.368279e+05
   3.341545e+05   1.100118e+05
   2.384064e+05   5.584500e+05
  -5.017993e+04   4.452553e+05
  -3.770058e+05  -3.365317e+04
  -4.637505e+05  -3.070055e+05
  -2.304163e+05  -1.220415e+05
   4.856409e+04   1.763352e+05
   7.683348e+04   1.069359e+05
  -6.011073e+04  -3.164906e+05
  -1.748976e+04  -5.737444e+05
   2.882969e+05  -2.769827e+05
   4.875315e+05   3.276609e+05
   2.093922e+05   6.215125e+05
  -3.783887e+05   3.152927e+05
  -6.610852e+05  -2.548360e+05
  -2.548219e+05  -5.401122e+05
   5.065991e+05  -3.475116e+05
   8.714298e+05   7.106018e+04
   4.657018e+05   3.708874e+05
  -2.904987e+05   4.099044e+05
  -6.304863e+05   2.449751e+05
  -2.732753e+05   1.860779e+04
   2.900911e+05  -9.437320e+04
   3.745540e+05   2.166185e+04
  -1.285779e+05   2.508429e+05
  -6.581774e+05   2.521330e+05
