
 $NMID
 id='ANONYMOUS ', fmtdat='(2E16.6)'
 volume=1.0
 tramp=1.0
 $END
   4.699262e+07   7.189441e+04
   2.847208e+07   2.874037e+07
  -5.861885e+06   3.172079e+07
  -2.293261e+07   1.267743e+07
  -1.401363e+07  -5.410624e+06
   2.538911e+06  -7.855729e+06
   8.328625e+06   7.117697e+05
   2.619295e+06   8.157877e+06
  -5.040832e+06   8.136120e+06
  -8.137592e+06   1.909588e+06
  -5.935805e+06  -5.255344e+06
  -6.684824e+05  -7.352105e+06
   3.409949e+06  -2.261840e+06
   2.253224e+06   4.785411e+06
  -3.159560e+06   5.727718e+06
  -6.669871e+06  -1.007703e+06
  -3.828153e+06  -8.586305e+06
   3.118135e+06  -9.969718e+06
   8.479305e+06  -4.957150e+06
   9.019732e+06   1.785910e+06
   5.415811e+06   6.263036e+06
   5.096025e+05   7.081899e+06
  -2.278229e+06   4.928291e+06
  -1.247932e+06   2.369834e+06
   1.093209e+06   2.139138e+06
   8.207250e+04   3.760648e+06
  -4.837405e+06   3.679740e+06
  -8.343912e+06   2.315845e+05
  -5.928019e+06  -3.622565e+06
  -1.971291e+04  -4.264104e+06
   3.339904e+06  -2.020519e+06
   2.075828e+06   2.148887e+05
  -7.968097e+05   9.400870e+05
  -2.239042e+06   3.236853e+05
  -1.901563e+06  -1.478076e+06
  -4.019380e+05  -3.496945e+06
   1.617307e+06  -3.189513e+06
   2.583642e+06   2.270716e+05
   1.264612e+06   3.038077e+06
  -6.421347e+05   1.418736e+06
  -1.498758e+05  -2.271174e+06
   2.166695e+06  -2.035542e+06
   2.125041e+06   2.662416e+06
  -1.892775e+06   5.171652e+06
  -5.662901e+06   9.252803e+05
  -4.259358e+06  -5.717907e+06
   1.522451e+06  -7.110141e+06
   6.226143e+06  -2.029357e+06
   5.979167e+06   3.780545e+06
   1.677708e+06   5.196320e+06
  -2.978647e+06   2.412594e+06
  -4.616033e+06  -1.240106e+06
  -2.201468e+06  -2.977655e+06
   1.988774e+06  -1.916595e+06
   3.852445e+06   7.268449e+05
   1.702447e+06   2.274076e+06
  -1.437161e+06   1.168378e+06
  -1.541632e+06  -8.736279e+05
   1.030330e+06  -8.773655e+05
   2.138680e+06   1.306039e+06
  -3.197999e+05   2.802540e+06
  -3.730059e+06   1.669576e+06
  -4.466392e+06  -1.007165e+06
  -2.016216e+06  -3.299572e+06
   1.584101e+06  -4.479968e+06
   4.407912e+06  -4.101987e+06
   5.344942e+06  -1.402573e+06
   3.839020e+06   2.776141e+06
   7.371895e+05   5.315604e+06
  -1.560047e+06   4.150293e+06
  -1.473829e+06   1.189021e+06
  -2.421789e+05  -7.401567e+04
  -1.923664e+05   8.728224e+05
  -1.568968e+06   1.434194e+06
  -2.491974e+06   2.154432e+04
  -1.697519e+06  -1.849672e+06
   1.085893e+05  -1.948927e+06
   1.479650e+06  -1.290668e+05
   1.499214e+06   1.934291e+06
  -5.920866e+04   2.618114e+06
  -2.461125e+06   1.373038e+06
  -3.836271e+06  -1.131968e+06
  -2.690752e+06  -3.259460e+06
   7.212247e+04  -3.566068e+06
   1.915802e+06  -2.272617e+06
   1.860376e+06  -9.879787e+05
   1.573157e+06  -6.439011e+05
   2.598379e+06  -4.539740e+05
   3.848134e+06   6.687151e+05
   3.082980e+06   2.463040e+06
   9.281278e+04   3.676810e+06
  -2.903768e+06   3.445711e+06
  -3.762025e+06   1.811108e+06
  -2.342500e+06  -4.565776e+05
  -1.576945e+05  -2.006128e+06
   1.044278e+06  -1.679268e+06
   4.926699e+05   5.814112e+04
  -1.000169e+06   1.146276e+06
  -1.689461e+06   3.340239e+05
  -7.841059e+05  -1.068732e+06
   4.932249e+05  -9.898691e+05
   4.187710e+05   3.511830e+05
  -9.083849e+05   6.832658e+05
  -1.667668e+06  -1.027595e+06
  -6.811044e+05  -3.042168e+06
   1.298191e+06  -3.115947e+06
   2.779389e+06  -1.128965e+06
   3.029481e+06   1.237569e+06
   2.099903e+06   2.520486e+06
   4.027468e+05   2.389474e+06
  -1.142595e+06   1.302359e+06
  -1.425141e+06   1.743788e+05
  -4.413767e+05  -4.597508e+04
   3.158649e+05   6.765683e+05
  -3.670115e+05   1.186329e+06
  -1.687969e+06   5.041151e+05
  -1.806781e+06  -7.880361e+05
  -3.482578e+05  -1.257444e+06
   1.051600e+06  -5.103775e+05
   8.139235e+05   4.182721e+05
  -7.585529e+05   4.945262e+05
  -1.988924e+06  -2.726961e+05
  -1.602508e+06  -1.242625e+06
   2.230093e+05  -1.804704e+06
   2.097697e+06  -1.487873e+06
   2.499097e+06  -2.259109e+05
   1.079973e+06   1.135249e+06
  -8.267324e+05   1.322072e+06
  -1.378798e+06   1.550486e+05
  -1.606971e+05  -9.576331e+05
   1.363358e+06  -6.436864e+05
   1.539521e+06   7.086858e+05
   3.064565e+05   1.488965e+06
  -9.785686e+05   8.891975e+05
  -1.137016e+06  -2.706242e+05
  -2.317906e+05  -7.006787e+05
   7.058860e+05  -4.765890e+04
   6.477387e+05   9.492816e+05
  -5.350448e+05   1.269775e+06
  -1.809397e+06   4.615442e+05
  -1.814724e+06  -9.654747e+05
  -3.253762e+05  -1.864750e+06
   1.302802e+06  -1.463438e+06
   1.551942e+06  -1.796871e+05
   4.510167e+05   7.835222e+05
  -5.970725e+05   7.213488e+05
  -5.804800e+05   5.913332e+04
   1.053513e+05  -3.438045e+05
   4.631585e+05  -1.989663e+05
   1.391445e+05   7.182455e+04
  -3.918408e+05  -4.347946e+04
  -4.724115e+05  -5.894065e+05
   1.812326e+05  -1.064204e+06
   1.246223e+06  -7.966488e+05
   1.867410e+06   3.892619e+05
   1.297358e+06   1.759445e+06
  -2.193504e+05   2.178154e+06
  -1.471154e+06   1.267165e+06
  -1.533851e+06  -1.223853e+05
  -7.801723e+05  -8.317194e+05
  -2.784900e+05  -6.222774e+05
  -4.058598e+05  -2.178490e+05
  -5.422070e+05  -2.758850e+05
  -7.436478e+04  -6.740656e+05
   7.907657e+05  -8.062246e+05
   1.311178e+06  -2.875070e+05
   9.501188e+05   6.663013e+05
  -2.333332e+05   1.328194e+06
  -1.562964e+06   9.588078e+05
  -2.023836e+06  -4.547394e+05
  -1.009083e+06  -1.898278e+06
   9.159451e+05  -2.119443e+06
   2.287326e+06  -9.156039e+05
   2.118356e+06   6.015818e+05
   8.688266e+05   1.217441e+06
  -1.867903e+05   8.701071e+05
  -3.724377e+05   4.695477e+05
  -1.017911e+05   6.687085e+05
  -1.141784e+05   1.156086e+06
  -6.083204e+05   1.141549e+06
  -1.157572e+06   2.722118e+05
  -1.188572e+06  -9.847579e+05
  -4.805129e+05  -1.709368e+06
   5.750194e+05  -1.285998e+06
   1.158320e+06   1.169056e+04
   7.238421e+05   1.155842e+06
  -3.529273e+05   1.253003e+06
  -1.039229e+06   3.700346e+05
  -7.257868e+05  -6.135843e+05
   1.040056e+05  -9.575896e+05
   4.724300e+05  -7.048143e+05
   7.493776e+04  -3.822371e+05
  -3.823191e+05  -3.089616e+05
  -4.785225e+04  -3.462772e+05
   1.029222e+06  -1.818429e+05
   1.844316e+06   3.123922e+05
   1.445798e+06   9.413768e+05
  -3.497237e+04   1.284530e+06
  -1.426442e+06   1.010352e+06
  -1.647103e+06   2.411786e+05
  -7.524038e+05  -4.393561e+05
   2.328659e+05  -5.041875e+05
   4.581707e+05  -3.210741e+04
   2.185063e+04   3.698084e+05
  -4.040867e+05   2.250723e+05
  -4.285582e+05  -3.115310e+05
  -2.119299e+05  -6.523624e+05
  -7.368256e+04  -4.299438e+05
  -1.271778e+05   8.982229e+04
  -2.628652e+05   2.660292e+05
  -2.476370e+05  -2.109405e+05
   1.407790e+05  -8.876430e+05
   8.170864e+05  -9.497860e+05
   1.215267e+06  -1.438798e+05
   7.494675e+05   8.269355e+05
  -3.804214e+05   1.014213e+06
  -1.126550e+06   2.877742e+05
  -6.534878e+05  -5.234444e+05
   6.361108e+05  -5.793440e+05
   1.432822e+06   9.796130e+04
   9.068601e+05   7.877330e+05
  -4.404594e+05   8.936646e+05
  -1.358658e+06   4.252255e+05
  -1.115542e+06  -1.810973e+05
  -1.184944e+05  -4.668309e+05
   5.878282e+05  -2.394429e+05
   3.426870e+05   2.656640e+05
  -5.317760e+05   4.625500e+05
  -1.062783e+06  -8.420904e+04
  -5.922014e+05  -1.067775e+06
   5.453235e+05  -1.526231e+06
   1.342786e+06  -7.850059e+05
   1.125731e+06   6.920548e+05
   1.690391e+05   1.616594e+06
  -6.785295e+05   1.162239e+06
  -8.346859e+05  -1.658593e+05
  -3.804265e+05  -1.079513e+06
   2.063263e+05  -8.743470e+05
   5.082560e+05  -7.214300e+04
   4.169850e+05   3.455241e+05
   1.456742e+05   1.268180e+05
   4.520819e+04  -8.612749e+04
   2.517958e+05   2.662398e+05
   4.532003e+05   8.742848e+05
   1.628698e+05   9.756974e+05
  -6.487105e+05   3.528758e+05
  -1.326337e+06  -4.301713e+05
  -1.146914e+06  -7.655801e+05
  -1.620645e+05  -6.317973e+05
   7.702587e+05  -3.711245e+05
   8.886235e+05  -1.563354e+05
   3.278004e+05   5.027309e+04
  -1.315452e+05   2.022638e+05
  -3.755528e+04   1.849752e+05
   2.336358e+05   8.658194e+04
   4.645682e+04   1.194155e+05
  -5.927807e+05   2.093106e+05
  -9.443000e+05  -1.350060e+04
  -3.947291e+05  -6.245799e+05
   7.584403e+05  -1.060388e+06
   1.538901e+06  -6.806550e+05
   1.277454e+06   3.892264e+05
   2.449489e+05   1.268088e+06
  -6.983112e+05   1.240862e+06
  -9.479508e+05   4.862556e+05
  -5.887681e+05  -2.085266e+05
  -1.224137e+05  -3.232403e+05
   5.696241e+04  -6.216746e+04
  -7.667983e+04   1.082721e+04
  -2.671505e+05  -3.358810e+05
  -2.174097e+05  -7.310579e+05
   1.618750e+05  -6.137316e+05
   6.118154e+05   1.057727e+05
   6.686440e+05   8.537404e+05
   1.120255e+05   9.301117e+05
  -6.731148e+05   2.298609e+05
  -9.343148e+05  -6.431420e+05
  -3.189686e+05  -9.830755e+05
   6.416928e+05  -6.169418e+05
   1.013316e+06   6.532162e+04
   4.851505e+05   5.585602e+05
  -2.590065e+05   6.199748e+05
  -3.499480e+05   3.348093e+05
   2.143127e+05   6.738778e+03
   5.837634e+05  -3.571280e+04
   1.352104e+05   2.793040e+05
  -7.462006e+05   6.102529e+05
  -1.145853e+06   4.803455e+05
  -6.975884e+05  -1.665604e+05
   8.655688e+04  -7.878425e+05
   5.065001e+05  -7.770064e+05
   3.922410e+05  -1.537829e+05
   5.248530e+04   4.278750e+05
  -2.135035e+05   3.976308e+05
  -3.158695e+05  -1.245443e+05
  -2.305190e+05  -5.205744e+05
   4.406383e+04  -3.931397e+05
   3.526779e+05   3.638967e+04
   4.332168e+05   2.589707e+05
   2.197715e+05   9.254009e+04
  -3.649415e+04  -1.417080e+05
  -7.702000e+04  -5.341497e+04
   2.240230e+04   3.113868e+05
  -2.556767e+04   5.037611e+05
  -2.795201e+05   2.131634e+05
  -4.244247e+05  -3.292094e+05
  -1.582681e+05  -5.806004e+05
   3.627191e+05  -2.882940e+05
   6.054568e+05   2.442634e+05
   2.341737e+05   5.127898e+05
  -4.604013e+05   3.323344e+05
  -8.019828e+05  -6.189693e+04
  -4.358011e+05  -3.396684e+05
   2.636288e+05  -3.691152e+05
   5.779915e+05  -2.162746e+05
   2.337143e+05  -1.960374e+04
  -3.001694e+05   6.890412e+04
  -3.620974e+05  -4.602966e+04
   1.429765e+05  -2.550710e+05
   6.552344e+05  -2.447344e+05
