
 $NMID
 id='ANONYMOUS ', fmtdat='(2E16.6)'
 volume=1.0
 tramp=1.0
 $END
  -1.733656e+07   4.101555e+05
  -1.100579e+07  -9.016626e+06
   9.101782e+05  -1.115005e+07
   7.561057e+06  -6.056117e+06
   5.450252e+06   3.932418e+05
  -1.864193e+05   2.875912e+06
  -3.087508e+06   7.746275e+05
  -1.855788e+06  -2.674935e+06
   1.053687e+06  -3.815177e+06
   2.941701e+06  -1.526188e+06
   2.593682e+06   1.967652e+06
   4.825663e+05   3.165058e+06
  -1.465060e+06   8.802913e+05
  -1.292741e+06  -2.317193e+06
   8.610041e+05  -2.855056e+06
   2.616560e+06  -1.010995e+05
   1.906882e+06   3.167334e+06
  -7.912178e+05   3.995100e+06
  -3.151934e+06   2.052158e+06
  -3.417818e+06  -7.428833e+05
  -1.792458e+06  -2.398240e+06
   5.537391e+04  -2.318141e+06
   5.163228e+05  -1.353408e+06
  -4.788194e+05  -8.830396e+05
  -1.226565e+06  -1.480942e+06
  -1.976258e+04  -2.242904e+06
   2.589180e+06  -1.782217e+06
   3.996550e+06   9.630390e+03
   2.533363e+06   1.684229e+06
  -4.069660e+05   1.872795e+06
  -1.958528e+06   6.945026e+05
  -1.029106e+06  -6.392519e+05
   8.784141e+05  -1.058234e+06
   1.779897e+06  -2.629360e+05
   1.180831e+06   1.186132e+06
  -5.630802e+04   2.022843e+06
  -8.841847e+05   1.236670e+06
  -8.027178e+05  -5.389071e+05
  -7.904861e+04  -1.285717e+06
   4.003540e+05  -4.150044e+04
  -4.776579e+04   1.541032e+06
  -9.523942e+05   1.177457e+06
  -1.019782e+06  -8.648638e+05
   2.433493e+05  -1.929259e+06
   1.650375e+06  -4.696757e+05
   1.544846e+06   1.911697e+06
  -2.950062e+05   2.550653e+06
  -2.331193e+06   8.825972e+05
  -2.769131e+06  -1.307524e+06
  -1.193808e+06  -2.161244e+06
   1.109052e+06  -1.378914e+06
   2.247382e+06   8.236402e+04
   1.358596e+06   1.052898e+06
  -5.548612e+05   9.081151e+05
  -1.567930e+06  -3.587332e+04
  -8.442527e+05  -7.487661e+05
   4.998648e+05  -5.128680e+05
   8.170617e+05   2.531432e+05
  -7.515282e+04   5.365594e+05
  -8.205348e+05   7.469326e+03
  -3.267085e+05  -6.699313e+05
   9.465155e+05  -7.301848e+05
   1.637279e+06  -3.234674e+04
   9.671576e+05   1.061909e+06
  -6.413999e+05   1.961706e+06
  -2.082943e+06   1.938161e+06
  -2.443722e+06   6.143929e+05
  -1.620016e+06  -1.315066e+06
  -3.665265e+05  -2.405091e+06
   3.715997e+05  -1.965399e+06
   3.586642e+05  -8.735884e+05
   2.101191e+05  -4.200084e+05
   5.444307e+05  -6.764933e+05
   1.194406e+06  -6.196237e+05
   1.442938e+06   2.751212e+05
   8.767629e+05   1.247418e+06
  -1.944456e+05   1.228005e+06
  -1.031244e+06   1.314250e+05
  -9.983858e+05  -1.089635e+06
  -1.007601e+04  -1.424331e+06
   1.266485e+06  -6.451363e+05
   1.796022e+06   6.213333e+05
   1.127184e+06   1.462019e+06
  -6.434908e+04   1.426918e+06
  -7.105166e+05   8.625930e+05
  -6.151207e+05   4.625551e+05
  -5.890659e+05   4.711981e+05
  -1.221643e+06   4.624906e+05
  -1.949699e+06  -6.688281e+04
  -1.700163e+06  -1.054840e+06
  -2.575973e+05  -1.890939e+06
   1.373054e+06  -1.941034e+06
   1.969209e+06  -1.045089e+06
   1.247192e+06   2.885940e+05
   2.275849e+04   1.133383e+06
  -6.123623e+05   8.830988e+05
  -2.573677e+05  -6.957701e+04
   5.214224e+05  -6.316472e+05
   8.281620e+05  -2.257126e+05
   3.742293e+05   5.107543e+05
  -2.618470e+05   5.603193e+05
  -3.331203e+05  -1.176905e+05
   2.384017e+05  -5.206303e+05
   8.228911e+05   8.442814e+04
   7.638761e+05   1.213640e+06
  -4.251647e+04   1.734447e+06
  -1.124417e+06   1.103476e+06
  -1.773957e+06  -1.840285e+05
  -1.499694e+06  -1.188061e+06
  -4.482127e+05  -1.336522e+06
   5.753163e+05  -7.723517e+05
   7.825490e+05  -1.373591e+05
   2.346295e+05   1.660840e+03
  -2.047975e+05  -3.331331e+05
   1.008455e+05  -5.884199e+05
   7.792850e+05  -3.274226e+05
   9.311693e+05   2.540580e+05
   2.724930e+05   5.734599e+05
  -4.973297e+05   3.425890e+05
  -5.088697e+05  -1.504908e+05
   2.985193e+05  -3.912690e+05
   1.110868e+06  -1.149789e+05
   1.065067e+06   5.197718e+05
   8.965002e+04   1.044093e+06
  -1.014648e+06   9.839157e+05
  -1.310814e+06   2.845946e+05
  -6.097260e+05  -5.027224e+05
   3.508547e+05  -6.701232e+05
   6.479355e+05  -1.210817e+05
   8.719421e+04   4.653704e+05
  -6.690603e+05   3.926120e+05
  -8.427743e+05  -2.521241e+05
  -3.039003e+05  -7.393851e+05
   3.937815e+05  -5.714443e+05
   6.102358e+05  -5.456729e+03
   2.127133e+05   3.131893e+05
  -3.254289e+05   6.693003e+04
  -3.713238e+05  -4.554229e+05
   2.323302e+05  -6.866426e+05
   9.361016e+05  -3.165244e+05
   9.931937e+05   4.246543e+05
   2.665618e+05   9.491790e+05
  -5.792967e+05   8.294324e+05
  -7.864436e+05   2.009905e+05
  -3.023741e+05  -3.654278e+05
   2.547673e+05  -4.251768e+05
   3.408869e+05  -6.865380e+04
   1.372676e+04   2.462699e+05
  -2.683969e+05   2.151286e+05
  -1.925936e+05  -1.951987e+04
   1.259449e+05  -7.972479e+04
   2.935978e+05   1.965513e+05
   1.604524e+04   5.403784e+05
  -5.851812e+05   4.970864e+05
  -9.984839e+05  -9.112505e+04
  -7.724427e+05  -8.500338e+05
  -5.703985e+03  -1.173675e+06
   7.017268e+05  -8.013025e+05
   8.563665e+05  -7.256598e+04
   5.465099e+05   4.230762e+05
   2.352982e+05   4.231775e+05
   1.833680e+05   1.803697e+05
   2.204280e+05   1.068715e+05
   5.352074e+04   3.048113e+05
  -3.438172e+05   4.755564e+05
  -6.785446e+05   2.686709e+05
  -5.961345e+05  -2.969644e+05
  -3.270460e+03  -7.658024e+05
   7.658500e+05  -6.396461e+05
   1.115148e+06   1.080033e+05
   6.713425e+05   9.237957e+05
  -3.098984e+05   1.149951e+06
  -1.102377e+06   6.396953e+05
  -1.164023e+06  -1.308219e+05
  -6.115737e+05  -5.694487e+05
  -1.532983e+04  -5.313213e+05
   2.052683e+05  -3.498062e+05
   1.144391e+05  -3.743893e+05
   5.933911e+04  -5.696013e+05
   2.541092e+05  -5.870800e+05
   5.698337e+05  -1.842068e+05
   6.682886e+05   4.656813e+05
   3.393248e+05   8.831182e+05
  -2.432014e+05   7.130369e+05
  -6.160100e+05   7.070466e+04
  -4.552287e+05  -5.385386e+05
   7.322557e+04  -6.646698e+05
   4.614496e+05  -2.934514e+05
   3.890162e+05   2.018086e+05
   4.371298e+04   4.495213e+05
  -1.348155e+05   3.897185e+05
   1.864464e+04   2.283498e+05
   2.087348e+05   1.622401e+05
   3.661490e+04   1.891620e+05
  -5.052348e+05   1.551352e+05
  -9.508224e+05  -5.841568e+04
  -8.077387e+05  -3.933171e+05
  -8.808980e+04  -6.345111e+05
   6.488842e+05  -5.821045e+05
   8.293044e+05  -2.451562e+05
   4.230794e+05   1.261238e+05
  -7.853561e+04   2.442313e+05
  -2.175341e+05   6.268680e+04
  -3.377393e+03  -1.619487e+05
   2.241047e+05  -1.339461e+05
   2.357358e+05   1.452323e+05
   1.040434e+05   3.580095e+05
   1.959403e+04   2.371839e+05
   5.968735e+04  -8.692354e+04
   1.500569e+05  -2.026864e+05
   1.498579e+05   9.046981e+04
  -4.555181e+04   4.979983e+05
  -3.813893e+05   5.368355e+05
  -5.892377e+05   9.717974e+04
  -3.871056e+05  -4.129371e+05
   1.585089e+05  -5.139741e+05
   5.610047e+05  -1.595899e+05
   3.697678e+05   2.595071e+05
  -2.918574e+05   3.469209e+05
  -7.783557e+05   5.561147e+04
  -5.812498e+05  -3.414003e+05
   1.307244e+05  -5.246148e+05
   6.941700e+05  -3.669986e+05
   6.352744e+05  -8.668247e+03
   1.147935e+05   2.465696e+05
  -2.882737e+05   1.797043e+05
  -1.776852e+05  -1.118633e+05
   2.853289e+05  -2.562749e+05
   5.728526e+05   2.538275e+04
   3.317552e+05   5.651266e+05
  -2.661884e+05   8.334871e+05
  -7.062553e+05   4.599424e+05
  -6.368803e+05  -3.300742e+05
  -1.688138e+05  -8.665618e+05
   2.974159e+05  -6.809187e+05
   4.565079e+05   1.382487e+04
   2.897158e+05   5.458676e+05
  -2.000055e+04   4.916041e+05
  -2.523090e+05   7.939502e+04
  -2.715414e+05  -1.629508e+05
  -1.189031e+05  -6.308746e+04
  -5.195400e+03   5.549394e+04
  -9.769803e+04  -1.180574e+05
  -2.684402e+05  -4.388257e+05
  -1.782164e+05  -5.119575e+05
   2.828815e+05  -2.194088e+05
   7.390024e+05   1.613011e+05
   6.901648e+05   3.418083e+05
   1.221233e+05   3.208269e+05
  -4.260603e+05   2.417228e+05
  -4.767883e+05   1.443546e+05
  -1.464817e+05   2.817695e+03
   7.361789e+04  -1.143444e+05
  -3.140263e+04  -1.109976e+05
  -1.747837e+05  -4.712936e+04
  -1.563654e+04  -6.774241e+04
   3.538404e+05  -1.351446e+05
   5.033926e+05  -2.412445e+04
   1.796587e+05   3.223193e+05
  -3.999755e+05   5.869512e+05
  -7.706378e+05   3.994203e+05
  -6.562612e+05  -1.834557e+05
  -1.750998e+05  -6.773519e+05
   3.083805e+05  -6.796051e+05
   4.898571e+05  -2.759675e+05
   3.353796e+05   1.055304e+05
   6.283861e+04   1.705305e+05
  -6.769938e+04   2.022867e+04
   2.127152e+04  -3.345204e+04
   1.741273e+05   1.508288e+05
   1.657955e+05   3.769489e+05
  -6.887139e+04   3.288543e+05
  -3.459606e+05  -5.407001e+04
  -3.781674e+05  -4.584287e+05
  -5.678862e+04  -4.980941e+05
   3.819565e+05  -1.205821e+05
   5.233128e+05   3.406537e+05
   1.878850e+05   5.153868e+05
  -3.288647e+05   3.309715e+05
  -5.282254e+05  -6.004696e+03
  -2.560487e+05  -2.562721e+05
   1.166393e+05  -3.074775e+05
   1.429956e+05  -1.789710e+05
  -1.523005e+05   3.112995e+02
  -3.209062e+05   4.112566e+04
  -7.096077e+04  -1.394416e+05
   3.710498e+05  -3.638117e+05
   5.558968e+05  -3.263307e+05
   3.394251e+05   3.926490e+04
  -1.823734e+04   4.118993e+05
  -2.099166e+05   4.162768e+05
  -1.742822e+05   6.621490e+04
  -3.148382e+04  -2.450180e+05
   1.079101e+05  -2.045064e+05
   1.833302e+05   8.341805e+04
   1.409289e+05   2.708157e+05
  -2.171448e+04   1.856614e+05
  -1.919684e+05  -1.840976e+04
  -2.267862e+05  -1.008063e+05
  -1.166125e+05  -2.070684e+04
   4.193023e+03   5.346424e+04
   3.122945e+04  -2.515757e+04
   1.346248e+04  -1.957024e+05
   6.183107e+04  -2.504555e+05
   1.734511e+05  -7.332546e+04
   2.079128e+05   2.051088e+05
   5.460498e+04   3.217085e+05
  -2.014869e+05   1.575084e+05
  -3.178775e+05  -1.311364e+05
  -1.334295e+05  -2.809244e+05
   2.240199e+05  -1.900889e+05
   4.161358e+05   1.827145e+04
   2.380000e+05   1.665658e+05
  -1.312335e+05   1.847379e+05
  -2.984665e+05   1.085953e+05
  -1.006291e+05   9.309201e+03
   1.983078e+05  -3.184575e+04
   2.174179e+05   4.188375e+04
  -8.948243e+04   1.700337e+05
  -3.873748e+05   1.673709e+05
