
 $NMID
 id='ANONYMOUS ', fmtdat='(2E16.6)'
 volume=1.0
 tramp=1.0
 $END
  -3.401596e+07  -3.865708e+05
  -2.150148e+07  -1.824547e+07
   2.118973e+06  -2.203366e+07
   1.550976e+07  -1.189823e+07
   1.126547e+07   9.168794e+05
  -3.862424e+05   5.870232e+06
  -6.453935e+06   1.514082e+06
  -3.744630e+06  -5.598987e+06
   2.447529e+06  -7.836516e+06
   6.135640e+06  -2.968714e+06
   5.002223e+06   4.177464e+06
   6.073800e+05   6.398573e+06
  -2.979801e+06   1.555856e+06
  -2.253611e+06  -4.894075e+06
   2.091770e+06  -5.776535e+06
   5.320774e+06  -4.979540e+04
   3.595749e+06   6.506889e+06
  -1.882662e+06   7.946701e+06
  -6.400783e+06   3.816930e+06
  -6.614159e+06  -1.755473e+06
  -3.249518e+06  -4.761704e+06
   2.220986e+05  -4.371940e+06
   8.665794e+05  -2.627274e+06
  -1.066940e+06  -2.112061e+06
  -2.203854e+06  -3.435870e+06
   4.455611e+05  -4.557060e+06
   5.510526e+06  -3.080565e+06
   7.957328e+06   6.669228e+05
   4.769575e+06   3.666537e+06
  -1.120245e+06   3.532798e+06
  -4.000173e+06   9.374742e+05
  -1.809536e+06  -1.534485e+06
   2.176927e+06  -1.937491e+06
   3.751980e+06  -6.305946e+04
   2.091240e+06   2.719762e+06
  -5.671026e+05   4.034778e+06
  -1.902618e+06   2.263376e+06
  -1.333720e+06  -1.149935e+06
   8.004985e+04  -2.407169e+06
   6.420330e+05   1.125443e+05
  -4.872643e+05   3.117199e+06
  -2.137166e+06   2.263493e+06
  -2.023394e+06  -1.821973e+06
   5.244399e+05  -3.915062e+06
   3.205114e+06  -9.824286e+05
   2.936729e+06   3.788927e+06
  -6.824652e+05   5.032663e+06
  -4.669452e+06   1.563218e+06
  -5.457067e+06  -2.944259e+06
  -2.203718e+06  -4.568977e+06
   2.444540e+06  -2.712199e+06
   4.633961e+06   4.424352e+05
   2.714811e+06   2.344110e+06
  -1.175713e+06   1.843123e+06
  -3.171745e+06  -1.830682e+05
  -1.678482e+06  -1.578608e+06
   1.030549e+06  -9.934193e+05
   1.656249e+06   6.267339e+05
  -1.927571e+05   1.198585e+06
  -1.786275e+06   5.243170e+04
  -8.208889e+05  -1.410656e+06
   1.847779e+06  -1.535297e+06
   3.344651e+06  -3.356156e+04
   1.914740e+06   2.193257e+06
  -1.526283e+06   3.829617e+06
  -4.468706e+06   3.554285e+06
  -4.955632e+06   8.652203e+05
  -3.003163e+06  -2.825894e+06
  -3.970625e+05  -4.853940e+06
   9.840240e+05  -3.980989e+06
   8.862011e+05  -1.845610e+06
   6.370550e+05  -8.591399e+05
   1.349155e+06  -1.180285e+06
   2.542212e+06  -9.100890e+05
   2.801692e+06   8.979883e+05
   1.465161e+06   2.710455e+06
  -6.870238e+05   2.433560e+06
  -2.154480e+06   2.238286e+04
  -1.826132e+06  -2.441189e+06
   2.443093e+05  -2.889884e+06
   2.645890e+06  -1.065120e+06
   3.467593e+06   1.528291e+06
   2.027470e+06   3.043589e+06
  -2.800703e+05   2.792803e+06
  -1.462738e+06   1.636407e+06
  -1.258552e+06   9.047941e+05
  -1.273863e+06   9.223615e+05
  -2.583680e+06   7.772163e+05
  -3.980390e+06  -4.333666e+05
  -3.307544e+06  -2.424307e+06
  -2.138392e+05  -3.906173e+06
   3.135527e+06  -3.718737e+06
   4.184552e+06  -1.761951e+06
   2.450950e+06   8.199069e+05
  -1.903940e+05   2.284166e+06
  -1.403769e+06   1.653494e+06
  -4.949244e+05  -1.895870e+05
   1.171369e+06  -1.182070e+06
   1.711849e+06  -3.283730e+05
   6.691660e+05   1.078080e+06
  -6.368047e+05   1.087163e+06
  -6.814907e+05  -3.141413e+05
   5.794052e+05  -1.088574e+06
   1.748455e+06   2.395046e+05
   1.476176e+06   2.632288e+06
  -3.310406e+05   3.667062e+06
  -2.549107e+06   2.181331e+06
  -3.691335e+06  -6.730415e+05
  -2.901921e+06  -2.751591e+06
  -6.734551e+05  -2.849817e+06
   1.321151e+06  -1.472004e+06
   1.620412e+06  -1.329073e+05
   4.796691e+05   4.315835e+04
  -3.627952e+05  -7.144321e+05
   2.875491e+05  -1.184051e+06
   1.628443e+06  -5.540828e+05
   1.867107e+06   6.512671e+05
   4.813347e+05   1.212012e+06
  -1.072208e+06   6.232653e+05
  -1.024686e+06  -4.051349e+05
   6.929284e+05  -7.757798e+05
   2.334993e+06  -4.744610e+04
   2.117610e+06   1.280514e+06
  -4.750450e+03   2.187500e+06
  -2.264004e+06   1.849690e+06
  -2.736614e+06   3.598610e+05
  -1.168404e+06  -1.120506e+06
   8.094478e+05  -1.304159e+06
   1.325924e+06  -1.525336e+05
   1.013049e+05   9.471745e+05
  -1.425716e+06   6.886941e+05
  -1.687644e+06  -6.519110e+05
  -5.107204e+05  -1.574595e+06
   9.045729e+05  -1.126067e+06
   1.268864e+06   7.988184e+04
   3.993929e+05   6.820119e+05
  -6.694978e+05   9.068916e+04
  -6.773313e+05  -9.875605e+05
   5.940038e+05  -1.354770e+06
   1.961839e+06  -4.789009e+05
   1.950492e+06   1.036716e+06
   3.853657e+05   1.981785e+06
  -1.318799e+06   1.602089e+06
  -1.644896e+06   2.862682e+05
  -5.655403e+05  -7.995156e+05
   5.920630e+05  -8.315569e+05
   7.127109e+05  -7.393008e+04
  -2.445587e+04   5.235225e+05
  -6.113943e+05   3.923780e+05
  -4.052163e+05  -1.025496e+05
   2.841277e+05  -1.715022e+05
   5.910553e+05   4.469199e+05
  -4.723613e+04   1.118667e+06
  -1.282103e+06   9.233491e+05
  -2.027857e+06  -3.558134e+05
  -1.433299e+06  -1.868449e+06
   1.931074e+05  -2.403105e+06
   1.585106e+06  -1.525992e+06
   1.782750e+06   2.284798e+03
   1.050209e+06   9.855472e+05
   3.879039e+05   9.339369e+05
   3.166080e+05   4.010420e+05
   4.246450e+05   2.359768e+05
   6.526934e+04   6.226498e+05
  -7.852168e+05   9.222064e+05
  -1.447868e+06   4.358302e+05
  -1.175988e+06  -7.271889e+05
   1.337929e+05  -1.587764e+06
   1.689539e+06  -1.182491e+06
   2.269854e+06   4.174116e+05
   1.222697e+06   2.010625e+06
  -8.203298e+05   2.309290e+06
  -2.365063e+06   1.135410e+06
  -2.376838e+06  -4.621871e+05
  -1.169669e+06  -1.287943e+06
   6.760410e+04  -1.113279e+06
   5.050246e+05  -6.812314e+05
   3.144877e+05  -7.231988e+05
   2.149944e+05  -1.133099e+06
   6.075789e+05  -1.151953e+06
   1.187767e+06  -2.823552e+05
   1.281732e+06   1.065291e+06
   5.388230e+05   1.862757e+06
  -6.217479e+05   1.413539e+06
  -1.274971e+06   3.908472e+04
  -8.467821e+05  -1.177929e+06
   2.547854e+05  -1.355379e+06
   9.959679e+05  -5.420183e+05
   7.775258e+05   4.629348e+05
   3.264723e+04   9.305473e+05
  -3.315518e+05   7.910628e+05
  -1.867452e+03   4.820148e+05
   3.931050e+05   3.684182e+05
   3.891237e+04   3.931053e+05
  -1.057908e+06   2.371348e+05
  -1.931170e+06  -2.738970e+05
  -1.588725e+06  -9.392065e+05
  -8.582632e+04  -1.315377e+06
   1.414046e+06  -1.086264e+06
   1.741157e+06  -3.685392e+05
   8.591485e+05   3.230445e+05
  -1.923598e+05   4.858342e+05
  -4.581862e+05   9.861789e+04
   1.663141e+04  -3.217907e+05
   4.830143e+05  -2.296884e+05
   4.557811e+05   3.364214e+05
   1.399367e+05   7.432524e+05
  -9.331790e+03   4.799565e+05
   1.451474e+05  -1.721899e+05
   3.570836e+05  -3.875628e+05
   2.931956e+05   2.131815e+05
  -1.879726e+05   1.009123e+06
  -8.716698e+05   1.029691e+06
  -1.205638e+06   1.010388e+05
  -7.092497e+05  -9.009848e+05
   4.047197e+05  -1.015352e+06
   1.160056e+06  -2.271668e+05
   7.067208e+05   5.960883e+05
  -6.568627e+05   6.632212e+05
  -1.610957e+06  -2.083271e+04
  -1.143437e+06  -8.101027e+05
   3.584958e+05  -1.067106e+06
   1.499775e+06  -6.391933e+05
   1.315645e+06   9.553028e+04
   1.938957e+05   5.312803e+05
  -6.242287e+05   3.223832e+05
  -3.437949e+05  -2.538077e+05
   6.273758e+05  -4.652017e+05
   1.158404e+06   1.574605e+05
   5.679315e+05   1.207694e+06
  -6.951861e+05   1.643779e+06
  -1.522121e+06   8.060967e+05
  -1.240262e+06  -7.891997e+05
  -1.895799e+05  -1.802321e+06
   7.333670e+05  -1.344537e+06
   9.388294e+05   1.053439e+05
   5.025312e+05   1.173150e+06
  -1.253928e+05   1.013687e+06
  -5.313755e+05   1.229269e+05
  -5.301225e+05  -3.883322e+05
  -2.353570e+05  -1.582121e+05
  -2.009920e+04   1.168896e+05
  -1.752459e+05  -2.454244e+05
  -4.704963e+05  -9.394347e+05
  -2.797190e+05  -1.087446e+06
   6.107555e+05  -4.091471e+05
   1.483905e+06   4.616887e+05
   1.357814e+06   8.283268e+05
   1.954980e+05   6.774440e+05
  -9.189884e+05   4.120679e+05
  -1.005232e+06   2.107234e+05
  -2.992616e+05  -1.127001e+04
   1.720376e+05  -2.177105e+05
  -4.757678e+04  -2.437492e+05
  -3.514914e+05  -1.395605e+05
  -1.630570e+04  -1.385039e+05
   7.517005e+05  -2.018162e+05
   1.029232e+06   4.116422e+04
   3.006728e+05   6.771020e+05
  -9.228988e+05   1.116062e+06
  -1.634068e+06   6.796290e+05
  -1.294554e+06  -4.850727e+05
  -2.332997e+05  -1.412744e+06
   7.459653e+05  -1.333218e+06
   1.043928e+06  -4.717981e+05
   6.625901e+05   2.804580e+05
   9.484110e+04   3.557879e+05
  -1.433334e+05   1.795117e+04
   5.259602e+04  -7.198366e+04
   3.345473e+05   3.405973e+05
   2.744777e+05   8.022966e+05
  -1.986740e+05   6.558648e+05
  -6.925477e+05  -1.782766e+05
  -6.810921e+05  -1.002964e+06
  -2.068738e+04  -1.017437e+06
   7.978299e+05  -1.669677e+05
   9.986484e+05   7.921175e+05
   2.879139e+05   1.080193e+06
  -7.257163e+05   6.109202e+05
  -1.071720e+06  -1.044648e+05
  -4.783220e+05  -5.597449e+05
   2.855369e+05  -6.011450e+05
   3.164456e+05  -3.444906e+05
  -3.146719e+05  -3.560739e+04
  -6.630820e+05   2.399952e+04
  -1.192981e+05  -2.937773e+05
   8.231088e+05  -6.777000e+05
   1.192767e+06  -5.780867e+05
   6.852776e+05   1.286282e+05
  -1.081441e+05   8.345339e+05
  -4.942510e+05   8.160646e+05
  -3.564328e+05   1.065966e+05
  -1.457010e+04  -5.047211e+05
   2.541472e+05  -3.936180e+05
   3.536357e+05   2.088470e+05
   2.383463e+05   5.771264e+05
  -7.320825e+04   3.683344e+05
  -3.855448e+05  -7.389347e+04
  -4.473270e+05  -2.399788e+05
  -2.382162e+05  -5.943630e+04
   1.043784e+03   1.023100e+05
   7.821955e+04  -5.499151e+04
   7.410304e+04  -3.919685e+05
   1.749668e+05  -4.817206e+05
   3.592156e+05  -1.046244e+05
   3.729194e+05   4.540178e+05
   4.315449e+04   6.561240e+05
  -4.390732e+05   2.795612e+05
  -6.174043e+05  -3.239144e+05
  -2.167192e+05  -5.961844e+05
   4.884683e+05  -3.489930e+05
   8.397168e+05   1.103463e+05
   4.540979e+05   3.805768e+05
  -2.959592e+05   3.492910e+05
  -6.210147e+05   1.649205e+05
  -2.015924e+05   5.176288e+03
   4.113516e+05  -1.814384e+04
   4.315321e+05   1.331928e+05
  -2.221426e+05   3.290660e+05
  -8.283256e+05   2.629331e+05
