
 $NMID
 id='ANONYMOUS ', fmtdat='(2E16.6)'
 volume=1.0
 tramp=1.0
 $END
   3.305849e+07  -2.044912e+06
   2.257573e+07   1.576234e+07
   1.201312e+03   2.155384e+07
  -1.420833e+07   1.326767e+07
  -1.143923e+07   3.906995e+05
  -3.000211e+05  -5.876037e+06
   6.392112e+06  -2.280131e+06
   4.407297e+06   5.251168e+06
  -1.733812e+06   8.239413e+06
  -5.909672e+06   3.602665e+06
  -5.266178e+06  -3.817559e+06
  -9.971142e+05  -6.380634e+06
   2.872243e+06  -1.675564e+06
   2.555856e+06   4.900420e+06
  -1.696460e+06   6.078541e+06
  -5.314010e+06   5.417669e+05
  -4.096312e+06  -6.174279e+06
   1.236317e+06  -8.017599e+06
   6.005311e+06  -4.195163e+06
   6.534433e+06   1.315551e+06
   3.364041e+06   4.382159e+06
   4.983328e+04   4.083011e+06
  -4.397277e+05   2.501833e+06
   1.519413e+06   2.190601e+06
   2.510153e+06   3.624507e+06
  -3.271834e+05   4.757544e+06
  -5.526740e+06   3.324043e+06
  -8.070068e+06  -3.611914e+05
  -4.913291e+06  -3.442586e+06
   1.071594e+06  -3.514887e+06
   4.070729e+06  -9.915258e+05
   1.826040e+06   1.633450e+06
  -2.358270e+06   2.153093e+06
  -4.016720e+06   1.463644e+05
  -2.237306e+06  -2.843944e+06
   5.262243e+05  -4.172066e+06
   1.814765e+06  -2.274290e+06
   1.209118e+06   1.161844e+06
  -9.946615e+04   2.310417e+06
  -5.804704e+05  -2.829876e+05
   4.632132e+05  -3.289002e+06
   2.073197e+06  -2.456864e+06
   2.194990e+06   1.640445e+06
  -8.264772e+04   3.937163e+06
  -2.903370e+06   1.311790e+06
  -3.130259e+06  -3.393057e+06
   2.100963e+05  -4.950715e+06
   4.459677e+06  -1.865457e+06
   5.708284e+06   2.583469e+06
   2.595359e+06   4.499025e+06
  -2.302139e+06   2.968655e+06
  -4.804776e+06  -1.048137e+05
  -2.998409e+06  -2.198285e+06
   9.956459e+05  -1.980275e+06
   3.191917e+06  -8.693072e+04
   1.832090e+06   1.434065e+06
  -9.392284e+05   1.069026e+06
  -1.754316e+06  -5.279297e+05
   4.156650e+04  -1.323244e+06
   1.849929e+06  -3.449257e+05
   1.138112e+06   1.277409e+06
  -1.552543e+06   1.749692e+06
  -3.324036e+06   4.068635e+05
  -2.117526e+06  -1.989566e+06
   1.316120e+06  -3.910293e+06
   4.358305e+06  -3.790571e+06
   4.938395e+06  -1.094153e+06
   3.104265e+06   2.692085e+06
   6.399035e+05   4.860747e+06
  -7.125135e+05   4.128285e+06
  -7.668822e+05   2.049446e+06
  -7.072978e+05   1.012019e+06
  -1.484556e+06   1.255596e+06
  -2.649953e+06   9.435212e+05
  -2.902558e+06  -9.075230e+05
  -1.563774e+06  -2.794493e+06
   6.765922e+05  -2.557052e+06
   2.284843e+06  -8.622454e+04
   2.011218e+06   2.483796e+06
  -1.369474e+05   2.992868e+06
  -2.656530e+06   1.177203e+06
  -3.554376e+06  -1.412535e+06
  -2.155496e+06  -2.940188e+06
   1.260509e+05  -2.755485e+06
   1.315085e+06  -1.688861e+06
   1.154422e+06  -1.011388e+06
   1.228369e+06  -1.062110e+06
   2.614543e+06  -9.737804e+05
   4.120190e+06   2.092598e+05
   3.539070e+06   2.310315e+06
   4.278042e+05   4.017417e+06
  -3.053656e+06   3.988937e+06
  -4.236969e+06   1.991513e+06
  -2.543222e+06  -7.630927e+05
   1.352015e+05  -2.362844e+06
   1.394436e+06  -1.741146e+06
   5.097614e+05   1.855963e+05
  -1.159679e+06   1.265812e+06
  -1.735725e+06   4.237485e+05
  -7.251771e+05  -1.062325e+06
   6.185625e+05  -1.150420e+06
   7.505866e+05   2.944129e+05
  -5.129798e+05   1.214824e+06
  -1.852665e+06  -5.240079e+04
  -1.774055e+06  -2.600754e+06
   4.745687e+04  -3.889641e+06
   2.516229e+06  -2.514481e+06
   3.924921e+06   4.548621e+05
   3.203455e+06   2.733020e+06
   8.491351e+05   2.952163e+06
  -1.305392e+06   1.586362e+06
  -1.672649e+06   2.047675e+05
  -4.976352e+05  -2.078191e+04
   4.128030e+05   7.186696e+05
  -2.208081e+05   1.229584e+06
  -1.630269e+06   6.620560e+05
  -1.958392e+06  -5.527572e+05
  -5.760430e+05  -1.215281e+06
   1.072124e+06  -7.080420e+05
   1.097919e+06   3.693965e+05
  -6.729662e+05   8.703486e+05
  -2.446369e+06   1.957400e+05
  -2.297674e+06  -1.229444e+06
  -1.188252e+05  -2.298069e+06
   2.257728e+06  -2.048411e+06
   2.816502e+06  -5.165284e+05
   1.265514e+06   1.086877e+06
  -7.557063e+05   1.374253e+06
  -1.340376e+06   2.279932e+05
  -1.462544e+05  -9.585534e+05
   1.431694e+06  -7.817699e+05
   1.781979e+06   5.779864e+05
   6.272332e+05   1.605026e+06
  -8.685023e+05   1.234060e+06
  -1.329210e+06   3.227613e+03
  -4.676743e+05  -6.830687e+05
   6.769448e+05  -1.363698e+05
   7.465681e+05   9.796905e+05
  -5.474178e+05   1.423847e+06
  -2.000404e+06   5.871232e+05
  -2.061983e+06  -9.732960e+05
  -4.997987e+05  -2.023746e+06
   1.273204e+06  -1.724162e+06
   1.684292e+06  -3.878967e+05
   6.344535e+05   7.961770e+05
  -5.668173e+05   8.963241e+05
  -7.433342e+05   1.080177e+05
  -4.218997e+03  -5.647519e+05
   6.338953e+05  -4.513448e+05
   4.533350e+05   1.013985e+05
  -2.780396e+05   2.244397e+05
  -6.505178e+05  -4.127164e+05
  -2.554177e+04  -1.159604e+06
   1.272766e+06  -1.025746e+06
   2.113781e+06   2.609001e+05
   1.575067e+06   1.855463e+06
  -7.963936e+04   2.497012e+06
  -1.568734e+06   1.670897e+06
  -1.861357e+06   9.376260e+04
  -1.152286e+06  -9.871017e+05
  -4.428661e+05  -9.813780e+05
  -3.225943e+05  -4.126099e+05
  -4.326193e+05  -2.068743e+05
  -1.008835e+05  -6.250173e+05
   7.591120e+05  -9.988847e+05
   1.482075e+06  -5.337283e+05
   1.266133e+06   7.011196e+05
  -5.387621e+04   1.668851e+06
  -1.692620e+06   1.319938e+06
  -2.375800e+06  -3.152246e+05
  -1.377665e+06  -2.016480e+06
   7.140025e+05  -2.433339e+06
   2.379112e+06  -1.309818e+06
   2.495077e+06   3.426492e+05
   1.299268e+06   1.280296e+06
  -7.795759e+03   1.180031e+06
  -5.093370e+05   7.436412e+05
  -3.146196e+05   7.511854e+05
  -1.723179e+05   1.160550e+06
  -5.607182e+05   1.210449e+06
  -1.203369e+06   3.507369e+05
  -1.373788e+06  -1.036828e+06
  -6.480935e+05  -1.898625e+06
   5.740583e+05  -1.491612e+06
   1.319103e+06  -1.075822e+05
   9.425398e+05   1.168586e+06
  -1.814026e+05   1.417334e+06
  -9.926782e+05   6.316691e+05
  -8.339367e+05  -4.146480e+05
  -1.021649e+05  -9.528553e+05
   2.828732e+05  -8.450038e+05
  -2.775888e+04  -5.100177e+05
  -4.190360e+05  -3.642348e+05
  -5.659554e+04  -4.052143e+05
   1.075070e+06  -3.037256e+05
   2.000982e+06   1.776774e+05
   1.691902e+06   8.833518e+05
   1.716433e+05   1.350152e+06
  -1.389920e+06   1.195222e+06
  -1.779205e+06   4.801660e+05
  -9.155913e+05  -2.750617e+05
   1.644889e+05  -5.062009e+05
   4.665122e+05  -1.337820e+05
  -2.739716e+03   3.209337e+05
  -4.923077e+05   2.561432e+05
  -4.855189e+05  -3.246536e+05
  -1.672489e+05  -7.601855e+05
  -1.758313e+03  -4.929996e+05
  -1.461038e+05   1.935388e+05
  -3.635693e+05   4.259360e+05
  -3.165960e+05  -2.048742e+05
   1.518526e+05  -1.054270e+06
   8.477431e+05  -1.105538e+06
   1.222490e+06  -1.616306e+05
   7.624974e+05   8.907165e+05
  -3.632578e+05   1.057358e+06
  -1.174249e+06   2.830998e+05
  -7.564593e+05  -5.844976e+05
   6.435972e+05  -7.222050e+05
   1.675040e+06  -6.398028e+04
   1.241297e+06   7.834572e+05
  -3.086345e+05   1.136789e+06
  -1.529278e+06   7.529214e+05
  -1.380721e+06  -2.781608e+04
  -2.326628e+05  -5.453872e+05
   6.302458e+05  -3.714519e+05
   3.654888e+05   2.396121e+05
  -6.293824e+05   5.034300e+05
  -1.200571e+06  -1.149344e+05
  -6.328197e+05  -1.221375e+06
   6.503786e+05  -1.723440e+06
   1.537927e+06  -8.965069e+05
   1.318617e+06   7.604407e+05
   2.809812e+05   1.857418e+06
  -6.958972e+05   1.433678e+06
  -9.819979e+05  -5.576782e+04
  -5.864677e+05  -1.191340e+06
   7.141010e+04  -1.065453e+06
   5.422346e+05  -1.592166e+05
   5.749429e+05   3.807675e+05
   2.592011e+05   1.584132e+05
   1.272994e+04  -1.260322e+05
   1.827946e+05   2.344200e+05
   5.288771e+05   9.447055e+05
   3.526183e+05   1.117799e+06
  -6.003952e+05   4.598584e+05
  -1.559765e+06  -4.065251e+05
  -1.455698e+06  -7.948615e+05
  -2.373477e+05  -6.897273e+05
   9.394591e+05  -4.665836e+05
   1.034553e+06  -2.690771e+05
   3.045845e+05  -1.109377e+04
  -1.706614e+05   2.313240e+05
   6.962214e+04   2.591386e+05
   3.793994e+05   1.376695e+05
   1.888198e+04   1.414734e+05
  -7.782761e+05   2.359481e+05
  -1.063529e+06   3.756810e+03
  -3.272085e+05  -6.777365e+05
   9.093415e+05  -1.187146e+06
   1.646315e+06  -7.749087e+05
   1.344969e+06   4.412717e+05
   3.031087e+05   1.449783e+06
  -7.033446e+05   1.411034e+06
  -1.053674e+06   5.296908e+05
  -6.976209e+05  -2.653435e+05
  -1.101503e+05  -3.612877e+05
   1.546649e+05  -1.513867e+04
  -5.005951e+04   8.590067e+04
  -3.685553e+05  -3.346586e+05
  -3.264779e+05  -8.179212e+05
   1.756831e+05  -6.841840e+05
   7.237973e+05   1.598595e+05
   7.420634e+05   1.009584e+06
   5.753007e+04   1.045061e+06
  -8.196355e+05   1.971684e+05
  -1.062323e+06  -7.803294e+05
  -3.414005e+05  -1.099712e+06
   7.201967e+05  -6.568075e+05
   1.106011e+06   5.878786e+04
   5.171337e+05   5.463462e+05
  -2.625103e+05   6.251096e+05
  -3.010883e+05   3.718022e+05
   3.352767e+05   2.932945e+04
   6.861405e+05  -5.344634e+04
   1.343653e+05   2.948831e+05
  -8.193037e+05   7.405022e+05
  -1.199801e+06   6.639723e+05
  -7.072572e+05  -8.951523e+04
   7.205218e+04  -8.633405e+05
   4.624428e+05  -8.656269e+05
   3.510203e+05  -1.232545e+05
   3.205363e+04   5.231069e+05
  -2.441611e+05   4.126606e+05
  -3.726633e+05  -2.082284e+05
  -2.717866e+05  -5.850829e+05
   5.795501e+04  -3.751472e+05
   4.001164e+05   6.208064e+04
   4.725729e+05   2.198162e+05
   2.508020e+05   4.473002e+04
  -3.859687e+03  -9.716163e+04
  -8.318876e+04   7.488921e+04
  -7.258016e+04   4.098651e+05
  -1.723618e+05   4.900456e+05
  -3.662123e+05   1.066820e+05
  -3.909647e+05  -4.581954e+05
  -5.886490e+04  -6.718079e+05
   4.436446e+05  -3.032757e+05
   6.449396e+05   3.098075e+05
   2.457948e+05   6.079039e+05
  -4.853155e+05   3.829233e+05
  -8.660249e+05  -7.713968e+04
  -4.841323e+05  -3.714102e+05
   2.872221e+05  -3.679391e+05
   6.287030e+05  -1.918393e+05
   2.005236e+05  -1.570402e+04
  -4.315084e+05   2.718409e+04
  -4.524271e+05  -1.289930e+05
   2.244166e+05  -3.534954e+05
   8.567657e+05  -3.050814e+05
