
 $NMID
 id='ANONYMOUS ', fmtdat='(2E16.6)'
 volume=1.0
 tramp=1.0
 $END
  -2.973226e+03  -3.710791e+02
  -2.186644e+03  -1.422416e+03
  -4.079197e+02  -1.997102e+03
   1.079243e+03  -1.246393e+03
   8.898279e+02  -4.028431e+02
   5.694190e+01   1.220693e+02
  -1.842855e+02  -7.160342e+01
  -6.649280e+01  -3.753060e+02
   4.198278e+02  -4.881751e+02
   5.899626e+02  -1.059132e+02
   3.766588e+02   4.430074e+02
   5.418813e+01   6.477015e+02
  -1.989302e+02   1.405595e+02
  -1.943597e+02  -4.011378e+02
  -4.939428e-01  -5.131614e+02
   2.982843e+02  -9.832516e+01
   3.115113e+02   4.889063e+02
   2.949089e+01   6.359368e+02
  -3.565044e+02   3.941594e+02
  -4.644193e+02  -9.667953e+01
  -1.970847e+02  -3.687131e+02
   3.417031e+01  -2.923138e+02
  -1.874091e+01  -1.354987e+02
  -2.058390e+02  -1.690513e+02
  -2.337732e+02  -2.940261e+02
   8.086494e+01  -3.367671e+02
   4.775419e+02  -9.844103e+01
   5.561913e+02   1.839097e+02
   2.092599e+02   2.922808e+02
  -3.046831e+02   1.459703e+02
  -4.587805e+02  -1.197812e+02
  -2.028250e+02  -3.156692e+02
   2.257283e+02  -3.152820e+02
   4.447141e+02  -1.339712e+02
   3.092587e+02   1.052608e+02
   9.844128e+01   2.548234e+02
   1.299315e+01   1.584000e+02
   8.596519e+01  -5.545616e+01
   1.756629e+02  -8.594449e+01
   1.457316e+02   1.552951e+02
  -2.087939e+01   4.414404e+02
  -2.045500e+02   3.777209e+02
  -2.392376e+02   2.082482e+01
  -8.678743e+01  -2.389572e+02
   1.072315e+02  -9.852272e+01
   1.317479e+02   2.412571e+02
  -1.000000e+02   3.610348e+02
  -4.073850e+02   6.620105e+01
  -4.660410e+02  -3.319900e+02
  -1.787667e+02  -4.672980e+02
   2.553926e+02  -2.634794e+02
   4.823493e+02   4.531657e+01
   3.384626e+02   2.127053e+02
  -9.498582e+00   1.999536e+02
  -2.497790e+02   1.027080e+02
  -2.191823e+02   2.201132e+01
  -4.923106e+01  -5.190291e+00
   1.958351e+01   8.152592e+00
  -8.510512e+01   1.730405e+01
  -1.976826e+02  -3.678778e+01
  -1.220151e+02  -1.568174e+02
   1.320797e+02  -2.437091e+02
   3.406535e+02  -1.688172e+02
   2.875262e+02   8.336117e+01
  -1.025986e+01   3.473652e+02
  -3.079975e+02   3.989557e+02
  -3.797600e+02   1.725635e+02
  -2.340143e+02  -1.593921e+02
  -6.262797e+01  -3.507787e+02
  -3.064394e+00  -3.214209e+02
  -6.848149e+00  -2.008300e+02
   4.360130e+01  -1.357488e+02
   1.655564e+02  -1.172215e+02
   2.580660e+02  -3.624810e+01
   2.270749e+02   1.277278e+02
   8.228769e+01   2.443060e+02
  -8.686843e+01   1.748403e+02
  -1.798390e+02  -4.810171e+01
  -1.324971e+02  -2.398674e+02
   4.562997e+01  -2.392216e+02
   2.415248e+02  -5.287578e+01
   3.030539e+02   1.646235e+02
   1.745262e+02   2.780563e+02
  -3.131523e+01   2.528726e+02
  -1.450126e+02   1.656519e+02
  -1.463291e+02   1.030182e+02
  -1.673007e+02   7.842281e+01
  -2.954267e+02   3.031997e+01
  -4.128546e+02  -9.621223e+01
  -3.180642e+02  -2.894966e+02
   2.318604e+01  -4.350816e+02
   3.726571e+02  -4.090395e+02
   4.660580e+02  -1.914141e+02
   2.750393e+02   8.913559e+01
   2.328224e+01   2.374335e+02
  -6.898840e+01   1.866074e+02
   1.548595e+01   4.121797e+01
   1.196205e+02  -2.570327e+01
   1.110747e+02   4.291860e+01
   4.726365e+00   1.254549e+02
  -9.345363e+01   9.205767e+01
  -8.805845e+01  -3.891896e+01
   2.263047e+01  -1.065849e+02
   1.430754e+02   6.258603e+00
   1.534958e+02   2.242582e+02
  -3.673653e+00   3.400897e+02
  -2.390447e+02   2.219231e+02
  -3.751437e+02  -5.102248e+01
  -2.936480e+02  -2.671604e+02
  -5.980524e+01  -2.827557e+02
   1.317050e+02  -1.413398e+02
   1.434817e+02  -6.455760e+00
   2.930434e+01   6.075344e+00
  -4.335084e+01  -6.915981e+01
   1.561336e+01  -1.131753e+02
   1.241118e+02  -6.251109e+01
   1.375252e+02   2.515276e+01
   2.637552e+01   4.938980e+01
  -7.918426e+01  -1.685050e+01
  -3.161875e+01  -9.728516e+01
   1.579954e+02  -9.381599e+01
   3.133350e+02   1.949112e+01
   2.642662e+02   1.765910e+02
   2.543619e+01   2.711266e+02
  -2.117736e+02   2.360127e+02
  -2.648408e+02   9.668543e+01
  -1.294885e+02  -3.955152e+01
   3.043486e+01  -6.871428e+01
   5.538892e+01   6.957247e+00
  -6.028493e+01   7.430494e+01
  -1.838461e+02   3.008000e+01
  -1.848686e+02  -9.868681e+01
  -5.831637e+01  -1.808247e+02
   8.211771e+01  -1.336535e+02
   1.177212e+02  -1.946349e+01
   3.901408e+01   3.042254e+01
  -4.698186e+01  -3.254224e+01
  -2.365803e+01  -1.233312e+02
   1.084532e+02  -1.244012e+02
   2.214484e+02  -8.738671e+00
   1.856460e+02   1.394316e+02
   1.181800e+01   2.073863e+02
  -1.512398e+02   1.502983e+02
  -1.688126e+02   1.995246e+01
  -5.552877e+01  -8.231441e+01
   5.553640e+01  -9.067496e+01
   6.262775e+01  -2.876032e+01
  -5.252399e+00   1.990280e+01
  -4.163363e+01   5.425461e+00
   1.046755e+01  -3.046909e+01
   9.836215e+01  -6.157206e+00
   1.163591e+02   9.450298e+01
   1.351507e+01   1.858861e+02
  -1.497401e+02   1.608572e+02
  -2.460752e+02   9.965066e+00
  -1.958260e+02  -1.622673e+02
  -3.912328e+01  -2.300373e+02
   9.854221e+01  -1.595623e+02
   1.295208e+02  -3.257079e+01
   7.645522e+01   4.236108e+01
   3.498705e+01   2.695928e+01
   5.534783e+01  -1.879502e+01
   9.107171e+01  -1.061310e+01
   6.473149e+01   6.116034e+01
  -3.844297e+01   1.179814e+02
  -1.353657e+02   7.639362e+01
  -1.209192e+02  -5.025052e+01
   1.863651e+01  -1.454627e+02
   1.808050e+02  -9.955506e+01
   2.200498e+02   6.992883e+01
   8.584602e+01   2.229170e+02
  -1.314374e+02   2.276995e+02
  -2.715102e+02   8.358558e+01
  -2.448750e+02  -8.743967e+01
  -9.911211e+01  -1.648434e+02
   3.735812e+01  -1.355182e+02
   8.427879e+01  -8.242836e+01
   6.384817e+01  -7.557599e+01
   5.304444e+01  -1.017832e+02
   9.095170e+01  -8.620935e+01
   1.399819e+02   1.532397e+01
   1.296202e+02   1.563671e+02
   3.145605e+01   2.314752e+02
  -1.017606e+02   1.710634e+02
  -1.738884e+02   1.183935e+01
  -1.283534e+02  -1.293935e+02
  -7.943311e+00  -1.579624e+02
   7.886580e+01  -7.933680e+01
   6.471835e+01   1.958714e+01
  -6.522265e+00   6.011538e+01
  -3.234275e+01   3.845845e+01
   2.559024e+01   8.925290e+00
   8.900369e+01   1.399577e+01
   5.373920e+01   4.142195e+01
  -7.860160e+01   4.529445e+01
  -1.847700e+02   1.065750e+00
  -1.499338e+02  -6.668895e+01
   4.481011e+00  -1.050516e+02
   1.410633e+02  -7.918595e+01
   1.488812e+02  -5.919562e+00
   4.578147e+01   5.501337e+01
  -5.922229e+01   5.020320e+01
  -8.218746e+01  -1.567622e+01
  -2.840383e+01  -7.790526e+01
   3.988415e+01  -7.312240e+01
   7.323953e+01  -6.817577e+00
   6.760779e+01   5.048315e+01
   5.179869e+01   4.299394e+01
   5.245386e+01  -1.348584e+00
   6.550087e+01  -1.544759e+00
   5.345287e+01   7.474959e+01
  -1.829658e+01   1.605420e+02
  -1.283175e+02   1.551927e+02
  -1.924937e+02   3.967685e+01
  -1.403795e+02  -9.472223e+01
  -3.014145e+00  -1.391410e+02
   9.729216e+01  -7.723711e+01
   6.557541e+01   7.512880e+00
  -5.924905e+01   2.415657e+01
  -1.371244e+02  -3.635786e+01
  -7.284033e+01  -1.057966e+02
   8.374901e+01  -1.132144e+02
   1.900481e+02  -4.724614e+01
   1.567300e+02   4.088996e+01
   2.934235e+01   8.608313e+01
  -6.561388e+01   5.943608e+01
  -4.862931e+01  -5.864535e+00
   4.174389e+01  -3.697531e+01
   9.741826e+01   1.505291e+01
   4.907154e+01   1.166591e+02
  -6.890059e+01   1.645003e+02
  -1.541492e+02   8.251489e+01
  -1.339997e+02  -8.416633e+01
  -2.817733e+01  -1.929818e+02
   7.637204e+01  -1.448935e+02
   1.065081e+02   9.002804e+00
   5.826562e+01   1.198391e+02
  -1.429563e+01   1.019637e+02
  -5.366011e+01   1.391827e+01
  -4.295355e+01  -3.068577e+01
  -1.224256e+01  -4.529441e+00
  -6.254149e+00   1.816441e+01
  -3.681109e+01  -2.301725e+01
  -6.367587e+01  -9.103526e+01
  -3.186508e+01  -1.044359e+02
   5.993175e+01  -4.353209e+01
   1.383751e+02   3.297172e+01
   1.234799e+02   6.620328e+01
   1.983302e+01   5.535084e+01
  -7.859041e+01   3.080852e+01
  -8.715316e+01   7.508784e+00
  -2.097838e+01  -1.423573e+01
   3.210815e+01  -2.421640e+01
   2.142207e+01  -1.222014e+01
  -1.162643e+01   5.901045e+00
   3.280701e+00   4.650242e+00
   6.565686e+01  -6.043097e+00
   9.661327e+01   1.649435e+01
   3.106973e+01   8.195545e+01
  -9.946580e+01   1.281976e+02
  -1.896476e+02   8.143696e+01
  -1.632748e+02  -4.849229e+01
  -4.405480e+01  -1.605607e+02
   7.441713e+01  -1.653113e+02
   1.170429e+02  -7.579130e+01
   8.412896e+01   1.497284e+01
   3.080398e+01   3.859582e+01
   6.287908e+00   1.510596e+01
   1.599227e+01   1.074851e+01
   3.093913e+01   5.202852e+01
   1.886024e+01   9.391017e+01
  -2.763326e+01   7.443787e+01
  -8.011192e+01  -1.133183e+01
  -8.820721e+01  -9.787852e+01
  -2.457134e+01  -1.115187e+02
   7.143275e+01  -4.050498e+01
   1.127267e+02   5.546772e+01
   5.037305e+01   1.021051e+02
  -6.045141e+01   7.275062e+01
  -1.089600e+02  -1.231535e-01
  -5.222995e+01  -5.986505e+01
   3.290155e+01  -6.941326e+01
   4.320164e+01  -3.301492e+01
  -2.357035e+01   9.309429e+00
  -6.879464e+01   1.341682e+01
  -2.013335e+01  -2.807643e+01
   7.880088e+01  -7.068863e+01
   1.243831e+02  -5.712805e+01
   7.589779e+01   1.769540e+01
  -1.052700e+01   8.997537e+01
  -5.881433e+01   8.971593e+01
  -4.932518e+01   1.736757e+01
  -1.250203e+01  -5.255922e+01
   2.082011e+01  -5.329823e+01
   3.843610e+01   4.796958e+00
   3.289821e+01   5.241765e+01
   2.422568e+00   4.240755e+01
  -3.401202e+01  -2.284615e+00
  -4.416971e+01  -2.500998e+01
  -2.061675e+01  -4.649393e+00
   6.841569e+00   2.299113e+01
   6.625595e+00   1.292068e+01
  -1.083328e+01  -3.064572e+01
  -8.507089e+00  -5.733453e+01
   2.435417e+01  -3.007303e+01
   4.880857e+01   2.904107e+01
   2.325422e+01   5.988317e+01
  -3.765097e+01   3.109332e+01
  -6.849125e+01  -2.707017e+01
  -2.544509e+01  -5.907627e+01
   5.713027e+01  -4.070675e+01
   9.757670e+01   4.839919e+00
   5.422011e+01   4.101671e+01
  -2.760724e+01   4.999361e+01
  -6.549030e+01   3.504891e+01
  -3.042080e+01   9.480089e+00
   2.583607e+01  -7.403655e+00
   3.288119e+01   8.684931e-01
  -1.948326e+01   2.469620e+01
  -7.366825e+01   2.632022e+01
