
 $NMID
 id='ANONYMOUS ', fmtdat='(2E16.6)'
 volume=1.0
 tramp=1.0
 $END
   2.988563e+03   1.583400e+02
   1.756406e+03   1.369281e+03
   1.324298e+02   1.905960e+03
  -1.158858e+03   1.158115e+03
  -6.645292e+02   2.278946e+02
  -8.661824e+01  -8.752344e+01
   2.877897e+02   1.095952e+02
   7.081513e+01   5.098662e+02
  -3.321413e+02   4.426886e+02
  -6.145945e+02   1.818919e+01
  -3.399907e+02  -4.974001e+02
   5.535294e+01  -6.083288e+02
   3.182238e+02  -2.283710e+02
   2.403545e+02   3.822306e+02
  -1.258235e+02   5.231167e+02
  -3.519987e+02   6.773588e+01
  -3.151876e+02  -4.823044e+02
   1.377480e+02  -6.165606e+02
   4.581294e+02  -2.789383e+02
   4.656194e+02   1.357619e+02
   1.692401e+02   3.291937e+02
  -6.123894e+01   2.636794e+02
  -5.981579e+01   1.202204e+02
   1.411852e+02   9.155934e+01
   2.436716e+02   2.081586e+02
  -6.038631e+00   3.030182e+02
  -4.206963e+02   1.746008e+02
  -5.749394e+02  -1.213355e+02
  -2.287274e+02  -2.911827e+02
   2.590874e+02  -1.911567e+02
   4.782547e+02   9.687102e+01
   2.113199e+02   3.131940e+02
  -2.282533e+02   3.476911e+02
  -4.153707e+02   1.451094e+02
  -3.228351e+02  -1.431252e+02
  -9.467744e+01  -2.803708e+02
  -1.272827e+00  -1.762702e+02
  -5.959800e+01   4.591115e+01
  -1.654465e+02   1.250557e+02
  -1.674614e+02  -1.231563e+02
  -5.386806e+00  -4.442992e+02
   2.224306e+02  -4.180673e+02
   2.894405e+02  -2.606626e+01
   1.138999e+02   2.732733e+02
  -1.136243e+02   1.353694e+02
  -1.333929e+02  -2.419975e+02
   1.170879e+02  -3.612535e+02
   4.038209e+02  -6.493092e+01
   4.530285e+02   3.367329e+02
   1.635906e+02   4.662404e+02
  -2.539640e+02   2.697384e+02
  -4.774719e+02  -2.787131e+01
  -3.473258e+02  -2.096833e+02
   1.245373e+00  -2.132119e+02
   2.515527e+02  -1.082563e+02
   2.220892e+02  -7.336247e+00
   3.234282e+01   1.681175e+01
  -4.667566e+01  -2.460877e+01
   7.489686e+01  -4.124578e+01
   2.090392e+02   3.893364e+01
   1.309708e+02   1.764413e+02
  -1.362080e+02   2.425008e+02
  -3.394288e+02   1.386183e+02
  -2.708909e+02  -1.029397e+02
   1.925964e+01  -3.260464e+02
   2.923374e+02  -3.571657e+02
   3.563441e+02  -1.526224e+02
   2.265021e+02   1.492246e+02
   6.432323e+01   3.358318e+02
  -7.869065e+00   3.167333e+02
  -1.495012e+01   1.948311e+02
  -5.643862e+01   1.201026e+02
  -1.587384e+02   1.021953e+02
  -2.426963e+02   3.259851e+01
  -2.158342e+02  -1.235882e+02
  -8.083970e+01  -2.424640e+02
   7.988598e+01  -1.826404e+02
   1.701539e+02   3.586108e+01
   1.298139e+02   2.301198e+02
  -3.398767e+01   2.365259e+02
  -2.276380e+02   5.623109e+01
  -2.925769e+02  -1.681218e+02
  -1.686823e+02  -2.829941e+02
   3.728638e+01  -2.534047e+02
   1.507457e+02  -1.571179e+02
   1.454215e+02  -9.471792e+01
   1.581028e+02  -7.759952e+01
   2.849650e+02  -3.461924e+01
   4.076800e+02   9.907298e+01
   3.131593e+02   2.935379e+02
  -2.379788e+01   4.273398e+02
  -3.697504e+02   3.900419e+02
  -4.603131e+02   1.762981e+02
  -2.758206e+02  -8.691488e+01
  -2.349733e+01  -2.366717e+02
   7.731410e+01  -1.910794e+02
   3.434987e+00  -4.299774e+01
  -1.095031e+02   2.824069e+01
  -1.183604e+02  -3.762796e+01
  -8.329319e+00  -1.305595e+02
   1.027129e+02  -9.605008e+01
   9.790517e+01   4.627985e+01
  -2.412082e+01   1.190834e+02
  -1.512411e+02  -2.796200e+00
  -1.504035e+02  -2.277522e+02
   1.446363e+01  -3.377228e+02
   2.412294e+02  -2.117645e+02
   3.617424e+02   5.669349e+01
   2.794842e+02   2.615088e+02
   5.666856e+01   2.746310e+02
  -1.286750e+02   1.380537e+02
  -1.450136e+02   5.777722e+00
  -3.263703e+01  -1.100828e+01
   4.616664e+01   6.291874e+01
  -8.028768e+00   1.089433e+02
  -1.188063e+02   5.966977e+01
  -1.357573e+02  -2.930291e+01
  -2.422707e+01  -5.169162e+01
   8.281384e+01   1.956057e+01
   3.608149e+01   1.018598e+02
  -1.509828e+02   9.444186e+01
  -3.026251e+02  -2.107233e+01
  -2.557205e+02  -1.737182e+02
  -2.589455e+01  -2.623347e+02
   2.048829e+02  -2.268520e+02
   2.597052e+02  -9.032361e+01
   1.298281e+02   4.334150e+01
  -2.955995e+01   7.077122e+01
  -5.781068e+01  -8.063603e+00
   5.657838e+01  -7.685258e+01
   1.811714e+02  -2.990852e+01
   1.817917e+02   1.022682e+02
   5.450027e+01   1.831640e+02
  -8.508978e+01   1.317613e+02
  -1.188569e+02   1.526424e+01
  -4.045226e+01  -3.464596e+01
   4.558038e+01   2.633160e+01
   2.645107e+01   1.156922e+02
  -9.962650e+01   1.207997e+02
  -2.117720e+02   1.280622e+01
  -1.812951e+02  -1.322374e+02
  -1.342476e+01  -2.029182e+02
   1.485440e+02  -1.471450e+02
   1.672382e+02  -1.487962e+01
   5.370996e+01   8.624057e+01
  -5.765243e+01   8.811617e+01
  -6.431049e+01   2.278603e+01
   3.838729e+00  -2.276641e+01
   4.008681e+01  -3.655761e+00
  -9.629245e+00   3.206285e+01
  -9.338858e+01   5.398883e+00
  -1.102613e+02  -9.409139e+01
  -1.290158e+01  -1.807961e+02
   1.416854e+02  -1.557527e+02
   2.359377e+02  -9.872895e+00
   1.911632e+02   1.568501e+02
   4.235875e+01   2.239514e+02
  -9.400119e+01   1.570151e+02
  -1.257341e+02   3.283683e+01
  -7.561936e+01  -4.041446e+01
  -3.453100e+01  -2.529471e+01
  -5.424125e+01   1.690658e+01
  -9.051681e+01   9.221781e+00
  -6.234032e+01  -5.912231e+01
   3.768281e+01  -1.122630e+02
   1.280034e+02  -7.366031e+01
   1.144512e+02   4.526317e+01
  -1.592168e+01   1.360565e+02
  -1.676572e+02   9.511368e+01
  -2.074418e+02  -6.582389e+01
  -8.233720e+01  -2.141222e+02
   1.249536e+02  -2.203017e+02
   2.626537e+02  -8.055177e+01
   2.390308e+02   8.721530e+01
   9.844430e+01   1.627490e+02
  -3.607046e+01   1.334356e+02
  -8.391647e+01   7.876306e+01
  -6.465785e+01   7.083036e+01
  -5.257572e+01   9.660216e+01
  -8.580312e+01   8.332357e+01
  -1.313709e+02  -1.243917e+01
  -1.226495e+02  -1.480306e+02
  -3.124394e+01  -2.216370e+02
   9.560484e+01  -1.656580e+02
   1.666260e+02  -1.300922e+01
   1.250740e+02   1.244404e+02
   9.922487e+00   1.535513e+02
  -7.447281e+01   7.802837e+01
  -6.231691e+01  -1.710184e+01
   5.261817e+00  -5.544584e+01
   2.991908e+01  -3.500113e+01
  -2.488957e+01  -8.685095e+00
  -8.486124e+01  -1.497992e+01
  -5.171070e+01  -3.961932e+01
   7.306595e+01  -4.053069e+01
   1.742518e+02   2.148811e+00
   1.429526e+02   6.397825e+01
  -3.234896e+00   9.751767e+01
  -1.352547e+02   7.255614e+01
  -1.440237e+02   4.724043e+00
  -4.381039e+01  -5.159293e+01
   5.893619e+01  -4.624973e+01
   7.939232e+01   1.695710e+01
   2.398371e+01   7.646420e+01
  -4.266035e+01   7.061430e+01
  -7.157555e+01   4.391072e+00
  -6.392619e+01  -5.211402e+01
  -5.022176e+01  -4.455724e+01
  -5.235271e+01  -2.254473e-01
  -6.307415e+01   1.123710e+00
  -4.785336e+01  -7.224527e+01
   2.150435e+01  -1.539557e+02
   1.239604e+02  -1.473039e+02
   1.823829e+02  -3.572347e+01
   1.319726e+02   9.157825e+01
   1.185210e+00   1.314577e+02
  -9.410115e+01   7.108572e+01
  -6.242140e+01  -8.153337e+00
   5.837744e+01  -2.179607e+01
   1.332927e+02   3.636003e+01
   7.020232e+01   1.009353e+02
  -8.140487e+01   1.067594e+02
  -1.844055e+02   4.444560e+01
  -1.517972e+02  -3.894981e+01
  -2.843154e+01  -8.208719e+01
   6.325285e+01  -5.737032e+01
   4.674152e+01   4.026371e+00
  -4.132434e+01   3.273917e+01
  -9.446807e+01  -1.794149e+01
  -4.471326e+01  -1.146295e+02
   7.174644e+01  -1.580240e+02
   1.520514e+02  -7.678012e+01
   1.275473e+02   8.372134e+01
   2.270048e+01   1.871312e+02
  -7.547262e+01   1.389236e+02
  -1.005671e+02  -1.043469e+01
  -5.385552e+01  -1.172778e+02
   1.363036e+01  -9.911022e+01
   5.089769e+01  -1.295205e+01
   4.252127e+01   3.080393e+01
   1.392737e+01   5.233637e+00
   5.983392e+00  -1.737208e+01
   3.356966e+01   2.259141e+01
   6.040878e+01   8.871407e+01
   3.160429e+01   1.014028e+02
  -5.713912e+01   4.120215e+01
  -1.345863e+02  -3.336569e+01
  -1.202027e+02  -6.463270e+01
  -1.846731e+01  -5.250725e+01
   7.708821e+01  -2.805732e+01
   8.366035e+01  -6.293661e+00
   1.802684e+01   1.295456e+01
  -3.267373e+01   2.125731e+01
  -2.017743e+01   9.761702e+00
   1.282864e+01  -6.308738e+00
  -2.069200e+00  -3.922654e+00
  -6.316663e+01   5.634426e+00
  -9.230485e+01  -1.798916e+01
  -2.733901e+01  -8.078957e+01
   9.953631e+01  -1.216938e+02
   1.852379e+02  -7.225387e+01
   1.563989e+02   5.292360e+01
   3.779905e+01   1.566375e+02
  -7.757203e+01   1.567359e+02
  -1.165817e+02   6.920203e+01
  -8.105197e+01  -1.722145e+01
  -2.686498e+01  -3.869718e+01
  -2.696355e+00  -1.513767e+01
  -1.397274e+01  -9.645000e+00
  -3.020249e+01  -4.867266e+01
  -1.885931e+01  -8.983344e+01
   2.713841e+01  -7.214249e+01
   7.802404e+01   1.155998e+01
   8.389575e+01   9.686268e+01
   2.034601e+01   1.093640e+02
  -7.186872e+01   3.729053e+01
  -1.085577e+02  -5.789175e+01
  -4.569602e+01  -1.013109e+02
   6.080149e+01  -6.899064e+01
   1.047422e+02   2.977298e+00
   4.802477e+01   5.849185e+01
  -3.346739e+01   6.488201e+01
  -4.121890e+01   2.965799e+01
   2.437833e+01  -9.324207e+00
   6.762289e+01  -1.210586e+01
   1.955427e+01   2.706984e+01
  -7.616250e+01   6.653187e+01
  -1.192283e+02   5.303696e+01
  -7.087971e+01  -1.755085e+01
   1.319551e+01  -8.500478e+01
   5.853494e+01  -8.268874e+01
   4.700776e+01  -1.304539e+01
   9.189661e+00   5.276688e+01
  -2.360872e+01   5.085974e+01
  -3.887878e+01  -6.858768e+00
  -3.145321e+01  -5.277836e+01
  -1.261131e+00  -4.191217e+01
   3.315154e+01   2.461575e+00
   4.263178e+01   2.449411e+01
   2.075609e+01   4.391790e+00
  -4.731321e+00  -2.250018e+01
  -5.567384e+00  -1.217712e+01
   8.973946e+00   3.067665e+01
   5.256281e+00   5.643275e+01
  -2.496689e+01   2.837325e+01
  -4.547767e+01  -3.034797e+01
  -1.936118e+01  -5.970349e+01
   3.814447e+01  -2.937260e+01
   6.556209e+01   2.933745e+01
   2.303744e+01   5.964580e+01
  -5.666126e+01   3.912407e+01
  -9.515449e+01  -7.154587e+00
  -5.261295e+01  -4.167488e+01
   2.761221e+01  -4.824922e+01
   6.493343e+01  -3.252609e+01
   3.009106e+01  -8.378779e+00
  -2.585428e+01   6.586188e+00
  -3.263520e+01  -1.683238e+00
   1.974626e+01  -2.387459e+01
   7.315642e+01  -2.420966e+01
