
 $NMID
 id='ANONYMOUS ', fmtdat='(2E16.6)'
 volume=1.0
 tramp=1.0
 $END
  -2.221581e+03  -2.633556e+02
  -1.674853e+03  -7.029227e+02
  -3.768251e+02  -1.417924e+03
   8.454466e+02  -1.061386e+03
   8.743261e+02  -4.986557e+02
   2.338074e+02   1.136528e+02
  -1.669147e+02   6.917427e+01
  -1.874062e+02  -3.124059e+02
   2.427928e+02  -4.007040e+02
   4.048219e+02  -7.894603e+01
   3.699165e+02   3.783352e+02
   1.119401e+02   4.572984e+02
  -1.662621e+02   2.067138e+02
  -2.525699e+02  -2.491369e+02
   6.641648e+01  -3.902327e+02
   2.776704e+02  -1.077608e+02
   2.451814e+02   3.585472e+02
  -4.976548e+01   5.521192e+02
  -3.532237e+02   3.061335e+02
  -3.846688e+02  -8.608411e+01
  -1.344196e+02  -2.738913e+02
   8.419427e+01  -2.282138e+02
   6.251570e+00  -1.103982e+02
  -1.597282e+02  -1.580296e+02
  -2.035755e+02  -2.529567e+02
   8.367368e+01  -2.526796e+02
   3.975619e+02  -3.233291e+01
   4.440756e+02   1.841118e+02
   1.419092e+02   2.399109e+02
  -2.313079e+02   8.278869e+01
  -3.364847e+02  -1.155527e+02
  -1.066868e+02  -2.494507e+02
   2.122854e+02  -2.296637e+02
   3.416263e+02  -9.346736e+01
   2.181677e+02   9.958055e+01
   6.965326e+01   2.044615e+02
   3.479489e+01   1.411641e+02
   1.004963e+02  -2.053307e+01
   1.475181e+02  -3.948197e+01
   7.592719e+01   1.337759e+02
  -4.034864e+01   3.466048e+02
  -1.628151e+02   2.847250e+02
  -1.684424e+02   1.737458e+01
  -6.981335e+01  -1.744669e+02
   5.625407e+01  -4.388590e+01
   6.613182e+01   2.170784e+02
  -1.137203e+02   2.635338e+02
  -3.312733e+02   8.357275e+00
  -3.628674e+02  -3.025585e+02
  -1.212305e+02  -3.773101e+02
   2.176042e+02  -1.858082e+02
   3.905250e+02   5.456814e+01
   2.661851e+02   1.716498e+02
  -2.011565e+01   1.522537e+02
  -2.086334e+02   8.418150e+01
  -1.799182e+02   2.470896e+01
  -4.062363e+01  -2.925720e+00
   1.648193e+01   1.547457e+00
  -6.961785e+01   1.153738e+01
  -1.648039e+02  -3.012063e+01
  -1.001604e+02  -1.324634e+02
   1.207221e+02  -2.053005e+02
   2.968238e+02  -1.295274e+02
   2.381509e+02   9.338757e+01
  -2.622971e+01   3.004329e+02
  -2.698748e+02   3.112001e+02
  -3.081328e+02   1.096530e+02
  -1.727996e+02  -1.405301e+02
  -3.778248e+01  -2.660063e+02
  -2.997252e+00  -2.398804e+02
  -8.827239e+00  -1.635914e+02
   4.216109e+01  -1.230629e+02
   1.480480e+02  -9.685639e+01
   2.143637e+02  -1.681464e+01
   1.737835e+02   1.155847e+02
   5.090170e+01   1.971732e+02
  -7.658295e+01   1.356417e+02
  -1.380416e+02  -4.366954e+01
  -9.015554e+01  -1.959563e+02
   4.957810e+01  -1.935313e+02
   2.007059e+02  -3.684886e+01
   2.435605e+02   1.483789e+02
   1.324969e+02   2.367293e+02
  -3.634604e+01   2.072484e+02
  -1.236992e+02   1.318049e+02
  -1.169254e+02   8.226648e+01
  -1.337201e+02   6.715439e+01
  -2.450059e+02   2.252848e+01
  -3.463390e+02  -9.076465e+01
  -2.585350e+02  -2.537778e+02
   3.625191e+01  -3.599813e+02
   3.271423e+02  -3.224027e+02
   3.920248e+02  -1.385884e+02
   2.179981e+02   8.012206e+01
   6.887363e+00   1.936160e+02
  -6.117318e+01   1.501326e+02
   1.520008e+01   3.677989e+01
   9.764177e+01  -1.440209e+01
   8.573268e+01   3.940726e+01
  -3.778514e+00   1.012802e+02
  -7.968780e+01   6.797247e+01
  -7.188433e+01  -4.094631e+01
   1.983679e+01  -9.273610e+01
   1.193737e+02   9.404490e+00
   1.275180e+02   1.921138e+02
  -6.985665e+00   2.834085e+02
  -2.060028e+02   1.747155e+02
  -3.153315e+02  -5.694505e+01
  -2.344821e+02  -2.312890e+02
  -3.228824e+01  -2.323579e+02
   1.191620e+02  -1.063482e+02
   1.156287e+02   2.773220e+00
   1.609873e+01   5.819629e+00
  -3.800612e+01  -5.978602e+01
   1.713891e+01  -9.232449e+01
   1.050750e+02  -4.690890e+01
   1.105248e+02   2.354630e+01
   1.775091e+01   3.793962e+01
  -6.518316e+01  -1.881567e+01
  -2.225825e+01  -8.076011e+01
   1.341296e+02  -7.039356e+01
   2.578318e+02   2.724756e+01
   2.117049e+02   1.531317e+02
   1.034536e+01   2.226066e+02
  -1.837979e+02   1.858944e+02
  -2.202265e+02   6.968312e+01
  -1.019659e+02  -3.623587e+01
   2.871063e+01  -5.315085e+01
   4.320959e+01   1.020144e+01
  -5.577498e+01   5.885312e+01
  -1.532914e+02   1.502525e+01
  -1.459925e+02  -9.103205e+01
  -3.803764e+01  -1.503446e+02
   7.407215e+01  -1.030288e+02
   9.652572e+01  -7.754933e+00
   2.813108e+01   2.717311e+01
  -3.984828e+01  -3.079619e+01
  -1.449564e+01  -1.054206e+02
   9.700819e+01  -9.955742e+01
   1.855525e+02   2.686903e+00
   1.481973e+02   1.253684e+02
   8.402181e-01   1.750451e+02
  -1.310554e+02   1.196349e+02
  -1.405686e+02   8.782670e+00
  -4.350161e+01  -7.171500e+01
   4.812737e+01  -7.167575e+01
   5.147932e+01  -1.772014e+01
  -7.375740e+00   1.888312e+01
  -3.703040e+01   1.360136e+00
   8.790538e+00  -2.981828e+01
   8.281251e+01  -5.139242e+00
   9.429182e+01   8.199541e+01
   3.785148e+00   1.556177e+02
  -1.305081e+02   1.269387e+02
  -2.030009e+02  -2.069217e+00
  -1.535442e+02  -1.409310e+02
  -2.270606e+01  -1.893138e+02
   8.628154e+01  -1.286890e+02
   1.066388e+02  -2.562963e+01
   6.225949e+01   3.401766e+01
   2.977284e+01   2.332897e+01
   4.781993e+01  -1.138196e+01
   7.670620e+01  -3.678457e+00
   5.157865e+01   5.307642e+01
  -3.552484e+01   9.623460e+01
  -1.139900e+02   5.881218e+01
  -9.801558e+01  -4.524808e+01
   1.885045e+01  -1.177969e+02
   1.498265e+02  -7.433770e+01
   1.750450e+02   6.626518e+01
   5.983076e+01   1.848100e+02
  -1.178494e+02   1.792715e+02
  -2.256209e+02   5.614648e+01
  -1.965081e+02  -8.217080e+01
  -7.510730e+01  -1.394313e+02
   3.602290e+01  -1.113261e+02
   7.226674e+01  -6.516490e+01
   5.509804e+01  -5.883261e+01
   4.731961e+01  -8.036369e+01
   7.776280e+01  -6.828509e+01
   1.144983e+02   1.489488e+01
   1.003200e+02   1.313854e+02
   1.686195e+01   1.909420e+02
  -8.971803e+01   1.364306e+02
  -1.411948e+02   1.641591e+00
  -9.734043e+01  -1.130091e+02
   2.068049e+00  -1.300228e+02
   6.869132e+01  -5.982058e+01
   5.182844e+01   2.102449e+01
  -8.776380e+00   4.921067e+01
  -2.859415e+01   2.871535e+01
   2.113782e+01   7.201116e+00
   7.320094e+01   1.529953e+01
   4.206774e+01   3.645469e+01
  -6.726443e+01   3.311004e+01
  -1.511958e+02  -8.153609e+00
  -1.177536e+02  -6.161543e+01
   1.069899e+01  -8.544676e+01
   1.195682e+02  -5.773922e+01
   1.205477e+02   2.776702e+00
   3.278675e+01   4.805234e+01
  -5.242624e+01   3.880940e+01
  -6.754094e+01  -1.779949e+01
  -1.973894e+01  -6.803730e+01
   3.730838e+01  -6.091143e+01
   6.234846e+01  -3.085417e+00
   5.445659e+01   4.473107e+01
   4.099088e+01   3.743871e+01
   4.388665e+01   1.885882e-02
   5.620822e+01   1.025012e+00
   4.315556e+01   6.560170e+01
  -2.126953e+01   1.343003e+02
  -1.131998e+02   1.237682e+02
  -1.614137e+02   2.375874e+01
  -1.122630e+02  -8.520620e+01
   2.840536e+00  -1.146950e+02
   8.309111e+01  -5.917073e+01
   5.435123e+01   8.224445e+00
  -4.730645e+01   1.605152e+01
  -1.088706e+02  -3.526464e+01
  -5.567045e+01  -8.732203e+01
   7.073487e+01  -8.660959e+01
   1.549911e+02  -3.075375e+01
   1.255111e+02   3.773639e+01
   2.091399e+01   6.898524e+01
  -5.487656e+01   4.447929e+01
  -3.795426e+01  -7.463443e+00
   3.763189e+01  -2.901828e+01
   8.077496e+01   1.652301e+01
   3.610846e+01   9.915725e+01
  -6.299886e+01   1.341374e+02
  -1.288029e+02   6.260633e+01
  -1.050617e+02  -7.404373e+01
  -1.470165e+01  -1.584953e+02
   6.711533e+01  -1.137364e+02
   8.439760e+01   1.341610e+01
   4.115823e+01   1.006327e+02
  -1.585894e+01   8.192219e+01
  -4.334573e+01   9.101439e+00
  -3.335084e+01  -2.583327e+01
  -1.087952e+01  -3.590629e+00
  -7.815699e+00   1.367583e+01
  -3.053793e+01  -2.176915e+01
  -4.845502e+01  -7.723190e+01
  -2.097509e+01  -8.627601e+01
   5.148449e+01  -3.380369e+01
   1.123272e+02   3.065204e+01
   9.913055e+01   5.818701e+01
   1.557851e+01   4.695319e+01
  -6.373404e+01   2.368000e+01
  -7.082769e+01   3.645485e+00
  -1.700593e+01  -1.161199e+01
   2.628164e+01  -1.645961e+01
   1.698214e+01  -6.895521e+00
  -1.084291e+01   4.587945e+00
   1.357523e+00   1.859847e+00
   5.382383e+01  -4.543430e+00
   7.964316e+01   1.706669e+01
   2.363600e+01   6.972932e+01
  -8.612819e+01   1.024315e+02
  -1.593665e+02   6.006517e+01
  -1.324755e+02  -4.513154e+01
  -2.966726e+01  -1.320763e+02
   6.706485e+01  -1.318462e+02
   9.713912e+01  -5.789527e+01
   6.609531e+01   1.490759e+01
   2.261286e+01   3.266673e+01
   4.604046e+00   1.241137e+01
   1.279282e+01   8.443035e+00
   2.321801e+01   4.208170e+01
   1.237605e+01   7.628769e+01
  -2.411063e+01   5.983666e+01
  -6.394302e+01  -1.133571e+01
  -6.832771e+01  -8.257075e+01
  -1.630662e+01  -9.207430e+01
   6.004139e+01  -3.058953e+01
   9.058398e+01   4.987562e+01
   3.743191e+01   8.621783e+01
  -5.265811e+01   5.772384e+01
  -8.931769e+01  -4.502475e+00
  -4.003826e+01  -5.122843e+01
   3.013904e+01  -5.481886e+01
   3.673617e+01  -2.405091e+01
  -2.004860e+01   7.461279e+00
  -5.755160e+01   8.406645e+00
  -1.650225e+01  -2.353100e+01
   6.599833e+01  -5.399737e+01
   1.030676e+02  -4.173460e+01
   6.117839e+01   1.593202e+01
  -1.180132e+01   7.112618e+01
  -5.127907e+01   7.028096e+01
  -4.058066e+01   1.301800e+01
  -7.464245e+00  -4.293289e+01
   1.963557e+01  -4.300799e+01
   3.126735e+01   5.620964e+00
   2.459113e+01   4.559813e+01
   1.899863e-01   3.592064e+01
  -2.767527e+01  -3.745873e+00
  -3.543061e+01  -2.375982e+01
  -1.749234e+01  -4.740236e+00
   3.968873e+00   2.028872e+01
   4.662296e+00   1.144911e+01
  -7.574027e+00  -2.682261e+01
  -3.936973e+00  -4.928227e+01
   2.237875e+01  -2.403961e+01
   4.013758e+01   2.693374e+01
   1.717500e+01   5.122730e+01
  -3.279932e+01   2.407636e+01
  -5.597554e+01  -2.530590e+01
  -1.864253e+01  -4.906137e+01
   4.912540e+01  -3.016532e+01
   8.035530e+01   8.432489e+00
   4.266441e+01   3.574303e+01
  -2.505027e+01   3.976633e+01
  -5.576752e+01   2.585520e+01
  -2.609907e+01   5.913915e+00
   2.101168e+01  -6.123556e+00
   2.769137e+01   1.039193e+00
  -1.488776e+01   1.953381e+01
  -5.921285e+01   1.959613e+01
