
 $NMID
 id='ANONYMOUS ', fmtdat='(2E16.6)'
 volume=1.0
 tramp=1.0
 $END
   2.166239e+03   2.656987e+02
   1.601372e+03   6.624868e+02
   2.620079e+02   1.484374e+03
  -6.553085e+02   9.288508e+02
  -8.449757e+02   3.906318e+02
  -1.640681e+02  -2.311652e+01
   2.279441e+02  -1.035442e+02
   2.579441e+02   3.437744e+02
  -2.152599e+02   4.155678e+02
  -4.494530e+02   2.010439e+02
  -2.528488e+02  -3.557986e+02
  -7.450315e+01  -4.494198e+02
   1.590920e+02  -1.383563e+02
   2.119335e+02   2.992036e+02
  -5.973079e+01   4.268599e+02
  -2.235710e+02   1.158166e+02
  -2.308232e+02  -3.565881e+02
   3.874716e+01  -5.493854e+02
   3.321161e+02  -2.583165e+02
   3.660747e+02   1.002544e+02
   9.789927e+01   2.691519e+02
  -8.128304e+01   1.600718e+02
  -5.675628e+01   9.150708e+01
   1.274651e+02   1.228893e+02
   1.630988e+02   2.351213e+02
  -4.115270e+01   2.339309e+02
  -3.455295e+02   6.378131e+01
  -4.206318e+02  -1.561949e+02
  -1.499710e+02  -1.952358e+02
   1.829394e+02  -7.304445e+01
   3.147791e+02   9.314468e+01
   1.219639e+02   2.115890e+02
  -1.729603e+02   2.065779e+02
  -3.002732e+02   1.021994e+02
  -2.069639e+02  -8.008861e+01
  -5.348262e+01  -1.845568e+02
  -3.097341e+01  -1.301344e+02
  -9.433770e+01   1.419446e+01
  -1.352205e+02   6.744146e+01
  -1.014528e+02  -1.002556e+02
   2.338314e+01  -2.962012e+02
   1.443382e+02  -2.787233e+02
   1.689509e+02  -1.579748e+01
   6.481254e+01   1.596183e+02
  -5.398072e+01   6.306709e+01
  -6.639314e+01  -1.738943e+02
   8.074517e+01  -2.183697e+02
   2.741760e+02  -1.469942e-01
   3.136509e+02   2.627239e+02
   1.083613e+02   3.257029e+02
  -1.887440e+02   1.632605e+02
  -3.545471e+02  -3.722896e+01
  -2.576086e+02  -1.362532e+02
  -3.102363e+00  -1.342638e+02
   1.753757e+02  -8.721105e+01
   1.640612e+02  -3.514881e+01
   3.984100e+01  -1.512802e+00
  -2.062522e+01   3.856255e-01
   4.954447e+01  -8.311812e+00
   1.402471e+02   2.831158e+01
   9.439401e+01   1.194710e+02
  -9.571692e+01   1.812932e+02
  -2.568605e+02   1.111890e+02
  -2.151725e+02  -8.273216e+01
   1.142336e+01  -2.592840e+02
   2.265415e+02  -2.697252e+02
   2.666108e+02  -1.022906e+02
   1.554486e+02   1.123481e+02
   4.048456e+01   2.303216e+02
   8.384534e+00   2.183799e+02
   1.139796e+01   1.529656e+02
  -3.595318e+01   1.102644e+02
  -1.326256e+02   8.242140e+01
  -1.947020e+02   1.541285e+01
  -1.574462e+02  -9.627456e+01
  -4.626448e+01  -1.700996e+02
   6.744540e+01  -1.208571e+02
   1.212580e+02   3.383571e+01
   8.214533e+01   1.699591e+02
  -3.497910e+01   1.715300e+02
  -1.693051e+02   3.679655e+01
  -2.158722e+02  -1.259999e+02
  -1.263358e+02  -2.052522e+02
   2.121630e+01  -1.867296e+02
   1.053217e+02  -1.242739e+02
   1.086450e+02  -8.396391e+01
   1.272534e+02  -6.187522e+01
   2.216417e+02  -1.998863e+01
   3.051797e+02   8.469396e+01
   2.283374e+02   2.258588e+02
  -2.633505e+01   3.210519e+02
  -2.837531e+02   2.850716e+02
  -3.418288e+02   1.190119e+02
  -1.927452e+02  -7.204330e+01
  -5.199384e+00  -1.677877e+02
   5.818953e+01  -1.260241e+02
  -8.628972e+00  -2.716238e+01
  -8.510267e+01   1.475798e+01
  -7.968773e+01  -3.115065e+01
  -1.768095e+00  -8.661622e+01
   6.679178e+01  -5.937162e+01
   6.029490e+01   3.208888e+01
  -1.876473e+01   7.601236e+01
  -1.055867e+02  -7.486630e+00
  -1.087006e+02  -1.664033e+02
   8.800843e+00  -2.481653e+02
   1.836548e+02  -1.578615e+02
   2.773050e+02   4.553249e+01
   2.072121e+02   2.016468e+02
   2.964392e+01   2.065966e+02
  -1.045084e+02   9.635089e+01
  -1.027860e+02  -3.386447e+00
  -1.377591e+01  -9.659458e+00
   3.732025e+01   4.883912e+01
  -9.356614e+00   8.037275e+01
  -8.834245e+01   4.157829e+01
  -9.566697e+01  -2.152542e+01
  -1.471491e+01  -3.479455e+01
   6.043064e+01   1.727850e+01
   2.546356e+01   7.489567e+01
  -1.114570e+02   6.706374e+01
  -2.229763e+02  -1.961019e+01
  -1.860311e+02  -1.323067e+02
  -1.119041e+01  -1.932323e+02
   1.597259e+02  -1.596509e+02
   1.924253e+02  -5.682821e+01
   8.859425e+01   3.529143e+01
  -2.680213e+01   4.812423e+01
  -4.024687e+01  -9.060043e+00
   4.646066e+01  -5.352254e+01
   1.332103e+02  -1.641610e+01
   1.291580e+02   7.693678e+01
   3.566082e+01   1.316970e+02
  -6.310374e+01   9.266756e+01
  -8.433547e+01   9.120432e+00
  -2.435893e+01  -2.422368e+01
   3.669144e+01   2.407499e+01
   1.669933e+01   8.980157e+01
  -8.027085e+01   8.890065e+01
  -1.596687e+02   3.994542e+00
  -1.306008e+02  -1.021926e+02
  -4.524344e+00  -1.485700e+02
   1.105475e+02  -1.034639e+02
   1.205128e+02  -8.169600e+00
   3.709258e+01   6.145808e+01
  -4.277135e+01   6.068082e+01
  -4.589963e+01   1.327354e+01
   5.665921e+00  -1.804028e+01
   3.270132e+01  -4.846463e-01
  -5.857255e+00   2.809767e+01
  -7.065705e+01   7.837821e+00
  -8.278225e+01  -6.980722e+01
  -6.910729e+00  -1.359774e+02
   1.091854e+02  -1.136969e+02
   1.742233e+02  -6.598224e-01
   1.342574e+02   1.218013e+02
   2.330726e+01   1.652716e+02
  -7.253426e+01   1.122074e+02
  -9.204407e+01   2.161262e+01
  -5.421256e+01  -3.005866e+01
  -2.529003e+01  -1.959171e+01
  -3.981504e+01   1.141123e+01
  -6.694378e+01   5.419625e+00
  -4.787604e+01  -4.464283e+01
   2.636775e+01  -8.308724e+01
   9.585880e+01  -5.320048e+01
   8.708266e+01   3.579449e+01
  -1.303820e+01   1.020060e+02
  -1.265349e+02   6.687475e+01
  -1.529867e+02  -5.439380e+01
  -5.461615e+01  -1.603618e+02
   9.842797e+01  -1.575166e+02
   1.947280e+02  -5.095239e+01
   1.717981e+02   7.070259e+01
   6.783074e+01   1.220904e+02
  -2.945013e+01   9.692811e+01
  -6.275582e+01   5.546090e+01
  -4.785546e+01   4.991852e+01
  -4.065960e+01   6.927169e+01
  -6.637830e+01   6.051603e+01
  -9.825237e+01  -1.001674e+01
  -8.794340e+01  -1.105613e+02
  -1.795663e+01  -1.639729e+02
   7.373142e+01  -1.202669e+02
   1.203618e+02  -5.478131e+00
   8.556103e+01   9.453746e+01
   1.260323e+00   1.114155e+02
  -5.727803e+01   5.152592e+01
  -4.476765e+01  -1.860264e+01
   6.995713e+00  -4.286755e+01
   2.480293e+01  -2.404978e+01
  -1.734218e+01  -4.801656e+00
  -6.298331e+01  -1.242957e+01
  -3.735655e+01  -3.193682e+01
   5.660858e+01  -2.987803e+01
   1.300133e+02   5.505527e+00
   1.023269e+02   5.180435e+01
  -8.232254e+00   7.280168e+01
  -1.026043e+02   5.022808e+01
  -1.038498e+02  -1.049780e+00
  -2.840992e+01  -4.046636e+01
   4.469452e+01  -3.405787e+01
   5.721382e+01   1.361520e+01
   1.649240e+01   5.758401e+01
  -3.176658e+01   5.293731e+01
  -5.315264e+01   3.190996e+00
  -4.772512e+01  -3.942476e+01
  -3.744189e+01  -3.426173e+01
  -3.946109e+01  -1.442626e+00
  -4.813257e+01  -1.173270e+00
  -3.577330e+01  -5.684756e+01
   1.895077e+01  -1.170621e+02
   9.719074e+01  -1.091648e+02
   1.388750e+02  -2.258698e+01
   9.781891e+01   7.256345e+01
  -8.635339e-01   9.949039e+01
  -7.018193e+01   5.146624e+01
  -4.573567e+01  -7.644565e+00
   4.259813e+01  -1.530649e+01
   9.603272e+01   3.039243e+01
   4.890052e+01   7.740633e+01
  -6.173208e+01   7.736358e+01
  -1.357917e+02   2.746403e+01
  -1.101515e+02  -3.384336e+01
  -1.866489e+01  -6.149913e+01
   4.875287e+01  -3.953553e+01
   3.529518e+01   6.454853e+00
  -3.075574e+01   2.560270e+01
  -6.994422e+01  -1.356112e+01
  -3.250637e+01  -8.502559e+01
   5.375448e+01  -1.161235e+02
   1.126857e+02  -5.540141e+01
   9.332663e+01   6.335206e+01
   1.485169e+01   1.389031e+02
  -5.740263e+01   1.016610e+02
  -7.369383e+01  -9.385647e+00
  -3.684258e+01  -8.698990e+01
   1.279861e+01  -7.147242e+01
   3.724175e+01  -7.285310e+00
   2.850078e+01   2.402877e+01
   8.156149e+00   4.330468e+00
   5.053363e+00  -1.204769e+01
   2.563396e+01   1.752837e+01
   4.297120e+01   6.552898e+01
   1.988968e+01   7.391639e+01
  -4.398082e+01   2.944786e+01
  -9.819136e+01  -2.533658e+01
  -8.708699e+01  -4.869058e+01
  -1.402678e+01  -3.972270e+01
   5.527000e+01  -2.068633e+01
   6.130756e+01  -3.857465e+00
   1.447017e+01   9.397160e+00
  -2.322967e+01   1.379508e+01
  -1.532185e+01   5.522181e+00
   8.823053e+00  -4.287838e+00
  -1.045575e+00  -1.535904e+00
  -4.540565e+01   4.105179e+00
  -6.732909e+01  -1.476914e+01
  -1.968772e+01  -6.003666e+01
   7.403466e+01  -8.768742e+01
   1.367782e+02  -5.057329e+01
   1.137588e+02   3.988746e+01
   2.486578e+01   1.141445e+02
  -5.926534e+01   1.134434e+02
  -8.534514e+01   4.931187e+01
  -5.753934e+01  -1.355890e+01
  -1.849772e+01  -2.890910e+01
  -2.478378e+00  -1.139233e+01
  -1.081571e+01  -7.764354e+00
  -2.110800e+01  -3.663188e+01
  -1.161165e+01  -6.625280e+01
   2.125422e+01  -5.192203e+01
   5.686860e+01   9.901975e+00
   6.030716e+01   7.189782e+01
   1.428340e+01   8.018770e+01
  -5.243281e+01   2.675075e+01
  -7.884676e+01  -4.336176e+01
  -3.272599e+01  -7.501381e+01
   4.524284e+01  -4.996358e+01
   7.691366e+01   4.224005e+00
   3.450368e+01   4.461270e+01
  -2.591257e+01   4.706648e+01
  -3.135166e+01   2.004353e+01
   1.775122e+01  -7.224669e+00
   5.028480e+01  -7.611238e+00
   1.478740e+01   2.056844e+01
  -5.655878e+01   4.718470e+01
  -8.895332e+01   3.670039e+01
  -5.318227e+01  -1.324444e+01
   1.006067e+01  -6.112084e+01
   4.445773e+01  -6.039470e+01
   3.538254e+01  -1.104405e+01
   6.174527e+00   3.730015e+01
  -1.821858e+01   3.711262e+01
  -2.834391e+01  -5.226820e+00
  -2.171093e+01  -3.978193e+01
   5.164823e-01  -3.176726e+01
   2.479435e+01   2.448953e+00
   3.145543e+01   1.963905e+01
   1.565542e+01   3.651117e+00
  -2.514325e+00  -1.757856e+01
  -3.154117e+00  -9.721170e+00
   7.178822e+00   2.355705e+01
   3.728923e+00   4.321489e+01
  -1.905302e+01   2.168476e+01
  -3.402385e+01  -2.242463e+01
  -1.438133e+01  -4.380168e+01
   2.856859e+01  -2.069274e+01
   4.837033e+01   2.213381e+01
   1.595057e+01   4.323390e+01
  -4.300399e+01   2.748177e+01
  -7.025009e+01  -6.358231e+00
  -3.759114e+01  -3.083021e+01
   2.160145e+01  -3.499005e+01
   4.849713e+01  -2.311924e+01
   2.249482e+01  -5.364254e+00
  -1.875772e+01   5.452568e+00
  -2.419663e+01  -9.090043e-01
   1.334745e+01  -1.733006e+01
   5.216910e+01  -1.740674e+01
