
 $NMID
 id='ANONYMOUS ', fmtdat='(2E16.6)'
 volume=1.0
 tramp=1.0
 $END
  -1.061105e+03  -1.369192e+02
  -8.029551e+02  -4.606242e+02
  -7.978382e+01  -7.469473e+02
   2.800139e+02  -3.819967e+02
   4.036573e+02  -9.025243e+01
   7.153576e+01   1.888781e+01
  -9.965933e+01  -3.848157e+01
  -4.382998e+01  -1.921201e+02
   1.282278e+02  -1.802488e+02
   3.265087e+02  -2.922876e+01
   2.197276e+02   2.447635e+02
  -1.924808e+01   2.752335e+02
  -1.068531e+02   5.759087e+00
  -9.217873e+01  -1.671306e+02
   2.409450e+01  -1.702200e+02
   1.548800e+02  -4.898283e+01
   8.124771e+01   1.385426e+02
  -4.699748e+01   2.699000e+02
  -1.298097e+02   1.224779e+02
  -1.762094e+02  -7.224949e+01
  -8.082546e+01  -1.697722e+02
   2.072235e+01  -1.391800e+02
   2.684849e+01  -6.197829e+01
  -9.119509e+01  -6.793909e+01
  -1.199983e+02  -7.945948e+01
   1.400814e+00  -1.447388e+02
   1.666883e+02  -7.778208e+01
   2.531728e+02   1.374983e+01
   8.692103e+01   9.359273e+01
  -1.220881e+02   9.202803e+01
  -2.061420e+02  -3.793049e+01
  -8.484414e+01  -1.216489e+02
   1.027442e+02  -1.610476e+02
   1.865336e+02  -6.516970e+01
   1.517527e+02   4.342035e+01
   3.679828e+01   1.335087e+02
   1.839754e+00   9.595653e+01
   1.741631e+01  -2.949630e+01
   6.997050e+01  -4.973631e+01
   7.336078e+01   4.616369e+01
   5.883576e+00   2.022212e+02
  -6.854130e+01   1.876364e+02
  -1.025787e+02   2.836153e+01
  -4.439725e+01  -9.772787e+01
   4.672327e+01  -4.473788e+01
   7.056667e+01   1.084663e+02
  -4.431608e+01   1.620633e+02
  -1.866992e+02   5.246915e+01
  -2.189813e+02  -1.272744e+02
  -9.737603e+01  -2.036760e+02
   1.040925e+02  -1.336877e+02
   2.163043e+02  -5.649938e+00
   1.527473e+02   7.856519e+01
  -3.424512e+00   8.631068e+01
  -1.089084e+02   4.484795e+01
  -9.146118e+01   3.475456e+00
  -1.226838e+01  -4.673909e+00
   1.617380e+01   1.369465e+01
  -3.679123e+01   2.098085e+01
  -9.350268e+01  -1.141509e+01
  -6.507383e+01  -7.380351e+01
   4.373628e+01  -1.171031e+02
   1.358381e+02  -8.847806e+01
   1.235500e+02   2.017302e+01
   1.294389e+01   1.445872e+02
  -1.066221e+02   1.829269e+02
  -1.493370e+02   9.191248e+01
  -1.092449e+02  -5.870073e+01
  -4.658706e+01  -1.501894e+02
  -1.520090e+01  -1.355443e+02
  -1.058808e+01  -7.701532e+01
   7.295782e+00  -5.265749e+01
   5.490273e+01  -5.932772e+01
   1.015043e+02  -3.564270e+01
   1.035562e+02   3.790850e+01
   5.062503e+01   1.004234e+02
  -2.650763e+01   8.151144e+01
  -8.084742e+01  -9.537616e+00
  -7.132092e+01  -9.462914e+01
   5.684794e+00  -1.046503e+02
   9.650560e+01  -3.513961e+01
   1.332436e+02   5.813870e+01
   8.612167e+01   1.072927e+02
  -1.643659e+00   1.038201e+02
  -5.370940e+01   7.386739e+01
  -5.931277e+01   5.153273e+01
  -7.014929e+01   4.455129e+01
  -1.264479e+02   2.844862e+01
  -1.737850e+02  -2.477931e+01
  -1.429363e+02  -1.126747e+02
  -1.229668e+01  -1.808099e+02
   1.293014e+02  -1.837026e+02
   1.811892e+02  -9.660342e+01
   1.254551e+02   2.371671e+01
   2.687862e+01   9.931633e+01
  -1.995123e+01   8.635541e+01
  -7.634550e-01   2.168818e+01
   4.275879e+01  -1.415848e+01
   4.629346e+01   1.224304e+01
   6.501231e+00   5.724672e+01
  -3.971037e+01   4.729205e+01
  -4.467517e+01  -1.284911e+01
   3.682824e+00  -5.176450e+01
   5.770902e+01  -8.046317e+00
   6.695465e+01   8.782080e+01
   5.022519e+00   1.418205e+02
  -9.045943e+01   9.884375e+01
  -1.516541e+02  -1.185339e+01
  -1.296602e+02  -1.034135e+02
  -3.997722e+01  -1.172478e+02
   4.539641e+01  -6.412898e+01
   6.306538e+01  -8.531765e+00
   1.855422e+01   1.971626e+00
  -2.040281e+01  -2.482090e+01
  -3.618630e+00  -4.568397e+01
   4.438795e+01  -3.106318e+01
   5.822401e+01   3.706878e+00
   1.616738e+01   1.852750e+01
  -3.139757e+01  -2.380317e+00
  -1.907617e+01  -3.539918e+01
   5.482787e+01  -4.187771e+01
   1.213646e+02  -4.047384e+00
   1.097918e+02   5.929958e+01
   1.995655e+01   1.059776e+02
  -7.654773e+01   1.006150e+02
  -1.046264e+02   4.479330e+01
  -5.578403e+01  -1.670421e+01
   1.015322e+01  -3.297947e+01
   2.611843e+01   8.778958e-01
  -1.798785e+01   3.551708e+01
  -7.271412e+01   2.092484e+01
  -8.043402e+01  -3.470874e+01
  -3.224056e+01  -7.451639e+01
   2.873444e+01  -6.029555e+01
   4.991514e+01  -1.426773e+01
   2.092082e+01   1.132163e+01
  -1.727279e+01  -7.119015e+00
  -1.361876e+01  -4.283426e+01
   3.712666e+01  -5.111520e+01
   8.571429e+01  -1.356153e+01
   7.728540e+01   4.649766e+01
   1.123014e+01   8.424153e+01
  -5.670658e+01   6.932412e+01
  -6.988041e+01   1.393413e+01
  -2.863507e+01  -3.614649e+01
   1.815274e+01  -4.372839e+01
   2.696895e+01  -1.663334e+01
   2.757403e+00   7.504547e+00
  -1.400735e+01   3.569793e+00
   3.706423e+00  -1.219160e+01
   3.936490e+01  -4.688190e+00
   5.047327e+01   3.528082e+01
   1.302968e+01   7.547161e+01
  -5.384225e+01   7.062761e+01
  -9.939543e+01   1.377058e+01
  -8.635600e+01  -5.865475e+01
  -2.640563e+01  -9.173705e+01
   3.324283e+01  -6.820147e+01
   5.133578e+01  -1.796769e+01
   3.401546e+01   1.413625e+01
   1.559161e+01   9.352349e+00
   2.108624e+01  -8.360379e+00
   3.455924e+01  -7.040614e+00
   2.695414e+01   2.241293e+01
  -1.102481e+01   4.623164e+01
  -5.101904e+01   3.277290e+01
  -4.860162e+01  -1.691063e+01
   3.116307e+00  -5.839302e+01
   7.109056e+01  -4.520422e+01
   9.392532e+01   1.980572e+01
   4.550350e+01   8.693336e+01
  -4.338060e+01   9.871653e+01
  -1.079976e+02   4.666251e+01
  -1.050215e+02  -2.490098e+01
  -4.909815e+01  -6.286756e+01
   9.837579e+00  -5.778974e+01
   3.224397e+01  -3.841400e+01
   2.475090e+01  -3.444580e+01
   1.893714e+01  -4.452124e+01
   3.387015e+01  -3.839487e+01
   5.745104e+01   3.257056e+00
   5.909615e+01   6.150894e+01
   2.245792e+01   9.393893e+01
  -3.453369e+01   7.270741e+01
  -7.084627e+01   1.119709e+01
  -5.834346e+01  -4.591300e+01
  -1.090297e+01  -6.175688e+01
   2.714017e+01  -3.545600e+01
   2.611732e+01   2.698746e+00
   5.121439e-01   2.214397e+01
  -9.363680e+00   1.699193e+01
   1.253246e+01   4.876907e+00
   3.694136e+01   3.718704e+00
   2.278107e+01   1.437840e+01
  -3.067743e+01   2.083189e+01
  -7.523740e+01   8.672896e+00
  -6.400957e+01  -1.926577e+01
  -2.764107e+00  -4.177317e+01
   5.437755e+01  -3.832062e+01
   6.003525e+01  -9.439057e+00
   1.916988e+01   1.979935e+01
  -2.401656e+01   2.217275e+01
  -3.333632e+01  -4.253816e+00
  -1.104353e+01  -3.180324e+01
   1.626159e+01  -3.146414e+01
   2.935930e+01  -4.265032e+00
   2.824116e+01   1.915460e+01
   2.337176e+01   1.551206e+01
   2.398932e+01  -2.864713e+00
   2.807743e+01  -2.081424e+00
   2.310702e+01   3.141322e+01
  -3.391259e+00   6.877470e+01
  -4.652581e+01   6.829782e+01
  -7.606112e+01   2.181558e+01
  -6.115698e+01  -3.448343e+01
  -7.720866e+00  -5.586205e+01
   3.600061e+01  -3.362237e+01
   2.746286e+01   1.676501e+00
  -2.280671e+01   1.229932e+01
  -5.865859e+01  -9.693299e+00
  -3.598576e+01  -4.097636e+01
   2.826592e+01  -5.107621e+01
   7.623762e+01  -2.915271e+01
   6.718535e+01   8.482987e+00
   1.732208e+01   3.351075e+01
  -2.252853e+01   2.790705e+01
  -1.827773e+01   1.606203e+00
   1.679828e+01  -1.461568e+01
   3.960766e+01   4.225052e+00
   2.141173e+01   4.703990e+01
  -2.561651e+01   6.984501e+01
  -6.159347e+01   3.846044e+01
  -5.714019e+01  -3.098438e+01
  -1.737690e+01  -7.926205e+01
   2.612215e+01  -6.318553e+01
   4.380003e+01  -1.029837e+00
   2.961203e+01   4.682817e+01
   3.462132e-01   4.342907e+01
  -2.017525e+01   9.942641e+00
  -2.007071e+01  -8.691984e+00
  -7.584747e+00  -7.976423e-02
  -3.225860e+00   7.658290e+00
  -1.609466e+01  -9.029373e+00
  -2.975745e+01  -3.593072e+01
  -1.760677e+01  -4.198447e+01
   2.284412e+01  -1.948787e+01
   5.858442e+01   9.267315e+00
   5.318005e+01   2.276515e+01
   8.807127e+00   2.107355e+01
  -3.251470e+01   1.433989e+01
  -3.501010e+01   6.091565e+00
  -7.206697e+00  -4.340950e+00
   1.320487e+01  -1.047495e+01
   6.992759e+00  -6.117952e+00
  -6.369621e+00   1.808019e+00
   1.885693e+00   9.410034e-01
   2.937044e+01  -4.802482e+00
   4.254401e+01   4.312661e+00
   1.559282e+01   3.393359e+01
  -3.806472e+01   5.738158e+01
  -7.622401e+01   4.094298e+01
  -6.862713e+01  -1.348797e+01
  -2.310866e+01  -6.367239e+01
   2.451903e+01  -6.992336e+01
   4.404347e+01  -3.480856e+01
   3.293949e+01   3.614980e+00
   1.195315e+01   1.498850e+01
   1.885941e+00   5.229156e+00
   7.135038e+00   2.136392e+00
   1.582453e+01   1.855786e+01
   1.228640e+01   3.758008e+01
  -8.600556e+00   3.228082e+01
  -3.383626e+01  -1.459429e+00
  -3.958146e+01  -3.781085e+01
  -1.291504e+01  -4.539928e+01
   2.921061e+01  -1.799874e+01
   4.868215e+01   2.076875e+01
   2.380672e+01   4.098139e+01
  -2.283442e+01   3.132056e+01
  -4.485124e+01   3.351407e+00
  -2.339930e+01  -2.174826e+01
   1.079818e+01  -2.793797e+01
   1.596894e+01  -1.413433e+01
  -9.921944e+00   4.578969e+00
  -2.804050e+01   7.985498e+00
  -9.547646e+00  -1.002522e+01
   2.861944e+01  -3.091420e+01
   4.708885e+01  -2.778833e+01
   2.954009e+01   3.449251e+00
  -2.386448e+00   3.528511e+01
  -2.074955e+01   3.651001e+01
  -1.769197e+01   7.299277e+00
  -4.318201e+00  -2.119009e+01
   8.500829e+00  -2.120123e+01
   1.613391e+01   2.155536e+00
   1.408102e+01   2.126024e+01
   1.520568e+00   1.733151e+01
  -1.384033e+01  -2.902326e-02
  -1.836926e+01  -8.287503e+00
  -8.912999e+00  -2.408516e-01
   2.291792e+00   9.446792e+00
   2.375649e+00   3.811507e+00
  -4.533730e+00  -1.415551e+01
  -3.303742e+00  -2.429495e+01
   1.033041e+01  -1.183820e+01
   2.081573e+01   1.305032e+01
   1.056273e+01   2.564096e+01
  -1.531629e+01   1.372451e+01
  -2.961376e+01  -1.010553e+01
  -1.283382e+01  -2.394091e+01
   2.192121e+01  -1.806292e+01
   4.036089e+01  -6.615636e-01
   2.374430e+01   1.488114e+01
  -1.010522e+01   2.077995e+01
  -2.630387e+01   1.609365e+01
  -1.184123e+01   5.012158e+00
   1.164466e+01  -3.295788e+00
   1.421680e+01   2.388506e-01
  -8.251133e+00   1.177178e+01
  -3.147696e+01   1.348798e+01
