
 $NMID
 id='ANONYMOUS ', fmtdat='(2E16.6)'
 volume=1.0
 tramp=1.0
 $END
  -2.684125e+03  -2.180154e+01
  -2.123858e+03  -1.390648e+03
   5.439443e+01  -1.851426e+03
   1.245232e+03  -1.117457e+03
   7.677836e+02  -1.263408e+02
  -3.932419e+01   5.224277e+01
  -3.646938e+02  -1.480561e+01
  -9.860417e+01  -5.831825e+02
   5.295103e+02  -6.315216e+02
   6.589823e+02  -9.066829e+01
   4.528617e+02   3.632525e+02
   6.180466e+00   5.924735e+02
  -2.538808e+02   1.433581e+02
  -2.334849e+02  -3.756476e+02
   8.741871e+01  -5.561648e+02
   3.911959e+02  -2.507752e+01
   3.232782e+02   4.787823e+02
  -1.087610e+01   6.154017e+02
  -4.515617e+02   3.462874e+02
  -4.765838e+02  -1.151275e+02
  -1.738760e+02  -3.460012e+02
   8.703350e+01  -2.332692e+02
   1.052519e+02  -8.099842e+01
  -1.423121e+02  -7.349493e+01
  -2.980657e+02  -1.851052e+02
  -5.925054e+01  -2.867991e+02
   3.874758e+02  -1.961680e+02
   6.238892e+02   5.016309e+01
   2.708023e+02   2.576748e+02
  -2.540735e+02   2.186831e+02
  -4.915483e+02  -4.653719e+01
  -2.066177e+02  -2.958606e+02
   2.255911e+02  -3.605830e+02
   4.103151e+02  -1.717294e+02
   3.322374e+02   1.290493e+02
   1.018322e+02   3.213009e+02
  -1.301049e+01   2.152932e+02
  -3.373403e+00  -9.033829e+01
   1.372745e+02  -1.986705e+02
   2.158522e+02   9.286969e+01
   8.750787e+01   4.932751e+02
  -1.977253e+02   4.766436e+02
  -3.430508e+02   3.593961e+01
  -1.571600e+02  -3.055266e+02
   1.359378e+02  -1.606890e+02
   1.904449e+02   2.568461e+02
  -9.153711e+01   3.970655e+02
  -4.509485e+02   7.625500e+01
  -5.042080e+02  -3.534229e+02
  -1.777428e+02  -4.757461e+02
   2.715666e+02  -2.683555e+02
   4.996030e+02   4.200335e+01
   3.416696e+02   2.233775e+02
  -2.923638e+01   2.182253e+02
  -2.821510e+02   9.348576e+01
  -2.256483e+02  -1.968522e+01
  -1.267283e+01  -2.867142e+01
   6.351645e+01   3.954914e+01
  -8.092645e+01   6.466913e+01
  -2.330752e+02  -3.331106e+01
  -1.498901e+02  -1.872356e+02
   1.313680e+02  -2.514097e+02
   3.389754e+02  -1.434477e+02
   2.687362e+02   9.226012e+01
  -1.741746e+01   3.143542e+02
  -2.829993e+02   3.598454e+02
  -3.503219e+02   1.659371e+02
  -2.319141e+02  -1.461859e+02
  -7.296471e+01  -3.445997e+02
   5.554762e+00  -3.170609e+02
   1.129716e+01  -1.804084e+02
   4.233033e+01  -1.120090e+02
   1.435478e+02  -1.145847e+02
   2.406449e+02  -5.296206e+01
   2.279723e+02   1.118812e+02
   9.009162e+01   2.409241e+02
  -8.046429e+01   1.818893e+02
  -1.771848e+02  -3.275121e+01
  -1.376637e+02  -2.262839e+02
   3.100666e+01  -2.388622e+02
   2.321881e+02  -7.348849e+01
   3.128127e+02   1.532124e+02
   1.849756e+02   2.937475e+02
  -3.612509e+01   2.714929e+02
  -1.603939e+02   1.572978e+02
  -1.448035e+02   8.113675e+01
  -1.418916e+02   7.405650e+01
  -2.698719e+02   5.353106e+01
  -4.045269e+02  -7.272327e+01
  -3.228784e+02  -2.781767e+02
   6.396603e+00  -4.250738e+02
   3.525451e+02  -4.004147e+02
   4.554396e+02  -1.893546e+02
   2.853565e+02   7.796246e+01
   3.503227e+01   2.404117e+02
  -7.929033e+01   2.024912e+02
  -1.421247e+01   4.659447e+01
   1.068848e+02  -4.077449e+01
   1.288924e+02   2.487171e+01
   2.131938e+01   1.346784e+02
  -1.022410e+02   1.089784e+02
  -1.076088e+02  -3.913643e+01
   2.008569e+01  -1.234238e+02
   1.543632e+02  -3.706712e+00
   1.550927e+02   2.255174e+02
  -1.030839e+01   3.373569e+02
  -2.322340e+02   2.130957e+02
  -3.524902e+02  -5.116106e+01
  -2.802467e+02  -2.521345e+02
  -6.618265e+01  -2.690848e+02
   1.226591e+02  -1.401767e+02
   1.480073e+02  -7.775380e+00
   3.686575e+01   1.453425e+01
  -4.955523e+01  -5.618043e+01
  -9.859741e-01  -1.082476e+02
   1.155481e+02  -6.844897e+01
   1.414677e+02   1.767873e+01
   3.451582e+01   4.710165e+01
  -7.510965e+01  -1.053626e+01
  -3.725121e+01  -8.535859e+01
   1.403796e+02  -8.543086e+01
   2.899717e+02   1.255448e+01
   2.532743e+02   1.546151e+02
   3.762853e+01   2.509906e+02
  -1.899420e+02   2.313783e+02
  -2.547650e+02   1.012694e+02
  -1.348491e+02  -3.938002e+01
   2.633497e+01  -7.430351e+01
   6.295800e+01   5.566786e+00
  -4.773327e+01   8.055740e+01
  -1.765721e+02   3.728834e+01
  -1.845426e+02  -9.510938e+01
  -6.116329e+01  -1.790921e+02
   7.941037e+01  -1.321762e+02
   1.181328e+02  -1.942654e+01
   4.425247e+01   3.284223e+01
  -4.257179e+01  -2.044258e+01
  -3.013270e+01  -1.072484e+02
   9.206533e+01  -1.201995e+02
   2.072087e+02  -2.122619e+01
   1.834287e+02   1.237196e+02
   1.792668e+01   2.033544e+02
  -1.470788e+02   1.532084e+02
  -1.689633e+02   1.769473e+01
  -5.552174e+01  -8.975782e+01
   5.814520e+01  -9.321228e+01
   6.696053e+01  -2.482184e+01
   7.215903e-01   2.327743e+01
  -3.562792e+01   6.923478e+00
   1.053453e+01  -2.564149e+01
   8.943143e+01  -4.154865e-01
   1.051190e+02   9.273369e+01
   1.226402e+01   1.751650e+02
  -1.384233e+02   1.536206e+02
  -2.338388e+02   1.472384e+01
  -1.921772e+02  -1.514353e+02
  -4.495006e+01  -2.233340e+02
   9.148928e+01  -1.606994e+02
   1.243267e+02  -3.558843e+01
   7.621982e+01   4.114718e+01
   3.654945e+01   2.846087e+01
   5.467926e+01  -1.504815e+01
   8.557609e+01  -1.046973e+01
   5.680832e+01   5.497653e+01
  -3.626701e+01   1.067309e+02
  -1.210784e+02   7.268747e+01
  -1.099755e+02  -4.004985e+01
   1.140113e+01  -1.301633e+02
   1.598562e+02  -9.678912e+01
   2.067786e+02   5.602402e+01
   9.154979e+01   2.059303e+02
  -1.148299e+02   2.208514e+02
  -2.599786e+02   8.853757e+01
  -2.422303e+02  -7.943861e+01
  -1.019417e+02  -1.603052e+02
   3.463273e+01  -1.338994e+02
   8.343236e+01  -8.041747e+01
   6.610154e+01  -7.221842e+01
   5.411441e+01  -9.656513e+01
   8.591313e+01  -8.219273e+01
   1.291873e+02   1.444786e+01
   1.213092e+02   1.481571e+02
   3.370088e+01   2.206332e+02
  -9.164259e+01   1.657624e+02
  -1.654030e+02   1.572437e+01
  -1.281566e+02  -1.210257e+02
  -1.465841e+01  -1.527196e+02
   7.147709e+01  -8.056762e+01
   6.208270e+01   1.335562e+01
  -3.128675e+00   5.296753e+01
  -2.616481e+01   3.466011e+01
   2.792453e+01   9.544205e+00
   8.556468e+01   1.527902e+01
   5.114361e+01   3.878723e+01
  -7.269055e+01   4.060722e+01
  -1.731288e+02   8.533526e-01
  -1.432728e+02  -5.940047e+01
   9.285426e-01  -9.546162e+01
   1.332754e+02  -7.523347e+01
   1.439167e+02  -9.831563e+00
   4.442874e+01   4.772013e+01
  -5.855160e+01   4.576439e+01
  -7.803360e+01  -1.448067e+01
  -2.129998e+01  -7.281244e+01
   4.346595e+01  -6.841818e+01
   6.894811e+01  -5.864495e+00
   6.086456e+01   4.839017e+01
   5.105931e+01   4.121116e+01
   5.577130e+01  -4.171830e-01
   6.414766e+01  -7.541787e-01
   4.671065e+01   7.159768e+01
  -2.057646e+01   1.534813e+02
  -1.184919e+02   1.489155e+02
  -1.773616e+02   3.886323e+01
  -1.329504e+02  -8.896863e+01
  -7.111380e+00  -1.308493e+02
   8.901165e+01  -7.201135e+01
   6.211320e+01   7.036212e+00
  -5.573883e+01   2.126346e+01
  -1.314806e+02  -3.578018e+01
  -7.126949e+01  -1.006243e+02
   7.893551e+01  -1.080301e+02
   1.832760e+02  -4.783492e+01
   1.537241e+02   3.562079e+01
   3.231226e+01   8.191306e+01
  -6.105983e+01   6.092706e+01
  -4.801924e+01   1.635921e-02
   3.809655e+01  -3.185360e+01
   9.235906e+01   1.574111e+01
   4.517060e+01   1.117809e+02
  -6.999709e+01   1.564597e+02
  -1.510597e+02   7.670905e+01
  -1.277206e+02  -8.286470e+01
  -2.408652e+01  -1.860534e+02
   7.374398e+01  -1.391820e+02
   1.002057e+02   8.559803e+00
   5.621647e+01   1.157394e+02
  -1.034721e+01   9.976342e+01
  -5.051693e+01   1.519871e+01
  -4.588229e+01  -3.017809e+01
  -1.697888e+01  -6.919211e+00
  -5.105203e+00   1.575437e+01
  -3.030166e+01  -2.180687e+01
  -5.986789e+01  -8.639554e+01
  -3.530116e+01  -1.002628e+02
   5.359402e+01  -4.254358e+01
   1.349321e+02   3.016064e+01
   1.231271e+02   6.120760e+01
   1.997811e+01   5.056301e+01
  -7.753375e+01   2.885359e+01
  -8.347251e+01   9.262455e+00
  -1.648260e+01  -1.079691e+01
   3.345016e+01  -2.189532e+01
   1.891231e+01  -1.215594e+01
  -1.399275e+01   5.017719e+00
   3.409480e+00   4.620824e+00
   6.571767e+01  -4.547696e+00
   9.293751e+01   1.858110e+01
   2.541799e+01   8.165482e+01
  -1.011288e+02   1.235361e+02
  -1.846137e+02   7.411895e+01
  -1.557830e+02  -5.214974e+01
  -4.021482e+01  -1.567966e+02
   7.280052e+01  -1.573202e+02
   1.128055e+02  -7.071815e+01
   8.025649e+01   1.427647e+01
   2.758984e+01   3.586345e+01
   3.156346e+00   1.314396e+01
   1.435165e+01   8.058100e+00
   3.214390e+01   4.656384e+01
   2.186630e+01   8.802941e+01
  -2.505418e+01   7.168819e+01
  -7.782225e+01  -1.053772e+01
  -8.424167e+01  -9.587507e+01
  -1.989863e+01  -1.084805e+02
   7.260500e+01  -3.620142e+01
   1.083924e+02   5.822322e+01
   4.528630e+01   9.992923e+01
  -5.980915e+01   6.691430e+01
  -1.025614e+02  -2.843823e+00
  -4.711541e+01  -5.541088e+01
   3.142569e+01  -6.207114e+01
   3.838342e+01  -2.945383e+01
  -2.514738e+01   8.286970e+00
  -6.639352e+01   1.268935e+01
  -1.952535e+01  -2.587188e+01
   7.287495e+01  -6.762668e+01
   1.150704e+02  -5.706385e+01
   7.024044e+01   1.376282e+01
  -9.135889e+00   8.394956e+01
  -5.354559e+01   8.371923e+01
  -4.503457e+01   1.470279e+01
  -1.089545e+01  -5.093964e+01
   2.077859e+01  -4.915894e+01
   3.742269e+01   7.246861e+00
   3.113615e+01   5.083645e+01
   9.802100e-01   3.917402e+01
  -3.320772e+01  -3.476703e+00
  -4.198375e+01  -2.355851e+01
  -1.984355e+01  -4.113119e+00
   5.258445e+00   2.059042e+01
   6.619804e+00   9.686098e+00
  -6.258985e+00  -3.081969e+01
  -2.180513e+00  -5.290060e+01
   2.505214e+01  -2.379376e+01
   4.235342e+01   3.259735e+01
   1.607210e+01   5.902484e+01
  -3.826836e+01   2.772699e+01
  -6.413382e+01  -2.940150e+01
  -2.352081e+01  -5.870024e+01
   5.362370e+01  -3.883158e+01
   9.281995e+01   5.664893e+00
   5.332591e+01   3.957587e+01
  -2.518195e+01   4.699266e+01
  -6.331787e+01   3.230164e+01
  -2.938908e+01   8.817633e+00
   2.672515e+01  -5.373621e+00
   3.319101e+01   3.614396e+00
  -2.056488e+01   2.562468e+01
  -7.492826e+01   2.493357e+01
