
 $NMID
 id='ANONYMOUS ', fmtdat='(2E16.6)'
 volume=1.0
 tramp=1.0
 $END
   2.464571e+03   5.313253e+01
   1.870670e+03   1.527296e+03
  -6.074470e+01   1.861495e+03
  -1.009474e+03   8.980181e+02
  -6.224202e+02   7.254922e+01
   1.134397e+02  -5.232367e+01
   3.276836e+02   1.092359e+02
   1.610077e+02   6.020881e+02
  -4.352724e+02   5.927626e+02
  -6.263682e+02   6.796485e+01
  -3.435069e+02  -2.895484e+02
   8.858443e+01  -4.316629e+02
   2.574513e+02  -1.060787e+02
   2.105197e+02   3.245498e+02
  -1.225288e+02   4.524769e+02
  -3.322583e+02   1.048349e+02
  -2.819659e+02  -3.736904e+02
   4.060410e+01  -5.269127e+02
   3.709361e+02  -2.400403e+02
   3.918650e+02   1.178046e+02
   1.255744e+02   3.200829e+02
  -6.798470e+01   2.317783e+02
  -4.921344e+01   7.486174e+01
   1.531130e+02   8.089393e+01
   2.239723e+02   2.292916e+02
  -1.074427e+01   3.033698e+02
  -3.714368e+02   1.463699e+02
  -4.676425e+02  -1.080722e+02
  -1.827861e+02  -2.564212e+02
   2.530751e+02  -1.296064e+02
   3.971982e+02   8.457110e+01
   1.129716e+02   2.698940e+02
  -2.247986e+02   2.606033e+02
  -3.354049e+02   1.151572e+02
  -2.436294e+02  -1.252524e+02
  -7.944342e+01  -2.415724e+02
   6.297688e+00  -1.604577e+02
  -3.504481e+01   3.495567e+01
  -1.221513e+02   9.889006e+01
  -1.298618e+02  -1.088045e+02
   9.061026e+00  -3.657878e+02
   1.912067e+02  -3.392415e+02
   2.435023e+02  -1.173322e+01
   7.792881e+01   2.231604e+02
  -1.105092e+02   9.473478e+01
  -1.138555e+02  -2.202866e+02
   1.051979e+02  -2.946820e+02
   3.565134e+02  -2.987769e+01
   3.856412e+02   2.976190e+02
   1.281139e+02   3.880978e+02
  -2.245084e+02   2.106260e+02
  -4.023162e+02  -3.678025e+01
  -2.701087e+02  -1.752907e+02
   2.423803e+01  -1.648096e+02
   2.148557e+02  -6.854854e+01
   1.639604e+02   9.585081e+00
   5.803816e+00   1.263404e+01
  -3.705369e+01  -3.373694e+01
   8.260044e+01  -4.218235e+01
   1.893561e+02   3.959567e+01
   1.064647e+02   1.590679e+02
  -1.278958e+02   2.034883e+02
  -2.940467e+02   1.067060e+02
  -2.256395e+02  -9.285022e+01
   2.904668e+01  -2.679256e+02
   2.605611e+02  -2.850195e+02
   3.028682e+02  -1.126401e+02
   1.746389e+02   1.315315e+02
   2.952331e+01   2.744157e+02
  -1.978321e+01   2.539768e+02
  -7.215781e+00   1.626583e+02
  -3.896843e+01   1.131525e+02
  -1.413217e+02   9.416290e+01
  -2.226146e+02   1.761174e+01
  -1.912869e+02  -1.214866e+02
  -5.689014e+01  -2.094137e+02
   8.311656e+01  -1.400537e+02
   1.444090e+02   4.650473e+01
   8.959597e+01   1.959684e+02
  -4.997117e+01   1.860575e+02
  -1.951516e+02   3.227954e+01
  -2.347367e+02  -1.480918e+02
  -1.273702e+02  -2.373787e+02
   3.644113e+01  -2.094668e+02
   1.263932e+02  -1.243379e+02
   1.238596e+02  -7.184176e+01
   1.351155e+02  -6.071561e+01
   2.390793e+02  -2.495498e+01
   3.361511e+02   9.317105e+01
   2.516964e+02   2.575517e+02
  -3.633184e+01   3.585411e+02
  -3.263227e+02   3.093499e+02
  -3.976464e+02   1.238445e+02
  -2.241999e+02  -9.013461e+01
  -2.416903e+00  -2.001568e+02
   8.102594e+01  -1.495596e+02
   3.412847e+00  -3.152547e+01
  -9.875355e+01   1.984497e+01
  -1.037880e+02  -3.606879e+01
  -5.458626e+00  -1.050456e+02
   8.692999e+01  -7.181143e+01
   7.699157e+01   4.336865e+01
  -2.744632e+01   9.401530e+01
  -1.273679e+02  -1.326271e+01
  -1.173160e+02  -1.968347e+02
   2.119072e+01  -2.757044e+02
   2.018746e+02  -1.614451e+02
   2.894425e+02   6.281426e+01
   2.134508e+02   2.240454e+02
   3.072519e+01   2.221639e+02
  -1.120444e+02   1.025147e+02
  -1.168413e+02  -5.543362e+00
  -2.358009e+01  -1.290008e+01
   3.667550e+01   5.147830e+01
  -1.004752e+01   8.782769e+01
  -9.909854e+01   4.431706e+01
  -1.097967e+02  -2.681661e+01
  -1.807576e+01  -3.907329e+01
   6.679484e+01   2.302493e+01
   2.490027e+01   8.569895e+01
  -1.305650e+02   6.999382e+01
  -2.527283e+02  -3.136098e+01
  -2.073898e+02  -1.543688e+02
  -1.068704e+01  -2.178692e+02
   1.803601e+02  -1.791394e+02
   2.183977e+02  -6.461422e+01
   1.031118e+02   4.093531e+01
  -2.847698e+01   5.715970e+01
  -4.597278e+01  -8.945423e+00
   5.167973e+01  -6.098619e+01
   1.488704e+02  -1.684094e+01
   1.417548e+02   9.148579e+01
   3.429912e+01   1.512104e+02
  -7.533891e+01   1.012996e+02
  -9.654960e+01   4.635377e+00
  -2.878308e+01  -3.102803e+01
   3.967062e+01   2.493786e+01
   1.965824e+01   9.772793e+01
  -8.658157e+01   9.603712e+01
  -1.754821e+02   2.885770e+00
  -1.443603e+02  -1.138003e+02
  -2.845765e+00  -1.644578e+02
   1.261022e+02  -1.135029e+02
   1.345265e+02  -6.029089e+00
   3.792507e+01   7.133560e+01
  -5.109663e+01   6.830431e+01
  -5.203923e+01   1.391548e+01
   5.516469e+00  -2.001243e+01
   3.319686e+01  -1.295471e+00
  -1.005145e+01   2.624831e+01
  -7.749954e+01  -4.122698e-01
  -8.566342e+01  -8.275281e+01
  -3.657571e-01  -1.484670e+02
   1.263622e+02  -1.200234e+02
   1.962069e+02   2.580137e+00
   1.502362e+02   1.362431e+02
   2.326336e+01   1.856181e+02
  -8.435149e+01   1.269248e+02
  -1.054088e+02   2.293797e+01
  -6.147456e+01  -3.637945e+01
  -2.843002e+01  -2.519684e+01
  -4.405306e+01   9.314361e+00
  -7.205259e+01   3.370366e+00
  -4.649842e+01  -5.042387e+01
   3.627228e+01  -9.089211e+01
   1.081345e+02  -5.484833e+01
   9.276723e+01   4.315548e+01
  -1.734958e+01   1.126630e+02
  -1.405978e+02   7.215278e+01
  -1.694077e+02  -6.048059e+01
  -6.167763e+01  -1.764975e+02
   1.100725e+02  -1.730566e+02
   2.183571e+02  -5.531540e+01
   1.906153e+02   7.961673e+01
   7.110177e+01   1.371785e+02
  -3.736504e+01   1.086741e+02
  -7.192537e+01   6.090903e+01
  -5.489108e+01   5.323816e+01
  -4.700799e+01   7.453690e+01
  -7.443693e+01   6.466176e+01
  -1.068347e+02  -1.453928e+01
  -9.328331e+01  -1.253058e+02
  -1.607506e+01  -1.831163e+02
   8.415716e+01  -1.321678e+02
   1.357086e+02  -3.422073e+00
   9.679056e+01   1.078004e+02
   1.580998e+00   1.265698e+02
  -6.509425e+01   6.053844e+01
  -5.136513e+01  -1.736057e+01
   6.022606e+00  -4.594274e+01
   2.552858e+01  -2.766160e+01
  -2.063632e+01  -8.062448e+00
  -6.935432e+01  -1.620917e+01
  -3.986260e+01  -3.571259e+01
   6.324543e+01  -3.079826e+01
   1.436541e+02   9.696659e+00
   1.137828e+02   6.003501e+01
  -7.895153e+00   8.089921e+01
  -1.143287e+02   5.395530e+01
  -1.183499e+02  -2.211767e+00
  -3.413417e+01  -4.349077e+01
   4.951149e+01  -3.524119e+01
   6.410849e+01   1.569426e+01
   1.684832e+01   6.106100e+01
  -3.670972e+01   5.501930e+01
  -5.746239e+01   2.455873e+00
  -4.907173e+01  -4.253609e+01
  -3.930449e+01  -3.710362e+01
  -4.418665e+01  -2.411427e+00
  -5.317248e+01  -2.054425e+00
  -3.702158e+01  -6.142886e+01
   2.397103e+01  -1.263036e+02
   1.080652e+02  -1.177700e+02
   1.521200e+02  -2.320813e+01
   1.069224e+02   8.143309e+01
  -1.774916e+00   1.103850e+02
  -7.890656e+01   5.678171e+01
  -5.213313e+01  -7.841702e+00
   4.606791e+01  -1.444760e+01
   1.054412e+02   3.579080e+01
   5.289612e+01   8.541364e+01
  -7.063412e+01   8.324952e+01
  -1.518862e+02   2.832883e+01
  -1.219739e+02  -3.823198e+01
  -1.984535e+01  -6.802801e+01
   5.432908e+01  -4.401394e+01
   3.931420e+01   6.388047e+00
  -3.346448e+01   2.735995e+01
  -7.617766e+01  -1.587476e+01
  -3.417319e+01  -9.388482e+01
   6.129411e+01  -1.262263e+02
   1.249230e+02  -5.779113e+01
   1.007156e+02   7.219204e+01
   1.255532e+01   1.531516e+02
  -6.606933e+01   1.107601e+02
  -8.183409e+01  -1.205287e+01
  -4.011374e+01  -9.841525e+01
   1.466182e+01  -8.186470e+01
   4.257935e+01  -9.545910e+00
   3.492561e+01   2.765738e+01
   1.281012e+01   6.720006e+00
   6.378075e+00  -1.286203e+01
   2.588775e+01   1.958447e+01
   4.454630e+01   7.492101e+01
   2.136161e+01   8.502036e+01
  -4.761403e+01   3.250539e+01
  -1.083555e+02  -3.226105e+01
  -9.713619e+01  -5.769070e+01
  -1.522379e+01  -4.367680e+01
   6.312167e+01  -2.028402e+01
   6.949761e+01  -3.458965e+00
   1.572621e+01   9.160124e+00
  -2.676426e+01   1.540426e+01
  -1.676295e+01   8.558533e+00
   1.066212e+01  -3.267995e+00
  -1.588271e+00  -3.901129e+00
  -5.151901e+01   6.705207e-03
  -7.371116e+01  -1.987031e+01
  -1.703508e+01  -6.671385e+01
   8.813656e+01  -9.364524e+01
   1.548048e+02  -5.017044e+01
   1.250851e+02   4.994330e+01
   2.440805e+01   1.294855e+02
  -6.867672e+01   1.252429e+02
  -9.656008e+01   5.288536e+01
  -6.496509e+01  -1.563853e+01
  -2.103260e+01  -3.110236e+01
  -2.937044e+00  -1.141129e+01
  -1.219963e+01  -8.077078e+00
  -2.351852e+01  -4.093685e+01
  -1.218991e+01  -7.431502e+01
   2.480506e+01  -5.801371e+01
   6.270582e+01   1.220674e+01
   6.406288e+01   8.204643e+01
   1.230412e+01   8.963198e+01
  -5.932445e+01   2.721904e+01
  -8.525170e+01  -5.130937e+01
  -3.325635e+01  -8.370739e+01
   5.123097e+01  -5.332069e+01
   8.426260e+01   6.104435e+00
   3.683747e+01   4.845557e+01
  -2.886225e+01   5.092019e+01
  -3.400573e+01   2.273926e+01
   2.048989e+01  -6.628934e+00
   5.575935e+01  -8.039475e+00
   1.578027e+01   2.208144e+01
  -6.340972e+01   5.219505e+01
  -9.893905e+01   4.099137e+01
  -5.857262e+01  -1.540178e+01
   1.196413e+01  -6.934279e+01
   4.970844e+01  -6.736881e+01
   3.924943e+01  -1.071103e+01
   6.763082e+00   4.247302e+01
  -2.011690e+01   4.044411e+01
  -3.102028e+01  -6.973726e+00
  -2.347682e+01  -4.383358e+01
   1.066375e+00  -3.404423e+01
   2.742511e+01   3.211316e+00
   3.402337e+01   2.172346e+01
   1.641799e+01   5.251676e+00
  -3.638645e+00  -1.737376e+01
  -5.098548e+00  -1.005010e+01
   5.402374e+00   2.407757e+01
   2.233726e+00   4.428257e+01
  -2.016943e+01   2.127892e+01
  -3.455475e+01  -2.572972e+01
  -1.301468e+01  -4.805704e+01
   3.149408e+01  -2.181208e+01
   5.145605e+01   2.594592e+01
   1.653212e+01   4.874426e+01
  -4.679126e+01   2.946315e+01
  -7.659598e+01  -9.237862e+00
  -4.136233e+01  -3.578160e+01
   2.399057e+01  -3.818595e+01
   5.427938e+01  -2.373251e+01
   2.513888e+01  -5.060932e+00
  -2.152607e+01   4.746215e+00
  -2.718772e+01  -2.799898e+00
   1.663141e+01  -1.888922e+01
   6.054845e+01  -1.671433e+01
