
 $NMID
 id='ANONYMOUS ', fmtdat='(2E16.6)'
 volume=1.0
 tramp=1.0
 $END
  -2.440267e+03  -2.077855e+02
  -1.979967e+03  -8.977751e+02
  -4.772997e+02  -1.554115e+03
   7.445553e+02  -1.037757e+03
   9.383851e+02  -3.504259e+02
   3.598509e+02   6.698793e+01
  -2.207301e+02  -3.084106e+01
  -1.595406e+02  -2.972990e+02
   3.121083e+02  -4.634850e+02
   5.781236e+02  -7.252394e+01
   4.099409e+02   4.115458e+02
   1.667550e+02   5.137507e+02
  -1.986796e+02   2.469322e+02
  -2.027915e+02  -3.907422e+02
   1.114283e+01  -5.171554e+02
   2.756244e+02  -8.025564e+01
   2.776022e+02   4.285071e+02
  -5.933327e+01   6.052117e+02
  -4.175269e+02   3.618284e+02
  -4.198026e+02  -7.112488e+01
  -1.364976e+02  -3.564617e+02
   1.033066e+02  -2.330129e+02
   8.070607e+00  -8.737446e+01
  -2.314150e+02  -1.827026e+02
  -2.369741e+02  -3.195872e+02
   6.670964e+01  -3.353988e+02
   4.549854e+02  -9.239511e+01
   5.429517e+02   2.002649e+02
   1.767719e+02   2.825273e+02
  -2.706817e+02   1.042765e+02
  -4.034289e+02  -1.321235e+02
  -1.076201e+02  -3.135569e+02
   2.581304e+02  -2.779834e+02
   3.998943e+02  -1.160850e+02
   2.737714e+02   1.250854e+02
   9.625064e+01   2.369948e+02
   3.571175e+01   1.403945e+02
   8.981037e+01  -4.560221e+01
   1.679329e+02  -6.274682e+01
   1.430951e+02   1.715370e+02
  -1.797556e+01   4.266729e+02
  -1.867477e+02   3.400639e+02
  -2.194951e+02  -2.169106e+00
  -7.665561e+01  -2.226651e+02
   1.122799e+02  -7.782400e+01
   1.226199e+02   2.616633e+02
  -1.092639e+02   3.527863e+02
  -4.072696e+02   5.164531e+01
  -4.610812e+02  -3.383528e+02
  -1.571895e+02  -4.523397e+02
   2.779674e+02  -2.467705e+02
   4.861766e+02   4.789236e+01
   3.346580e+02   2.147084e+02
  -1.572568e+01   2.040802e+02
  -2.443746e+02   1.083783e+02
  -2.101819e+02   3.046694e+01
  -4.486350e+01   5.966054e+00
   2.093539e+01   1.921394e+01
  -8.637210e+01   2.165023e+01
  -2.049962e+02  -3.827864e+01
  -1.331556e+02  -1.579291e+02
   1.253237e+02  -2.407455e+02
   3.406081e+02  -1.593026e+02
   2.883211e+02   9.305424e+01
  -1.239124e+01   3.425766e+02
  -3.107107e+02   3.714710e+02
  -3.769792e+02   1.388231e+02
  -2.197311e+02  -1.696386e+02
  -3.851386e+01  -3.277869e+02
   1.656507e+01  -2.889764e+02
  -6.485136e+00  -1.882707e+02
   3.379232e+01  -1.465020e+02
   1.677842e+02  -1.296282e+02
   2.740121e+02  -3.219132e+01
   2.334242e+02   1.430631e+02
   6.779570e+01   2.531519e+02
  -1.060896e+02   1.739023e+02
  -1.769277e+02  -5.435235e+01
  -1.133969e+02  -2.388757e+02
   5.625681e+01  -2.303427e+02
   2.331534e+02  -4.780110e+01
   2.874024e+02   1.660087e+02
   1.654673e+02   2.782768e+02
  -3.063003e+01   2.549705e+02
  -1.459643e+02   1.643135e+02
  -1.426390e+02   9.992712e+01
  -1.603986e+02   7.651520e+01
  -2.915125e+02   3.168159e+01
  -4.108693e+02  -9.554097e+01
  -3.150598e+02  -2.875886e+02
   2.761796e+01  -4.290981e+02
   3.778506e+02  -3.971540e+02
   4.632636e+02  -1.758553e+02
   2.664164e+02   9.317837e+01
   1.686197e+01   2.326610e+02
  -7.283219e+01   1.764792e+02
   1.241685e+01   4.082489e+01
   1.134746e+02  -1.744768e+01
   1.086897e+02   4.493228e+01
   3.591707e+00   1.183109e+02
  -9.347552e+01   8.201623e+01
  -8.840681e+01  -4.270557e+01
   2.264393e+01  -1.073059e+02
   1.459895e+02   1.911727e+00
   1.584211e+02   2.169898e+02
   2.474443e+00   3.363313e+02
  -2.315584e+02   2.262553e+02
  -3.668086e+02  -4.300011e+01
  -2.889751e+02  -2.615315e+02
  -5.970708e+01  -2.780471e+02
   1.277945e+02  -1.342701e+02
   1.392411e+02   1.016778e+00
   2.639167e+01   9.408712e+00
  -4.544141e+01  -7.015907e+01
   1.271706e+01  -1.127563e+02
   1.210069e+02  -5.822286e+01
   1.348880e+02   2.837219e+01
   2.304822e+01   4.813586e+01
  -8.281237e+01  -2.024674e+01
  -3.485880e+01  -9.794239e+01
   1.546432e+02  -9.144422e+01
   3.074481e+02   2.071556e+01
   2.570681e+02   1.729474e+02
   2.199386e+01   2.632285e+02
  -2.085302e+02   2.262508e+02
  -2.567620e+02   8.867338e+01
  -1.229619e+02  -4.160328e+01
   3.207050e+01  -6.404561e+01
   5.473182e+01   1.294476e+01
  -5.954893e+01   7.537970e+01
  -1.796559e+02   2.588555e+01
  -1.790912e+02  -1.011460e+02
  -5.392242e+01  -1.769113e+02
   8.247741e+01  -1.256573e+02
   1.145312e+02  -1.424047e+01
   3.533870e+01   3.094479e+01
  -4.739314e+01  -3.213541e+01
  -2.196877e+01  -1.193516e+02
   1.079424e+02  -1.192542e+02
   2.151419e+02  -6.674261e+00
   1.761957e+02   1.372269e+02
   5.361689e+00   2.024291e+02
  -1.508932e+02   1.437887e+02
  -1.640744e+02   1.326183e+01
  -5.009288e+01  -8.617901e+01
   5.880730e+01  -8.857551e+01
   6.409091e+01  -2.248493e+01
  -5.557273e+00   2.460203e+01
  -4.361949e+01   5.104073e+00
   8.556159e+00  -3.263947e+01
   9.666818e+01  -5.997525e+00
   1.130789e+02   9.546109e+01
   9.738062e+00   1.833003e+02
  -1.505588e+02   1.542247e+02
  -2.415829e+02   4.693001e+00
  -1.881518e+02  -1.608915e+02
  -3.563844e+01  -2.231825e+02
   9.606536e+01  -1.555673e+02
   1.248757e+02  -3.387582e+01
   7.466136e+01   3.678310e+01
   3.668434e+01   2.533931e+01
   5.630852e+01  -1.555869e+01
   9.093176e+01  -7.187592e+00
   6.276964e+01   6.004825e+01
  -3.857763e+01   1.139434e+02
  -1.322089e+02   7.462628e+01
  -1.176725e+02  -4.778675e+01
   1.822621e+01  -1.406814e+02
   1.748337e+02  -9.602042e+01
   2.125149e+02   6.870515e+01
   8.175437e+01   2.173895e+02
  -1.290324e+02   2.209861e+02
  -2.660657e+02   7.917134e+01
  -2.383730e+02  -8.793468e+01
  -9.544753e+01  -1.624259e+02
   3.816930e+01  -1.322876e+02
   8.334484e+01  -7.877433e+01
   6.322256e+01  -7.277403e+01
   5.239709e+01  -9.938911e+01
   8.897400e+01  -8.358036e+01
   1.358852e+02   1.544322e+01
   1.246414e+02   1.526442e+02
   2.846119e+01   2.237854e+02
  -1.001232e+02   1.635084e+02
  -1.683114e+02   8.753843e+00
  -1.225451e+02  -1.271996e+02
  -4.739789e+00  -1.532770e+02
   7.952917e+01  -7.614222e+01
   6.468546e+01   1.925255e+01
  -6.655807e+00   5.768003e+01
  -3.246377e+01   3.673550e+01
   2.524795e+01   9.231219e+00
   8.869851e+01   1.508091e+01
   5.385473e+01   4.161271e+01
  -7.650754e+01   4.436881e+01
  -1.803036e+02   7.915912e-01
  -1.455636e+02  -6.482681e+01
   5.130796e+00  -1.012021e+02
   1.369704e+02  -7.535125e+01
   1.428066e+02  -4.719963e+00
   4.149571e+01   5.327011e+01
  -5.981761e+01   4.761505e+01
  -7.975149e+01  -1.667509e+01
  -2.573782e+01  -7.716596e+01
   4.060673e+01  -7.205352e+01
   7.088563e+01  -7.054960e+00
   6.498931e+01   4.876420e+01
   5.120179e+01   4.147569e+01
   5.354162e+01  -1.358709e+00
   6.609180e+01  -5.205146e-01
   5.230836e+01   7.491013e+01
  -1.930766e+01   1.579165e+02
  -1.260058e+02   1.509756e+02
  -1.867904e+02   3.674888e+01
  -1.352711e+02  -9.329845e+01
  -2.256955e+00  -1.341383e+02
   9.387433e+01  -7.264782e+01
   6.268057e+01   8.529497e+00
  -5.809881e+01   2.247347e+01
  -1.333231e+02  -3.782000e+01
  -7.016022e+01  -1.045416e+02
   8.264559e+01  -1.093875e+02
   1.865540e+02  -4.404246e+01
   1.533415e+02   4.168266e+01
   2.780490e+01   8.435398e+01
  -6.564814e+01   5.814679e+01
  -4.882220e+01  -5.263166e+00
   4.095186e+01  -3.570333e+01
   9.563014e+01   1.428449e+01
   4.715447e+01   1.127784e+02
  -6.894726e+01   1.591619e+02
  -1.507902e+02   7.932659e+01
  -1.282639e+02  -8.279474e+01
  -2.388429e+01  -1.882671e+02
   7.642166e+01  -1.401987e+02
   1.031804e+02   1.097639e+01
   5.542862e+01   1.191653e+02
  -1.444135e+01   1.008485e+02
  -5.203423e+01   1.403633e+01
  -4.244448e+01  -3.005214e+01
  -1.411579e+01  -5.207659e+00
  -7.952723e+00   1.659667e+01
  -3.557238e+01  -2.300164e+01
  -6.005419e+01  -8.822438e+01
  -2.977708e+01  -1.008998e+02
   5.773166e+01  -4.203381e+01
   1.330515e+02   3.197049e+01
   1.191254e+02   6.416922e+01
   1.941056e+01   5.301458e+01
  -7.588189e+01   2.858490e+01
  -8.397024e+01   6.141967e+00
  -1.913758e+01  -1.323520e+01
   3.262137e+01  -2.140476e+01
   2.111609e+01  -1.023656e+01
  -1.238990e+01   5.291650e+00
   1.790720e+00   3.112316e+00
   6.353824e+01  -6.005003e+00
   9.414004e+01   1.719492e+01
   2.972389e+01   7.989378e+01
  -9.736991e+01   1.222937e+02
  -1.835692e+02   7.586142e+01
  -1.556322e+02  -4.831728e+01
  -3.872759e+01  -1.541191e+02
   7.458597e+01  -1.570038e+02
   1.129604e+02  -7.041046e+01
   7.906740e+01   1.636534e+01
   2.727720e+01   3.834137e+01
   4.437411e+00   1.467781e+01
   1.466375e+01   9.657921e+00
   2.959844e+01   4.889109e+01
   1.804544e+01   8.951098e+01
  -2.682575e+01   7.095700e+01
  -7.717799e+01  -1.179176e+01
  -8.389754e+01  -9.559371e+01
  -2.176850e+01  -1.078961e+02
   7.063329e+01  -3.782750e+01
   1.089487e+02   5.574212e+01
   4.752762e+01   9.990640e+01
  -5.950989e+01   6.972687e+01
  -1.051509e+02  -1.669730e+00
  -4.933196e+01  -5.816717e+01
   3.266496e+01  -6.558468e+01
   4.187670e+01  -3.047143e+01
  -2.308070e+01   8.606796e+00
  -6.651814e+01   1.198573e+01
  -1.907794e+01  -2.634618e+01
   7.646014e+01  -6.559414e+01
   1.199048e+02  -5.315139e+01
   7.218787e+01   1.679350e+01
  -1.204458e+01   8.533175e+01
  -5.822792e+01   8.563525e+01
  -4.770635e+01   1.694978e+01
  -1.104026e+01  -5.088092e+01
   2.114299e+01  -5.207135e+01
   3.733546e+01   4.497649e+00
   3.137786e+01   5.155208e+01
   2.182303e+00   4.174090e+01
  -3.269697e+01  -2.833415e+00
  -4.268731e+01  -2.535613e+01
  -2.025279e+01  -4.593531e+00
   6.039882e+00   2.275034e+01
   6.931759e+00   1.259465e+01
  -8.988499e+00  -3.028654e+01
  -6.408784e+00  -5.518383e+01
   2.418917e+01  -2.711492e+01
   4.600954e+01   2.982973e+01
   2.007790e+01   5.789857e+01
  -3.807182e+01   2.847041e+01
  -6.594764e+01  -2.782622e+01
  -2.311994e+01  -5.711080e+01
   5.613720e+01  -3.819131e+01
   9.408815e+01   5.520167e+00
   5.200750e+01   3.917974e+01
  -2.663368e+01   4.707298e+01
  -6.331654e+01   3.312319e+01
  -2.955618e+01   9.655847e+00
   2.497990e+01  -6.044051e+00
   3.201044e+01   1.136543e+00
  -1.863645e+01   2.300724e+01
  -7.095227e+01   2.402098e+01
