
 $NMID
 id='ANONYMOUS ', fmtdat='(2E16.6)'
 volume=1.0
 tramp=1.0
 $END
  -3.554296e+03  -1.645657e+02
  -2.445047e+03  -2.018002e+03
   1.418992e+02  -2.259945e+03
   1.369866e+03  -1.172102e+03
   1.037719e+03   2.459870e+01
  -1.668286e+02   4.810500e+02
  -4.926060e+02  -2.543004e+02
  -9.050319e+01  -7.857073e+02
   6.290369e+02  -5.819164e+02
   7.500803e+02   1.008977e+02
   5.461868e+02   5.573497e+02
  -9.225585e+01   6.560605e+02
  -4.482179e+02   2.147286e+02
  -3.626793e+02  -5.193427e+02
   1.266077e+02  -6.040961e+02
   4.551797e+02  -4.308300e+01
   3.842902e+02   5.481388e+02
  -1.321228e+02   6.703450e+02
  -5.659366e+02   3.138157e+02
  -4.852783e+02  -1.800594e+02
  -1.482490e+02  -4.286875e+02
   1.637443e+02  -3.318380e+02
   1.328526e+02  -1.021033e+02
  -1.259042e+02  -7.984816e+01
  -3.298547e+02  -2.061433e+02
  -8.963353e+01  -3.670457e+02
   4.571573e+02  -2.774525e+02
   7.216600e+02   7.241204e+01
   3.497082e+02   3.916796e+02
  -3.092530e+02   3.223012e+02
  -5.798421e+02  -3.317309e+01
  -2.668669e+02  -3.861484e+02
   2.604276e+02  -4.526307e+02
   5.243066e+02  -1.993631e+02
   3.967585e+02   1.855272e+02
   1.146850e+02   3.955925e+02
  -8.132332e+01   2.383033e+02
  -3.246400e+01  -1.466961e+02
   1.776963e+02  -2.721425e+02
   3.047660e+02   1.016999e+02
   1.350736e+02   5.940404e+02
  -2.548189e+02   5.631584e+02
  -4.352005e+02   2.971742e+01
  -1.924013e+02  -3.848844e+02
   1.869647e+02  -2.139201e+02
   2.551654e+02   2.761465e+02
  -7.188683e+01   4.552970e+02
  -4.933371e+02   1.130529e+02
  -5.761776e+02  -3.727445e+02
  -2.041441e+02  -5.470361e+02
   3.318610e+02  -3.377022e+02
   6.058883e+02   2.973147e+01
   4.115947e+02   2.943696e+02
  -4.978409e+01   3.032694e+02
  -3.478854e+02   1.160441e+02
  -2.526572e+02  -5.886252e+01
   1.293680e+01  -5.072587e+01
   7.870499e+01   7.851366e+01
  -1.195882e+02   1.136434e+02
  -2.837427e+02  -3.798522e+01
  -1.562163e+02  -2.328392e+02
   1.644694e+02  -2.819397e+02
   3.610945e+02  -1.435942e+02
   2.628693e+02   9.702996e+01
  -2.705134e+01   3.209475e+02
  -2.899383e+02   3.926394e+02
  -3.778748e+02   2.107418e+02
  -2.780839e+02  -1.464615e+02
  -9.610677e+01  -4.082791e+02
   2.812581e+01  -3.827980e+02
   4.560199e+01  -1.875083e+02
   4.233763e+01  -8.035305e+01
   1.159239e+02  -1.095281e+02
   2.324744e+02  -9.147023e+01
   2.626415e+02   7.875050e+01
   1.397232e+02   2.519240e+02
  -5.930311e+01   2.257325e+02
  -1.995112e+02  -1.931919e+00
  -1.802559e+02  -2.282880e+02
   8.903350e+00  -2.711247e+02
   2.560975e+02  -1.044787e+02
   3.571241e+02   1.541241e+02
   2.078066e+02   3.285098e+02
  -5.447411e+01   3.109323e+02
  -1.966985e+02   1.724398e+02
  -1.617609e+02   6.997053e+01
  -1.430307e+02   6.855790e+01
  -2.849126e+02   5.923353e+01
  -4.438517e+02  -6.685037e+01
  -3.656442e+02  -2.930143e+02
  -1.313229e+01  -4.672521e+02
   3.622098e+02  -4.539453e+02
   4.910067e+02  -2.360354e+02
   3.289515e+02   6.813511e+01
   6.734849e+01   2.676184e+02
  -7.744489e+01   2.369705e+02
  -2.515048e+01   4.964117e+01
   1.140926e+02  -6.571560e+01
   1.561106e+02   2.159476e+01
   3.293912e+01   1.686958e+02
  -1.268410e+02   1.469853e+02
  -1.429957e+02  -4.498114e+01
   1.264908e+01  -1.593099e+02
   1.787955e+02  -2.190552e+01
   1.813606e+02   2.431716e+02
  -4.116386e+00   3.681820e+02
  -2.451700e+02   2.300061e+02
  -3.776242e+02  -4.670024e+01
  -3.102527e+02  -2.541774e+02
  -8.741782e+01  -2.801508e+02
   1.245984e+02  -1.609597e+02
   1.657213e+02  -2.302021e+01
   4.378952e+01   1.335622e+01
  -6.146474e+01  -5.734167e+01
  -9.429321e+00  -1.230205e+02
   1.300739e+02  -8.520691e+01
   1.681729e+02   1.894046e+01
   4.480575e+01   6.511310e+01
  -8.837486e+01   1.399964e+00
  -5.290559e+01  -9.270689e+01
   1.434477e+02  -1.049377e+02
   3.137077e+02  -3.296902e+00
   2.842388e+02   1.546440e+02
   5.816830e+01   2.721853e+02
  -1.924942e+02   2.670693e+02
  -2.776612e+02   1.300542e+02
  -1.570071e+02  -3.621661e+01
   2.332507e+01  -8.940980e+01
   7.440188e+01  -1.048912e+00
  -4.664951e+01   9.420586e+01
  -1.994837e+02   5.389971e+01
  -2.167992e+02  -9.771638e+01
  -7.800861e+01  -2.012908e+02
   8.621960e+01  -1.571074e+02
   1.387279e+02  -3.267111e+01
   6.157056e+01   3.258071e+01
  -3.859089e+01  -1.572323e+01
  -3.658056e+01  -1.065183e+02
   8.912029e+01  -1.268056e+02
   2.200866e+02  -2.789350e+01
   2.068416e+02   1.307942e+02
   2.989059e+01   2.257293e+02
  -1.591728e+02   1.768792e+02
  -1.937179e+02   2.523852e+01
  -7.165097e+01  -1.006500e+02
   5.688537e+01  -1.101116e+02
   7.229898e+01  -3.504218e+01
   4.883935e+00   2.269477e+01
  -3.356132e+01   1.099777e+01
   1.358671e+01  -2.394343e+01
   9.405119e+01  -2.839486e+00
   1.135617e+02   9.018716e+01
   2.171061e+01   1.828681e+02
  -1.390095e+02   1.727807e+02
  -2.521514e+02   3.136060e+01
  -2.188866e+02  -1.531054e+02
  -5.779984e+01  -2.431731e+02
   9.934301e+01  -1.807265e+02
   1.396806e+02  -4.151350e+01
   8.195719e+01   4.528725e+01
   3.573471e+01   3.054108e+01
   5.739591e+01  -1.879215e+01
   9.193164e+01  -1.281883e+01
   6.031810e+01   5.604218e+01
  -3.847925e+01   1.118395e+02
  -1.236969e+02   7.614369e+01
  -1.110375e+02  -3.978293e+01
   1.153734e+01  -1.362777e+02
   1.649767e+02  -1.074839e+02
   2.211200e+02   5.199535e+01
   1.086307e+02   2.182656e+02
  -1.116240e+02   2.457967e+02
  -2.778501e+02   1.086914e+02
  -2.700170e+02  -7.691609e+01
  -1.203577e+02  -1.740162e+02
   3.204848e+01  -1.514246e+02
   8.912913e+01  -9.345708e+01
   7.038219e+01  -8.256604e+01
   5.721026e+01  -1.072358e+02
   9.317663e+01  -9.164780e+01
   1.450903e+02   1.043752e+01
   1.403885e+02   1.553272e+02
   4.497498e+01   2.389055e+02
  -9.564598e+01   1.870049e+02
  -1.807582e+02   2.835439e+01
  -1.433731e+02  -1.237432e+02
  -2.184288e+01  -1.658832e+02
   7.064636e+01  -9.320322e+01
   6.318549e+01   8.093254e+00
  -6.066630e-01   5.411885e+01
  -2.107828e+01   3.751991e+01
   3.454886e+01   1.087648e+01
   9.106512e+01   1.526552e+01
   5.460958e+01   4.045309e+01
  -7.254652e+01   4.690994e+01
  -1.800014e+02   1.033608e+01
  -1.575285e+02  -5.374494e+01
  -1.197102e+01  -9.950581e+01
   1.318587e+02  -8.613452e+01
   1.528807e+02  -1.858990e+01
   5.141501e+01   4.650543e+01
  -6.148984e+01   4.796219e+01
  -8.509921e+01  -1.592096e+01
  -2.261580e+01  -7.831781e+01
   4.872825e+01  -7.321221e+01
   7.370624e+01  -6.203877e+00
   6.252908e+01   5.060132e+01
   5.290420e+01   4.247935e+01
   6.086884e+01  -2.274934e+00
   7.085444e+01  -2.875768e+00
   5.104543e+01   7.455096e+01
  -2.048237e+01   1.637566e+02
  -1.233876e+02   1.622237e+02
  -1.872544e+02   4.624418e+01
  -1.430737e+02  -9.253228e+01
  -1.067893e+01  -1.400487e+02
   9.408775e+01  -7.775022e+01
   6.758122e+01   9.224058e+00
  -6.030305e+01   2.750153e+01
  -1.459241e+02  -3.365611e+01
  -8.439106e+01  -1.075164e+02
   7.856993e+01  -1.223449e+02
   1.957262e+02  -6.192039e+01
   1.691719e+02   3.067898e+01
   3.968488e+01   8.808673e+01
  -6.317485e+01   6.973828e+01
  -5.125120e+01   1.353141e+00
   4.205096e+01  -3.721524e+01
   1.023344e+02   1.435897e+01
   5.114557e+01   1.230111e+02
  -7.590233e+01   1.745172e+02
  -1.661127e+02   8.663605e+01
  -1.421845e+02  -9.005313e+01
  -3.015723e+01  -2.052609e+02
   7.714345e+01  -1.565872e+02
   1.098328e+02   3.204400e+00
   6.748886e+01   1.218012e+02
  -3.177711e+00   1.087193e+02
  -5.065132e+01   1.925692e+01
  -5.038425e+01  -3.042511e+01
  -1.876793e+01  -5.964384e+00
  -2.667015e+00   2.033731e+01
  -3.029464e+01  -1.828147e+01
  -6.782540e+01  -8.943096e+01
  -4.537096e+01  -1.084385e+02
   5.360964e+01  -4.925045e+01
   1.480260e+02   2.951178e+01
   1.372078e+02   6.521078e+01
   2.191884e+01   5.614364e+01
  -8.691155e+01   3.425968e+01
  -9.234940e+01   1.241929e+01
  -1.749210e+01  -1.212817e+01
   3.553337e+01  -2.666403e+01
   1.691713e+01  -1.541007e+01
  -1.842696e+01   5.673253e+00
   3.976649e+00   5.323588e+00
   7.334371e+01  -7.861351e+00
   1.012087e+02   1.468496e+01
   2.698145e+01   8.506992e+01
  -1.069884e+02   1.347488e+02
  -1.937449e+02   8.403910e+01
  -1.644013e+02  -5.335353e+01
  -4.550383e+01  -1.682790e+02
   7.299412e+01  -1.693945e+02
   1.186582e+02  -7.576017e+01
   8.757752e+01   1.591218e+01
   3.052684e+01   3.831079e+01
   1.006339e+00   1.277277e+01
   1.276032e+01   6.293789e+00
   3.562979e+01   4.794979e+01
   2.708954e+01   9.418044e+01
  -2.528768e+01   7.824175e+01
  -8.546041e+01  -1.074816e+01
  -9.284028e+01  -1.039915e+02
  -2.084790e+01  -1.177356e+02
   8.063864e+01  -3.866187e+01
   1.180867e+02   6.335302e+01
   4.839370e+01   1.069164e+02
  -6.484288e+01   7.131893e+01
  -1.098360e+02  -1.500803e+00
  -5.009765e+01  -5.646988e+01
   3.278109e+01  -6.548990e+01
   3.822316e+01  -3.353574e+01
  -3.001378e+01   7.063522e+00
  -7.189237e+01   1.382761e+01
  -1.892863e+01  -2.735068e+01
   8.038625e+01  -7.526813e+01
   1.234194e+02  -6.503166e+01
   7.376193e+01   1.435066e+01
  -1.043718e+01   9.323105e+01
  -5.620303e+01   9.180409e+01
  -4.671996e+01   1.311615e+01
  -1.111655e+01  -5.850007e+01
   2.273507e+01  -5.315669e+01
   4.137805e+01   1.037988e+01
   3.443031e+01   5.585193e+01
   7.481879e-01   4.061268e+01
  -3.680030e+01  -4.318403e+00
  -4.547182e+01  -2.330485e+01
  -2.111283e+01  -2.472043e+00
   4.953962e+00   1.994013e+01
   6.596445e+00   5.227226e+00
  -4.864037e+00  -3.673513e+01
   1.964216e+00  -5.589832e+01
   3.051469e+01  -2.167022e+01
   4.571856e+01   3.817030e+01
   1.536939e+01   6.444477e+01
  -4.255019e+01   2.986826e+01
  -6.883667e+01  -3.165988e+01
  -2.491131e+01  -6.311131e+01
   5.736629e+01  -4.228153e+01
   9.938626e+01   5.498645e+00
   5.675839e+01   4.218363e+01
  -2.795348e+01   5.021495e+01
  -6.776703e+01   3.372066e+01
  -2.833201e+01   8.151582e+00
   3.380436e+01  -6.010813e+00
   3.833692e+01   6.127094e+00
  -2.449759e+01   3.180549e+01
  -8.519440e+01   3.037379e+01
