
 $NMID
 id='ANONYMOUS ', fmtdat='(2E16.6)'
 volume=1.0
 tramp=1.0
 $END
  -4.241438e+03   1.748334e+02
  -2.371180e+03  -2.730114e+03
   6.134675e+02  -2.678420e+03
   1.788900e+03  -8.794420e+02
   8.324650e+02   5.597920e+02
  -6.497043e+02   5.301406e+02
  -8.526959e+02  -3.815893e+02
  -5.795750e+01  -1.062046e+03
   7.783400e+02  -9.149015e+02
   9.888719e+02   2.690915e+01
   5.347647e+02   7.693727e+02
  -2.637945e+02   8.145837e+02
  -6.728223e+02   1.737198e+02
  -4.551240e+02  -7.031883e+02
   2.849113e+02  -7.965999e+02
   6.684409e+02   1.156669e+01
   3.319305e+02   6.719596e+02
  -3.216607e+02   6.481459e+02
  -6.124852e+02   6.187917e+01
  -4.334360e+02  -3.451780e+02
  -1.519267e+01  -4.750244e+02
   2.573279e+02  -2.665083e+02
   2.341415e+02  -1.005073e+01
  -1.107493e+02   1.148621e+02
  -4.228271e+02  -1.385036e+02
  -1.812021e+02  -4.788560e+02
   4.630658e+02  -4.325560e+02
   8.561706e+02   1.082715e+02
   4.240099e+02   5.808582e+02
  -3.976148e+02   4.917933e+02
  -7.715400e+02  -5.210228e+01
  -3.274862e+02  -5.072526e+02
   3.030503e+02  -5.328379e+02
   5.736345e+02  -2.131738e+02
   4.411042e+02   2.351593e+02
   9.186296e+01   4.939250e+02
  -1.800011e+02   2.825132e+02
  -1.863127e+02  -2.414546e+02
   1.634789e+02  -4.617555e+02
   4.756447e+02   2.635684e+01
   2.827267e+02   7.318660e+02
  -3.184101e+02   7.641822e+02
  -6.425117e+02   3.882706e+00
  -2.940001e+02  -5.911902e+02
   2.957544e+02  -3.529914e+02
   4.268847e+02   3.345972e+02
  -4.602472e+01   5.715673e+02
  -5.710069e+02   1.484627e+02
  -6.231293e+02  -4.074959e+02
  -1.702918e+02  -5.850674e+02
   4.030808e+02  -3.548507e+02
   6.532166e+02   6.262323e+01
   3.847006e+02   3.904494e+02
  -1.602542e+02   3.870086e+02
  -4.564395e+02   7.753272e+01
  -2.481727e+02  -1.919244e+02
   1.191615e+02  -1.165012e+02
   1.458010e+02   1.472206e+02
  -1.679933e+02   1.882146e+02
  -3.540863e+02  -7.579323e+01
  -1.428219e+02  -3.088700e+02
   2.125052e+02  -2.686034e+02
   3.432932e+02  -7.670810e+01
   2.060473e+02   8.697002e+01
  -1.859880e+01   2.302453e+02
  -2.162009e+02   3.381990e+02
  -3.381477e+02   2.288406e+02
  -2.968345e+02  -1.384212e+02
  -8.351729e+01  -4.444223e+02
   1.134618e+02  -3.845643e+02
   1.150722e+02  -1.066872e+02
   1.482982e+01   7.022048e+00
   4.091107e+01  -1.046278e+02
   2.091759e+02  -1.434717e+02
   2.989840e+02   5.405276e+01
   1.669599e+02   2.786991e+02
  -7.661775e+01   2.611456e+02
  -2.340733e+02   8.441951e+00
  -1.984992e+02  -2.429825e+02
   1.275591e+01  -2.957406e+02
   2.730583e+02  -1.236421e+02
   3.734958e+02   1.610872e+02
   1.982310e+02   3.532960e+02
  -9.643572e+01   3.211386e+02
  -2.287893e+02   1.290291e+02
  -1.458751e+02   6.950116e+00
  -9.180820e+01   3.906926e+01
  -2.372825e+02   8.094941e+01
  -4.229172e+02  -4.124067e+01
  -3.551375e+02  -2.873687e+02
  -6.270863e+00  -4.599572e+02
   3.682362e+02  -4.329360e+02
   5.005984e+02  -2.118448e+02
   3.465873e+02   9.322317e+01
   6.009745e+01   3.037708e+02
  -1.298163e+02   2.584805e+02
  -8.452401e+01   3.059801e+01
   1.091757e+02  -1.100940e+02
   2.015940e+02   2.678162e+00
   5.617960e+01   1.968963e+02
  -1.609723e+02   1.720081e+02
  -1.789609e+02  -6.196180e+01
   2.275517e+01  -1.949260e+02
   2.020841e+02  -2.841761e+01
   1.675291e+02   2.594928e+02
  -3.167781e+01   3.612582e+02
  -2.345518e+02   1.983232e+02
  -3.313460e+02  -6.190677e+01
  -2.852630e+02  -2.378409e+02
  -1.006459e+02  -2.637186e+02
   1.118341e+02  -1.614720e+02
   1.783526e+02  -2.202703e+01
   5.589391e+01   3.166196e+01
  -7.633356e+01  -4.088529e+01
  -3.253708e+01  -1.294988e+02
   1.297730e+02  -1.034078e+02
   1.875597e+02   1.253580e+01
   5.972268e+01   7.417171e+01
  -8.767126e+01   1.698937e+01
  -6.356590e+01  -7.515807e+01
   1.223058e+02  -9.049460e+01
   2.887452e+02  -4.223248e+00
   2.736185e+02   1.363418e+02
   6.701130e+01   2.564778e+02
  -1.851922e+02   2.678074e+02
  -2.901098e+02   1.324880e+02
  -1.748056e+02  -5.102103e+01
   2.631004e+01  -1.125289e+02
   9.605125e+01  -8.396033e+00
  -3.168508e+01   1.052218e+02
  -2.007854e+02   6.267607e+01
  -2.203375e+02  -1.028651e+02
  -7.237519e+01  -2.119418e+02
   9.670789e+01  -1.630029e+02
   1.487112e+02  -3.160332e+01
   7.341551e+01   4.321219e+01
  -2.856871e+01   6.222193e+00
  -4.007654e+01  -8.326525e+01
   7.105870e+01  -1.179858e+02
   2.028132e+02  -3.324516e+01
   1.990986e+02   1.268864e+02
   2.429484e+01   2.284319e+02
  -1.694375e+02   1.724153e+02
  -2.021133e+02   6.723159e+00
  -7.006886e+01  -1.198367e+02
   6.674227e+01  -1.158274e+02
   8.509839e+01  -3.194958e+01
   1.932426e+01   2.640242e+01
  -2.138933e+01   1.865272e+01
   1.030732e+01  -7.896616e+00
   7.301331e+01   7.801511e+00
   9.277469e+01   8.129031e+01
   1.919995e+01   1.605147e+02
  -1.260988e+02   1.588331e+02
  -2.399966e+02   3.359407e+01
  -2.100397e+02  -1.476693e+02
  -4.650724e+01  -2.419059e+02
   1.097342e+02  -1.766955e+02
   1.378500e+02  -2.981096e+01
   7.255760e+01   5.518344e+01
   3.060527e+01   3.581677e+01
   5.526162e+01  -1.238704e+01
   8.045631e+01  -6.198657e+00
   4.137813e+01   5.121239e+01
  -4.211941e+01   8.973637e+01
  -1.010309e+02   5.839627e+01
  -8.571189e+01  -3.290455e+01
   9.391249e+00  -1.106658e+02
   1.371114e+02  -8.982850e+01
   1.988924e+02   4.675318e+01
   1.069347e+02   2.013787e+02
  -1.008897e+02   2.337744e+02
  -2.691559e+02   1.028822e+02
  -2.648525e+02  -8.313452e+01
  -1.159891e+02  -1.783470e+02
   3.727893e+01  -1.509943e+02
   9.573603e+01  -8.736374e+01
   7.991426e+01  -7.193176e+01
   6.529258e+01  -9.315925e+01
   9.219146e+01  -7.705026e+01
   1.323792e+02   1.876249e+01
   1.245414e+02   1.533551e+02
   3.494953e+01   2.296661e+02
  -9.837028e+01   1.783821e+02
  -1.792614e+02   2.551788e+01
  -1.405216e+02  -1.208167e+02
  -2.157696e+01  -1.619691e+02
   6.626160e+01  -9.542019e+01
   5.976757e+01  -2.539106e+00
   5.618791e+00   4.248032e+01
  -8.302171e+00   3.537576e+01
   3.853015e+01   1.915191e+01
   8.023151e+01   2.288284e+01
   4.477284e+01   3.829734e+01
  -6.392040e+01   3.902501e+01
  -1.588754e+02   7.372859e+00
  -1.462775e+02  -4.731055e+01
  -1.962585e+01  -8.850226e+01
   1.176378e+02  -7.770863e+01
   1.450445e+02  -1.738464e+01
   4.956526e+01   3.929423e+01
  -5.993071e+01   3.774106e+01
  -7.658650e+01  -1.880415e+01
  -8.030780e+00  -6.878533e+01
   5.650874e+01  -5.850034e+01
   6.411222e+01   2.009809e+00
   4.424912e+01   5.024192e+01
   4.326300e+01   4.142513e+01
   6.109608e+01   1.033188e+00
   6.645728e+01  -9.151030e-01
   3.672771e+01   6.712732e+01
  -2.995682e+01   1.467599e+02
  -1.136550e+02   1.442256e+02
  -1.639096e+02   3.657042e+01
  -1.260442e+02  -8.875759e+01
  -1.032054e+01  -1.260622e+02
   8.415023e+01  -6.297636e+01
   6.026655e+01   1.349960e+01
  -5.851238e+01   1.994785e+01
  -1.383806e+02  -4.234314e+01
  -7.790246e+01  -1.068969e+02
   7.949413e+01  -1.144776e+02
   1.920642e+02  -5.573408e+01
   1.650357e+02   3.170446e+01
   3.909564e+01   8.788452e+01
  -6.060917e+01   7.293975e+01
  -4.980555e+01   8.403457e+00
   3.845892e+01  -2.839382e+01
   9.152473e+01   2.079700e+01
   3.468170e+01   1.191054e+02
  -9.020796e+01   1.568414e+02
  -1.677867e+02   6.493668e+01
  -1.286506e+02  -9.994293e+01
  -1.286771e+01  -1.991873e+02
   8.431634e+01  -1.467469e+02
   1.060363e+02   4.958416e+00
   6.421980e+01   1.180994e+02
   9.193161e-01   1.083511e+02
  -4.639489e+01   2.241309e+01
  -5.470098e+01  -3.013382e+01
  -2.735286e+01  -8.918701e+00
  -2.887372e+00   2.003058e+01
  -1.959513e+01  -1.456100e+01
  -5.761010e+01  -8.746847e+01
  -4.550679e+01  -1.092738e+02
   4.563019e+01  -4.691630e+01
   1.405547e+02   3.676787e+01
   1.329314e+02   6.931606e+01
   1.818607e+01   5.053688e+01
  -8.916909e+01   2.470603e+01
  -8.911948e+01   9.652718e+00
  -1.065890e+01  -7.564675e+00
   3.804611e+01  -2.392106e+01
   1.226443e+01  -1.917717e+01
  -2.287652e+01   1.762264e+00
   6.096906e+00   9.336829e+00
   7.566287e+01   2.555899e+00
   9.240845e+01   2.148047e+01
   8.948305e+00   7.888040e+01
  -1.173977e+02   1.151960e+02
  -1.840132e+02   6.115466e+01
  -1.413523e+02  -6.468195e+01
  -2.759741e+01  -1.605942e+02
   7.622403e+01  -1.502269e+02
   1.124286e+02  -6.002029e+01
   8.010688e+01   1.987879e+01
   2.486805e+01   3.431684e+01
  -3.203801e+00   7.913806e+00
   1.047585e+01   2.912794e+00
   3.437486e+01   4.467510e+01
   2.426858e+01   9.007407e+01
  -2.843755e+01   7.267024e+01
  -8.114905e+01  -1.780777e+01
  -7.737515e+01  -1.086750e+02
  -4.282699e+00  -1.126140e+02
   8.255746e+01  -2.327712e+01
   1.030152e+02   7.641865e+01
   3.202930e+01   1.037170e+02
  -6.632565e+01   5.543022e+01
  -9.765094e+01  -1.122939e+01
  -3.948574e+01  -4.932075e+01
   3.150296e+01  -5.155235e+01
   2.957101e+01  -2.942946e+01
  -3.521630e+01  -6.004302e-01
  -6.943925e+01   7.052775e+00
  -1.452441e+01  -2.462395e+01
   7.924902e+01  -6.749392e+01
   1.154096e+02  -6.183637e+01
   6.450738e+01   9.903158e+00
  -1.383043e+01   8.367477e+01
  -5.090955e+01   8.112022e+01
  -3.599887e+01   6.584973e+00
  -1.606019e+00  -5.577798e+01
   2.559045e+01  -4.234679e+01
   3.651985e+01   1.955943e+01
   2.617456e+01   5.490808e+01
  -3.781789e+00   3.259451e+01
  -3.385067e+01  -9.261814e+00
  -3.990470e+01  -2.128353e+01
  -2.077507e+01  -1.234343e+00
   5.109928e-02   1.309572e+01
   6.884505e+00  -5.139281e+00
   8.314596e+00  -3.812956e+01
   1.911944e+01  -4.430776e+01
   3.377886e+01  -5.740988e+00
   2.990952e+01   4.631791e+01
  -3.050096e+00   6.077861e+01
  -4.478891e+01   1.989279e+01
  -5.580210e+01  -3.921021e+01
  -1.417272e+01  -6.243298e+01
   5.475140e+01  -3.385924e+01
   8.882308e+01   1.457634e+01
   4.942851e+01   4.321215e+01
  -2.837845e+01   4.054144e+01
  -6.432386e+01   2.170154e+01
  -2.307198e+01   5.088561e+00
   3.890953e+01   2.433607e+00
   3.853978e+01   1.644652e+01
  -3.160402e+01   3.271063e+01
  -9.298702e+01   2.111122e+01
