
 $NMID
 id='ANONYMOUS ', fmtdat='(2E16.6)'
 volume=1.0
 tramp=1.0
 $END
   2.004123e+03  -8.236743e+01
   1.753573e+03   1.091996e+03
   3.679918e+02   1.615339e+03
  -6.090318e+02   1.025130e+03
  -9.197427e+02   2.442859e+02
  -2.318303e+02  -4.276355e+01
   1.091764e+02   2.693458e+01
   5.687764e+01   3.608214e+02
  -3.145096e+02   4.653864e+02
  -5.314154e+02   1.263638e+02
  -4.323720e+02  -3.636774e+02
  -1.767820e+02  -4.885119e+02
   1.692506e+02  -2.228397e+02
   1.623646e+02   2.339171e+02
  -8.840404e+01   4.741614e+02
  -2.698200e+02   7.265664e+01
  -2.817455e+02  -3.355493e+02
   1.124962e+02  -5.157705e+02
   3.984784e+02  -3.380200e+02
   3.931996e+02   6.700434e+01
   1.861791e+02   3.317434e+02
  -6.444519e+01   2.561383e+02
   1.159640e+01   1.066723e+02
   2.182334e+02   1.562020e+02
   1.738412e+02   2.720983e+02
  -1.414211e+02   2.886624e+02
  -4.286808e+02   6.307908e+01
  -4.134934e+02  -2.165234e+02
  -6.654229e+01  -2.606123e+02
   2.764876e+02  -8.349951e+01
   3.457326e+02   1.570437e+02
   8.383346e+01   3.109147e+02
  -2.356716e+02   2.638189e+02
  -3.579094e+02   9.302834e+01
  -2.578794e+02  -1.271142e+02
  -9.387872e+01  -2.396985e+02
  -4.862542e+01  -1.450264e+02
  -1.032712e+02   2.289448e+01
  -1.625531e+02   3.778504e+01
  -9.006002e+01  -1.701504e+02
   8.151806e+01  -3.974382e+02
   2.100546e+02  -3.182541e+02
   2.097970e+02   5.683595e+00
   8.545107e+01   2.180542e+02
  -8.482360e+01   8.223996e+01
  -8.762062e+01  -2.302251e+02
   1.180013e+02  -3.084919e+02
   3.498206e+02  -1.435025e+01
   3.931041e+02   3.402560e+02
   1.225095e+02   4.094432e+02
  -2.471335e+02   1.997532e+02
  -4.266288e+02  -6.130069e+01
  -2.931739e+02  -1.771376e+02
   9.002263e+00  -1.569131e+02
   2.111463e+02  -9.274061e+01
   1.925091e+02  -3.573623e+01
   5.435833e+01   3.446485e+00
  -1.390805e+01   1.245303e+01
   5.853713e+01  -2.897500e-01
   1.541835e+02   2.300176e+01
   1.012010e+02   1.181129e+02
  -1.158540e+02   2.084523e+02
  -3.044583e+02   1.496408e+02
  -2.545732e+02  -8.486769e+01
   2.413401e+01  -3.225999e+02
   2.948000e+02  -3.449000e+02
   3.404340e+02  -1.200518e+02
   1.827013e+02   1.636348e+02
   2.351475e+01   2.981376e+02
  -8.026384e+00   2.566001e+02
   1.857147e+01   1.685909e+02
  -3.211831e+01   1.365736e+02
  -1.648240e+02   1.179537e+02
  -2.542430e+02   1.931071e+01
  -2.043939e+02  -1.442445e+02
  -5.231139e+01  -2.342604e+02
   9.787310e+01  -1.463722e+02
   1.551501e+02   6.392519e+01
   9.299254e+01   2.251661e+02
  -6.147961e+01   2.008682e+02
  -2.194019e+02   2.873537e+01
  -2.580692e+02  -1.625011e+02
  -1.436750e+02  -2.524815e+02
   3.394407e+01  -2.243415e+02
   1.378056e+02  -1.490296e+02
   1.325748e+02  -9.695550e+01
   1.485688e+02  -7.486987e+01
   2.689817e+02  -2.369237e+01
   3.762438e+02   1.060995e+02
   2.821122e+02   2.826011e+02
  -4.156508e+01   3.942858e+02
  -3.664466e+02   3.417549e+02
  -4.321378e+02   1.341061e+02
  -2.320900e+02  -9.842437e+01
   5.333155e+00  -2.092338e+02
   7.454760e+01  -1.549081e+02
  -2.143896e+01  -3.793689e+01
  -1.125613e+02   7.839953e+00
  -8.879980e+01  -4.551982e+01
   1.523370e+01  -1.032454e+02
   8.816138e+01  -6.377479e+01
   6.249584e+01   4.580582e+01
  -4.002336e+01   9.323244e+01
  -1.332721e+02  -1.716628e+01
  -1.275370e+02  -2.129541e+02
   1.608105e+01  -3.086511e+02
   2.195299e+02  -1.929540e+02
   3.313624e+02   5.781663e+01
   2.507216e+02   2.488561e+02
   3.932395e+01   2.482477e+02
  -1.248870e+02   1.090472e+02
  -1.244013e+02  -5.591603e+00
  -1.916157e+01  -2.691264e+00
   3.885207e+01   7.117160e+01
  -2.048565e+01   9.891042e+01
  -1.162393e+02   4.018380e+01
  -1.201108e+02  -3.634487e+01
  -1.607755e+01  -4.251864e+01
   7.331733e+01   2.636245e+01
   2.262669e+01   9.046341e+01
  -1.478262e+02   7.025504e+01
  -2.763894e+02  -3.968811e+01
  -2.193932e+02  -1.712424e+02
  -2.393137e+00  -2.365234e+02
   2.002634e+02  -1.910871e+02
   2.339059e+02  -6.716000e+01
   1.065371e+02   4.122567e+01
  -3.206374e+01   5.468835e+01
  -4.758233e+01  -1.328584e+01
   5.681653e+01  -6.305244e+01
   1.614310e+02  -1.513067e+01
   1.564008e+02   9.713902e+01
   4.207515e+01   1.595398e+02
  -7.811402e+01   1.085262e+02
  -1.026405e+02   6.548445e+00
  -2.902778e+01  -3.075521e+01
   4.396947e+01   3.235013e+01
   1.633889e+01   1.143794e+02
  -1.039742e+02   1.092261e+02
  -1.986278e+02  -1.472794e+00
  -1.577033e+02  -1.349842e+02
   6.276696e-01  -1.884596e+02
   1.422296e+02  -1.276957e+02
   1.516360e+02  -7.767233e+00
   4.554839e+01   7.917950e+01
  -5.429714e+01   7.892873e+01
  -5.817529e+01   1.974093e+01
   7.043127e+00  -2.087907e+01
   4.182089e+01  -2.622340e+00
  -8.662950e+00   3.167130e+01
  -9.091389e+01   5.201815e+00
  -1.043948e+02  -9.102738e+01
  -5.802880e+00  -1.722540e+02
   1.421857e+02  -1.407806e+02
   2.231858e+02   1.820797e+00
   1.701114e+02   1.535985e+02
   2.810430e+01   2.051658e+02
  -9.166731e+01   1.382000e+02
  -1.145587e+02   2.759860e+01
  -6.703311e+01  -3.426697e+01
  -3.304594e+01  -2.317810e+01
  -5.312444e+01   1.201812e+01
  -8.491580e+01   3.406171e+00
  -5.693651e+01  -5.881172e+01
   3.936142e+01  -1.060505e+02
   1.250807e+02  -6.663683e+01
   1.085042e+02   4.829496e+01
  -1.877480e+01   1.305320e+02
  -1.612677e+02   8.309738e+01
  -1.911087e+02  -7.091433e+01
  -6.712453e+01  -2.020250e+02
   1.254370e+02  -1.964768e+02
   2.445342e+02  -5.979596e+01
   2.128702e+02   8.991316e+01
   7.959881e+01   1.493613e+02
  -3.908511e+01   1.174107e+02
  -7.628982e+01   6.790832e+01
  -5.695499e+01   6.529507e+01
  -4.909779e+01   9.009248e+01
  -8.424824e+01   7.556011e+01
  -1.247801e+02  -1.621753e+01
  -1.096844e+02  -1.419061e+02
  -1.875525e+01  -2.058201e+02
   9.750824e+01  -1.480056e+02
   1.546308e+02  -4.086987e+00
   1.079095e+02   1.205040e+02
  -8.316859e-01   1.418464e+02
  -7.540383e+01   6.816779e+01
  -5.809738e+01  -2.047234e+01
   9.685782e+00  -5.419471e+01
   3.348039e+01  -3.293978e+01
  -2.108617e+01  -7.303781e+00
  -8.059007e+01  -1.404337e+01
  -4.858406e+01  -3.809839e+01
   7.146349e+01  -3.746930e+01
   1.650478e+02   6.488355e+00
   1.297756e+02   6.661727e+01
  -1.055647e+01   9.457009e+01
  -1.298826e+02   6.420792e+01
  -1.314670e+02  -3.156233e+00
  -3.660377e+01  -5.296292e+01
   5.538644e+01  -4.248956e+01
   7.251659e+01   1.860109e+01
   2.294847e+01   7.174257e+01
  -3.728033e+01   6.401421e+01
  -6.500312e+01   3.550015e+00
  -5.827766e+01  -4.675359e+01
  -4.449806e+01  -3.945630e+01
  -4.648817e+01  -1.008773e+00
  -5.888105e+01  -1.940256e+00
  -4.535645e+01  -6.907922e+01
   2.322717e+01  -1.420898e+02
   1.219373e+02  -1.327689e+02
   1.746119e+02  -2.692013e+01
   1.216277e+02   9.151558e+01
  -3.499955e+00   1.258633e+02
  -9.012398e+01   6.638994e+01
  -5.836809e+01  -8.051375e+00
   5.222250e+01  -1.807378e+01
   1.179357e+02   3.847824e+01
   5.820943e+01   9.617494e+01
  -7.950485e+01   9.502586e+01
  -1.698240e+02   3.261339e+01
  -1.360194e+02  -4.287360e+01
  -2.172927e+01  -7.647708e+01
   6.064723e+01  -4.963878e+01
   4.311570e+01   6.709163e+00
  -3.796059e+01   3.121377e+01
  -8.545959e+01  -1.606537e+01
  -3.915655e+01  -1.039765e+02
   6.694253e+01  -1.424947e+02
   1.392263e+02  -6.690485e+01
   1.147673e+02   8.023406e+01
   1.620852e+01   1.724885e+02
  -7.498803e+01   1.245466e+02
  -9.478555e+01  -1.394629e+01
  -4.587644e+01  -1.096489e+02
   1.858597e+01  -8.941300e+01
   4.854366e+01  -9.553785e+00
   3.548155e+01   2.853134e+01
   9.538874e+00   3.837379e+00
   6.948734e+00  -1.561832e+01
   3.319357e+01   2.249356e+01
   5.329514e+01   8.294661e+01
   2.342901e+01   9.260130e+01
  -5.520898e+01   3.577358e+01
  -1.208106e+02  -3.353120e+01
  -1.063960e+02  -6.215752e+01
  -1.582640e+01  -4.981782e+01
   7.031946e+01  -2.503443e+01
   7.781135e+01  -3.287815e+00
   1.842294e+01   1.427519e+01
  -3.041209e+01   2.067810e+01
  -2.140859e+01   9.421305e+00
   9.827237e+00  -5.531580e+00
  -1.522499e+00  -4.166991e+00
  -5.774022e+01   3.278958e+00
  -8.666167e+01  -1.878688e+01
  -2.708942e+01  -7.544927e+01
   9.254039e+01  -1.116129e+02
   1.735735e+02  -6.594347e+01
   1.453656e+02   4.887066e+01
   3.271003e+01   1.439932e+02
  -7.403619e+01   1.434736e+02
  -1.070822e+02   6.219109e+01
  -7.238359e+01  -1.716388e+01
  -2.401272e+01  -3.623609e+01
  -4.249377e+00  -1.437175e+01
  -1.368274e+01  -1.032805e+01
  -2.500419e+01  -4.658386e+01
  -1.252587e+01  -8.267856e+01
   2.753755e+01  -6.438345e+01
   7.063696e+01   1.234547e+01
   7.498965e+01   8.931960e+01
   1.826554e+01   1.002430e+02
  -6.496167e+01   3.457674e+01
  -9.863447e+01  -5.322722e+01
  -4.099496e+01  -9.387400e+01
   5.765466e+01  -6.326580e+01
   9.846619e+01   5.684219e+00
   4.460548e+01   5.814942e+01
  -3.314302e+01   6.200671e+01
  -4.187413e+01   2.679064e+01
   1.927247e+01  -8.800573e+00
   6.083598e+01  -9.344866e+00
   1.683800e+01   2.629401e+01
  -7.252631e+01   5.898283e+01
  -1.131288e+02   4.402529e+01
  -6.777042e+01  -2.007003e+01
   1.216210e+01  -8.023723e+01
   5.622603e+01  -7.843365e+01
   4.589667e+01  -1.544747e+01
   1.089405e+01   4.628002e+01
  -1.943058e+01   4.737709e+01
  -3.352564e+01  -4.506399e+00
  -2.694937e+01  -4.822074e+01
  -4.619819e-02  -3.910413e+01
   3.107582e+01   3.687822e+00
   3.897046e+01   2.621049e+01
   1.736491e+01   6.302757e+00
  -6.782932e+00  -2.189687e+01
  -6.440419e+00  -1.436728e+01
   9.499282e+00   2.664606e+01
   7.667103e+00   5.269013e+01
  -2.177006e+01   2.725563e+01
  -4.356874e+01  -2.749369e+01
  -2.006033e+01  -5.496264e+01
   3.446276e+01  -2.692144e+01
   6.103493e+01   2.672862e+01
   2.127192e+01   5.347699e+01
  -5.228479e+01   3.403181e+01
  -8.671440e+01  -7.837864e+00
  -4.680554e+01  -3.824323e+01
   2.610167e+01  -4.371714e+01
   5.940438e+01  -2.950886e+01
   2.804177e+01  -7.733855e+00
  -2.202643e+01   6.312395e+00
  -2.857401e+01  -6.715979e-01
   1.754560e+01  -2.063647e+01
   6.541401e+01  -2.117926e+01
