
 $NMID
 id='ANONYMOUS ', fmtdat='(2E16.6)'
 volume=1.0
 tramp=1.0
 $END
  -4.577705e+03   2.439749e+01
  -2.589629e+03  -2.614018e+03
   8.765775e+02  -2.675771e+03
   2.147823e+03  -1.124729e+03
   1.079780e+03   7.763110e+02
  -6.759912e+02   6.095135e+02
  -9.641905e+02  -5.515572e+02
  -1.430990e+01  -1.158513e+03
   8.601924e+02  -7.299581e+02
   1.003031e+03   1.945459e+02
   6.353016e+02   1.052422e+03
  -2.254929e+02   1.032590e+03
  -7.597536e+02   5.023826e+01
  -4.193460e+02  -8.326186e+02
   3.484170e+02  -7.995534e+02
   7.135995e+02   1.903399e+01
   2.322920e+02   7.128206e+02
  -3.971253e+02   6.531941e+02
  -6.768289e+02   2.835587e+01
  -3.964047e+02  -4.147261e+02
   4.535173e+01  -4.713114e+02
   3.434165e+02  -2.656794e+02
   2.885535e+02   5.887467e+01
  -1.012815e+02   1.584029e+02
  -4.444896e+02  -6.756403e+01
  -2.576162e+02  -4.346639e+02
   4.754485e+02  -4.768701e+02
   9.076798e+02   5.100969e+01
   4.856987e+02   6.099113e+02
  -4.350894e+02   5.700805e+02
  -8.174714e+02  -3.601345e+01
  -3.737899e+02  -5.332864e+02
   3.120143e+02  -5.628796e+02
   6.235716e+02  -2.090498e+02
   4.527636e+02   2.726983e+02
   8.272631e+01   5.442171e+02
  -2.289674e+02   3.225728e+02
  -2.012133e+02  -2.584742e+02
   1.727401e+02  -5.109199e+02
   5.086780e+02   1.659888e+01
   2.748895e+02   7.568506e+02
  -3.605536e+02   7.796695e+02
  -6.918611e+02  -8.880964e+00
  -2.987341e+02  -6.413736e+02
   3.411875e+02  -3.715071e+02
   4.531140e+02   3.555657e+02
  -6.988544e+01   6.102567e+02
  -6.165525e+02   1.622179e+02
  -6.434854e+02  -4.327374e+02
  -1.620083e+02  -6.296695e+02
   4.287767e+02  -3.751182e+02
   6.759980e+02   8.498740e+01
   3.789271e+02   4.336095e+02
  -2.022758e+02   4.042313e+02
  -5.027642e+02   3.039367e+01
  -2.497085e+02  -2.671488e+02
   1.663545e+02  -1.368319e+02
   1.840937e+02   1.969883e+02
  -1.772618e+02   2.344354e+02
  -3.844408e+02  -8.691433e+01
  -1.502761e+02  -3.435809e+02
   2.265094e+02  -2.677126e+02
   3.451339e+02  -4.449408e+01
   1.854922e+02   1.011557e+02
  -3.732698e+01   2.114938e+02
  -2.200995e+02   3.213047e+02
  -3.453914e+02   2.332831e+02
  -3.136454e+02  -1.389318e+02
  -8.377006e+01  -4.715932e+02
   1.459622e+02  -4.113846e+02
   1.526559e+02  -9.435843e+01
   1.622892e+01   5.050877e+01
   5.940183e+00  -7.774494e+01
   1.754115e+02  -1.568584e+02
   2.976965e+02   3.017417e+01
   1.909744e+02   2.807154e+02
  -6.012606e+01   2.843567e+02
  -2.418307e+02   2.783234e+01
  -2.213985e+02  -2.456223e+02
  -2.205042e+00  -3.152889e+02
   2.735377e+02  -1.322816e+02
   3.820466e+02   1.749229e+02
   1.936932e+02   3.794761e+02
  -1.158745e+02   3.293466e+02
  -2.498569e+02   1.136751e+02
  -1.553164e+02  -2.060066e+01
  -8.576511e+01   2.351915e+01
  -2.254149e+02   7.165095e+01
  -4.032014e+02  -5.001045e+01
  -3.364805e+02  -2.863247e+02
  -1.108345e+00  -4.496371e+02
   3.594718e+02  -4.178650e+02
   4.999171e+02  -2.067684e+02
   3.581077e+02   9.628552e+01
   6.347286e+01   3.105606e+02
  -1.463163e+02   2.705930e+02
  -1.042877e+02   2.575048e+01
   1.129210e+02  -1.288728e+02
   2.226556e+02   2.070730e+00
   6.164284e+01   2.201990e+02
  -1.841323e+02   1.939708e+02
  -2.078323e+02  -7.242517e+01
   1.653705e+01  -2.219000e+02
   2.134533e+02  -4.496043e+01
   1.726166e+02   2.582047e+02
  -3.455174e+01   3.553555e+02
  -2.281312e+02   1.853927e+02
  -3.159189e+02  -6.567332e+01
  -2.748512e+02  -2.286048e+02
  -1.017971e+02  -2.542933e+02
   1.123918e+02  -1.623374e+02
   1.873088e+02  -2.463396e+01
   6.275196e+01   3.781471e+01
  -8.121629e+01  -3.278406e+01
  -4.143201e+01  -1.306050e+02
   1.287359e+02  -1.108386e+02
   1.948104e+02   1.063780e+01
   6.700914e+01   8.164891e+01
  -8.477964e+01   2.697692e+01
  -6.466337e+01  -6.700812e+01
   1.155766e+02  -8.545448e+01
   2.761804e+02  -4.928410e+00
   2.630913e+02   1.294397e+02
   6.781011e+01   2.496384e+02
  -1.774721e+02   2.687578e+02
  -2.887902e+02   1.377196e+02
  -1.821412e+02  -5.308318e+01
   2.156083e+01  -1.220624e+02
   1.007459e+02  -1.347268e+01
  -2.494707e+01   1.099338e+02
  -2.013539e+02   6.831301e+01
  -2.255437e+02  -1.057108e+02
  -7.452748e+01  -2.193040e+02
   9.983473e+01  -1.664632e+02
   1.547457e+02  -3.037630e+01
   8.071660e+01   4.551362e+01
  -2.247850e+01   1.052994e+01
  -4.070273e+01  -7.465411e+01
   6.212822e+01  -1.094953e+02
   1.928376e+02  -3.134953e+01
   1.957495e+02   1.221860e+02
   2.581513e+01   2.238558e+02
  -1.706047e+02   1.706356e+02
  -2.068238e+02   4.260842e+00
  -7.230062e+01  -1.240172e+02
   6.955309e+01  -1.197637e+02
   8.977240e+01  -3.351000e+01
   2.392464e+01   2.651556e+01
  -1.747086e+01   2.171577e+01
   1.072821e+01  -2.261401e+00
   6.610496e+01   1.210023e+01
   8.126504e+01   7.770694e+01
   1.463880e+01   1.501121e+02
  -1.195146e+02   1.500517e+02
  -2.287352e+02   3.024457e+01
  -2.027999e+02  -1.461125e+02
  -4.274759e+01  -2.392610e+02
   1.120724e+02  -1.720792e+02
   1.383582e+02  -2.556263e+01
   6.964695e+01   5.977791e+01
   2.678100e+01   3.811142e+01
   5.256553e+01  -1.112842e+01
   7.655045e+01  -4.969811e+00
   3.626874e+01   4.714331e+01
  -4.237521e+01   7.985991e+01
  -9.245841e+01   4.742973e+01
  -7.415549e+01  -3.353415e+01
   1.438014e+01  -1.005131e+02
   1.317979e+02  -7.757004e+01
   1.895825e+02   5.102077e+01
   1.024378e+02   1.980915e+02
  -1.018228e+02   2.284214e+02
  -2.678761e+02   9.799526e+01
  -2.621280e+02  -8.678545e+01
  -1.123936e+02  -1.801393e+02
   3.952127e+01  -1.504481e+02
   9.729369e+01  -8.527382e+01
   8.377438e+01  -6.784031e+01
   7.134879e+01  -8.695344e+01
   9.342433e+01  -6.955160e+01
   1.246481e+02   2.429802e+01
   1.123489e+02   1.535688e+02
   2.675419e+01   2.255402e+02
  -9.928156e+01   1.737536e+02
  -1.758062e+02   2.262072e+01
  -1.377938e+02  -1.213449e+02
  -2.231910e+01  -1.614595e+02
   6.332349e+01  -9.550017e+01
   5.796393e+01  -4.830078e+00
   7.619898e+00   3.827255e+01
  -4.168561e+00   3.232833e+01
   4.017858e+01   1.944542e+01
   7.781952e+01   2.504947e+01
   4.269912e+01   3.829994e+01
  -6.018618e+01   3.552368e+01
  -1.507734e+02   3.527102e+00
  -1.400103e+02  -4.747277e+01
  -1.827456e+01  -8.365778e+01
   1.163484e+02  -7.061231e+01
   1.429704e+02  -1.256023e+01
   4.674543e+01   3.917447e+01
  -6.200999e+01   3.418970e+01
  -7.444570e+01  -2.117107e+01
  -1.977378e+00  -6.711133e+01
   5.965451e+01  -5.428894e+01
   5.998436e+01   4.883817e+00
   3.695712e+01   5.104773e+01
   4.024390e+01   4.227766e+01
   6.296195e+01   2.951799e+00
   6.609890e+01   2.077892e-02
   3.063255e+01   6.520533e+01
  -3.735221e+01   1.419644e+02
  -1.154599e+02   1.370087e+02
  -1.589276e+02   2.899358e+01
  -1.182940e+02  -9.390564e+01
  -4.391564e+00  -1.246636e+02
   8.623379e+01  -5.636194e+01
   5.959076e+01   1.892459e+01
  -5.978532e+01   1.966206e+01
  -1.380366e+02  -4.606945e+01
  -7.636300e+01  -1.081618e+02
   8.064739e+01  -1.116556e+02
   1.912264e+02  -5.221607e+01
   1.634441e+02   3.255189e+01
   3.867461e+01   8.715320e+01
  -5.985492e+01   7.277337e+01
  -4.871960e+01   9.885453e+00
   3.833020e+01  -2.518440e+01
   8.858368e+01   2.468487e+01
   2.790159e+01   1.204136e+02
  -9.796301e+01   1.517459e+02
  -1.708353e+02   5.560267e+01
  -1.237775e+02  -1.066225e+02
  -4.664685e+00  -1.988978e+02
   8.831008e+01  -1.429759e+02
   1.042007e+02   6.585388e+00
   6.136699e+01   1.167728e+02
   1.855705e+00   1.069873e+02
  -4.315925e+01   2.231470e+01
  -5.373936e+01  -2.984811e+01
  -2.935975e+01  -8.491396e+00
  -4.165244e+00   2.097215e+01
  -1.734301e+01  -1.433061e+01
  -5.346082e+01  -8.887048e+01
  -4.316906e+01  -1.100260e+02
   4.483555e+01  -4.375538e+01
   1.379160e+02   4.270038e+01
   1.302469e+02   7.249264e+01
   1.601451e+01   4.783239e+01
  -9.028202e+01   1.982368e+01
  -8.846788e+01   8.068321e+00
  -8.664616e+00  -5.181890e+00
   3.938140e+01  -2.141452e+01
   1.157000e+01  -1.946810e+01
  -2.416357e+01   1.034943e-01
   6.547280e+00   9.448610e+00
   7.663494e+01   6.237779e+00
   8.968315e+01   2.665710e+01
   7.971381e-01   8.077482e+01
  -1.257204e+02   1.094598e+02
  -1.850467e+02   4.896515e+01
  -1.337215e+02  -7.593917e+01
  -1.674282e+01  -1.631980e+02
   8.357781e+01  -1.435727e+02
   1.143775e+02  -5.065232e+01
   7.872588e+01   2.604942e+01
   2.197303e+01   3.611373e+01
  -6.617600e+00   7.908746e+00
   7.488142e+00   2.573177e+00
   3.248495e+01   4.371565e+01
   2.270394e+01   8.839766e+01
  -3.037506e+01   7.022269e+01
  -8.190480e+01  -2.123602e+01
  -7.388888e+01  -1.120984e+02
   2.023383e+00  -1.128673e+02
   8.618634e+01  -1.875737e+01
   1.006492e+02   8.193847e+01
   2.619567e+01   1.044023e+02
  -6.939485e+01   5.033026e+01
  -9.542537e+01  -1.635020e+01
  -3.510912e+01  -4.880551e+01
   3.351837e+01  -4.683601e+01
   2.817634e+01  -2.659569e+01
  -3.720085e+01  -2.412709e+00
  -6.909475e+01   3.569041e+00
  -1.202479e+01  -2.514544e+01
   8.086181e+01  -6.397532e+01
   1.136526e+02  -5.685269e+01
   5.957230e+01   1.239750e+01
  -1.864028e+01   8.126437e+01
  -5.238037e+01   7.510917e+01
  -3.384686e+01   9.232623e-01
   1.955331e+00  -5.697605e+01
   2.770084e+01  -3.936812e+01
   3.610548e+01   2.245563e+01
   2.461897e+01   5.445894e+01
  -4.840435e+00   3.033741e+01
  -3.329694e+01  -1.014936e+01
  -3.828660e+01  -2.013236e+01
  -2.041728e+01  -2.956973e-01
  -1.352015e+00   1.179406e+01
   5.697286e+00  -7.111699e+00
   1.056743e+01  -3.832197e+01
   2.379320e+01  -4.202521e+01
   3.558164e+01  -2.247401e+00
   2.560650e+01   4.958209e+01
  -9.801773e+00   6.166679e+01
  -4.766364e+01   1.723048e+01
  -5.314617e+01  -4.355864e+01
  -1.024222e+01  -6.453805e+01
   5.535546e+01  -3.117503e+01
   8.599491e+01   1.978363e+01
   4.622709e+01   4.540905e+01
  -3.022107e+01   3.758085e+01
  -6.465909e+01   1.646155e+01
  -2.201345e+01   2.794766e+00
   4.052705e+01   4.840583e+00
   3.877942e+01   2.033653e+01
  -3.401925e+01   3.359539e+01
  -9.572985e+01   1.774070e+01
