
 $NMID
 id='ANONYMOUS ', fmtdat='(2E16.6)'
 volume=1.0
 tramp=1.0
 $END
  -2.344083e+03   3.935904e+01
  -1.641214e+03  -1.119432e+03
  -1.693691e+02  -1.430146e+03
   8.025191e+02  -1.274890e+03
   6.868904e+02  -3.781150e+02
   1.502002e+02   6.585445e+00
   2.332012e+01  -1.407480e+02
   1.239333e+01  -2.848061e+02
   3.378796e+02  -3.271364e+02
   4.146414e+02  -7.220672e+01
   3.744157e+02   3.641324e+02
   8.685139e+01   5.147465e+02
  -1.964742e+02   1.712459e+02
  -1.309350e+02  -2.380368e+02
   1.712349e+02  -3.596174e+02
   3.080809e+02  -8.659180e+01
   2.411382e+02   3.727325e+02
  -5.304703e+01   4.871517e+02
  -3.449844e+02   3.223524e+02
  -4.071943e+02  -1.005730e+02
  -1.783511e+02  -2.465378e+02
   6.914945e+01  -1.863380e+02
   2.694345e-01  -9.197144e+01
  -1.704877e+02  -1.225435e+02
  -1.870878e+02  -3.134133e+02
   8.207711e+01  -3.231185e+02
   4.148031e+02  -8.481859e+01
   4.277505e+02   1.907010e+02
   1.359695e+02   2.820403e+02
  -2.621663e+02   7.944215e+01
  -3.885787e+02  -1.484922e+02
  -1.302176e+02  -2.910131e+02
   2.105768e+02  -2.703930e+02
   3.483369e+02  -9.792898e+01
   2.608462e+02   1.201398e+02
   1.089119e+02   2.174658e+02
   2.772055e+01   1.345961e+02
   9.841281e+01  -4.474635e+01
   1.594978e+02  -5.324890e+01
   1.049404e+02   1.692518e+02
  -5.224637e+01   3.683254e+02
  -2.150025e+02   3.088519e+02
  -2.108624e+02  -8.372655e+00
  -6.431328e+01  -2.161259e+02
   1.013611e+02  -6.701068e+01
   9.946769e+01   2.147969e+02
  -1.177807e+02   2.943141e+02
  -3.673493e+02   1.647777e+01
  -3.896322e+02  -3.265670e+02
  -1.164666e+02  -4.226890e+02
   2.441239e+02  -2.169177e+02
   4.189819e+02   4.989334e+01
   2.936377e+02   1.713509e+02
   9.795090e+00   1.503437e+02
  -1.882743e+02   8.342674e+01
  -1.763178e+02   3.162713e+01
  -4.659383e+01   7.820081e+00
   1.779322e+01   8.565714e+00
  -5.946366e+01   1.627419e+01
  -1.595896e+02  -2.439688e+01
  -1.097628e+02  -1.328289e+02
   1.099062e+02  -2.201074e+02
   3.085645e+02  -1.497044e+02
   2.698238e+02   8.965458e+01
  -8.241298e+00   3.225094e+02
  -2.909675e+02   3.395166e+02
  -3.476290e+02   1.169764e+02
  -1.871528e+02  -1.603338e+02
  -1.361350e+01  -2.922436e+02
   2.471616e+01  -2.520222e+02
  -1.115049e+01  -1.646462e+02
   2.183284e+01  -1.285624e+02
   1.488542e+02  -1.086258e+02
   2.446703e+02  -1.656847e+01
   2.018953e+02   1.388616e+02
   4.560590e+01   2.290509e+02
  -1.063359e+02   1.436422e+02
  -1.567918e+02  -6.583742e+01
  -8.422005e+01  -2.263290e+02
   6.606231e+01  -2.032253e+02
   2.101505e+02  -2.294127e+01
   2.435669e+02   1.639406e+02
   1.335205e+02   2.457028e+02
  -3.577084e+01   2.112010e+02
  -1.258886e+02   1.427639e+02
  -1.214518e+02   9.672036e+01
  -1.435836e+02   7.698688e+01
  -2.610965e+02   2.537429e+01
  -3.753099e+02  -1.027344e+02
  -2.854036e+02  -2.747425e+02
   3.291005e+01  -3.884989e+02
   3.533891e+02  -3.401572e+02
   4.270475e+02  -1.364302e+02
   2.286387e+02   9.951237e+01
  -7.532610e+00   2.105287e+02
  -7.594986e+01   1.465011e+02
   1.931866e+01   2.364559e+01
   1.165376e+02  -1.425299e+01
   9.593708e+01   5.340037e+01
  -1.411819e+01   1.156035e+02
  -9.370744e+01   7.155752e+01
  -7.199015e+01  -4.871565e+01
   3.372684e+01  -9.714365e+01
   1.299686e+02   1.440744e+01
   1.193653e+02   2.054123e+02
  -2.247961e+01   2.967966e+02
  -2.189583e+02   1.800804e+02
  -3.208296e+02  -6.267105e+01
  -2.370225e+02  -2.447409e+02
  -3.418589e+01  -2.443102e+02
   1.219727e+02  -1.103321e+02
   1.207842e+02   5.765709e+00
   1.805669e+01   7.050462e+00
  -3.932336e+01  -6.433407e+01
   1.908874e+01  -9.665336e+01
   1.132637e+02  -4.372243e+01
   1.159639e+02   3.317863e+01
   1.148156e+01   4.322817e+01
  -7.811800e+01  -2.563544e+01
  -2.591744e+01  -9.518375e+01
   1.483745e+02  -7.849145e+01
   2.797530e+02   3.425934e+01
   2.230429e+02   1.712875e+02
   3.838452e+00   2.386746e+02
  -2.001249e+02   1.914120e+02
  -2.333145e+02   6.621186e+01
  -1.060797e+02  -4.178601e+01
   3.074919e+01  -5.454348e+01
   4.472244e+01   1.233530e+01
  -5.819686e+01   6.064122e+01
  -1.589734e+02   1.190825e+01
  -1.510483e+02  -9.861571e+01
  -3.787073e+01  -1.576557e+02
   7.936170e+01  -1.043379e+02
   1.016554e+02  -2.992763e+00
   2.683096e+01   3.219081e+01
  -4.749366e+01  -3.241598e+01
  -2.055674e+01  -1.145376e+02
   1.007175e+02  -1.099022e+02
   1.975844e+02  -1.159230e+00
   1.580400e+02   1.297590e+02
   1.398190e+00   1.827604e+02
  -1.369399e+02   1.243138e+02
  -1.438624e+02   8.142868e+00
  -3.989170e+01  -7.419196e+01
   5.421277e+01  -7.188904e+01
   5.303876e+01  -1.384388e+01
  -1.228442e+01   2.213657e+01
  -4.347744e+01   5.325618e-01
   8.998881e+00  -3.435064e+01
   9.067601e+01  -7.083406e+00
   1.039576e+02   8.885395e+01
   5.845527e+00   1.670798e+02
  -1.395526e+02   1.364548e+02
  -2.170930e+02  -1.977793e+00
  -1.642281e+02  -1.485765e+02
  -2.485211e+01  -1.993303e+02
   8.948403e+01  -1.344430e+02
   1.104302e+02  -2.545059e+01
   6.479374e+01   3.551473e+01
   3.124603e+01   2.252830e+01
   5.100444e+01  -1.366741e+01
   8.271840e+01  -5.231774e+00
   5.663245e+01   5.656081e+01
  -3.597594e+01   1.057230e+02
  -1.209996e+02   6.584087e+01
  -1.071422e+02  -4.682900e+01
   1.800846e+01  -1.270334e+02
   1.579733e+02  -8.105080e+01
   1.887021e+02   7.127360e+01
   6.430850e+01   1.990581e+02
  -1.273352e+02   1.920168e+02
  -2.419716e+02   5.792956e+01
  -2.084933e+02  -8.994104e+01
  -7.529868e+01  -1.490421e+02
   4.100514e+01  -1.153836e+02
   7.632753e+01  -6.529497e+01
   5.578762e+01  -5.987866e+01
   4.804968e+01  -8.363346e+01
   8.084382e+01  -7.098192e+01
   1.179903e+02   1.658460e+01
   1.024238e+02   1.373834e+02
   1.605916e+01   1.992441e+02
  -9.417582e+01   1.431500e+02
  -1.488572e+02   3.105468e+00
  -1.048300e+02  -1.184374e+02
  -1.579795e-01  -1.394654e+02
   7.324084e+01  -6.643754e+01
   5.769484e+01   2.202250e+01
  -8.566389e+00   5.585546e+01
  -3.390127e+01   3.404178e+01
   1.739731e+01   7.103466e+00
   7.583354e+01   1.264111e+01
   4.662320e+01   3.628323e+01
  -6.963773e+01   3.558054e+01
  -1.623043e+02  -8.099026e+00
  -1.287373e+02  -6.731085e+01
   9.955809e+00  -9.371321e+01
   1.295446e+02  -6.292968e+01
   1.325694e+02   3.189953e+00
   3.866375e+01   5.159569e+01
  -5.357870e+01   4.186328e+01
  -7.134061e+01  -1.639881e+01
  -2.260310e+01  -6.750309e+01
   3.636086e+01  -6.085433e+01
   6.333302e+01  -3.308581e+00
   5.696786e+01   4.573834e+01
   4.349001e+01   3.994439e+01
   4.510934e+01   2.190633e+00
   5.644881e+01   1.628963e+00
   4.355418e+01   6.601098e+01
  -2.176280e+01   1.384875e+02
  -1.178883e+02   1.311018e+02
  -1.708120e+02   2.867148e+01
  -1.208380e+02  -8.823945e+01
   1.260618e+00  -1.240835e+02
   8.791890e+01  -6.625403e+01
   5.880831e+01   7.585100e+00
  -4.975879e+01   1.832424e+01
  -1.155847e+02  -3.751807e+01
  -5.825546e+01  -9.496574e+01
   7.770333e+01  -9.329692e+01
   1.679560e+02  -3.090596e+01
   1.355782e+02   4.359948e+01
   2.281467e+01   7.623803e+01
  -5.944108e+01   4.954675e+01
  -4.380161e+01  -5.092298e+00
   3.489679e+01  -2.846847e+01
   8.144514e+01   1.645590e+01
   3.721810e+01   1.007077e+02
  -6.479672e+01   1.379306e+02
  -1.347397e+02   6.552249e+01
  -1.115723e+02  -7.668965e+01
  -1.677759e+01  -1.672329e+02
   7.178693e+01  -1.216638e+02
   9.182463e+01   1.352017e+01
   4.413104e+01   1.082015e+02
  -1.979618e+01   8.916915e+01
  -4.995865e+01   9.571463e+00
  -3.645409e+01  -3.037898e+01
  -9.436711e+00  -7.290135e+00
  -5.986449e+00   1.298290e+01
  -3.160535e+01  -2.259424e+01
  -5.077048e+01  -8.102689e+01
  -2.057929e+01  -9.068623e+01
   5.607143e+01  -3.460945e+01
   1.182249e+02   3.439300e+01
   1.026494e+02   6.296774e+01
   1.479163e+01   4.974478e+01
  -6.777566e+01   2.423467e+01
  -7.538889e+01   3.029300e+00
  -1.917300e+01  -1.277260e+01
   2.745570e+01  -1.843151e+01
   1.951149e+01  -8.439987e+00
  -9.837844e+00   4.783698e+00
   3.617019e-01   3.261207e+00
   5.348171e+01  -3.525940e+00
   8.226745e+01   1.740353e+01
   2.651981e+01   7.131724e+01
  -8.872972e+01   1.060688e+02
  -1.689231e+02   6.242975e+01
  -1.430825e+02  -4.842405e+01
  -3.284525e+01  -1.415238e+02
   7.377908e+01  -1.420262e+02
   1.078438e+02  -6.272220e+01
   7.378472e+01   1.603669e+01
   2.518692e+01   3.590015e+01
   5.030399e+00   1.465483e+01
   1.404174e+01   1.046613e+01
   2.521150e+01   4.608988e+01
   1.332319e+01   8.199610e+01
  -2.572072e+01   6.424329e+01
  -6.801365e+01  -1.084055e+01
  -7.300650e+01  -8.608419e+01
  -1.851794e+01  -9.713478e+01
   6.228246e+01  -3.378843e+01
   9.599055e+01   5.133388e+01
   4.088116e+01   9.196609e+01
  -5.534707e+01   6.371036e+01
  -9.640232e+01  -3.175697e+00
  -4.544322e+01  -5.582127e+01
   3.069615e+01  -6.118279e+01
   4.060170e+01  -2.684592e+01
  -1.897027e+01   8.935547e+00
  -6.108523e+01   9.630887e+00
  -1.976415e+01  -2.668379e+01
   6.856513e+01  -6.037133e+01
   1.115076e+02  -4.608357e+01
   6.967141e+01   1.757146e+01
  -8.368326e+00   7.780933e+01
  -5.286759e+01   7.702053e+01
  -4.428205e+01   1.607387e+01
  -1.037043e+01  -4.363603e+01
   1.895403e+01  -4.498533e+01
   3.282401e+01   5.353429e+00
   2.688663e+01   4.791129e+01
   3.653352e-01   3.950162e+01
  -3.067568e+01  -2.055040e+00
  -3.956500e+01  -2.515386e+01
  -1.872344e+01  -7.563834e+00
   6.279957e+00   1.953150e+01
   6.663213e+00   1.397942e+01
  -9.158452e+00  -2.391835e+01
  -8.226087e+00  -4.945206e+01
   2.022161e+01  -2.745352e+01
   4.194693e+01   2.407916e+01
   1.989051e+01   5.149032e+01
  -3.307300e+01   2.615943e+01
  -5.914415e+01  -2.510010e+01
  -2.040278e+01  -5.231863e+01
   5.183968e+01  -3.388470e+01
   8.578764e+01   8.187413e+00
   4.667143e+01   3.944532e+01
  -2.520039e+01   4.462887e+01
  -5.887020e+01   2.908941e+01
  -2.933594e+01   6.575440e+00
   1.939801e+01  -6.813212e+00
   2.687680e+01   4.232651e-01
  -1.634587e+01   1.971747e+01
  -6.198497e+01   2.011952e+01
