
 $NMID
 id='ANONYMOUS ', fmtdat='(2E16.6)'
 volume=1.0
 tramp=1.0
 $END
   1.994177e+03  -4.634106e+00
   1.268659e+03   1.267236e+03
  -3.043181e+02   1.426665e+03
  -9.747608e+02   6.011138e+02
  -5.956047e+02  -2.836133e+02
   2.649696e+02  -2.370810e+02
   5.191406e+02   1.846479e+02
  -2.797374e+01   5.506807e+02
  -4.282604e+02   4.712809e+02
  -4.215682e+02  -3.611474e+00
  -2.865476e+02  -3.918688e+02
   9.279719e+01  -4.863740e+02
   2.709387e+02  -5.918532e+01
   1.600290e+02   3.683255e+02
  -1.166442e+02   3.647587e+02
  -2.924918e+02   3.317306e+01
  -1.289178e+02  -2.969034e+02
   1.646724e+02  -3.151663e+02
   3.022315e+02  -2.481548e+01
   1.797211e+02   2.011439e+02
   3.568028e+01   2.265784e+02
  -1.019440e+02   1.207449e+02
  -8.118146e+01   1.306899e+01
   2.800212e+01  -4.562381e+00
   1.746029e+02   6.821766e+01
   5.448334e+01   2.055563e+02
  -1.945357e+02   1.552268e+02
  -3.622132e+02  -5.279592e+01
  -1.806712e+02  -2.427940e+02
   1.520542e+02  -2.094227e+02
   3.093437e+02   1.062574e+01
   1.550471e+02   2.019935e+02
  -1.127762e+02   2.339910e+02
  -2.422132e+02   8.835833e+01
  -1.828437e+02  -9.733967e+01
  -3.471275e+01  -1.986207e+02
   8.265014e+01  -1.158799e+02
   8.022321e+01   9.734615e+01
  -7.266794e+01   1.757739e+02
  -1.766273e+02  -1.096159e+01
  -1.147708e+02  -2.878434e+02
   1.320902e+02  -2.932681e+02
   2.671522e+02  -2.737734e+00
   1.326480e+02   2.310034e+02
  -1.183067e+02   1.360269e+02
  -1.707188e+02  -1.282285e+02
   1.342537e+01  -2.253725e+02
   2.281941e+02  -6.429028e+01
   2.544164e+02   1.684330e+02
   7.050228e+01   2.535507e+02
  -1.722381e+02   1.515591e+02
  -2.738713e+02  -3.498414e+01
  -1.563154e+02  -1.701260e+02
   6.941493e+01  -1.603860e+02
   1.924305e+02  -2.663672e+01
   1.047283e+02   8.642906e+01
  -5.188264e+01   5.175781e+01
  -6.960984e+01  -6.372659e+01
   6.181179e+01  -8.771404e+01
   1.543064e+02   2.220896e+01
   7.817707e+01   1.317421e+02
  -7.987283e+01   1.260028e+02
  -1.575269e+02   3.926054e+01
  -1.083741e+02  -4.770831e+01
   2.989711e+00  -1.160496e+02
   1.069072e+02  -1.510287e+02
   1.611142e+02  -9.300647e+01
   1.319067e+02   6.306174e+01
   3.287922e+01   1.900122e+02
  -4.959442e+01   1.662788e+02
  -4.763953e+01   4.793182e+01
  -5.659906e+00  -8.747819e+00
  -1.686663e+01   3.583722e+01
  -8.569467e+01   6.218487e+01
  -1.226037e+02  -1.160277e+01
  -6.830034e+01  -1.095281e+02
   3.013458e+01  -1.106796e+02
   9.408712e+01  -8.850342e+00
   8.027718e+01   9.917549e+01
  -5.353780e+00   1.266608e+02
  -1.114703e+02   5.470863e+01
  -1.554887e+02  -6.704541e+01
  -8.530899e+01  -1.494730e+02
   3.791514e+01  -1.370246e+02
   1.026950e+02  -6.052373e+01
   7.258356e+01  -3.312946e+00
   4.626129e+01  -1.015022e+01
   9.974466e+01  -2.552481e+01
   1.758321e+02   1.668222e+01
   1.510587e+02   1.214667e+02
   3.722680e+00   1.989908e+02
  -1.572916e+02   1.906641e+02
  -2.140423e+02   8.845515e+01
  -1.452991e+02  -4.664941e+01
  -2.149469e+01  -1.314498e+02
   5.676967e+01  -1.060233e+02
   3.552847e+01  -7.310095e+00
  -4.684959e+01   4.785430e+01
  -8.366857e+01  -3.071327e+00
  -2.241462e+01  -8.311778e+01
   6.857745e+01  -7.251343e+01
   8.022190e+01   2.423391e+01
  -3.949553e+00   8.260486e+01
  -8.578819e+01   1.575444e+01
  -7.935465e+01  -1.024698e+02
   6.933684e+00  -1.506588e+02
   1.017193e+02  -8.794966e+01
   1.475423e+02   2.064234e+01
   1.230137e+02   9.940003e+01
   3.884579e+01   1.130046e+02
  -5.140197e+01   7.001039e+01
  -7.601679e+01   9.304807e+00
  -2.107349e+01  -1.462474e+01
   3.611254e+01   1.655918e+01
   1.803392e+01   5.669863e+01
  -5.145670e+01   4.869100e+01
  -7.948397e+01   3.266971e-01
  -2.980323e+01  -2.873511e+01
   3.104269e+01  -7.757066e+00
   2.251668e+01   3.083197e+01
  -5.392145e+01   3.876899e+01
  -1.228011e+02   2.674461e+00
  -1.151507e+02  -5.794046e+01
  -2.811134e+01  -1.108226e+02
   7.679911e+01  -1.177255e+02
   1.208477e+02  -6.093869e+01
   7.474550e+01   1.991722e+01
  -8.093981e+00   5.097465e+01
  -3.847292e+01   8.947033e+00
   1.294303e+01  -4.247856e+01
   8.336132e+01  -2.942441e+01
   9.267481e+01   3.944936e+01
   3.106496e+01   8.826354e+01
  -3.993575e+01   6.934154e+01
  -6.101384e+01   1.367104e+01
  -2.806624e+01  -1.675016e+01
   1.473730e+01   1.749179e+00
   1.713887e+01   4.000190e+01
  -3.258601e+01   5.200396e+01
  -8.952168e+01   1.416315e+01
  -8.830758e+01  -5.331093e+01
  -1.393659e+01  -9.638431e+01
   6.987004e+01  -7.462714e+01
   8.595633e+01  -5.096583e+00
   3.048293e+01   4.982876e+01
  -2.830238e+01   4.937190e+01
  -3.682167e+01   1.279470e+01
  -8.634909e+00  -1.286997e+01
   9.901014e+00  -8.891712e+00
  -3.057045e+00   4.236670e+00
  -2.972612e+01  -2.472459e+00
  -3.826980e+01  -3.397635e+01
  -7.021180e+00  -6.761828e+01
   5.312252e+01  -6.591246e+01
   1.002116e+02  -1.387807e+01
   8.769585e+01   6.268777e+01
   2.023208e+01   1.040580e+02
  -4.595444e+01   7.734898e+01
  -5.966508e+01   1.359809e+01
  -3.290021e+01  -2.578579e+01
  -1.349940e+01  -1.692417e+01
  -2.275445e+01   6.096635e+00
  -3.328600e+01   4.893979e+00
  -1.783852e+01  -2.083539e+01
   1.694179e+01  -3.862806e+01
   4.344854e+01  -2.441086e+01
   3.637315e+01   1.612783e+01
  -6.333499e+00   4.747484e+01
  -6.332997e+01   3.690752e+01
  -8.756558e+01  -2.350288e+01
  -4.426456e+01  -8.987157e+01
   4.721269e+01  -1.023200e+02
   1.179896e+02  -4.369730e+01
   1.146457e+02   3.683680e+01
   4.930665e+01   7.805614e+01
  -1.717991e+01   6.566220e+01
  -4.176981e+01   3.737103e+01
  -3.443926e+01   2.964323e+01
  -2.814452e+01   3.906045e+01
  -3.912367e+01   3.260099e+01
  -5.526556e+01  -8.213165e+00
  -5.124063e+01  -6.598361e+01
  -1.379779e+01  -9.976000e+01
   4.214800e+01  -7.803310e+01
   7.698590e+01  -1.034795e+01
   6.176560e+01   5.560840e+01
   1.078622e+01   7.355786e+01
  -2.937939e+01   4.133494e+01
  -2.853212e+01  -2.393084e+00
  -3.751935e+00  -2.126956e+01
   5.730821e+00  -1.467870e+01
  -1.331112e+01  -5.512916e+00
  -3.354726e+01  -8.561640e+00
  -2.014393e+01  -1.712463e+01
   2.759400e+01  -1.609954e+01
   6.983636e+01   5.629663e-01
   6.286081e+01   2.498963e+01
   5.013478e+00   4.002587e+01
  -5.549785e+01   3.169648e+01
  -6.551123e+01   4.331460e+00
  -2.174284e+01  -1.928404e+01
   2.669882e+01  -1.730599e+01
   3.419143e+01   7.731341e+00
   4.720491e+00   2.942903e+01
  -2.321231e+01   2.500740e+01
  -2.733244e+01  -1.049582e+00
  -1.928929e+01  -2.212141e+01
  -1.783352e+01  -1.860404e+01
  -2.489522e+01  -6.744079e-01
  -2.764898e+01   1.138452e+00
  -1.570067e+01  -2.758734e+01
   1.346133e+01  -6.272973e+01
   5.072653e+01  -6.236153e+01
   7.264727e+01  -1.538166e+01
   5.464701e+01   4.034849e+01
   2.912744e+00   5.695839e+01
  -3.816478e+01   2.863164e+01
  -2.668114e+01  -6.009898e+00
   2.510804e+01  -8.651090e+00
   5.917427e+01   1.917605e+01
   3.212578e+01   4.726234e+01
  -3.583753e+01   4.871699e+01
  -8.363781e+01   2.160626e+01
  -7.107379e+01  -1.598567e+01
  -1.634783e+01  -3.900135e+01
   2.705909e+01  -3.146871e+01
   2.282985e+01  -3.124249e+00
  -1.509499e+01   1.291593e+01
  -3.851833e+01  -8.232497e+00
  -1.531910e+01  -5.097898e+01
   3.791427e+01  -6.790107e+01
   7.175492e+01  -2.844443e+01
   5.616214e+01   4.285441e+01
   6.611213e+00   8.596575e+01
  -3.580117e+01   6.325305e+01
  -4.559372e+01  -2.102469e+00
  -2.676744e+01  -5.039542e+01
   9.294417e-01  -4.576953e+01
   2.052245e+01  -8.825069e+00
   2.280962e+01   1.327581e+01
   1.085119e+01   3.956552e+00
   1.351888e+00  -7.893290e+00
   8.951937e+00   7.691045e+00
   2.412176e+01   3.913923e+01
   1.754128e+01   4.762720e+01
  -2.155837e+01   1.940003e+01
  -6.095551e+01  -1.750461e+01
  -5.708207e+01  -3.159664e+01
  -8.336905e+00  -2.277550e+01
   3.770141e+01  -1.068281e+01
   3.878982e+01  -3.942346e+00
   6.233412e+00   3.147157e+00
  -1.554166e+01   9.551937e+00
  -6.432831e+00   7.354042e+00
   8.096315e+00  -1.342036e+00
  -2.727240e+00  -4.416985e+00
  -3.091159e+01  -2.014059e+00
  -3.816481e+01  -1.062571e+01
  -3.302016e+00  -3.482402e+01
   5.092235e+01  -4.923939e+01
   8.043922e+01  -2.507956e+01
   6.230963e+01   2.912337e+01
   1.217892e+01   6.983982e+01
  -3.394354e+01   6.498575e+01
  -4.976862e+01   2.612151e+01
  -3.553410e+01  -8.285419e+00
  -1.149801e+01  -1.454098e+01
   6.213441e-01  -3.700307e+00
  -5.002751e+00  -2.368217e+00
  -1.493545e+01  -2.106299e+01
  -1.034773e+01  -4.069169e+01
   1.287862e+01  -3.250444e+01
   3.669779e+01   7.478112e+00
   3.545959e+01   4.762690e+01
   2.784477e+00   5.010646e+01
  -3.681250e+01   1.159413e+01
  -4.641274e+01  -3.273967e+01
  -1.460799e+01  -4.634360e+01
   2.943362e+01  -2.591782e+01
   4.352669e+01   4.567288e+00
   1.783992e+01   2.256334e+01
  -1.361891e+01   2.320677e+01
  -1.311431e+01   1.192789e+01
   1.513198e+01  -9.552438e-01
   3.071139e+01  -2.753841e+00
   7.564560e+00   1.279372e+01
  -3.342615e+01   3.124740e+01
  -5.092052e+01   2.721604e+01
  -3.060921e+01  -4.936333e+00
   3.204702e+00  -3.701859e+01
   2.129181e+01  -3.616937e+01
   1.703549e+01  -4.179669e+00
   2.707003e+00   2.309406e+01
  -1.016519e+01   1.814804e+01
  -1.615643e+01  -7.757817e+00
  -1.188894e+01  -2.346194e+01
   1.659376e+00  -1.430157e+01
   1.509670e+01   3.655115e+00
   1.717849e+01   9.198624e+00
   8.110871e+00   5.268320e-01
  -7.694429e-01  -6.549709e+00
  -2.223700e+00   3.655504e-01
  -1.363127e+00   1.525660e+01
  -6.176521e+00   1.965158e+01
  -1.392195e+01   4.243188e+00
  -1.352132e+01  -1.866042e+01
   7.234158e-01  -2.606296e+01
   1.948738e+01  -8.911213e+00
   2.473879e+01   1.714519e+01
   6.236063e+00   2.775934e+01
  -2.423111e+01   1.504626e+01
  -3.916490e+01  -6.836615e+00
  -2.174542e+01  -1.977650e+01
   1.248689e+01  -1.839530e+01
   2.864915e+01  -9.256700e+00
   1.120131e+01  -1.189493e+00
  -1.595435e+01   4.644041e-02
  -1.703667e+01  -6.697455e+00
   1.219800e+01  -1.463052e+01
   3.889765e+01  -9.692679e+00
