
 $NMID
 id='ANONYMOUS ', fmtdat='(2E16.6)'
 volume=1.0
 tramp=1.0
 $END
  -4.637286e+03  -2.817234e+02
  -2.841690e+03  -2.471919e+03
   3.205452e+02  -2.655174e+03
   2.297510e+03  -1.142175e+03
   9.592695e+02   2.506576e+02
  -4.929322e+02   4.791469e+02
  -5.271377e+02  -3.105903e+02
   1.417086e+02  -8.464451e+02
   6.413630e+02  -6.145208e+02
   7.994640e+02   1.078074e+02
   3.720210e+02   8.385921e+02
  -1.430306e+02   8.595802e+02
  -4.091596e+02   1.560371e+02
  -2.676860e+02  -6.829215e+02
   2.358905e+02  -6.454807e+02
   5.083952e+02   3.456945e+00
   2.254976e+02   6.168463e+02
  -2.622545e+02   6.297665e+02
  -5.166940e+02   2.067778e+02
  -4.149730e+02  -3.242209e+02
  -3.751863e+01  -4.238544e+02
   2.268491e+02  -2.862761e+02
   1.696520e+02  -5.264142e+01
  -1.561484e+02  -1.726622e+01
  -3.754561e+02  -2.167754e+02
  -9.081539e+01  -4.382545e+02
   5.183868e+02  -2.999388e+02
   7.797297e+02   1.331781e+02
   3.351457e+02   5.031501e+02
  -3.617218e+02   3.776305e+02
  -6.655929e+02  -8.893192e+01
  -3.117712e+02  -4.598501e+02
   2.624926e+02  -4.584975e+02
   5.251032e+02  -1.597495e+02
   3.843653e+02   2.143630e+02
   6.316837e+01   3.990564e+02
  -1.356045e+02   2.384186e+02
  -5.179825e+01  -1.614122e+02
   1.899933e+02  -2.998319e+02
   3.519562e+02   8.523575e+01
   1.459229e+02   6.152429e+02
  -3.075798e+02   5.931337e+02
  -5.184495e+02   1.050309e+01
  -2.399498e+02  -4.627130e+02
   2.276705e+02  -2.515785e+02
   3.239106e+02   2.878183e+02
  -7.440240e+01   4.848261e+02
  -5.291780e+02   1.078141e+02
  -5.754119e+02  -4.153837e+02
  -1.682886e+02  -5.884223e+02
   3.636318e+02  -3.420045e+02
   6.017461e+02   5.621379e+01
   3.786658e+02   3.318305e+02
  -9.231394e+01   3.154305e+02
  -3.675943e+02   7.302977e+01
  -2.319612e+02  -1.243603e+02
   6.454367e+01  -7.625708e+01
   1.151832e+02   1.052152e+02
  -1.218034e+02   1.360808e+02
  -2.929391e+02  -5.340633e+01
  -1.440937e+02  -2.459449e+02
   1.748663e+02  -2.506032e+02
   3.418663e+02  -9.999402e+01
   2.387154e+02   9.508661e+01
  -1.408340e+01   2.745202e+02
  -2.527228e+02   3.508578e+02
  -3.603581e+02   1.953465e+02
  -2.794947e+02  -1.499183e+02
  -7.041126e+01  -4.040184e+02
   8.679767e+01  -3.517293e+02
   8.195549e+01  -1.295239e+02
   1.980943e+01  -3.330824e+01
   6.876256e+01  -1.054418e+02
   2.147470e+02  -1.159796e+02
   2.722921e+02   6.515414e+01
   1.404428e+02   2.629522e+02
  -8.127571e+01   2.387846e+02
  -2.191281e+02  -6.336185e+00
  -1.728069e+02  -2.438731e+02
   3.222603e+01  -2.805274e+02
   2.629421e+02  -9.594693e+01
   3.389440e+02   1.692032e+02
   1.800173e+02   3.304517e+02
  -8.058502e+01   2.904547e+02
  -2.023312e+02   1.383387e+02
  -1.537805e+02   3.606189e+01
  -1.214842e+02   4.691862e+01
  -2.504083e+02   5.525784e+01
  -4.047180e+02  -6.431301e+01
  -3.346724e+02  -2.848502e+02
   1.800753e+00  -4.482287e+02
   3.622594e+02  -4.207612e+02
   4.858509e+02  -1.953796e+02
   3.178947e+02   1.012007e+02
   3.676644e+01   2.873248e+02
  -1.203953e+02   2.331559e+02
  -5.354635e+01   2.427059e+01
   1.162764e+02  -9.066550e+01
   1.720464e+02   1.657731e+01
   3.197705e+01   1.812079e+02
  -1.466209e+02   1.521485e+02
  -1.566787e+02  -5.882128e+01
   1.688940e+01  -1.742151e+02
   1.810465e+02  -2.665908e+01
   1.655785e+02   2.385926e+02
  -1.972351e+01   3.469441e+02
  -2.345424e+02   2.032656e+02
  -3.472320e+02  -5.618507e+01
  -2.866067e+02  -2.461368e+02
  -8.402794e+01  -2.723726e+02
   1.225839e+02  -1.594917e+02
   1.695935e+02  -1.867182e+01
   4.838427e+01   2.610486e+01
  -6.347295e+01  -4.531069e+01
  -1.494855e+01  -1.218236e+02
   1.260854e+02  -9.008736e+01
   1.660012e+02   1.856284e+01
   4.445672e+01   7.163498e+01
  -8.567905e+01   1.023526e+01
  -5.206183e+01  -8.408384e+01
   1.342556e+02  -9.747150e+01
   2.941749e+02   1.563947e+00
   2.643851e+02   1.549005e+02
   4.574762e+01   2.679213e+02
  -1.991297e+02   2.569581e+02
  -2.825058e+02   1.128177e+02
  -1.588091e+02  -5.620125e+01
   2.760088e+01  -1.035274e+02
   8.166825e+01  -5.156708e+00
  -4.029785e+01   9.377436e+01
  -1.914415e+02   5.102099e+01
  -2.047103e+02  -1.013370e+02
  -6.557484e+01  -1.999304e+02
   9.298619e+01  -1.505649e+02
   1.394647e+02  -2.536941e+01
   6.201082e+01   3.958679e+01
  -3.705326e+01  -6.383539e+00
  -3.784877e+01  -9.467794e+01
   8.104886e+01  -1.161660e+02
   2.061704e+02  -2.276886e+01
   1.910396e+02   1.279916e+02
   1.824507e+01   2.143655e+02
  -1.609497e+02   1.593650e+02
  -1.860951e+02   9.624443e+00
  -6.214089e+01  -1.061211e+02
   6.390463e+01  -1.056499e+02
   7.845909e+01  -2.722550e+01
   1.192386e+01   2.950294e+01
  -3.034836e+01   1.936444e+01
   3.904489e+00  -1.621073e+01
   7.455911e+01  -2.695527e+00
   9.692376e+01   7.836486e+01
   1.785822e+01   1.632848e+02
  -1.307875e+02   1.551763e+02
  -2.362607e+02   2.122806e+01
  -1.988459e+02  -1.549538e+02
  -3.861530e+01  -2.352956e+02
   1.083810e+02  -1.663615e+02
   1.343845e+02  -2.753192e+01
   7.143012e+01   5.165845e+01
   2.995942e+01   3.213150e+01
   5.365248e+01  -1.523119e+01
   8.405801e+01  -8.342190e+00
   5.050613e+01   5.373013e+01
  -3.752317e+01   9.824766e+01
  -1.094503e+02   6.187213e+01
  -9.607933e+01  -3.857651e+01
   1.405705e+01  -1.193114e+02
   1.531252e+02  -8.857209e+01
   2.031301e+02   5.709946e+01
   9.412547e+01   2.080801e+02
  -1.174251e+02   2.299032e+02
  -2.698718e+02   9.310206e+01
  -2.539661e+02  -8.860653e+01
  -1.052484e+02  -1.775521e+02
   3.994945e+01  -1.474358e+02
   9.238145e+01  -8.383747e+01
   7.535429e+01  -6.846789e+01
   6.341914e+01  -9.119573e+01
   9.153256e+01  -7.602695e+01
   1.301627e+02   2.048340e+01
   1.189359e+02   1.547764e+02
   2.868209e+01   2.272687e+02
  -9.972511e+01   1.706364e+02
  -1.744632e+02   1.618959e+01
  -1.339350e+02  -1.255013e+02
  -1.593648e+01  -1.593807e+02
   7.204262e+01  -8.708344e+01
   6.381025e+01   7.941190e+00
   1.721183e+00   5.018171e+01
  -2.020978e+01   3.654887e+01
   2.887971e+01   1.445226e+01
   8.057854e+01   1.814886e+01
   4.815356e+01   3.773405e+01
  -6.822865e+01   3.872955e+01
  -1.676991e+02   1.547835e+00
  -1.463896e+02  -5.800875e+01
  -7.602829e+00  -9.589796e+01
   1.307793e+02  -7.659345e+01
   1.497390e+02  -1.024090e+01
   4.874085e+01   4.736770e+01
  -6.082971e+01   4.361715e+01
  -7.950145e+01  -1.585772e+01
  -1.545317e+01  -6.943663e+01
   4.996986e+01  -6.121844e+01
   6.578904e+01  -1.768756e-02
   5.080486e+01   4.984993e+01
   4.468711e+01   4.206905e+01
   5.664894e+01   1.834842e+00
   6.392121e+01   2.591081e-01
   3.959002e+01   6.856352e+01
  -2.864494e+01   1.486877e+02
  -1.198155e+02   1.451562e+02
  -1.729357e+02   3.637915e+01
  -1.292212e+02  -9.204612e+01
  -6.481512e+00  -1.323238e+02
   8.902089e+01  -6.907618e+01
   6.201090e+01   1.200375e+01
  -5.846053e+01   2.211043e+01
  -1.369200e+02  -4.143113e+01
  -7.444131e+01  -1.085425e+02
   8.291052e+01  -1.134959e+02
   1.931696e+02  -4.955831e+01
   1.632690e+02   3.753595e+01
   3.576203e+01   8.726958e+01
  -6.294863e+01   6.793126e+01
  -5.029055e+01   6.055094e+00
   3.794574e+01  -2.693899e+01
   9.060495e+01   2.083080e+01
   3.620658e+01   1.157707e+02
  -8.431402e+01   1.542666e+02
  -1.616723e+02   6.707355e+01
  -1.274306e+02  -9.511139e+01
  -1.533245e+01  -1.949966e+02
   8.260969e+01  -1.431165e+02
   1.055461e+02   8.786065e+00
   5.993580e+01   1.197713e+02
  -6.600220e+00   1.056876e+02
  -4.953522e+01   1.800955e+01
  -4.966609e+01  -3.179267e+01
  -2.178662e+01  -7.902937e+00
  -5.491538e+00   1.955446e+01
  -2.688665e+01  -1.750153e+01
  -5.801890e+01  -8.944810e+01
  -3.687974e+01  -1.085479e+02
   5.259326e+01  -4.524224e+01
   1.377007e+02   3.818367e+01
   1.258076e+02   7.100151e+01
   1.722265e+01   5.170798e+01
  -8.424231e+01   2.304905e+01
  -8.696039e+01   5.474496e+00
  -1.373228e+01  -9.593504e+00
   3.689521e+01  -2.123399e+01
   1.769029e+01  -1.510794e+01
  -1.739807e+01   2.528049e+00
   4.037240e+00   7.248278e+00
   6.949755e+01   1.393856e+00
   9.236498e+01   2.202257e+01
   1.698752e+01   8.008370e+01
  -1.109058e+02   1.175951e+02
  -1.869843e+02   6.591043e+01
  -1.499793e+02  -6.039498e+01
  -3.236614e+01  -1.617698e+02
   7.826633e+01  -1.565581e+02
   1.164352e+02  -6.545699e+01
   8.285257e+01   1.977549e+01
   2.776687e+01   3.764502e+01
   1.003269e+00   1.128186e+01
   1.297952e+01   6.025955e+00
   3.283583e+01   4.810150e+01
   2.150181e+01   9.249984e+01
  -2.872415e+01   7.388367e+01
  -8.083314e+01  -1.543033e+01
  -8.065744e+01  -1.045215e+02
  -1.075524e+01  -1.114510e+02
   7.876547e+01  -2.870580e+01
   1.057388e+02   6.944881e+01
   3.732323e+01   1.036010e+02
  -6.524069e+01   6.162338e+01
  -1.021777e+02  -8.071214e+00
  -4.417933e+01  -5.407486e+01
   3.222946e+01  -5.784922e+01
   3.550740e+01  -2.973255e+01
  -2.986186e+01   3.377039e+00
  -6.932946e+01   8.402288e+00
  -1.816367e+01  -2.713436e+01
   7.782636e+01  -6.838265e+01
   1.193400e+02  -5.874384e+01
   7.026381e+01   1.332786e+01
  -1.226776e+01   8.513486e+01
  -5.464884e+01   8.310756e+01
  -4.102103e+01   1.056299e+01
  -4.409747e+00  -5.382587e+01
   2.465830e+01  -4.584030e+01
   3.654621e+01   1.439279e+01
   2.746957e+01   5.424906e+01
  -1.570757e+00   3.660856e+01
  -3.325529e+01  -6.408813e+00
  -4.099675e+01  -2.277799e+01
  -2.076128e+01  -2.533285e+00
   2.663954e+00   1.679031e+01
   6.539034e+00   2.283587e+00
   3.189946e-01  -3.435366e+01
   7.776090e+00  -4.848055e+01
   2.953652e+01  -1.515674e+01
   3.663698e+01   3.896050e+01
   6.418170e+00   5.982418e+01
  -4.244231e+01   2.410394e+01
  -6.019857e+01  -3.494190e+01
  -1.750734e+01  -6.191638e+01
   5.577097e+01  -3.669245e+01
   9.121074e+01   1.207996e+01
   5.045967e+01   4.391729e+01
  -2.797900e+01   4.436616e+01
  -6.441834e+01   2.533097e+01
  -2.643946e+01   5.270116e+00
   3.266082e+01  -1.463688e+00
   3.569373e+01   1.076021e+01
  -2.660955e+01   2.884892e+01
  -8.441618e+01   2.098946e+01
