
 $NMID
 id='ANONYMOUS ', fmtdat='(2E16.6)'
 volume=1.0
 tramp=1.0
 $END
   3.045386e+03  -1.332412e+02
   1.985319e+03   1.729985e+03
  -1.696971e+02   2.000551e+03
  -1.303472e+03   1.143503e+03
  -8.115185e+02   1.543326e+02
   1.498211e+01  -1.317426e+02
   3.247989e+02   1.837818e+02
  -1.044489e+02   4.993737e+02
  -3.807485e+02   4.237884e+02
  -5.334702e+02   2.443138e+01
  -2.928354e+02  -4.501267e+02
   8.087912e+01  -6.260584e+02
   2.710492e+02  -1.299124e+02
   1.393406e+02   2.743455e+02
  -8.962739e+01   4.855066e+02
  -3.616076e+02   3.545881e+01
  -2.017017e+02  -4.034658e+02
   9.375047e+01  -5.174865e+02
   4.290044e+02  -2.410631e+02
   4.077701e+02   2.017277e+02
   1.596294e+02   3.578808e+02
  -1.066974e+02   2.339520e+02
  -6.483809e+01   4.051891e+01
   1.666047e+02   8.618102e+01
   2.546857e+02   2.723497e+02
  -6.681031e+01   3.415725e+02
  -4.381371e+02   1.077517e+02
  -5.124943e+02  -2.064842e+02
  -1.733553e+02  -3.397401e+02
   3.010586e+02  -1.610334e+02
   4.235346e+02   1.555918e+02
   1.588819e+02   3.163864e+02
  -2.298535e+02   2.899503e+02
  -4.101671e+02   7.587493e+01
  -2.599001e+02  -1.534529e+02
  -4.561915e+01  -2.480992e+02
   4.456437e+01  -1.237901e+02
  -7.442188e+01   8.530935e+01
  -1.983475e+02   1.014010e+02
  -1.399722e+02  -1.465793e+02
   4.381305e+01  -3.926735e+02
   2.177010e+02  -3.127387e+02
   2.222663e+02  -1.492897e-01
   8.349559e+01   2.146249e+02
  -1.029893e+02   7.533186e+01
  -1.016768e+02  -2.211067e+02
   9.784849e+01  -3.055995e+02
   3.596880e+02  -4.018016e+01
   4.033078e+02   3.268905e+02
   1.402599e+02   4.325797e+02
  -2.446182e+02   2.361365e+02
  -4.319246e+02  -6.590824e+01
  -2.757500e+02  -2.109715e+02
   3.974765e+01  -1.671541e+02
   2.245902e+02  -5.010821e+01
   1.653712e+02   1.763677e+01
   1.333157e+01   1.003150e+01
  -2.352583e+01  -2.660610e+01
   8.179173e+01  -2.576105e+01
   1.697887e+02   4.368197e+01
   9.129445e+01   1.498872e+02
  -1.247291e+02   2.048594e+02
  -2.899471e+02   1.249003e+02
  -2.375759e+02  -8.130753e+01
   1.175159e+01  -2.833909e+02
   2.621738e+02  -3.157367e+02
   3.267143e+02  -1.274371e+02
   1.986243e+02   1.475185e+02
   3.402108e+01   3.046986e+02
  -3.102535e+01   2.682126e+02
  -1.475345e+01   1.517170e+02
  -3.045961e+01   9.758390e+01
  -1.242084e+02   1.006469e+02
  -2.165262e+02   4.357482e+01
  -2.010513e+02  -1.073582e+02
  -6.623881e+01  -2.247983e+02
   9.353679e+01  -1.630598e+02
   1.661403e+02   4.477459e+01
   1.032318e+02   2.228442e+02
  -6.226048e+01   2.096671e+02
  -2.123147e+02   3.176510e+01
  -2.416634e+02  -1.625887e+02
  -1.193755e+02  -2.472132e+02
   5.039482e+01  -2.070754e+02
   1.385037e+02  -1.291733e+02
   1.293717e+02  -7.871382e+01
   1.372705e+02  -5.901782e+01
   2.397520e+02  -9.799908e+00
   3.394645e+02   1.045348e+02
   2.584536e+02   2.619384e+02
  -3.072810e+01   3.622247e+02
  -3.325917e+02   3.231678e+02
  -4.155551e+02   1.358860e+02
  -2.416775e+02  -9.587854e+01
  -4.355566e+00  -2.135014e+02
   8.366893e+01  -1.606653e+02
   3.778035e+00  -2.907868e+01
  -1.042424e+02   2.541281e+01
  -1.004842e+02  -4.463358e+01
   6.733005e+00  -1.188989e+02
   1.014323e+02  -7.918411e+01
   8.657184e+01   4.935714e+01
  -2.575997e+01   1.048720e+02
  -1.297474e+02  -7.925691e+00
  -1.183722e+02  -1.963729e+02
   2.727005e+01  -2.810585e+02
   2.135006e+02  -1.683434e+02
   3.063946e+02   5.899940e+01
   2.292403e+02   2.340191e+02
   3.813310e+01   2.423375e+02
  -1.178867e+02   1.210176e+02
  -1.289139e+02   1.472029e+00
  -2.985149e+01  -1.276184e+01
   3.745555e+01   5.408507e+01
  -9.306843e+00   9.474722e+01
  -1.064909e+02   4.892135e+01
  -1.215327e+02  -3.077970e+01
  -2.452812e+01  -4.849946e+01
   6.983966e+01   1.554931e+01
   3.081406e+01   8.487927e+01
  -1.309159e+02   7.404506e+01
  -2.611029e+02  -3.012727e+01
  -2.157029e+02  -1.617012e+02
  -9.619187e+00  -2.318102e+02
   1.924511e+02  -1.909933e+02
   2.341476e+02  -6.653641e+01
   1.122557e+02   4.742433e+01
  -2.975272e+01   6.515648e+01
  -5.208928e+01  -5.726546e+00
   4.924819e+01  -6.252875e+01
   1.552964e+02  -1.930931e+01
   1.518704e+02   9.239883e+01
   3.940052e+01   1.575104e+02
  -8.024829e+01   1.106875e+02
  -1.069280e+02   1.001872e+01
  -3.614345e+01  -3.352533e+01
   3.970747e+01   1.779649e+01
   2.245282e+01   9.445376e+01
  -8.731989e+01   9.915509e+01
  -1.808453e+02   5.667353e+00
  -1.489877e+02  -1.181903e+02
  -2.131130e+00  -1.750244e+02
   1.330731e+02  -1.217221e+02
   1.431486e+02  -6.579524e+00
   4.395394e+01   7.777071e+01
  -5.176050e+01   7.630809e+01
  -5.817270e+01   1.808795e+01
   1.143539e-01  -2.151860e+01
   3.519812e+01  -6.643706e+00
  -2.507736e+00   2.348176e+01
  -7.297290e+01   2.346431e+00
  -8.962626e+01  -7.822669e+01
  -7.673680e+00  -1.487024e+02
   1.247113e+02  -1.243449e+02
   2.024657e+02   3.724651e-01
   1.567304e+02   1.402292e+02
   2.331539e+01   1.914612e+02
  -8.879019e+01   1.290156e+02
  -1.078849e+02   2.306027e+01
  -6.071080e+01  -3.728948e+01
  -2.726282e+01  -2.313208e+01
  -4.686608e+01   1.339825e+01
  -7.574817e+01   6.215825e+00
  -5.114677e+01  -4.902460e+01
   3.351537e+01  -9.177745e+01
   1.081373e+02  -5.672558e+01
   9.316543e+01   4.135161e+01
  -1.889926e+01   1.111108e+02
  -1.457653e+02   7.133370e+01
  -1.731376e+02  -6.394173e+01
  -6.195327e+01  -1.839846e+02
   1.163773e+02  -1.836572e+02
   2.288559e+02  -5.880754e+01
   2.016365e+02   8.501564e+01
   7.637873e+01   1.478204e+02
  -3.936818e+01   1.167040e+02
  -7.758384e+01   6.421875e+01
  -6.077297e+01   5.485271e+01
  -5.091687e+01   7.702537e+01
  -7.859232e+01   6.613227e+01
  -1.115195e+02  -1.823354e+01
  -9.692322e+01  -1.345647e+02
  -1.611458e+01  -1.931075e+02
   8.915766e+01  -1.375482e+02
   1.435495e+02  -3.676333e+00
   1.034252e+02   1.108578e+02
   4.063261e+00   1.307260e+02
  -6.680677e+01   6.500772e+01
  -5.491412e+01  -1.480755e+01
   3.829275e+00  -4.798173e+01
   2.639988e+01  -3.312645e+01
  -1.819320e+01  -1.218626e+01
  -6.820183e+01  -1.604844e+01
  -4.051929e+01  -3.393403e+01
   6.476710e+01  -3.218866e+01
   1.506683e+02   6.534009e+00
   1.229481e+02   6.086059e+01
  -4.525168e+00   8.830306e+01
  -1.194002e+02   6.267659e+01
  -1.263622e+02   1.043021e+00
  -3.809827e+01  -4.634561e+01
   5.033617e+01  -3.849302e+01
   6.524497e+01   1.560594e+01
   1.546647e+01   6.296886e+01
  -3.915495e+01   5.558161e+01
  -5.869053e+01   1.082502e+00
  -4.970385e+01  -4.460278e+01
  -4.016660e+01  -3.845580e+01
  -4.575571e+01  -3.364379e+00
  -5.413645e+01  -2.314884e+00
  -3.738965e+01  -6.207616e+01
   2.414004e+01  -1.289841e+02
   1.087954e+02  -1.218106e+02
   1.548786e+02  -2.576799e+01
   1.105886e+02   8.255727e+01
   1.448835e-01   1.133569e+02
  -8.021320e+01   5.798605e+01
  -5.341496e+01  -9.685263e+00
   4.883169e+01  -1.607666e+01
   1.124775e+02   3.847754e+01
   5.793650e+01   9.250285e+01
  -7.357969e+01   9.070371e+01
  -1.619758e+02   3.169326e+01
  -1.319549e+02  -3.922111e+01
  -2.343620e+01  -7.221940e+01
   5.613751e+01  -4.881596e+01
   4.058923e+01   2.262817e+00
  -3.501859e+01   2.427685e+01
  -7.774994e+01  -1.897602e+01
  -3.136354e+01  -9.783372e+01
   6.875269e+01  -1.296372e+02
   1.330207e+02  -5.760980e+01
   1.054038e+02   7.769021e+01
   1.157148e+01   1.611723e+02
  -7.131056e+01   1.163762e+02
  -8.771621e+01  -1.216220e+01
  -4.261277e+01  -1.028673e+02
   1.643625e+01  -8.597109e+01
   4.584726e+01  -9.984595e+00
   3.599693e+01   2.945756e+01
   1.123989e+01   7.434462e+00
   5.311141e+00  -1.422103e+01
   2.766553e+01   1.846786e+01
   4.771262e+01   7.721057e+01
   2.215879e+01   8.991855e+01
  -5.109574e+01   3.552736e+01
  -1.139253e+02  -3.429535e+01
  -1.006850e+02  -6.304804e+01
  -1.429970e+01  -4.762323e+01
   6.733811e+01  -2.069004e+01
   7.326851e+01  -1.702317e+00
   1.627071e+01   1.095367e+01
  -2.874832e+01   1.643784e+01
  -1.811406e+01   9.088282e+00
   1.191991e+01  -3.237645e+00
  -4.606955e-02  -3.828692e+00
  -5.333963e+01   1.190708e+00
  -7.899972e+01  -1.810834e+01
  -2.168382e+01  -6.741679e+01
   8.860209e+01  -9.900432e+01
   1.607075e+02  -5.715873e+01
   1.324056e+02   4.786476e+01
   2.860593e+01   1.351445e+02
  -6.921253e+01   1.340315e+02
  -1.006349e+02   5.807459e+01
  -6.978269e+01  -1.596212e+01
  -2.423664e+01  -3.336695e+01
  -4.141172e+00  -1.214128e+01
  -1.254123e+01  -7.832398e+00
  -2.425630e+01  -4.226864e+01
  -1.344977e+01  -7.785742e+01
   2.414436e+01  -6.146115e+01
   6.403383e+01   1.130918e+01
   6.665350e+01   8.400133e+01
   1.411305e+01   9.255078e+01
  -6.007853e+01   2.823011e+01
  -8.809100e+01  -5.360445e+01
  -3.492547e+01  -8.780332e+01
   5.338297e+01  -5.599180e+01
   8.934449e+01   6.616803e+00
   4.058475e+01   5.142737e+01
  -2.934804e+01   5.406644e+01
  -3.661494e+01   2.467831e+01
   2.004226e+01  -5.854177e+00
   5.846916e+01  -7.464419e+00
   1.771835e+01   2.334134e+01
  -6.552308e+01   5.476676e+01
  -1.042204e+02   4.416238e+01
  -6.271056e+01  -1.383018e+01
   1.046051e+01  -7.077859e+01
   4.980463e+01  -7.088527e+01
   3.886838e+01  -1.329733e+01
   6.322071e+00   4.271180e+01
  -1.976414e+01   4.165170e+01
  -3.082304e+01  -7.365695e+00
  -2.449029e+01  -4.653040e+01
  -1.824101e-01  -3.633064e+01
   2.826630e+01   2.887558e+00
   3.682868e+01   2.270893e+01
   1.890386e+01   5.496233e+00
  -3.242151e+00  -1.753651e+01
  -5.714761e+00  -9.829088e+00
   5.188218e+00   2.529730e+01
   2.328280e+00   4.576683e+01
  -2.092198e+01   2.193221e+01
  -3.620896e+01  -2.599559e+01
  -1.382439e+01  -4.909145e+01
   3.264280e+01  -2.268344e+01
   5.354142e+01   2.621914e+01
   1.705032e+01   5.012327e+01
  -4.864640e+01   3.075767e+01
  -7.944658e+01  -9.201811e+00
  -4.326744e+01  -3.685236e+01
   2.381969e+01  -3.954511e+01
   5.488955e+01  -2.480505e+01
   2.569134e+01  -6.394224e+00
  -2.110496e+01   3.040041e+00
  -2.628382e+01  -4.416952e+00
   1.876100e+01  -1.994177e+01
   6.372242e+01  -1.665147e+01
