
 $NMID
 id='ANONYMOUS ', fmtdat='(2E16.6)'
 volume=1.0
 tramp=1.0
 $END
   3.631138e+03  -6.415514e+01
   2.197564e+03   1.783062e+03
   2.267053e+02   1.869946e+03
  -1.043746e+03   1.627824e+03
  -9.379913e+02   3.985383e+02
  -6.308187e+01  -1.354858e+02
   3.474949e+02   3.047919e+01
   7.824149e+01   4.185364e+02
  -3.028728e+02   5.541134e+02
  -5.243705e+02   4.775883e+01
  -4.113616e+02  -4.980072e+02
  -2.845465e+00  -6.963714e+02
   2.837212e+02  -2.430761e+02
   2.617417e+02   2.838987e+02
  -3.657437e+01   5.050304e+02
  -3.653258e+02   1.683088e+02
  -3.154030e+02  -4.216489e+02
   7.113171e+01  -5.894398e+02
   4.606725e+02  -3.194251e+02
   4.988231e+02   1.485618e+02
   1.774658e+02   3.350433e+02
  -9.620974e+01   2.673706e+02
  -1.001303e+02   1.096939e+02
   9.136174e+01   1.239070e+02
   2.381898e+02   3.349503e+02
  -2.692889e+01   3.502356e+02
  -4.214934e+02   1.086838e+02
  -5.365307e+02  -2.025060e+02
  -2.350245e+02  -3.363010e+02
   2.373102e+02  -1.564146e+02
   4.176843e+02   1.474942e+02
   1.854167e+02   3.237060e+02
  -2.097698e+02   3.057377e+02
  -4.137677e+02   1.360011e+02
  -3.366564e+02  -1.046555e+02
  -1.207950e+02  -2.538500e+02
  -1.409410e+01  -1.620544e+02
  -8.472164e+01   3.551643e+01
  -1.779112e+02   8.881941e+01
  -1.388068e+02  -1.456623e+02
   9.902446e+00  -3.928613e+02
   2.077117e+02  -3.450695e+02
   2.474517e+02  -2.847697e+01
   1.104152e+02   2.232975e+02
  -9.098151e+01   9.256266e+01
  -1.374088e+02  -2.129004e+02
   7.130863e+01  -3.185711e+02
   3.717683e+02  -5.142836e+01
   4.598427e+02   3.047718e+02
   1.996512e+02   4.349840e+02
  -2.370981e+02   2.592062e+02
  -4.828109e+02  -2.394999e+01
  -3.492067e+02  -1.945277e+02
   1.755838e+00  -1.950507e+02
   2.514897e+02  -1.031398e+02
   2.247491e+02  -1.748745e+01
   4.682813e+01   6.763428e+00
  -3.526779e+01  -1.871617e+01
   6.904988e+01  -2.790529e+01
   1.977599e+02   4.160326e+01
   1.315408e+02   1.714359e+02
  -1.318500e+02   2.473084e+02
  -3.493352e+02   1.522055e+02
  -2.897827e+02  -1.004675e+02
   1.414993e+01  -3.407305e+02
   3.044863e+02  -3.725207e+02
   3.677019e+02  -1.550593e+02
   2.268023e+02   1.529093e+02
   6.311489e+01   3.373827e+02
  -9.835449e-01   3.213577e+02
  -3.683689e+00   2.072808e+02
  -5.049904e+01   1.320394e+02
  -1.628024e+02   1.084950e+02
  -2.541304e+02   3.840497e+01
  -2.314208e+02  -1.163318e+02
  -8.754005e+01  -2.423800e+02
   8.945205e+01  -1.886869e+02
   1.858212e+02   3.235521e+01
   1.303574e+02   2.383561e+02
  -5.495734e+01   2.460711e+02
  -2.434773e+02   5.346045e+01
  -2.909932e+02  -1.738234e+02
  -1.602962e+02  -2.851418e+02
   3.508730e+01  -2.531822e+02
   1.401656e+02  -1.676614e+02
   1.466612e+02  -1.100804e+02
   1.729047e+02  -8.456190e+01
   2.994316e+02  -2.716981e+01
   4.209521e+02   1.109817e+02
   3.187562e+02   3.043390e+02
  -2.644226e+01   4.379516e+02
  -3.804762e+02   3.998028e+02
  -4.785891e+02   1.806529e+02
  -2.835343e+02  -9.102849e+01
  -2.128563e+01  -2.359312e+02
   7.588330e+01  -1.862088e+02
  -9.786131e+00  -4.387955e+01
  -1.186354e+02   2.114245e+01
  -1.123773e+02  -4.345631e+01
  -1.065616e+00  -1.255935e+02
   9.951450e+01  -8.840684e+01
   8.609471e+01   4.803366e+01
  -3.252827e+01   1.120331e+02
  -1.513894e+02  -1.277349e+01
  -1.449668e+02  -2.340789e+02
   1.903670e+01  -3.429159e+02
   2.433737e+02  -2.129274e+02
   3.638989e+02   6.058139e+01
   2.788609e+02   2.664572e+02
   5.632572e+01   2.725762e+02
  -1.256680e+02   1.324697e+02
  -1.373688e+02   6.198294e+00
  -2.743884e+01  -1.141292e+00
   4.378374e+01   7.097507e+01
  -1.633683e+01   1.086935e+02
  -1.277571e+02   5.549832e+01
  -1.401769e+02  -3.011979e+01
  -2.246157e+01  -4.925851e+01
   8.765027e+01   1.923992e+01
   3.800087e+01   9.807029e+01
  -1.571655e+02   9.137553e+01
  -3.130680e+02  -2.385268e+01
  -2.601153e+02  -1.778574e+02
  -1.987030e+01  -2.668173e+02
   2.139751e+02  -2.280866e+02
   2.623607e+02  -8.990246e+01
   1.268590e+02   4.078757e+01
  -2.964464e+01   6.581744e+01
  -5.287470e+01  -8.398508e+00
   6.127360e+01  -7.131364e+01
   1.805381e+02  -2.414824e+01
   1.782263e+02   1.026499e+02
   5.229761e+01   1.800709e+02
  -8.421841e+01   1.300459e+02
  -1.167261e+02   1.601074e+01
  -3.853224e+01  -3.256307e+01
   4.438610e+01   2.999432e+01
   2.029245e+01   1.192444e+02
  -1.083655e+02   1.199354e+02
  -2.153011e+02   5.630027e+00
  -1.758442e+02  -1.400610e+02
  -4.878452e+00  -2.051394e+02
   1.515064e+02  -1.450148e+02
   1.644573e+02  -1.327272e+01
   5.153165e+01   8.651206e+01
  -5.618754e+01   9.033988e+01
  -6.218400e+01   2.600877e+01
   4.564644e+00  -2.166775e+01
   4.054411e+01  -6.001031e+00
  -9.595749e+00   3.019234e+01
  -9.561751e+01   5.208526e+00
  -1.137365e+02  -9.344640e+01
  -1.141159e+01  -1.798130e+02
   1.481650e+02  -1.530558e+02
   2.409755e+02  -5.984623e+00
   1.890702e+02   1.585386e+02
   3.464109e+01   2.218077e+02
  -9.764152e+01   1.545592e+02
  -1.241319e+02   3.368395e+01
  -7.300460e+01  -3.787484e+01
  -3.534479e+01  -2.440208e+01
  -5.614623e+01   1.864851e+01
  -9.117499e+01   1.139992e+01
  -6.383516e+01  -5.946826e+01
   3.701948e+01  -1.156218e+02
   1.287008e+02  -7.459458e+01
   1.150434e+02   4.899950e+01
  -1.912457e+01   1.390955e+02
  -1.728436e+02   9.284449e+01
  -2.095771e+02  -7.354744e+01
  -7.941892e+01  -2.196752e+02
   1.325504e+02  -2.207726e+02
   2.678939e+02  -7.746418e+01
   2.408476e+02   9.050512e+01
   9.720630e+01   1.660401e+02
  -3.796068e+01   1.362216e+02
  -8.628987e+01   8.037060e+01
  -6.677666e+01   7.044242e+01
  -5.430873e+01   9.601900e+01
  -8.804200e+01   8.259873e+01
  -1.330308e+02  -1.517504e+01
  -1.216520e+02  -1.517223e+02
  -2.753321e+01  -2.234790e+02
   9.884092e+01  -1.633771e+02
   1.651989e+02  -9.559580e+00
   1.197171e+02   1.253582e+02
   5.181439e+00   1.515017e+02
  -7.558034e+01   7.552459e+01
  -6.010710e+01  -1.908096e+01
   8.701951e+00  -5.780348e+01
   3.233017e+01  -3.733028e+01
  -2.469293e+01  -9.365069e+00
  -8.619426e+01  -1.419698e+01
  -5.179700e+01  -3.927110e+01
   7.589412e+01  -4.124617e+01
   1.781437e+02   2.232166e+00
   1.443334e+02   6.602518e+01
  -4.832834e+00   9.950901e+01
  -1.367616e+02   7.224832e+01
  -1.436093e+02   2.828744e+00
  -4.263516e+01  -5.244873e+01
   5.914967e+01  -4.513894e+01
   7.888160e+01   1.863827e+01
   2.386009e+01   7.712328e+01
  -4.261429e+01   7.038718e+01
  -7.228330e+01   4.277724e+00
  -6.509670e+01  -5.259087e+01
  -5.111328e+01  -4.560721e+01
  -5.347167e+01  -1.820501e+00
  -6.399484e+01  -1.398873e+00
  -4.695294e+01  -7.529251e+01
   2.574557e+01  -1.566705e+02
   1.299034e+02  -1.473962e+02
   1.868341e+02  -3.240383e+01
   1.332447e+02   9.704297e+01
   1.830736e-01   1.358687e+02
  -9.630198e+01   7.218420e+01
  -6.499020e+01  -8.870939e+00
   5.639705e+01  -2.169416e+01
   1.325973e+02   3.817092e+01
   7.075501e+01   1.034362e+02
  -8.180047e+01   1.074466e+02
  -1.860945e+02   4.283148e+01
  -1.535074e+02  -4.070904e+01
  -2.907582e+01  -8.247674e+01
   6.313994e+01  -5.685100e+01
   4.593417e+01   4.139805e+00
  -4.216181e+01   3.205623e+01
  -9.393789e+01  -1.922285e+01
  -4.299040e+01  -1.159464e+02
   7.336497e+01  -1.590440e+02
   1.533790e+02  -7.670851e+01
   1.285223e+02   8.544453e+01
   2.287599e+01   1.900496e+02
  -7.718432e+01   1.413876e+02
  -1.036352e+02  -9.851594e+00
  -5.581736e+01  -1.184659e+02
   1.401589e+01  -1.009513e+02
   5.227062e+01  -1.461964e+01
   4.307545e+01   3.003158e+01
   1.368558e+01   5.570612e+00
   6.013877e+00  -1.584369e+01
   3.332320e+01   2.407424e+01
   5.880862e+01   8.943312e+01
   2.941305e+01   1.008733e+02
  -5.821662e+01   4.008301e+01
  -1.344877e+02  -3.501772e+01
  -1.206258e+02  -6.687733e+01
  -1.978779e+01  -5.505020e+01
   7.666616e+01  -3.007577e+01
   8.562122e+01  -7.452372e+00
   2.121518e+01   1.260657e+01
  -3.049666e+01   2.144955e+01
  -1.987403e+01   1.034098e+01
   1.245178e+01  -5.804280e+00
  -1.995254e+00  -4.313520e+00
  -6.239537e+01   4.438767e+00
  -9.163239e+01  -1.868699e+01
  -2.678984e+01  -8.003449e+01
   1.002352e+02  -1.201391e+02
   1.861885e+02  -7.188039e+01
   1.575225e+02   5.198875e+01
   3.883731e+01   1.559933e+02
  -7.670176e+01   1.580023e+02
  -1.160143e+02   7.196880e+01
  -8.156550e+01  -1.458258e+01
  -2.894234e+01  -3.767803e+01
  -5.768620e+00  -1.550556e+01
  -1.574775e+01  -1.091394e+01
  -2.953197e+01  -4.982890e+01
  -1.737111e+01  -9.027639e+01
   2.702779e+01  -7.217299e+01
   7.582580e+01   1.096629e+01
   8.206475e+01   9.559968e+01
   2.075137e+01   1.081577e+02
  -7.028124e+01   3.644391e+01
  -1.076088e+02  -5.903520e+01
  -4.511656e+01  -1.028785e+02
   6.278178e+01  -7.010627e+01
   1.081757e+02   3.733467e+00
   5.076218e+01   6.092228e+01
  -3.343304e+01   6.775626e+01
  -4.343028e+01   3.178761e+01
   2.236632e+01  -8.027477e+00
   6.706724e+01  -1.136649e+01
   1.986906e+01   2.752547e+01
  -7.632135e+01   6.697504e+01
  -1.213074e+02   5.364354e+01
  -7.454247e+01  -1.734224e+01
   9.868374e+00  -8.601113e+01
   5.750863e+01  -8.553170e+01
   4.809372e+01  -1.621964e+01
   1.140736e+01   5.105013e+01
  -2.170588e+01   5.133758e+01
  -3.806315e+01  -6.089339e+00
  -3.174333e+01  -5.334021e+01
  -1.690474e+00  -4.325417e+01
   3.337544e+01   1.667987e+00
   4.361830e+01   2.537916e+01
   2.197204e+01   5.698610e+00
  -4.230273e+00  -2.203644e+01
  -5.456883e+00  -1.270039e+01
   9.335731e+00   3.038339e+01
   6.055179e+00   5.687344e+01
  -2.491339e+01   2.948351e+01
  -4.689157e+01  -2.945503e+01
  -2.097312e+01  -5.924747e+01
   3.760709e+01  -2.927382e+01
   6.608936e+01   2.887618e+01
   2.336767e+01   5.873484e+01
  -5.692507e+01   3.803892e+01
  -9.561527e+01  -8.010333e+00
  -5.290708e+01  -4.194658e+01
   2.727249e+01  -4.806478e+01
   6.480566e+01  -3.226107e+01
   3.061416e+01  -8.380552e+00
  -2.459624e+01   6.124185e+00
  -3.155187e+01  -2.366076e+00
   1.999308e+01  -2.444966e+01
   7.284599e+01  -2.433046e+01
