
 $NMID
 id='ANONYMOUS ', fmtdat='(2E16.6)'
 volume=1.0
 tramp=1.0
 $END
  -4.134362e+03   8.923944e+01
  -2.381590e+03  -2.095069e+03
   4.585519e+01  -2.340597e+03
   1.881088e+03  -1.276961e+03
   9.481494e+02  -8.064387e+01
  -9.987066e+01   3.093222e+02
  -4.441948e+02  -2.606420e+02
   1.674121e+01  -7.468871e+02
   5.606450e+02  -7.068298e+02
   7.340801e+02  -2.884834e+01
   3.970379e+02   7.124329e+02
  -1.337675e+02   7.904158e+02
  -3.568788e+02   1.319234e+02
  -2.205260e+02  -5.967808e+02
   1.729791e+02  -6.638617e+02
   4.837317e+02  -1.054060e+02
   2.509589e+02   6.097941e+02
  -1.695106e+02   6.987466e+02
  -4.802813e+02   1.904150e+02
  -4.125096e+02  -2.753024e+02
  -7.456084e+01  -3.583645e+02
   1.875601e+02  -2.509960e+02
   1.134423e+02  -4.713739e+01
  -1.405658e+02  -4.496804e+01
  -3.369151e+02  -2.855749e+02
  -6.407170e+01  -4.035039e+02
   4.964858e+02  -2.323969e+02
   7.583410e+02   1.862669e+02
   3.051794e+02   4.718986e+02
  -3.868380e+02   3.135937e+02
  -6.649084e+02  -1.496025e+02
  -2.481436e+02  -4.414509e+02
   3.081661e+02  -4.065897e+02
   5.177378e+02  -1.319422e+02
   3.627429e+02   2.047306e+02
   4.394012e+01   3.688714e+02
  -1.137802e+02   2.269756e+02
  -2.295211e+01  -1.429404e+02
   1.974012e+02  -2.672651e+02
   2.943119e+02   1.171972e+02
   6.611411e+01   5.724997e+02
  -3.047234e+02   5.361087e+02
  -4.290115e+02  -5.395329e+00
  -1.577815e+02  -4.245994e+02
   2.101171e+02  -2.033753e+02
   2.608015e+02   3.139444e+02
  -1.058999e+02   4.571133e+02
  -5.225134e+02   7.359054e+01
  -5.638368e+02  -4.246124e+02
  -1.747635e+02  -5.774902e+02
   3.652890e+02  -3.119943e+02
   6.146837e+02   9.116331e+01
   3.810151e+02   3.317439e+02
  -9.911433e+01   2.866000e+02
  -3.739494e+02   6.667016e+01
  -2.386602e+02  -8.902750e+01
   4.569410e+01  -4.167126e+01
   9.246034e+01   9.904902e+01
  -1.292208e+02   1.105990e+02
  -2.893857e+02  -5.922394e+01
  -1.427722e+02  -2.409694e+02
   1.820187e+02  -2.646437e+02
   3.696825e+02  -1.197295e+02
   2.637258e+02   1.080234e+02
  -3.581599e+01   3.175740e+02
  -3.124391e+02   3.756751e+02
  -3.976899e+02   1.774523e+02
  -2.624758e+02  -1.810863e+02
  -4.069667e+01  -4.161060e+02
   7.983143e+01  -3.576597e+02
   5.326249e+01  -1.590068e+02
   2.001432e+01  -7.550069e+01
   1.121063e+02  -1.184588e+02
   2.602214e+02  -8.085580e+01
   2.811945e+02   1.190506e+02
   1.135174e+02   2.917165e+02
  -1.143020e+02   2.268913e+02
  -2.318498e+02  -4.217369e+01
  -1.608972e+02  -2.772120e+02
   6.057887e+01  -2.869897e+02
   2.865524e+02  -6.864350e+01
   3.453929e+02   2.061661e+02
   1.683699e+02   3.488833e+02
  -9.042402e+01   2.968463e+02
  -2.072136e+02   1.465480e+02
  -1.635842e+02   4.824316e+01
  -1.450094e+02   5.314196e+01
  -2.786992e+02   3.937537e+01
  -4.304281e+02  -9.683381e+01
  -3.361402e+02  -3.170183e+02
   2.841260e+01  -4.691204e+02
   4.097761e+02  -4.255793e+02
   5.215402e+02  -1.803124e+02
   3.209146e+02   1.230621e+02
   1.626344e+01   2.955833e+02
  -1.280008e+02   2.264285e+02
  -4.159125e+01   2.794644e+01
   1.258474e+02  -6.991107e+01
   1.642515e+02   2.875230e+01
   1.973394e+01   1.696815e+02
  -1.437801e+02   1.324725e+02
  -1.435317e+02  -5.907075e+01
   2.454898e+01  -1.575213e+02
   1.833821e+02  -1.001244e+01
   1.642932e+02   2.525371e+02
  -2.840607e+01   3.628856e+02
  -2.604906e+02   2.117881e+02
  -3.785779e+02  -7.342960e+01
  -2.978639e+02  -2.831953e+02
  -6.807426e+01  -2.985725e+02
   1.422410e+02  -1.566760e+02
   1.756178e+02  -5.481644e+00
   4.675687e+01   2.377585e+01
  -5.969708e+01  -6.039948e+01
  -4.185964e+00  -1.278783e+02
   1.338989e+02  -7.924808e+01
   1.642708e+02   3.121815e+01
   3.687382e+01   6.861436e+01
  -8.995048e+01  -7.891526e+00
  -4.321882e+01  -1.017158e+02
   1.586495e+02  -9.666460e+01
   3.228775e+02   2.567462e+01
   2.759836e+02   1.880828e+02
   2.879369e+01   2.880560e+02
  -2.310338e+02   2.546839e+02
  -3.038583e+02   1.010234e+02
  -1.581090e+02  -6.028955e+01
   3.667554e+01  -9.664039e+01
   8.114054e+01   6.962092e-01
  -5.338026e+01   8.977428e+01
  -2.052725e+02   3.739641e+01
  -2.068512e+02  -1.182900e+02
  -5.547247e+01  -2.115756e+02
   1.062157e+02  -1.506189e+02
   1.443202e+02  -1.562852e+01
   5.611593e+01   4.698199e+01
  -4.405838e+01  -1.265649e+01
  -3.359549e+01  -1.096433e+02
   9.703195e+01  -1.247880e+02
   2.212317e+02  -1.659783e+01
   1.934225e+02   1.425150e+02
   8.736003e+00   2.254105e+02
  -1.725780e+02   1.611465e+02
  -1.904028e+02   3.938744e+00
  -5.712999e+01  -1.122422e+02
   7.245727e+01  -1.067989e+02
   8.161014e+01  -2.327795e+01
   6.438197e+00   3.288856e+01
  -3.690892e+01   1.494060e+01
   7.501213e+00  -2.418294e+01
   8.767609e+01  -6.372749e-01
   1.061929e+02   9.607205e+01
   9.766540e+00   1.839333e+02
  -1.515117e+02   1.613490e+02
  -2.547572e+02   8.474894e+00
  -2.040053e+02  -1.744694e+02
  -3.343323e+01  -2.485408e+02
   1.167985e+02  -1.701269e+02
   1.406172e+02  -2.727873e+01
   7.604270e+01   5.323204e+01
   3.241962e+01   3.467811e+01
   5.758104e+01  -1.307036e+01
   9.167567e+01  -7.168696e+00
   5.584035e+01   5.837600e+01
  -4.335335e+01   1.072385e+02
  -1.255492e+02   6.796459e+01
  -1.074396e+02  -4.476640e+01
   2.057627e+01  -1.306133e+02
   1.697409e+02  -8.942018e+01
   2.132960e+02   7.248825e+01
   8.607979e+01   2.268301e+02
  -1.388553e+02   2.348149e+02
  -2.904880e+02   8.226649e+01
  -2.620747e+02  -1.063438e+02
  -1.026679e+02  -1.904440e+02
   4.854760e+01  -1.518744e+02
   1.002589e+02  -8.427020e+01
   8.042523e+01  -6.986369e+01
   6.925135e+01  -9.638105e+01
   1.020323e+02  -8.033134e+01
   1.409439e+02   2.552346e+01
   1.216417e+02   1.706099e+02
   2.011091e+01   2.440559e+02
  -1.136984e+02   1.760233e+02
  -1.843478e+02   7.562561e+00
  -1.340968e+02  -1.393416e+02
  -7.879003e+00  -1.676856e+02
   8.162576e+01  -8.674605e+01
   6.810890e+01   1.277939e+01
  -1.046794e+00   5.452136e+01
  -2.510831e+01   3.893311e+01
   2.862261e+01   1.718487e+01
   8.535841e+01   2.337076e+01
   4.996432e+01   4.333640e+01
  -7.609299e+01   3.963853e+01
  -1.810658e+02  -5.474362e+00
  -1.531412e+02  -6.878793e+01
  -1.859463e+00  -1.032482e+02
   1.423809e+02  -7.623151e+01
   1.563836e+02  -4.426020e+00
   4.728846e+01   5.253802e+01
  -6.523658e+01   4.379581e+01
  -8.075035e+01  -2.119686e+01
  -1.253629e+01  -7.626800e+01
   5.495593e+01  -6.483260e+01
   7.031558e+01   2.321031e+00
   5.358669e+01   5.614517e+01
   4.679556e+01   4.726513e+01
   6.065947e+01   3.644356e+00
   6.951709e+01   2.961165e+00
   4.159260e+01   7.685860e+01
  -3.620132e+01   1.589645e+02
  -1.356765e+02   1.492540e+02
  -1.876517e+02   3.016671e+01
  -1.333514e+02  -1.036177e+02
  -4.251005e-01  -1.399615e+02
   9.712908e+01  -6.912351e+01
   6.419197e+01   1.402609e+01
  -6.265607e+01   1.936526e+01
  -1.411607e+02  -5.029479e+01
  -7.193305e+01  -1.175978e+02
   9.296236e+01  -1.151715e+02
   2.044875e+02  -4.196069e+01
   1.677733e+02   4.826382e+01
   3.182549e+01   9.279116e+01
  -6.956630e+01   6.540202e+01
  -5.182894e+01   7.094274e-02
   4.357329e+01  -2.924482e+01
   9.722331e+01   2.550489e+01
   3.587875e+01   1.248947e+02
  -9.350321e+01   1.618716e+02
  -1.724441e+02   6.722412e+01
  -1.303388e+02  -1.033631e+02
  -8.179506e+00  -2.056933e+02
   9.315064e+01  -1.474572e+02
   1.099810e+02   1.474335e+01
   5.577922e+01   1.306841e+02
  -1.435089e+01   1.129125e+02
  -5.482544e+01   1.797646e+01
  -5.128515e+01  -3.551701e+01
  -2.287772e+01  -1.100603e+01
  -7.936164e+00   1.719438e+01
  -2.913842e+01  -2.259826e+01
  -5.762731e+01  -9.750991e+01
  -3.295917e+01  -1.149597e+02
   5.913794e+01  -4.506044e+01
   1.448147e+02   4.459855e+01
   1.310166e+02   7.893578e+01
   1.789922e+01   5.617380e+01
  -8.862122e+01   2.323985e+01
  -9.266600e+01   4.046714e+00
  -1.645614e+01  -1.019587e+01
   3.817377e+01  -2.062859e+01
   1.949221e+01  -1.460151e+01
  -1.776859e+01   2.257181e+00
   3.680925e+00   6.960997e+00
   7.283693e+01   2.656900e+00
   9.786851e+01   2.641244e+01
   1.703613e+01   8.664422e+01
  -1.209912e+02   1.228043e+02
  -2.024716e+02   6.550259e+01
  -1.598204e+02  -6.758027e+01
  -3.045704e+01  -1.721923e+02
   8.776308e+01  -1.644486e+02
   1.247349e+02  -6.795973e+01
   8.580501e+01   2.120514e+01
   2.791443e+01   3.974513e+01
   1.921148e+00   1.283688e+01
   1.444504e+01   8.133693e+00
   3.251130e+01   5.156767e+01
   1.887301e+01   9.630539e+01
  -3.183787e+01   7.513450e+01
  -8.246997e+01  -1.851870e+01
  -8.048808e+01  -1.108200e+02
  -9.166199e+00  -1.166124e+02
   8.186187e+01  -2.870144e+01
   1.090882e+02   7.495170e+01
   3.795497e+01   1.101389e+02
  -6.871561e+01   6.417896e+01
  -1.071736e+02  -1.099289e+01
  -4.573442e+01  -5.871902e+01
   3.555170e+01  -6.013722e+01
   3.913912e+01  -2.939185e+01
  -3.067745e+01   3.637923e+00
  -7.324308e+01   7.205323e+00
  -1.930477e+01  -2.825500e+01
   8.267198e+01  -6.799290e+01
   1.266315e+02  -5.699034e+01
   7.350591e+01   1.532209e+01
  -1.527486e+01   8.722856e+01
  -6.035210e+01   8.518741e+01
  -4.475952e+01   1.130270e+01
  -4.192934e+00  -5.554453e+01
   2.700387e+01  -4.845542e+01
   3.848237e+01   1.421449e+01
   2.838041e+01   5.780866e+01
  -1.925268e+00   4.062343e+01
  -3.461517e+01  -6.451533e+00
  -4.359741e+01  -2.632170e+01
  -2.365229e+01  -4.969524e+00
   1.253267e+00   1.856334e+01
   7.498658e+00   5.035915e+00
   1.871860e+00  -3.475393e+01
   8.595499e+00  -5.195538e+01
   2.969892e+01  -1.730585e+01
   3.695601e+01   4.086730e+01
   6.411125e+00   6.283970e+01
  -4.418483e+01   2.393265e+01
  -6.299238e+01  -3.816624e+01
  -1.803256e+01  -6.482136e+01
   5.999791e+01  -3.639118e+01
   9.751228e+01   1.470333e+01
   5.350868e+01   4.668843e+01
  -3.057107e+01   4.607934e+01
  -6.985519e+01   2.653278e+01
  -3.008557e+01   6.437681e+00
   3.236102e+01  -7.205201e-01
   3.667342e+01   1.063343e+01
  -2.714245e+01   2.774362e+01
  -8.696127e+01   1.917341e+01
