
 $NMID
 id='ANONYMOUS ', fmtdat='(2E16.6)'
 volume=1.0
 tramp=1.0
 $END
   2.345833e+03   5.228374e+01
   1.376380e+03   1.195345e+03
  -1.745812e+02   1.375149e+03
  -1.192487e+03   5.975229e+02
  -5.518040e+02  -5.547030e+01
   1.047550e+02  -1.476571e+02
   3.900500e+02   1.193673e+02
  -4.084990e+01   4.587022e+02
  -2.928596e+02   4.969274e+02
  -4.900012e+02   3.638686e+01
  -2.783357e+02  -4.746382e+02
   1.243054e+02  -5.381786e+02
   2.242276e+02  -1.175953e+02
   1.414996e+02   3.464598e+02
  -1.512520e+02   4.416290e+02
  -2.342101e+02  -4.864600e+00
  -1.084603e+02  -4.055641e+02
   1.511854e+02  -4.235566e+02
   2.855995e+02  -9.851071e+01
   2.017821e+02   1.652701e+02
   6.900343e+00   2.447921e+02
  -1.049343e+02   1.203458e+02
  -8.060857e+01   1.245829e+01
   9.559055e+01   4.696478e+01
   1.992505e+02   1.792829e+02
   3.030817e+01   2.326720e+02
  -2.947303e+02   1.143292e+02
  -4.493911e+02  -1.621011e+02
  -1.875005e+02  -3.060138e+02
   2.373157e+02  -1.657945e+02
   3.706397e+02   1.203403e+02
   1.371007e+02   2.658684e+02
  -2.035501e+02   2.119593e+02
  -3.305073e+02   4.714569e+01
  -2.048652e+02  -1.245517e+02
  -1.311287e+01  -2.061698e+02
   7.782187e+01  -1.222751e+02
   4.548504e+00   8.791368e+01
  -1.324326e+02   1.543598e+02
  -1.723089e+02  -7.493228e+01
  -3.414509e+01  -3.487115e+02
   1.775030e+02  -3.069158e+02
   2.367760e+02   1.593006e+01
   7.148932e+01   2.417263e+02
  -1.251812e+02   1.046786e+02
  -1.362062e+02  -1.976085e+02
   7.236443e+01  -2.734069e+02
   2.935154e+02  -3.957274e+01
   3.153971e+02   2.538409e+02
   8.695966e+01   3.283834e+02
  -2.044753e+02   1.647780e+02
  -3.361450e+02  -6.911496e+01
  -1.951188e+02  -1.993555e+02
   7.262352e+01  -1.551937e+02
   2.161759e+02  -1.835988e+01
   1.305678e+02   6.609096e+01
  -2.824661e+01   2.864712e+01
  -4.727202e+01  -5.612144e+01
   7.870222e+01  -5.527219e+01
   1.602449e+02   4.567008e+01
   6.960895e+01   1.424543e+02
  -1.114515e+02   1.476822e+02
  -2.103548e+02   6.386290e+01
  -1.490666e+02  -6.528578e+01
   1.892199e+01  -1.881635e+02
   1.817149e+02  -2.227653e+02
   2.398908e+02  -1.015776e+02
   1.615019e+02   1.174916e+02
   1.927109e+01   2.572615e+02
  -6.439898e+01   2.125004e+02
  -5.060070e+01   8.036705e+01
  -2.273440e+01   2.572626e+01
  -6.472243e+01   6.012597e+01
  -1.444623e+02   4.808932e+01
  -1.588439e+02  -7.082390e+01
  -6.551085e+01  -1.815235e+02
   6.654382e+01  -1.458662e+02
   1.394895e+02   2.231676e+01
   9.635585e+01   1.731509e+02
  -3.702619e+01   1.761015e+02
  -1.721519e+02   3.758120e+01
  -1.993073e+02  -1.304832e+02
  -9.040483e+01  -2.077960e+02
   5.667066e+01  -1.684196e+02
   1.195639e+02  -7.857062e+01
   9.276063e+01  -2.950637e+01
   8.505241e+01  -2.636894e+01
   1.645163e+02  -6.346040e+00
   2.412531e+02   7.778686e+01
   1.761357e+02   1.943020e+02
  -3.536837e+01   2.632349e+02
  -2.523641e+02   2.266206e+02
  -3.120147e+02   8.679973e+01
  -1.890312e+02  -8.267389e+01
  -6.867798e+00  -1.733107e+02
   8.068354e+01  -1.322917e+02
   2.843346e+01  -1.676561e+01
  -7.061188e+01   3.835988e+01
  -8.927073e+01  -2.246802e+01
  -2.536983e+00  -1.010913e+02
   8.643798e+01  -7.398102e+01
   7.517173e+01   4.082946e+01
  -2.569394e+01   9.469725e+01
  -1.083347e+02   1.260134e+00
  -8.577537e+01  -1.533887e+02
   2.939285e+01  -2.139307e+02
   1.546973e+02  -1.199789e+02
   2.131809e+02   4.807234e+01
   1.659582e+02   1.672999e+02
   3.806002e+01   1.722131e+02
  -8.033093e+01   8.829898e+01
  -9.997144e+01   2.475166e+00
  -2.715221e+01  -1.187369e+01
   3.233901e+01   3.850128e+01
  -2.438877e-01   7.528325e+01
  -8.100910e+01   4.405519e+01
  -9.943374e+01  -2.102647e+01
  -2.610637e+01  -4.261467e+01
   4.846752e+01   9.821741e-01
   2.513465e+01   5.335539e+01
  -8.720844e+01   5.045742e+01
  -1.813114e+02  -1.768388e+01
  -1.567577e+02  -1.091991e+02
  -1.644234e+01  -1.659823e+02
   1.335775e+02  -1.461108e+02
   1.766569e+02  -5.646289e+01
   9.292041e+01   3.578374e+01
  -2.076977e+01   5.421310e+01
  -4.657860e+01  -2.935558e+00
   3.177039e+01  -5.162320e+01
   1.192690e+02  -1.747705e+01
   1.183781e+02   7.229112e+01
   2.962248e+01   1.231156e+02
  -6.303366e+01   8.556181e+01
  -8.390808e+01   7.330145e+00
  -3.264231e+01  -2.825851e+01
   2.394398e+01   6.251876e+00
   1.718218e+01   6.239557e+01
  -5.705068e+01   7.058797e+01
  -1.265100e+02   6.990265e+00
  -1.082067e+02  -8.528058e+01
  -7.364130e-01  -1.305934e+02
   1.025628e+02  -8.991433e+01
   1.107010e+02   1.352009e+00
   3.179752e+01   6.632290e+01
  -4.369898e+01   6.160757e+01
  -4.927662e+01   1.380732e+01
  -5.884290e+00  -1.844009e+01
   2.006101e+01  -9.326632e+00
  -3.234960e+00   1.110461e+01
  -4.816871e+01  -1.460109e+00
  -5.839017e+01  -5.515920e+01
  -3.781749e+00  -1.052654e+02
   8.830299e+01  -9.170052e+01
   1.470123e+02  -2.084146e+00
   1.157241e+02   1.041515e+02
   1.550179e+01   1.458281e+02
  -7.029964e+01   9.764524e+01
  -8.250484e+01   1.401204e+01
  -4.336183e+01  -3.287041e+01
  -1.907241e+01  -2.103556e+01
  -3.425834e+01   6.771623e+00
  -5.234129e+01   2.835349e+00
  -3.025814e+01  -3.353955e+01
   2.663868e+01  -5.979056e+01
   7.180024e+01  -3.571385e+01
   5.948721e+01   2.843057e+01
  -1.434623e+01   7.456388e+01
  -9.948005e+01   4.785431e+01
  -1.220609e+02  -4.663089e+01
  -4.725170e+01  -1.336779e+02
   8.211150e+01  -1.331739e+02
   1.691366e+02  -4.166108e+01
   1.511760e+02   6.667125e+01
   5.772298e+01   1.117913e+02
  -3.066214e+01   8.664094e+01
  -6.075394e+01   4.616051e+01
  -4.913248e+01   3.913849e+01
  -4.165210e+01   5.453413e+01
  -5.937162e+01   4.536672e+01
  -8.114361e+01  -1.606701e+01
  -6.889756e+01  -9.996300e+01
  -8.611760e+00  -1.418040e+02
   6.909537e+01  -1.010445e+02
   1.079267e+02  -2.278665e+00
   7.548456e+01   8.251581e+01
   9.665929e-01   9.735033e+01
  -4.954770e+01   4.970973e+01
  -3.952512e+01  -6.906175e+00
   9.718253e-01  -3.026567e+01
   1.393326e+01  -2.251309e+01
  -1.789626e+01  -1.220999e+01
  -4.973957e+01  -1.666643e+01
  -2.830128e+01  -2.685452e+01
   4.405630e+01  -2.241148e+01
   1.037194e+02   5.086830e+00
   8.807718e+01   4.140101e+01
   1.944885e+00   5.975151e+01
  -8.077530e+01   4.278861e+01
  -8.951008e+01   1.571913e+00
  -2.753563e+01  -2.994346e+01
   3.657671e+01  -2.347572e+01
   4.497550e+01   1.421059e+01
   4.686605e+00   4.492961e+01
  -3.405504e+01   3.675180e+01
  -4.104309e+01  -3.178904e+00
  -2.888502e+01  -3.467211e+01
  -2.514083e+01  -2.909530e+01
  -3.488284e+01  -3.573500e+00
  -4.088303e+01  -3.005158e+00
  -2.238537e+01  -4.498420e+01
   2.527794e+01  -9.044985e+01
   8.199000e+01  -8.237764e+01
   1.078104e+02  -1.202059e+01
   7.347913e+01   6.297762e+01
  -2.961911e+00   7.961498e+01
  -5.702160e+01   3.586509e+01
  -3.652381e+01  -1.124703e+01
   3.680768e+01  -1.067153e+01
   8.225150e+01   3.307720e+01
   4.191156e+01   7.193923e+01
  -5.470146e+01   6.719343e+01
  -1.200787e+02   2.120088e+01
  -9.808930e+01  -3.152825e+01
  -1.736916e+01  -5.487954e+01
   4.179454e+01  -3.662889e+01
   2.978998e+01   9.633584e-01
  -2.638719e+01   1.579422e+01
  -5.549209e+01  -1.681612e+01
  -1.663691e+01  -7.261914e+01
   5.924673e+01  -9.124969e+01
   1.020659e+02  -3.468894e+01
   7.327068e+01   6.375735e+01
  -1.025344e-01   1.214957e+02
  -5.820787e+01   8.596618e+01
  -6.554425e+01  -9.497239e+00
  -3.217867e+01  -7.734699e+01
   8.817036e+00  -6.638571e+01
   3.165182e+01  -1.029180e+01
   2.928090e+01   2.107684e+01
   1.309285e+01   6.114893e+00
   4.336518e+00  -1.102794e+01
   1.602470e+01   1.230051e+01
   3.215678e+01   5.694693e+01
   1.874729e+01   6.770185e+01
  -3.337020e+01   2.623617e+01
  -8.291942e+01  -2.766492e+01
  -7.556507e+01  -4.794081e+01
  -1.013878e+01  -3.304701e+01
   5.199736e+01  -1.174619e+01
   5.436286e+01  -2.519142e-01
   9.332840e+00   6.462139e+00
  -2.270620e+01   1.164900e+01
  -1.151018e+01   9.251210e+00
   1.005895e+01   3.470493e-01
  -3.070226e+00  -3.826086e+00
  -4.339160e+01  -3.951701e+00
  -5.619696e+01  -1.786824e+01
  -7.652554e+00  -4.945646e+01
   7.154984e+01  -6.698257e+01
   1.155875e+02  -3.386225e+01
   8.847891e+01   3.991373e+01
   1.413655e+01   9.701892e+01
  -5.187623e+01   9.140237e+01
  -7.134286e+01   3.636606e+01
  -4.816130e+01  -1.342112e+01
  -1.490111e+01  -2.254544e+01
  -4.103222e-01  -6.244814e+00
  -8.192796e+00  -4.093077e+00
  -1.854783e+01  -3.038693e+01
  -9.907679e+00  -5.649941e+01
   1.940324e+01  -4.316897e+01
   4.720963e+01   1.231005e+01
   4.430877e+01   6.546124e+01
   3.185163e+00   6.711305e+01
  -4.713392e+01   1.437547e+01
  -6.080915e+01  -4.550183e+01
  -1.954112e+01  -6.388431e+01
   4.042797e+01  -3.487877e+01
   6.104881e+01   8.844304e+00
   2.516955e+01   3.449477e+01
  -2.157382e+01   3.358316e+01
  -2.341559e+01   1.627735e+01
   1.688868e+01  -1.002995e+00
   4.165106e+01  -3.090412e+00
   1.092784e+01   1.491118e+01
  -4.770981e+01   3.577303e+01
  -7.274796e+01   3.035096e+01
  -4.156218e+01  -8.281007e+00
   1.019455e+01  -4.780643e+01
   3.590487e+01  -4.728532e+01
   2.547991e+01  -6.176341e+00
   8.337944e-01   3.133359e+01
  -1.701930e+01   2.678296e+01
  -2.228165e+01  -9.566976e+00
  -1.542082e+01  -3.442716e+01
   1.812242e+00  -2.352279e+01
   2.027046e+01   4.284445e+00
   2.572865e+01   1.543368e+01
   1.490513e+01   2.441379e+00
   5.505802e-01  -1.095127e+01
  -4.354651e+00  -2.389981e+00
  -2.381954e+00   2.105426e+01
  -6.059145e+00   3.023956e+01
  -1.676906e+01   9.045811e+00
  -1.962959e+01  -2.444396e+01
  -1.999994e+00  -3.592179e+01
   2.571578e+01  -1.217068e+01
   3.484994e+01   2.381138e+01
   8.475855e+00   3.752740e+01
  -3.541550e+01   1.930015e+01
  -5.561324e+01  -1.067730e+01
  -2.976358e+01  -2.759388e+01
   1.802103e+01  -2.529431e+01
   3.998291e+01  -1.388280e+01
   1.721377e+01  -4.197728e+00
  -1.818759e+01  -1.645768e+00
  -1.995101e+01  -7.662550e+00
   1.705969e+01  -1.528779e+01
   5.105322e+01  -8.459042e+00
