
 $NMID
 id='ANONYMOUS ', fmtdat='(2E16.6)'
 volume=1.0
 tramp=1.0
 $END
  -1.025268e+03  -1.135778e+01
  -3.479924e+02  -3.628887e+02
   1.426159e+02  -3.231707e+02
   3.435136e+02  -2.158059e+02
   1.021978e+02   1.516852e+02
  -1.034525e+02   6.310697e+01
  -1.606148e+02  -2.531331e+01
  -3.722892e+01  -1.918727e+02
   1.074882e+02  -4.136717e+01
   7.091596e+01   6.327533e+01
   1.095319e+02   1.238891e+02
   2.399787e+01   1.473623e+02
  -1.353434e+01  -2.144744e+01
  -2.918364e+01  -2.777059e+01
   1.690340e+01  -2.395448e+01
   7.121822e+01  -2.942990e+01
   8.823796e+00  -1.870186e+01
  -3.751153e+01   3.959893e+01
  -1.156568e+01   3.340473e+01
   4.832824e+00   4.960947e+01
   4.697041e+01  -2.371037e+01
   4.101300e+01  -2.061855e+01
   6.577194e+00  -5.971719e+00
  -4.041042e+01   1.172290e+01
  -3.742747e+01  -1.300424e+01
  -3.260802e+01  -4.164385e+01
   5.195078e+01  -2.899948e+01
   6.498377e+01   1.587317e+01
   2.504140e+01   3.012600e+01
  -2.131973e+01   1.146187e+01
  -4.651752e+01  -1.497818e+01
  -1.775031e+01  -1.039673e+01
   2.103479e+01  -2.524681e+01
   1.491038e+01  -8.941222e+00
   1.805076e+00  -8.411885e-01
  -5.671104e+00   6.690210e+00
   1.617090e+01  -3.782288e+00
   2.276636e+01  -1.014345e+00
   7.948290e+00  -8.698799e+00
   1.761636e+01   1.293642e+01
  -2.955770e+00   2.885486e+01
  -8.436166e+00   2.807992e+01
  -1.792762e+01  -4.309650e+00
  -7.937843e+00  -2.349295e+01
   1.964070e+00  -2.019202e+01
   1.695417e+01   2.641692e+00
   6.190039e-01   1.492131e+01
  -1.520047e+01   9.243569e+00
  -1.377783e+01  -8.008034e+00
  -3.691895e+00  -2.225322e+01
   1.097230e+01  -1.912990e+01
   1.472563e+01  -2.149047e+00
   4.415866e+00   9.982245e+00
  -2.501920e+00   9.298797e+00
  -8.436749e+00  -2.669000e+00
  -5.849318e+00  -1.131975e+01
   3.256731e+00  -4.816863e+00
   8.441218e+00   2.065821e+00
   6.290621e+00   1.735162e+00
   1.201782e+00   1.273601e+00
  -1.335780e+00   5.426374e+00
  -3.001361e+00   5.297044e+00
  -5.208360e+00  -3.572627e+00
  -2.456515e+00  -9.384384e+00
   5.253048e+00  -2.068740e+00
   6.734476e+00   9.327616e+00
  -2.999457e+00   8.609181e+00
  -1.050390e+01  -1.892844e+00
  -4.290425e+00  -9.177550e+00
   6.549373e+00  -6.158420e+00
   5.836922e+00   1.345572e+00
  -4.092406e+00   4.007967e+00
  -6.879923e+00  -2.751868e-01
   1.013600e+00  -5.146305e+00
   8.685657e+00  -2.455821e+00
   5.767017e+00   6.168998e+00
  -9.135325e-01   6.951465e+00
  -5.702681e+00   8.008545e-02
  -3.039919e+00  -6.830308e+00
   1.987335e+00  -5.402992e+00
   3.231887e+00   1.312601e+00
   2.447690e+00   6.335915e+00
   1.913920e+00   3.893262e+00
   1.750621e+00   4.337923e+00
   2.485085e-01   1.752984e-01
  -1.571723e+00  -1.546505e+00
  -3.408253e+00  -3.124065e+00
  -4.248528e+00   8.341700e-01
  -3.853489e+00   3.385939e+00
  -4.870835e+00   2.934466e+00
  -1.499564e+00  -6.967238e+00
   3.217325e+00  -1.053139e+01
   6.827879e+00  -5.176800e+00
   5.964844e+00   3.386889e+00
  -1.122677e+00   9.002230e+00
  -6.572148e+00   5.192830e+00
  -7.117898e+00  -2.869924e+00
   1.079631e+00  -4.726619e+00
   5.859820e+00  -8.041853e-01
   1.980794e+00   3.811537e+00
  -5.068999e+00   1.206800e+00
  -3.698937e+00  -4.359478e+00
   1.798438e+00  -3.849510e+00
   5.254599e+00   6.023048e-01
   1.335973e+00   7.164078e+00
  -3.469183e+00   4.971517e+00
  -4.946819e+00   2.984328e-01
  -4.972036e+00  -2.962118e+00
  -5.054375e+00  -2.640791e+00
  -2.701984e+00  -4.480724e+00
   2.035181e+00  -4.551087e+00
   4.440975e+00  -1.586149e+00
   8.504824e-01   1.918316e+00
  -3.289068e+00   9.563498e-01
  -1.942778e+00  -3.295993e+00
   2.427167e+00  -4.414432e+00
   3.573934e+00  -8.683272e-01
   1.001226e+00   1.290288e+00
  -8.125579e-01   4.341843e-01
   3.551992e-01  -2.101663e+00
   2.966993e+00  -2.094244e+00
   5.107693e+00  -3.334345e-01
   5.266507e+00   2.922214e+00
   2.591019e+00   6.255180e+00
  -2.802601e+00   7.167294e+00
  -6.730464e+00   3.363280e+00
  -4.859692e+00  -2.379038e+00
   8.057529e-01  -4.660378e+00
   3.656175e+00  -7.822901e-01
   1.183669e+00   3.957589e+00
  -3.538979e+00   4.148324e+00
  -4.882837e+00  -4.216741e-01
  -2.153345e+00  -4.145221e+00
   1.705877e+00  -3.473309e+00
   2.729721e+00   2.536265e-01
   3.652817e-01   2.681041e+00
  -3.310981e+00   5.092201e-01
  -4.049487e+00  -3.966958e+00
   3.815410e-01  -5.953456e+00
   6.598480e+00  -3.252474e+00
   7.898389e+00   1.846696e+00
   3.519501e+00   5.275348e+00
  -2.099635e+00   5.092979e+00
  -4.144608e+00   2.053490e+00
  -2.905473e+00  -1.274359e+00
  -2.778331e-01  -2.574240e+00
   1.964808e+00  -1.820321e+00
   2.439164e+00   8.905928e-01
   1.685032e+00   1.911109e+00
   5.432396e-01   5.840998e-01
   6.279642e-01  -5.904476e-01
   1.625357e+00   9.472635e-01
   8.059455e-01   4.511107e+00
  -3.302569e+00   6.091803e+00
  -6.381567e+00   1.991353e+00
  -5.718387e+00  -3.782641e+00
  -1.784685e+00  -7.254801e+00
   2.318561e+00  -5.727383e+00
   3.220070e+00  -1.243411e+00
   2.520833e+00   1.571694e+00
   4.314989e-01   8.284246e-01
   2.708506e-01   2.492859e-01
   1.165341e+00   4.328331e-02
   1.593320e+00   1.396956e+00
   1.138190e-01   1.478635e+00
  -1.734328e+00   4.543711e-01
  -3.364099e+00  -1.509178e+00
  -3.031536e-01  -3.927258e+00
   4.065974e+00  -2.418202e+00
   6.857142e+00   8.820671e-01
   3.780746e+00   4.730686e+00
  -1.923368e+00   6.036486e+00
  -6.499462e+00   4.181340e+00
  -6.811932e+00  -6.115940e-01
  -3.609440e+00  -3.281554e+00
  -2.956304e-01  -3.747025e+00
   1.112570e+00  -3.051582e+00
   8.143668e-01  -1.925953e+00
   7.984953e-01  -1.819895e+00
   1.805903e+00  -1.628811e+00
   2.895997e+00   4.629507e-02
   3.245195e+00   2.485464e+00
   1.649027e+00   5.319696e+00
  -1.955084e+00   5.465552e+00
  -5.281691e+00   1.838633e+00
  -5.812970e+00  -3.279068e+00
  -2.889288e+00  -5.996776e+00
   1.595417e+00  -4.804833e+00
   3.948035e+00  -1.457274e+00
   2.518593e+00   1.311572e+00
  -9.115128e-02   1.684037e+00
  -4.251920e-01   5.079937e-01
   1.364414e+00  -6.005576e-01
   1.847419e+00  -5.782977e-02
  -5.599180e-01   1.117071e+00
  -3.616166e+00   6.327807e-01
  -3.656234e+00  -1.923866e+00
   8.226745e-02  -3.500645e+00
   4.468935e+00  -2.319541e+00
   5.576735e+00   1.812166e-01
   2.807459e+00   1.793440e+00
  -6.917143e-01   1.808037e+00
  -1.884808e+00   1.025893e+00
  -7.014812e-01   1.086864e-01
   6.546626e-01  -4.438879e-01
   1.219734e+00   3.436557e-03
   1.220613e+00   1.124342e+00
   8.958231e-01   1.751328e+00
   7.461573e-01   9.116111e-01
   7.115731e-01  -3.919274e-02
   5.099056e-01   1.071813e+00
  -3.680867e-01   3.420201e+00
  -2.514215e+00   4.508020e+00
  -4.349085e+00   2.143042e+00
  -4.044932e+00  -1.456167e+00
  -1.285599e+00  -3.402218e+00
   1.422722e+00  -2.394131e+00
   1.567585e+00  -3.863054e-01
  -1.065367e+00   4.475337e-01
  -3.110918e+00  -4.587622e-01
  -2.350349e+00  -1.965098e+00
   8.107911e-01  -2.831593e+00
   3.701134e+00  -2.413039e+00
   4.033309e+00  -5.980248e-01
   2.091942e+00   1.516681e+00
   1.999128e-02   2.198109e+00
  -5.605901e-01   1.289192e+00
   2.379162e-01   1.565580e-01
   9.343702e-01   6.041581e-01
   3.320688e-01   2.301860e+00
  -1.250922e+00   3.356992e+00
  -3.175971e+00   2.168910e+00
  -3.493332e+00  -9.661847e-01
  -2.008339e+00  -3.757748e+00
   7.149266e-01  -4.091039e+00
   2.392143e+00  -1.583308e+00
   2.046935e+00   1.491616e+00
   1.389993e-01   2.597804e+00
  -1.294950e+00   1.472354e+00
  -1.397993e+00  -2.595774e-01
  -7.191319e-01  -7.126194e-01
  -3.706348e-01  -5.824598e-01
  -7.156883e-01  -1.205731e+00
  -9.773419e-01  -2.415390e+00
  -3.329952e-01  -2.340872e+00
   1.228512e+00  -7.389599e-01
   2.581633e+00   6.488175e-01
   2.656665e+00   6.656416e-01
   1.271649e+00   1.358695e-01
  -8.417003e-02   4.715716e-01
  -6.790288e-01   1.243447e+00
  -4.972345e-01   1.032893e+00
  -4.775621e-01  -1.787274e-01
  -6.126363e-01  -9.693614e-01
  -1.552379e-01  -6.534469e-01
   1.273310e+00   2.295285e-01
   2.304933e+00   7.815314e-01
   1.577374e+00   1.189257e+00
  -6.663037e-01   1.844639e+00
  -2.938994e+00   2.055185e+00
  -3.943003e+00   9.171776e-01
  -3.006217e+00  -1.394467e+00
  -7.449685e-01  -3.087926e+00
   1.322258e+00  -2.915119e+00
   2.136718e+00  -1.462785e+00
   1.501484e+00  -4.578556e-01
   5.366680e-01  -4.053718e-01
   6.000370e-01  -6.226288e-01
   1.504321e+00  -3.353854e-02
   2.073007e+00   1.405617e+00
   1.338828e+00   2.482930e+00
  -3.669426e-01   2.094352e+00
  -1.750576e+00   4.194790e-01
  -1.766066e+00  -1.277807e+00
  -2.195984e-01  -1.665824e+00
   1.715429e+00  -4.847329e-01
   2.317332e+00   1.176838e+00
   8.693630e-01   2.460092e+00
  -1.605905e+00   2.453644e+00
  -2.842303e+00   1.442829e+00
  -2.155391e+00  -1.098572e-01
  -8.353454e-01  -1.289276e+00
  -6.233562e-01  -1.673539e+00
  -1.296586e+00  -1.150363e+00
  -1.765278e+00  -8.523341e-01
  -9.415340e-01  -1.580953e+00
   1.011361e+00  -2.686753e+00
   2.633177e+00  -2.936940e+00
   2.925481e+00  -1.463535e+00
   2.215827e+00   9.113460e-01
   1.280989e+00   2.050616e+00
   4.592591e-01   1.761087e+00
   7.953188e-02   9.648567e-01
  -1.260887e-01   6.951451e-01
  -1.799245e-01   8.928286e-01
  -1.782948e-01   6.391084e-01
  -3.254881e-01   3.294808e-01
  -5.593533e-01  -2.971466e-02
  -6.622963e-01   8.787886e-02
  -3.890436e-01  -2.854728e-02
   3.770876e-02  -2.073370e-01
   1.334234e-01  -4.892345e-01
   2.473296e-01  -2.119506e-01
   5.536967e-01   2.845006e-01
   7.252819e-01   5.991927e-01
   2.146463e-01   1.100509e+00
  -9.680745e-01   1.119595e+00
  -1.977712e+00   3.071625e-01
  -1.671404e+00  -1.080931e+00
  -2.713650e-01  -1.899159e+00
   1.461848e+00  -1.145265e+00
   1.978842e+00   1.982764e-01
   9.588553e-01   9.105214e-01
  -4.461551e-01   6.967402e-01
  -1.067537e+00   1.850554e-01
  -1.895378e-01   5.617905e-02
   1.037557e+00   1.627263e-01
   9.210695e-01   5.698132e-01
  -5.983806e-01   1.118505e+00
  -1.860603e+00   7.960961e-01
