
 $NMID
 id='ANONYMOUS ', fmtdat='(2E16.6)'
 volume=1.0
 tramp=1.0
 $END
  -4.789548e+03   2.231932e+01
  -2.756062e+03  -3.113027e+03
   8.296198e+02  -2.943865e+03
   2.615644e+03  -7.529227e+02
   9.082244e+02   8.469965e+02
  -6.725587e+02   7.389796e+02
  -1.003229e+03  -5.477037e+02
  -1.038440e+00  -1.276336e+03
   9.821881e+02  -7.291146e+02
   9.939248e+02   1.482764e+02
   3.995025e+02   1.080201e+03
  -3.191455e+02   1.009344e+03
  -7.429059e+02   9.681054e+01
  -4.012935e+02  -7.680725e+02
   3.039412e+02  -8.537348e+02
   6.848229e+02   4.975304e+01
   2.416598e+02   7.865655e+02
  -4.676258e+02   6.416066e+02
  -6.367017e+02   5.479209e+01
  -3.961224e+02  -4.642754e+02
   2.130399e+01  -5.057554e+02
   2.739731e+02  -3.118408e+02
   2.879808e+02  -5.098509e+01
  -9.016168e+01   1.012178e+02
  -4.656451e+02  -6.693747e+01
  -2.863644e+02  -4.517232e+02
   4.640428e+02  -4.616406e+02
   9.815808e+02   4.981403e+01
   5.142425e+02   6.014617e+02
  -4.604891e+02   5.685477e+02
  -8.564801e+02  -8.149947e+00
  -4.154755e+02  -5.498480e+02
   2.875370e+02  -5.844735e+02
   6.144682e+02  -2.225502e+02
   4.501676e+02   2.829337e+02
   5.555320e+01   5.761191e+02
  -2.617184e+02   3.349146e+02
  -2.401619e+02  -2.851977e+02
   1.742275e+02  -5.529207e+02
   5.314783e+02   2.165439e+00
   2.887881e+02   7.984132e+02
  -3.685851e+02   8.081558e+02
  -7.041763e+02  -1.084433e+01
  -2.866669e+02  -6.532294e+02
   3.544534e+02  -3.643481e+02
   4.442678e+02   3.665652e+02
  -8.651676e+01   6.361578e+02
  -6.207933e+02   1.657457e+02
  -6.548181e+02  -4.475575e+02
  -1.801622e+02  -6.519059e+02
   4.178550e+02  -3.947769e+02
   6.922501e+02   9.357012e+01
   4.074428e+02   4.552349e+02
  -1.893542e+02   4.196333e+02
  -5.068786e+02   4.162650e+01
  -2.652425e+02  -2.505573e+02
   1.529535e+02  -1.229019e+02
   1.684473e+02   1.981012e+02
  -1.986102e+02   2.280332e+02
  -3.974934e+02  -8.946121e+01
  -1.461945e+02  -3.403663e+02
   2.328680e+02  -2.696560e+02
   3.405357e+02  -6.189404e+01
   1.812132e+02   7.553498e+01
  -2.766871e+01   2.034584e+02
  -2.115601e+02   3.418120e+02
  -3.547483e+02   2.587464e+02
  -3.327457e+02  -1.393945e+02
  -9.327397e+01  -5.002440e+02
   1.511615e+02  -4.413943e+02
   1.628672e+02  -1.040540e+02
   2.469583e+01   5.509494e+01
   1.324084e+01  -7.598971e+01
   1.845641e+02  -1.638736e+02
   3.070982e+02   2.555192e+01
   1.974556e+02   2.873616e+02
  -6.399623e+01   2.982578e+02
  -2.579469e+02   3.541643e+01
  -2.392944e+02  -2.559211e+02
  -2.047795e+00  -3.330480e+02
   2.961008e+02  -1.442916e+02
   4.026438e+02   1.739507e+02
   2.047337e+02   3.864227e+02
  -1.205168e+02   3.339471e+02
  -2.526294e+02   1.202981e+02
  -1.559988e+02  -7.494637e+00
  -9.303448e+01   3.356464e+01
  -2.436276e+02   7.636198e+01
  -4.271759e+02  -5.447709e+01
  -3.552278e+02  -3.011268e+02
   1.071390e+00  -4.676867e+02
   3.791815e+02  -4.421416e+02
   5.207335e+02  -2.233402e+02
   3.702804e+02   9.744487e+01
   6.687554e+01   3.303726e+02
  -1.523795e+02   2.956162e+02
  -1.074681e+02   3.649123e+01
   1.163846e+02  -1.362782e+02
   2.286814e+02  -7.522725e+00
   6.388893e+01   2.249686e+02
  -1.869224e+02   2.079286e+02
  -2.115765e+02  -6.205307e+01
   1.453065e+01  -2.217837e+02
   2.129166e+02  -4.420004e+01
   1.716792e+02   2.692599e+02
  -4.133324e+01   3.726294e+02
  -2.421553e+02   1.955464e+02
  -3.364663e+02  -7.365130e+01
  -2.958114e+02  -2.496538e+02
  -1.144879e+02  -2.770262e+02
   1.158937e+02  -1.777260e+02
   2.009076e+02  -3.101886e+01
   7.480550e+01   3.702421e+01
  -7.683552e+01  -3.293917e+01
  -4.129185e+01  -1.335453e+02
   1.316396e+02  -1.158422e+02
   1.993660e+02   6.700181e+00
   6.876583e+01   8.071803e+01
  -8.571565e+01   2.598603e+01
  -6.293977e+01  -7.148399e+01
   1.271778e+02  -9.151556e+01
   2.969056e+02  -4.574309e+00
   2.821792e+02   1.419442e+02
   7.107362e+01   2.697404e+02
  -1.923518e+02   2.842823e+02
  -3.090614e+02   1.412573e+02
  -1.920380e+02  -5.733763e+01
   2.502345e+01  -1.260157e+02
   1.068350e+02  -1.311095e+01
  -2.655566e+01   1.126830e+02
  -2.103346e+02   6.951508e+01
  -2.347447e+02  -1.084084e+02
  -7.844704e+01  -2.266534e+02
   1.020616e+02  -1.752546e+02
   1.600429e+02  -3.564267e+01
   8.369274e+01   4.610354e+01
  -2.525111e+01   1.265132e+01
  -4.481061e+01  -7.785996e+01
   6.523521e+01  -1.193335e+02
   2.056838e+02  -4.056074e+01
   2.093063e+02   1.219772e+02
   2.923783e+01   2.326723e+02
  -1.763886e+02   1.801977e+02
  -2.117164e+02   8.448630e+00
  -7.071089e+01  -1.249270e+02
   7.345260e+01  -1.223022e+02
   9.129314e+01  -3.536654e+01
   2.237472e+01   2.508544e+01
  -1.849557e+01   2.061678e+01
   1.151704e+01  -3.887023e+00
   6.949623e+01   1.133800e+01
   8.770429e+01   8.170599e+01
   1.926053e+01   1.609548e+02
  -1.248265e+02   1.617214e+02
  -2.441564e+02   3.337652e+01
  -2.181809e+02  -1.571109e+02
  -4.790835e+01  -2.557485e+02
   1.180011e+02  -1.821181e+02
   1.474442e+02  -2.603002e+01
   7.295392e+01   6.252332e+01
   2.706494e+01   3.901260e+01
   5.483059e+01  -1.293923e+01
   8.170527e+01  -6.274518e+00
   3.992913e+01   4.990584e+01
  -4.483104e+01   8.570181e+01
  -1.024175e+02   5.332426e+01
  -8.530229e+01  -3.547035e+01
   1.189199e+01  -1.125762e+02
   1.446007e+02  -9.146350e+01
   2.092869e+02   4.734243e+01
   1.142176e+02   2.095340e+02
  -1.062920e+02   2.445738e+02
  -2.832198e+02   1.064643e+02
  -2.774826e+02  -8.921444e+01
  -1.173854e+02  -1.883047e+02
   4.203962e+01  -1.584650e+02
   1.016719e+02  -9.128968e+01
   8.623671e+01  -7.513038e+01
   7.351950e+01  -9.575352e+01
   1.005765e+02  -7.638400e+01
   1.368486e+02   2.526614e+01
   1.250366e+02   1.639040e+02
   3.318473e+01   2.400782e+02
  -1.023609e+02   1.851809e+02
  -1.862627e+02   2.650355e+01
  -1.481839e+02  -1.244250e+02
  -2.601640e+01  -1.672236e+02
   6.614987e+01  -1.004044e+02
   6.198792e+01  -6.453236e+00
   8.341921e+00   4.052335e+01
  -6.031401e+00   3.643379e+01
   3.940927e+01   2.231289e+01
   8.011666e+01   2.570836e+01
   4.493545e+01   3.905470e+01
  -6.405096e+01   3.816367e+01
  -1.624158e+02   5.719136e+00
  -1.525933e+02  -4.999638e+01
  -2.262267e+01  -9.220556e+01
   1.228987e+02  -8.106264e+01
   1.539373e+02  -1.871693e+01
   5.344981e+01   3.982905e+01
  -6.261950e+01   3.840915e+01
  -7.836631e+01  -1.902091e+01
  -3.895590e+00  -6.975831e+01
   6.194280e+01  -5.854234e+01
   6.500301e+01   3.013938e+00
   4.253706e+01   5.239561e+01
   4.500500e+01   4.433832e+01
   6.703352e+01   4.013503e+00
   6.986526e+01   1.987375e+00
   3.310866e+01   7.035955e+01
  -3.750974e+01   1.513845e+02
  -1.196956e+02   1.474003e+02
  -1.668720e+02   3.516973e+01
  -1.271726e+02  -9.461717e+01
  -9.251265e+00  -1.308298e+02
   8.683951e+01  -6.239730e+01
   6.158636e+01   1.769077e+01
  -6.228325e+01   2.144624e+01
  -1.456452e+02  -4.672262e+01
  -8.159069e+01  -1.146248e+02
   8.416224e+01  -1.207515e+02
   2.022628e+02  -5.752050e+01
   1.740997e+02   3.399232e+01
   4.169356e+01   9.181594e+01
  -6.318933e+01   7.601026e+01
  -5.134150e+01   9.730329e+00
   4.150961e+01  -2.640955e+01
   9.551347e+01   2.583951e+01
   3.246936e+01   1.258506e+02
  -1.003483e+02   1.602664e+02
  -1.788378e+02   6.156403e+01
  -1.318060e+02  -1.085414e+02
  -7.027994e+00  -2.081184e+02
   9.204723e+01  -1.518877e+02
   1.100609e+02   5.407864e+00
   6.536617e+01   1.231825e+02
   2.450708e+00   1.139234e+02
  -4.459907e+01   2.413889e+01
  -5.527538e+01  -3.131748e+01
  -3.040430e+01  -8.174929e+00
  -5.897294e+00   2.386517e+01
  -2.138801e+01  -1.353136e+01
  -5.899167e+01  -9.375039e+01
  -4.613834e+01  -1.184694e+02
   4.855550e+01  -4.939640e+01
   1.474587e+02   4.327977e+01
   1.386093e+02   7.671310e+01
   1.713681e+01   5.121353e+01
  -9.559338e+01   2.075075e+01
  -9.338543e+01   7.645928e+00
  -8.285538e+00  -6.011434e+00
   4.334727e+01  -2.265218e+01
   1.410868e+01  -2.027229e+01
  -2.489700e+01   7.415142e-01
   5.729419e+00   1.061288e+01
   7.982355e+01   5.976703e+00
   9.624864e+01   2.582096e+01
   5.541271e+00   8.389278e+01
  -1.281683e+02   1.189317e+02
  -1.953790e+02   5.957621e+01
  -1.465016e+02  -7.344502e+01
  -2.503658e+01  -1.721820e+02
   8.333808e+01  -1.573493e+02
   1.198820e+02  -5.965812e+01
   8.457671e+01   2.425807e+01
   2.501533e+01   3.696861e+01
  -5.254591e+00   7.187569e+00
   9.848423e+00   1.818164e+00
   3.626982e+01   4.621454e+01
   2.586037e+01   9.408290e+01
  -3.011249e+01   7.522685e+01
  -8.514839e+01  -2.052303e+01
  -7.912793e+01  -1.154177e+02
  -1.234097e+00  -1.177517e+02
   8.792186e+01  -2.189538e+01
   1.065442e+02   8.257165e+01
   3.137119e+01   1.086180e+02
  -6.943959e+01   5.552325e+01
  -9.997030e+01  -1.353758e+01
  -3.899134e+01  -5.004025e+01
   3.366661e+01  -5.001157e+01
   2.994893e+01  -2.826555e+01
  -3.866661e+01  -8.449900e-01
  -7.413057e+01   6.805470e+00
  -1.601663e+01  -2.447011e+01
   8.203703e+01  -6.809706e+01
   1.180660e+02  -6.308268e+01
   6.273669e+01   9.126084e+00
  -1.889855e+01   8.317594e+01
  -5.402787e+01   7.912383e+01
  -3.427404e+01   2.117122e+00
   2.960794e+00  -5.950816e+01
   2.928735e+01  -4.203351e+01
   3.812179e+01   2.304980e+01
   2.683614e+01   5.717418e+01
  -3.601276e+00   3.191962e+01
  -3.445861e+01  -1.058328e+01
  -4.077322e+01  -2.042721e+01
  -2.172780e+01   9.566509e-01
  -8.376406e-01   1.376987e+01
   6.338021e+00  -6.593139e+00
   9.815870e+00  -4.038230e+01
   2.215986e+01  -4.530927e+01
   3.594202e+01  -4.407029e+00
   2.884372e+01   4.979783e+01
  -6.740917e+00   6.424780e+01
  -4.809275e+01   2.016528e+01
  -5.697369e+01  -4.288897e+01
  -1.327160e+01  -6.685899e+01
   5.709498e+01  -3.478518e+01
   9.161591e+01   1.773041e+01
   5.060693e+01   4.638991e+01
  -3.051347e+01   4.073400e+01
  -6.800592e+01   1.978183e+01
  -2.418426e+01   4.298136e+00
   4.147363e+01   4.372999e+00
   4.074743e+01   1.919366e+01
  -3.413554e+01   3.344748e+01
  -9.892962e+01   1.888339e+01
