
 $NMID
 id='ANONYMOUS ', fmtdat='(2E16.6)'
 volume=1.0
 tramp=1.0
 $END
  -4.585340e+03  -1.239021e+02
  -2.736519e+03  -2.711635e+03
   7.743923e+02  -3.168595e+03
   1.991142e+03  -9.886139e+02
   1.194159e+03   5.047309e+02
  -4.469102e+02   6.905082e+02
  -9.361990e+02  -2.690090e+02
  -9.826155e+01  -1.069819e+03
   7.870546e+02  -7.041426e+02
   9.412180e+02   4.448235e+01
   4.646422e+02   9.000632e+02
  -2.716819e+02   9.573765e+02
  -6.700836e+02   7.141740e+01
  -3.909867e+02  -6.149145e+02
   2.518596e+02  -7.582250e+02
   6.088871e+02  -4.458003e+01
   3.386580e+02   7.497157e+02
  -3.243512e+02   7.333680e+02
  -6.672460e+02   1.706093e+02
  -4.929841e+02  -3.360787e+02
  -3.436583e+01  -4.892360e+02
   2.412985e+02  -2.960159e+02
   1.471150e+02  -4.890813e+01
  -1.391775e+02   2.502098e+01
  -3.900882e+02  -1.826572e+02
  -1.554950e+02  -4.376191e+02
   4.886308e+02  -3.803481e+02
   8.696015e+02   1.145913e+02
   4.363874e+02   5.394854e+02
  -3.854979e+02   4.623663e+02
  -7.371237e+02  -2.747340e+01
  -3.568595e+02  -4.587843e+02
   2.607934e+02  -5.280326e+02
   5.548761e+02  -2.102856e+02
   3.893976e+02   2.111993e+02
   6.552082e+01   4.597305e+02
  -1.694738e+02   2.722702e+02
  -1.250581e+02  -2.049836e+02
   1.828120e+02  -4.072191e+02
   4.255853e+02   3.988803e+01
   2.119008e+02   6.801815e+02
  -3.417292e+02   6.986334e+02
  -5.985408e+02   2.306143e+01
  -2.460067e+02  -5.261586e+02
   2.820441e+02  -3.096870e+02
   3.608689e+02   3.205889e+02
  -9.258459e+01   5.456302e+02
  -5.727549e+02   1.342268e+02
  -6.098779e+02  -4.114391e+02
  -1.791141e+02  -6.035815e+02
   3.660065e+02  -3.712656e+02
   6.280619e+02   5.997945e+01
   3.956679e+02   3.729363e+02
  -1.206994e+02   3.642708e+02
  -4.297367e+02   7.025324e+01
  -2.620048e+02  -1.815082e+02
   9.471447e+01  -1.057502e+02
   1.437195e+02   1.507090e+02
  -1.542141e+02   1.969054e+02
  -3.576399e+02  -5.989878e+01
  -1.697139e+02  -3.089962e+02
   1.926188e+02  -2.929478e+02
   3.516731e+02  -9.965094e+01
   2.214336e+02   8.756328e+01
  -2.470187e+01   2.410839e+02
  -2.364083e+02   3.357709e+02
  -3.441662e+02   2.202256e+02
  -2.870398e+02  -1.347666e+02
  -8.398216e+01  -4.370643e+02
   9.661590e+01  -3.970220e+02
   1.092602e+02  -1.361296e+02
   3.472223e+01  -8.250135e+00
   6.168615e+01  -8.925235e+01
   2.024585e+02  -1.179625e+02
   2.735418e+02   6.570490e+01
   1.525191e+02   2.721655e+02
  -7.208915e+01   2.441055e+02
  -2.219104e+02  -2.236493e-01
  -1.912202e+02  -2.414137e+02
   1.050835e+01  -2.844149e+02
   2.625589e+02  -1.056101e+02
   3.575570e+02   1.676726e+02
   1.896500e+02   3.480403e+02
  -9.704976e+01   3.128591e+02
  -2.336263e+02   1.308824e+02
  -1.628699e+02   9.078075e+00
  -1.078401e+02   3.015122e+01
  -2.347972e+02   5.651121e+01
  -4.077003e+02  -5.845805e+01
  -3.446317e+02  -2.828332e+02
  -4.903281e+00  -4.482946e+02
   3.662007e+02  -4.262543e+02
   4.932158e+02  -2.123678e+02
   3.337694e+02   8.504464e+01
   5.494935e+01   2.875523e+02
  -1.190214e+02   2.505535e+02
  -7.113547e+01   3.345172e+01
   1.130148e+02  -1.035584e+02
   1.946090e+02   8.382357e+00
   5.477503e+01   1.972743e+02
  -1.564415e+02   1.767592e+02
  -1.845993e+02  -5.748951e+01
   7.372439e+00  -1.988166e+02
   1.973134e+02  -4.248475e+01
   1.811603e+02   2.482665e+02
  -1.843240e+01   3.644329e+02
  -2.360692e+02   2.083425e+02
  -3.424381e+02  -5.924264e+01
  -2.884182e+02  -2.443304e+02
  -9.596965e+01  -2.698530e+02
   1.149122e+02  -1.633444e+02
   1.779220e+02  -2.169120e+01
   5.792712e+01   3.253657e+01
  -7.273332e+01  -3.887822e+01
  -3.380625e+01  -1.281063e+02
   1.227796e+02  -1.062465e+02
   1.823152e+02   5.952030e+00
   6.341926e+01   6.937603e+01
  -7.806278e+01   1.595832e+01
  -5.469066e+01  -7.327665e+01
   1.272340e+02  -8.640961e+01
   2.883843e+02   2.575069e+00
   2.673368e+02   1.426839e+02
   5.894641e+01   2.572826e+02
  -1.882129e+02   2.635166e+02
  -2.862373e+02   1.296464e+02
  -1.708892e+02  -5.009137e+01
   2.483708e+01  -1.118118e+02
   9.207936e+01  -1.022753e+01
  -3.189523e+01   1.044726e+02
  -1.973919e+02   6.572766e+01
  -2.190439e+02  -9.908274e+01
  -7.684436e+01  -2.103594e+02
   8.916491e+01  -1.635296e+02
   1.428257e+02  -3.419694e+01
   7.093586e+01   3.603103e+01
  -2.726097e+01  -4.004023e+00
  -3.515844e+01  -8.913567e+01
   7.747867e+01  -1.156396e+02
   2.069613e+02  -2.910961e+01
   2.004874e+02   1.254786e+02
   2.581822e+01   2.241778e+02
  -1.662633e+02   1.724892e+02
  -1.999542e+02   1.258955e+01
  -7.095125e+01  -1.136804e+02
   6.401855e+01  -1.144419e+02
   8.301331e+01  -3.338894e+01
   1.894403e+01   2.471044e+01
  -2.108392e+01   1.740233e+01
   1.023930e+01  -8.574470e+00
   7.139409e+01   9.587214e+00
   8.979357e+01   8.315982e+01
   1.571314e+01   1.595475e+02
  -1.276875e+02   1.548394e+02
  -2.378078e+02   2.897332e+01
  -2.062257e+02  -1.487777e+02
  -4.505525e+01  -2.412050e+02
   1.087111e+02  -1.761620e+02
   1.372367e+02  -3.028751e+01
   7.101153e+01   5.676365e+01
   2.740998e+01   3.662625e+01
   5.390236e+01  -1.440595e+01
   8.154570e+01  -7.923789e+00
   4.344256e+01   5.145252e+01
  -4.453333e+01   9.109052e+01
  -1.072901e+02   5.520261e+01
  -8.857535e+01  -4.092286e+01
   1.584716e+01  -1.174361e+02
   1.482911e+02  -8.859497e+01
   2.037559e+02   5.508169e+01
   1.040150e+02   2.084662e+02
  -1.075226e+02   2.343968e+02
  -2.726839e+02   9.931237e+01
  -2.647707e+02  -8.582172e+01
  -1.145590e+02  -1.783962e+02
   3.735032e+01  -1.495172e+02
   9.573981e+01  -8.710586e+01
   8.014616e+01  -7.363959e+01
   6.710730e+01  -9.506482e+01
   9.467960e+01  -7.703394e+01
   1.321905e+02   2.289937e+01
   1.213163e+02   1.584720e+02
   3.074945e+01   2.321222e+02
  -1.010455e+02   1.767217e+02
  -1.798702e+02   2.049770e+01
  -1.395518e+02  -1.261319e+02
  -1.933518e+01  -1.643261e+02
   6.918355e+01  -9.310264e+01
   6.088656e+01   2.847235e+00
   2.776047e+00   4.664843e+01
  -1.319645e+01   3.487074e+01
   3.612152e+01   1.566561e+01
   8.197742e+01   2.094050e+01
   4.623458e+01   3.897353e+01
  -6.690916e+01   3.823195e+01
  -1.644170e+02   2.210321e+00
  -1.472480e+02  -5.398407e+01
  -1.299442e+01  -9.147213e+01
   1.272803e+02  -7.561633e+01
   1.507191e+02  -1.293412e+01
   4.935462e+01   4.338396e+01
  -6.348706e+01   4.041186e+01
  -8.081864e+01  -1.812090e+01
  -1.154304e+01  -7.058456e+01
   5.518716e+01  -6.124827e+01
   6.647239e+01  -3.731445e-02
   4.796816e+01   5.002003e+01
   4.557677e+01   4.167171e+01
   6.212160e+01   5.034182e-01
   6.816322e+01  -5.785683e-01
   3.873030e+01   6.989986e+01
  -3.122507e+01   1.514992e+02
  -1.199970e+02   1.469690e+02
  -1.709535e+02   3.479646e+01
  -1.273726e+02  -9.470633e+01
  -5.262131e+00  -1.323092e+02
   9.099565e+01  -6.624786e+01
   6.360667e+01   1.458177e+01
  -5.940341e+01   2.351849e+01
  -1.405476e+02  -3.943821e+01
  -7.804136e+01  -1.062415e+02
   8.113808e+01  -1.145196e+02
   1.929494e+02  -5.505630e+01
   1.641983e+02   3.214736e+01
   3.754779e+01   8.701736e+01
  -6.131929e+01   7.105185e+01
  -4.869284e+01   7.159072e+00
   4.062049e+01  -2.822098e+01
   9.399533e+01   2.169260e+01
   3.712293e+01   1.209948e+02
  -8.892740e+01   1.604364e+02
  -1.693030e+02   6.903641e+01
  -1.326670e+02  -9.797977e+01
  -1.643653e+01  -2.002473e+02
   8.361958e+01  -1.482070e+02
   1.069145e+02   5.457097e+00
   6.295224e+01   1.191090e+02
  -2.492663e+00   1.072809e+02
  -4.833082e+01   1.993319e+01
  -5.304379e+01  -3.084656e+01
  -2.509644e+01  -7.441098e+00
  -3.735464e+00   2.060528e+01
  -2.246790e+01  -1.733939e+01
  -5.763825e+01  -9.140470e+01
  -4.162938e+01  -1.105157e+02
   4.946946e+01  -4.458701e+01
   1.408726e+02   4.038108e+01
   1.310568e+02   7.181627e+01
   1.754595e+01   5.107028e+01
  -8.861149e+01   2.367921e+01
  -8.950166e+01   8.305486e+00
  -1.191236e+01  -8.060120e+00
   3.851971e+01  -2.305464e+01
   1.495504e+01  -1.767861e+01
  -2.108640e+01   2.731532e+00
   5.189137e+00   9.971189e+00
   7.446731e+01   4.352168e+00
   9.340395e+01   2.467450e+01
   9.836892e+00   8.216023e+01
  -1.210139e+02   1.168512e+02
  -1.919584e+02   6.020394e+01
  -1.478092e+02  -6.840271e+01
  -2.746788e+01  -1.662052e+02
   8.176298e+01  -1.553297e+02
   1.185701e+02  -6.230869e+01
   8.416376e+01   2.079798e+01
   2.709406e+01   3.674135e+01
  -1.921839e+00   1.061636e+01
   1.052945e+01   6.043928e+00
   3.343032e+01   4.805515e+01
   2.345706e+01   9.261824e+01
  -2.901921e+01   7.371157e+01
  -8.313647e+01  -1.755279e+01
  -8.111968e+01  -1.090675e+02
  -7.345579e+00  -1.148096e+02
   8.335881e+01  -2.690048e+01
   1.072231e+02   7.444562e+01
   3.527172e+01   1.060514e+02
  -6.720006e+01   5.988742e+01
  -1.011785e+02  -9.798620e+00
  -4.163171e+01  -5.237018e+01
   3.290877e+01  -5.484136e+01
   3.227698e+01  -2.913772e+01
  -3.446684e+01   1.657608e+00
  -7.125181e+01   7.387486e+00
  -1.568568e+01  -2.688706e+01
   8.154937e+01  -6.899887e+01
   1.198715e+02  -6.014220e+01
   6.691641e+01   1.371467e+01
  -1.560988e+01   8.712160e+01
  -5.539024e+01   8.334109e+01
  -3.988907e+01   7.052363e+00
  -3.344106e+00  -5.754193e+01
   2.543321e+01  -4.554786e+01
   3.733738e+01   1.697046e+01
   2.781860e+01   5.474986e+01
  -2.346147e+00   3.421940e+01
  -3.372793e+01  -7.955136e+00
  -4.033562e+01  -2.144487e+01
  -2.035576e+01  -6.559220e-01
   1.239801e+00   1.623078e+01
   5.633955e+00  -1.126763e+00
   3.137652e+00  -3.709609e+01
   1.302204e+01  -4.763578e+01
   3.212764e+01  -1.077092e+01
   3.347029e+01   4.405183e+01
   7.589791e-01   6.225402e+01
  -4.530531e+01   2.197881e+01
  -5.981645e+01  -3.935688e+01
  -1.639512e+01  -6.491042e+01
   5.667328e+01  -3.610029e+01
   9.245553e+01   1.466039e+01
   5.115418e+01   4.524079e+01
  -2.961702e+01   4.319979e+01
  -6.698910e+01   2.308378e+01
  -2.580318e+01   4.421421e+00
   3.711910e+01   1.903869e-01
   3.893761e+01   1.428316e+01
  -2.922307e+01   3.189549e+01
  -9.088046e+01   2.179915e+01
