
 $NMID
 id='ANONYMOUS ', fmtdat='(2E16.6)'
 volume=1.0
 tramp=1.0
 $END
   5.112820e+03   1.449716e+02
   2.872210e+03   2.703000e+03
  -8.887513e+02   3.099270e+03
  -2.530443e+03   8.913401e+02
  -1.164341e+03  -6.747805e+02
   6.619707e+02  -7.939024e+02
   1.012123e+03   4.154649e+02
  -4.120732e+01   1.173637e+03
  -8.868309e+02   7.953291e+02
  -1.004013e+03   1.967625e+00
  -4.612929e+02  -9.386240e+02
   1.878977e+02  -1.006543e+03
   6.069077e+02  -1.870527e+02
   4.072951e+02   7.636389e+02
  -1.646135e+02   8.731288e+02
  -5.848354e+02   1.897341e+01
  -3.035706e+02  -7.433531e+02
   3.688684e+02  -6.912692e+02
   6.385856e+02  -1.397348e+02
   4.451762e+02   3.476347e+02
   3.226176e+01   4.622485e+02
  -3.004640e+02   3.448407e+02
  -2.519216e+02   6.935425e+01
   1.136127e+02  -9.120494e+01
   4.127585e+02   9.167157e+01
   2.427884e+02   4.137793e+02
  -4.642290e+02   4.399561e+02
  -8.897780e+02  -5.859857e+01
  -5.030823e+02  -5.663371e+02
   3.800835e+02  -5.403024e+02
   7.836448e+02  -2.553674e+01
   4.038235e+02   4.649222e+02
  -2.616148e+02   5.598161e+02
  -5.975892e+02   2.641228e+02
  -4.377055e+02  -2.129697e+02
  -7.613746e+01  -4.939203e+02
   2.265641e+02  -3.185672e+02
   1.946526e+02   2.016036e+02
  -1.530684e+02   4.693307e+02
  -4.722715e+02   1.583676e+01
  -2.528683e+02  -6.918187e+02
   3.475331e+02  -7.437869e+02
   6.554344e+02  -2.650181e+01
   2.957083e+02   5.772987e+02
  -3.107157e+02   3.697387e+02
  -4.340533e+02  -3.084893e+02
   4.830335e+01  -5.751020e+02
   5.747106e+02  -1.709409e+02
   6.352295e+02   3.983293e+02
   1.894200e+02   6.058658e+02
  -3.949152e+02   3.810783e+02
  -6.665184e+02  -6.326186e+01
  -4.104637e+02  -4.101577e+02
   1.507597e+02  -4.086140e+02
   4.743322e+02  -7.153907e+01
   2.704770e+02   2.185780e+02
  -1.295296e+02   1.274172e+02
  -1.768343e+02  -1.741049e+02
   1.593261e+02  -2.282139e+02
   3.785084e+02   6.222082e+01
   1.681868e+02   3.248121e+02
  -2.117722e+02   2.840739e+02
  -3.533545e+02   7.327936e+01
  -2.031105e+02  -9.234647e+01
   2.512380e+01  -2.224063e+02
   2.069952e+02  -3.331721e+02
   3.243931e+02  -2.466291e+02
   3.083005e+02   1.127384e+02
   1.168854e+02   4.499011e+02
  -9.935863e+01   4.235975e+02
  -1.412093e+02   1.360671e+02
  -4.923683e+01  -2.220647e+01
  -3.984200e+01   6.683190e+01
  -1.788924e+02   1.333835e+02
  -2.828138e+02  -3.009725e+01
  -1.889866e+02  -2.587660e+02
   4.713579e+01  -2.754870e+02
   2.369548e+02  -4.171527e+01
   2.360763e+02   2.302596e+02
   2.044047e+01   3.155099e+02
  -2.706520e+02   1.489303e+02
  -3.899208e+02  -1.556668e+02
  -2.133448e+02  -3.670566e+02
   9.712333e+01  -3.275261e+02
   2.394290e+02  -1.230897e+02
   1.568738e+02   8.808719e+00
   9.646384e+01  -3.385125e+01
   2.344062e+02  -8.365044e+01
   4.120885e+02   4.017352e+01
   3.486301e+02   2.827505e+02
   1.182887e+01   4.597263e+02
  -3.523063e+02   4.393754e+02
  -4.926599e+02   2.305551e+02
  -3.578207e+02  -7.793875e+01
  -8.370031e+01  -3.045484e+02
   1.176437e+02  -2.796040e+02
   9.293132e+01  -4.196943e+01
  -9.910106e+01   1.224524e+02
  -2.097287e+02   7.002059e+00
  -7.133213e+01  -2.108001e+02
   1.624248e+02  -2.040207e+02
   2.040356e+02   4.874321e+01
   3.664604e+00   2.104823e+02
  -1.987426e+02   5.507045e+01
  -1.840209e+02  -2.476159e+02
   1.633944e+01  -3.656284e+02
   2.279741e+02  -2.089090e+02
   3.327825e+02   5.156544e+01
   2.935139e+02   2.311753e+02
   1.141936e+02   2.652925e+02
  -1.041224e+02   1.712256e+02
  -1.847695e+02   3.087675e+01
  -6.879788e+01  -3.366258e+01
   7.324940e+01   3.200396e+01
   4.404318e+01   1.281777e+02
  -1.169671e+02   1.141221e+02
  -1.867082e+02   1.335236e-01
  -7.104822e+01  -7.181342e+01
   7.421240e+01  -2.351451e+01
   5.663933e+01   6.841081e+01
  -1.206272e+02   9.082367e+01
  -2.830371e+02   1.131109e+01
  -2.726394e+02  -1.300063e+02
  -7.579592e+01  -2.587973e+02
   1.731672e+02  -2.810828e+02
   2.878648e+02  -1.477800e+02
   1.843178e+02   4.781734e+01
  -1.840652e+01   1.228603e+02
  -9.935856e+01   1.750740e+01
   2.319418e+01  -1.114077e+02
   2.001247e+02  -7.953680e+01
   2.303129e+02   9.174661e+01
   8.626206e+01   2.144894e+02
  -8.670631e+01   1.737449e+02
  -1.461199e+02   4.265531e+01
  -7.875726e+01  -3.517858e+01
   1.975909e+01  -3.643115e+00
   3.651061e+01   7.974636e+01
  -6.576370e+01   1.141670e+02
  -1.965170e+02   3.735693e+01
  -2.021998e+02  -1.171339e+02
  -3.558724e+01  -2.248153e+02
   1.619613e+02  -1.797525e+02
   2.049310e+02  -1.589143e+01
   7.799442e+01   1.187952e+02
  -6.139948e+01   1.225811e+02
  -8.564681e+01   3.813979e+01
  -2.452451e+01  -2.456021e+01
   1.443754e+01  -2.113272e+01
  -1.380104e+01   3.916290e+00
  -6.807416e+01  -1.155129e+01
  -8.325275e+01  -8.065891e+01
  -1.689777e+01  -1.553459e+02
   1.194984e+02  -1.568143e+02
   2.328066e+02  -3.707786e+01
   2.129987e+02   1.425088e+02
   5.571206e+01   2.428134e+02
  -1.042909e+02   1.809689e+02
  -1.404397e+02   3.228089e+01
  -7.475035e+01  -5.748811e+01
  -2.789215e+01  -3.637076e+01
  -5.083357e+01   1.623994e+01
  -7.795381e+01   9.942880e+00
  -4.026103e+01  -4.722636e+01
   4.235734e+01  -8.570483e+01
   9.872911e+01  -5.331136e+01
   8.213752e+01   3.502501e+01
  -1.244524e+01   1.104776e+02
  -1.393109e+02   9.002551e+01
  -2.016540e+02  -4.338298e+01
  -1.145500e+02  -1.992742e+02
   9.271584e+01  -2.388099e+02
   2.665114e+02  -1.121642e+02
   2.691174e+02   7.471993e+01
   1.229475e+02   1.745744e+02
  -3.225087e+01   1.519239e+02
  -9.463250e+01   9.074819e+01
  -8.142418e+01   7.634124e+01
  -6.733318e+01   9.636270e+01
  -9.318100e+01   7.725285e+01
  -1.319827e+02  -2.071316e+01
  -1.251734e+02  -1.544614e+02
  -3.748369e+01  -2.299386e+02
   9.569178e+01  -1.800432e+02
   1.788872e+02  -2.814029e+01
   1.430262e+02   1.195999e+02
   2.495445e+01   1.630432e+02
  -6.368623e+01   9.733111e+01
  -5.814458e+01   3.938162e+00
  -5.121554e+00  -4.096949e+01
   7.378067e+00  -3.330096e+01
  -4.076955e+01  -1.691194e+01
  -8.280730e+01  -2.088050e+01
  -4.682791e+01  -3.628874e+01
   6.191920e+01  -3.745671e+01
   1.565799e+02  -8.418501e+00
   1.446011e+02   4.296838e+01
   1.962027e+01   8.361283e+01
  -1.164408e+02   7.587911e+01
  -1.439609e+02   1.839600e+01
  -4.899377e+01  -3.847334e+01
   6.121870e+01  -3.831503e+01
   7.896383e+01   1.867787e+01
   1.032174e+01   7.092803e+01
  -5.552396e+01   6.103795e+01
  -6.480119e+01  -1.585122e+00
  -4.583618e+01  -5.160714e+01
  -4.462907e+01  -4.116766e+01
  -6.211222e+01   1.985470e+00
  -6.685626e+01   3.911209e+00
  -3.675398e+01  -6.715471e+01
   2.959160e+01  -1.497578e+02
   1.130813e+02  -1.467432e+02
   1.640416e+02  -3.696767e+01
   1.260632e+02   9.033308e+01
   9.026117e+00   1.273644e+02
  -8.652822e+01   6.281515e+01
  -6.172891e+01  -1.526637e+01
   6.046215e+01  -2.360095e+01
   1.430811e+02   3.811098e+01
   8.282004e+01   1.046738e+02
  -7.655805e+01   1.170950e+02
  -1.911324e+02   6.234912e+01
  -1.661081e+02  -2.543155e+01
  -4.144995e+01  -8.628997e+01
   5.885840e+01  -7.507967e+01
   4.926686e+01  -9.925312e+00
  -3.916606e+01   2.907557e+01
  -9.421581e+01  -2.001548e+01
  -3.810685e+01  -1.217624e+02
   8.974416e+01  -1.624149e+02
   1.725923e+02  -6.944034e+01
   1.362160e+02   9.988838e+01
   1.876491e+01   2.033882e+02
  -8.223971e+01   1.522956e+02
  -1.078541e+02  -4.810836e-01
  -6.805878e+01  -1.156102e+02
  -4.985839e+00  -1.072590e+02
   4.372706e+01  -2.254940e+01
   5.416605e+01   2.846726e+01
   2.769082e+01   6.005007e+00
   2.837880e+00  -2.266770e+01
   1.990892e+01   1.385436e+01
   5.937715e+01   8.834973e+01
   4.820194e+01   1.098743e+02
  -4.440308e+01   4.688929e+01
  -1.416281e+02  -3.637419e+01
  -1.344777e+02  -6.779649e+01
  -1.834951e+01  -4.908948e+01
   8.995212e+01  -2.484617e+01
   8.915987e+01  -1.046340e+01
   9.581066e+00   7.561010e+00
  -3.894278e+01   2.464181e+01
  -1.247158e+01   1.912486e+01
   2.256859e+01  -2.670684e+00
  -7.401638e+00  -9.308406e+00
  -7.790895e+01  -1.779537e+00
  -9.393683e+01  -2.267546e+01
  -8.428675e+00  -8.369222e+01
   1.202304e+02  -1.206401e+02
   1.882667e+02  -6.249821e+01
   1.452600e+02   6.850885e+01
   2.937414e+01   1.658470e+02
  -7.748297e+01   1.532452e+02
  -1.157741e+02   6.060631e+01
  -8.336791e+01  -2.022148e+01
  -2.586343e+01  -3.479297e+01
   4.157992e+00  -9.090404e+00
  -9.639062e+00  -4.784695e+00
  -3.538531e+01  -4.642836e+01
  -2.614833e+01  -9.129929e+01
   2.875115e+01  -7.319191e+01
   8.514465e+01   1.817765e+01
   8.220265e+01   1.102799e+02
   5.620264e+00   1.152443e+02
  -8.607654e+01   2.537789e+01
  -1.082805e+02  -7.608749e+01
  -3.472204e+01  -1.051731e+02
   6.724473e+01  -5.769404e+01
   9.969087e+01   9.754541e+00
   4.025291e+01   4.953457e+01
  -3.203305e+01   5.242642e+01
  -2.969643e+01   2.931767e+01
   3.593291e+01  -1.280425e+00
   7.000745e+01  -9.031377e+00
   1.402340e+01   2.470524e+01
  -7.993067e+01   6.920137e+01
  -1.148114e+02   6.235161e+01
  -6.249762e+01  -1.219118e+01
   1.625958e+01  -8.650720e+01
   5.292062e+01  -8.150838e+01
   3.805258e+01  -3.903144e+00
   3.398912e+00   5.893267e+01
  -2.505939e+01   4.437632e+01
  -3.815449e+01  -1.788034e+01
  -2.918491e+01  -5.249747e+01
   1.302535e+00  -3.108983e+01
   3.292747e+01   7.996517e+00
   3.978490e+01   1.780527e+01
   2.052153e+01  -2.228076e+00
  -1.156030e-01  -1.465870e+01
  -5.638020e+00   5.180447e+00
  -6.227718e+00   3.927370e+01
  -1.759674e+01   4.609322e+01
  -3.377671e+01   7.113341e+00
  -3.095355e+01  -4.715457e+01
   2.688466e+00  -6.325734e+01
   4.585663e+01  -2.157218e+01
   5.773239e+01   4.021201e+01
   1.500799e+01   6.517053e+01
  -5.558267e+01   3.579985e+01
  -9.060602e+01  -1.488437e+01
  -5.021123e+01  -4.453616e+01
   2.944826e+01  -4.175703e+01
   6.589253e+01  -2.209460e+01
   2.338423e+01  -4.829223e+00
  -4.021740e+01  -2.007602e+00
  -3.985966e+01  -1.668649e+01
   3.166062e+01  -3.391974e+01
   9.466422e+01  -2.278659e+01
