
 $NMID
 id='ANONYMOUS ', fmtdat='(2E16.6)'
 volume=1.0
 tramp=1.0
 $END
  -2.681906e+03  -5.176482e+02
  -1.863007e+03  -1.200377e+03
  -1.014467e+02  -1.518996e+03
   1.099940e+03  -1.121220e+03
   8.682014e+02  -5.144304e+02
   9.436094e+01   1.851355e+02
  -2.236658e+02   7.086066e+00
  -5.830197e+01  -4.989115e+02
   3.161267e+02  -4.456716e+02
   5.092753e+02  -1.517123e+02
   3.968194e+02   4.821394e+02
   3.263941e+00   6.404623e+02
  -2.036378e+02   1.248477e+02
  -2.130524e+02  -3.444100e+02
   6.972939e+01  -4.502458e+02
   2.968074e+02  -3.907800e+01
   2.879852e+02   4.376918e+02
  -7.825574e+01   5.880421e+02
  -4.564949e+02   3.112051e+02
  -4.033549e+02  -9.749450e+01
  -1.063608e+02  -2.907152e+02
   8.532385e+01  -2.468295e+02
  -3.783463e+00  -1.558029e+02
  -2.193196e+02  -2.203636e+02
  -2.136494e+02  -3.343748e+02
   1.115026e+02  -3.016468e+02
   4.757030e+02  -1.942643e+01
   5.147251e+02   2.282427e+02
   1.412328e+02   2.680507e+02
  -2.885752e+02   6.884912e+01
  -3.918756e+02  -1.706239e+02
  -1.168909e+02  -2.927277e+02
   2.637108e+02  -2.771771e+02
   4.117288e+02  -1.033212e+02
   2.694603e+02   1.278307e+02
   7.027304e+01   2.442919e+02
   3.709935e+01   1.515628e+02
   1.303565e+02  -4.452521e+01
   1.869032e+02  -5.092314e+01
   1.158134e+02   1.959727e+02
  -6.958214e+01   4.398822e+02
  -2.198035e+02   3.449515e+02
  -2.189145e+02  -1.054964e+01
  -6.630209e+01  -2.407740e+02
   9.866363e+01  -7.339455e+01
   8.411677e+01   2.572385e+02
  -1.340644e+02   3.292803e+02
  -3.994686e+02   1.824198e+01
  -4.403526e+02  -3.561962e+02
  -1.459035e+02  -4.523987e+02
   2.570560e+02  -2.376017e+02
   4.520819e+02   4.772217e+01
   3.010636e+02   1.876215e+02
  -1.289591e+01   1.661522e+02
  -2.182470e+02   8.892133e+01
  -1.921000e+02   2.807416e+01
  -4.470226e+01   6.543327e+00
   1.789460e+01   1.451738e+01
  -7.490720e+01   2.054052e+01
  -1.885782e+02  -3.134594e+01
  -1.329753e+02  -1.503670e+02
   1.128776e+02  -2.388169e+02
   3.354238e+02  -1.620149e+02
   2.940340e+02   9.143964e+01
  -1.118166e+01   3.443482e+02
  -3.170142e+02   3.736893e+02
  -3.733611e+02   1.402302e+02
  -2.025387e+02  -1.641125e+02
  -3.223304e+01  -3.137962e+02
  -3.108808e+00  -2.726813e+02
  -3.266596e+01  -1.800604e+02
   2.433948e+01  -1.470223e+02
   1.683166e+02  -1.298399e+02
   2.641311e+02  -3.021822e+01
   2.138707e+02   1.407511e+02
   5.313265e+01   2.401174e+02
  -1.011110e+02   1.534624e+02
  -1.628061e+02  -6.361475e+01
  -9.719824e+01  -2.334827e+02
   6.548329e+01  -2.149902e+02
   2.329918e+02  -3.156412e+01
   2.750623e+02   1.746287e+02
   1.476606e+02   2.717167e+02
  -3.948352e+01   2.374016e+02
  -1.410409e+02   1.525100e+02
  -1.387505e+02   9.701045e+01
  -1.565365e+02   7.590305e+01
  -2.802450e+02   2.646094e+01
  -3.951302e+02  -1.061766e+02
  -2.987814e+02  -2.930356e+02
   3.937854e+01  -4.167063e+02
   3.798515e+02  -3.691727e+02
   4.571345e+02  -1.476618e+02
   2.510049e+02   1.063990e+02
  -3.783473e+00   2.265916e+02
  -8.244568e+01   1.656642e+02
   1.259149e+01   3.274136e+01
   1.177106e+02  -1.832641e+01
   1.021660e+02   4.728933e+01
  -8.436177e+00   1.165678e+02
  -9.586182e+01   7.357465e+01
  -7.745930e+01  -5.110065e+01
   3.543243e+01  -1.041639e+02
   1.464447e+02   1.390723e+01
   1.443814e+02   2.259803e+02
  -1.552531e+01   3.306603e+02
  -2.427309e+02   2.071067e+02
  -3.647272e+02  -6.326783e+01
  -2.718905e+02  -2.705505e+02
  -3.864736e+01  -2.746323e+02
   1.404197e+02  -1.273207e+02
   1.389103e+02   4.601016e+00
   2.210865e+01   1.043931e+01
  -4.441002e+01  -6.694457e+01
   1.944135e+01  -1.049060e+02
   1.247942e+02  -4.909946e+01
   1.302712e+02   3.494689e+01
   1.590255e+01   4.917883e+01
  -8.490856e+01  -2.247822e+01
  -3.246074e+01  -9.863357e+01
   1.554961e+02  -8.715716e+01
   3.029593e+02   2.993121e+01
   2.477669e+02   1.804843e+02
   1.085481e+01   2.617700e+02
  -2.164591e+02   2.159364e+02
  -2.577289e+02   7.721528e+01
  -1.189436e+02  -4.757137e+01
   3.523605e+01  -6.523460e+01
   5.317283e+01   1.144854e+01
  -6.109175e+01   7.061814e+01
  -1.754399e+02   2.011849e+01
  -1.689174e+02  -1.044198e+02
  -4.438143e+01  -1.743162e+02
   8.680580e+01  -1.184986e+02
   1.141089e+02  -5.916567e+00
   3.238470e+01   3.549891e+01
  -5.130543e+01  -3.246945e+01
  -2.490996e+01  -1.210831e+02
   1.073822e+02  -1.169519e+02
   2.147792e+02  -1.085042e+00
   1.728602e+02   1.398859e+02
  -2.457446e-01   1.986708e+02
  -1.538307e+02   1.362624e+02
  -1.616465e+02   8.078744e+00
  -4.594404e+01  -8.597820e+01
   6.018129e+01  -8.439896e+01
   6.145897e+01  -1.799664e+01
  -8.618671e+00   2.665360e+01
  -4.550884e+01   3.329525e+00
   6.366298e+00  -3.813654e+01
   9.391190e+01  -1.229690e+01
   1.117061e+02   9.165847e+01
   1.000616e+01   1.804408e+02
  -1.475475e+02   1.497264e+02
  -2.348497e+02  -6.437668e-01
  -1.788375e+02  -1.625934e+02
  -2.673930e+01  -2.184402e+02
   9.988329e+01  -1.473822e+02
   1.218927e+02  -2.828727e+01
   6.953657e+01   4.023459e+01
   3.227733e+01   2.618247e+01
   5.487268e+01  -1.519893e+01
   9.013253e+01  -7.739394e+00
   6.191847e+01   5.952694e+01
  -3.854941e+01   1.128749e+02
  -1.308910e+02   7.231014e+01
  -1.154431e+02  -4.890585e+01
   1.970730e+01  -1.379818e+02
   1.727122e+02  -8.872440e+01
   2.055311e+02   7.533352e+01
   7.183725e+01   2.162436e+02
  -1.375797e+02   2.101855e+02
  -2.652976e+02   6.583594e+01
  -2.301176e+02  -9.528325e+01
  -8.594989e+01  -1.634142e+02
   4.319400e+01  -1.297070e+02
   8.414799e+01  -7.427313e+01
   6.328276e+01  -6.631676e+01
   5.384703e+01  -9.225298e+01
   8.898571e+01  -7.953428e+01
   1.305387e+02   1.726008e+01
   1.145214e+02   1.524615e+02
   2.013054e+01   2.218183e+02
  -1.014376e+02   1.583739e+02
  -1.627886e+02   1.950698e+00
  -1.149910e+02  -1.308043e+02
  -5.470968e-01  -1.504782e+02
   7.949615e+01  -6.911361e+01
   6.233205e+01   2.529895e+01
  -8.970793e+00   5.953887e+01
  -3.515761e+01   3.590780e+01
   2.102445e+01   8.852727e+00
   8.327806e+01   1.610424e+01
   4.939855e+01   4.117540e+01
  -7.838639e+01   3.920912e+01
  -1.787652e+02  -8.819136e+00
  -1.405925e+02  -7.339041e+01
   1.205057e+01  -1.029429e+02
   1.429297e+02  -7.002047e+01
   1.457585e+02   2.465475e+00
   4.209230e+01   5.659611e+01
  -5.969150e+01   4.689753e+01
  -7.893669e+01  -1.727565e+01
  -2.416755e+01  -7.446809e+01
   4.159819e+01  -6.758456e+01
   7.066826e+01  -3.903184e+00
   6.247034e+01   5.032336e+01
   4.788607e+01   4.305393e+01
   5.127356e+01   1.230264e+00
   6.463367e+01   1.769223e+00
   4.906958e+01   7.505156e+01
  -2.539164e+01   1.552200e+02
  -1.311040e+02   1.459139e+02
  -1.870889e+02   3.151532e+01
  -1.315715e+02  -9.743934e+01
   9.462125e-01  -1.358951e+02
   9.412243e+01  -7.199680e+01
   6.198845e+01   9.218994e+00
  -5.569226e+01   2.010995e+01
  -1.273378e+02  -4.172733e+01
  -6.460736e+01  -1.055614e+02
   8.439746e+01  -1.042215e+02
   1.843866e+02  -3.527006e+01
   1.496689e+02   4.677445e+01
   2.540078e+01   8.282674e+01
  -6.595443e+01   5.334872e+01
  -4.779522e+01  -6.515459e+00
   4.061421e+01  -3.159643e+01
   9.209726e+01   1.852264e+01
   4.162069e+01   1.113133e+02
  -7.231422e+01   1.519298e+02
  -1.486880e+02   7.201381e+01
  -1.215289e+02  -8.447583e+01
  -1.723474e+01  -1.835859e+02
   7.811416e+01  -1.329906e+02
   9.883613e+01   1.538797e+01
   4.807502e+01   1.184940e+02
  -1.976272e+01   9.671910e+01
  -5.263463e+01   9.875932e+00
  -3.978384e+01  -3.253616e+01
  -1.181841e+01  -6.513364e+00
  -7.780320e+00   1.511899e+01
  -3.518690e+01  -2.466043e+01
  -5.623256e+01  -8.937805e+01
  -2.372011e+01  -1.003508e+02
   6.072556e+01  -3.930753e+01
   1.303081e+02   3.640165e+01
   1.140221e+02   6.801450e+01
   1.730728e+01   5.361419e+01
  -7.390536e+01   2.543772e+01
  -8.172167e+01   3.046867e+00
  -1.942854e+01  -1.251510e+01
   3.110812e+01  -1.769016e+01
   2.062433e+01  -8.056985e+00
  -1.203237e+01   3.813913e+00
   1.053993e+00   1.375848e+00
   6.162019e+01  -4.391787e+00
   9.263164e+01   2.087884e+01
   2.870764e+01   8.058997e+01
  -9.917584e+01   1.181214e+02
  -1.858098e+02   7.023857e+01
  -1.556734e+02  -5.093417e+01
  -3.542028e+01  -1.530806e+02
   7.836961e+01  -1.549877e+02
   1.137184e+02  -6.952997e+01
   7.706931e+01   1.646101e+01
   2.579989e+01   3.848428e+01
   5.248131e+00   1.500728e+01
   1.601939e+01   9.384438e+00
   2.861383e+01   4.791206e+01
   1.547392e+01   8.807515e+01
  -2.771910e+01   6.986384e+01
  -7.424798e+01  -1.206187e+01
  -7.920503e+01  -9.459350e+01
  -1.920939e+01  -1.061215e+02
   6.893724e+01  -3.576277e+01
   1.046887e+02   5.710978e+01
   4.419350e+01   9.974974e+01
  -5.974774e+01   6.764485e+01
  -1.034903e+02  -3.894596e+00
  -4.820263e+01  -5.862693e+01
   3.289455e+01  -6.381996e+01
   4.211138e+01  -2.851673e+01
  -2.250660e+01   8.440349e+00
  -6.690730e+01   9.786218e+00
  -2.094518e+01  -2.778179e+01
   7.446583e+01  -6.427609e+01
   1.196864e+02  -5.075226e+01
   7.331536e+01   1.651760e+01
  -1.106481e+01   8.176204e+01
  -5.782740e+01   8.212873e+01
  -4.642192e+01   1.669150e+01
  -8.520970e+00  -4.819417e+01
   2.276775e+01  -4.923291e+01
   3.605937e+01   6.034566e+00
   2.845055e+01   5.219611e+01
   4.991221e-01   4.243842e+01
  -3.175648e+01  -2.732499e+00
  -4.129787e+01  -2.643579e+01
  -2.063505e+01  -6.145429e+00
   4.399567e+00   2.270308e+01
   5.649806e+00   1.404985e+01
  -9.117260e+00  -2.907315e+01
  -6.179553e+00  -5.564796e+01
   2.432405e+01  -2.824511e+01
   4.568853e+01   2.942900e+01
   1.979223e+01   5.814989e+01
  -3.798884e+01   2.808995e+01
  -6.522192e+01  -2.864046e+01
  -2.228850e+01  -5.741670e+01
   5.663966e+01  -3.677598e+01
   9.354124e+01   8.212856e+00
   5.081171e+01   4.122360e+01
  -2.733825e+01   4.701107e+01
  -6.355786e+01   3.141110e+01
  -3.051871e+01   8.153094e+00
   2.298947e+01  -6.054035e+00
   3.050852e+01   1.530931e+00
  -1.818510e+01   2.190872e+01
  -6.889559e+01   2.161121e+01
