
 $NMID
 id='ANONYMOUS ', fmtdat='(2E16.6)'
 volume=1.0
 tramp=1.0
 $END
   2.943912e+03  -6.684117e+01
   1.683293e+03   1.680704e+03
  -1.012156e+02   1.991045e+03
  -1.442202e+03   1.051762e+03
  -9.656818e+02  -1.134950e+02
   1.359808e+02  -3.557616e+02
   4.992064e+02   1.942546e+02
   1.152167e+02   5.960387e+02
  -3.882189e+02   6.822248e+02
  -6.597763e+02   2.571958e+02
  -4.106377e+02  -4.427038e+02
   9.569425e+01  -5.182572e+02
   2.800651e+02  -1.269435e+02
   2.901966e+02   4.275113e+02
  -1.613232e+02   6.046217e+02
  -4.090532e+02   3.803358e+01
  -3.177847e+02  -4.796397e+02
   9.321485e+01  -5.946367e+02
   3.990567e+02  -2.144080e+02
   3.874031e+02   2.115728e+02
   7.610061e+01   3.403810e+02
  -7.794906e+01   1.831890e+02
  -8.284505e+01   3.095665e+01
   1.076903e+02   2.235386e+01
   2.571463e+02   2.320038e+02
   5.915026e+01   3.100990e+02
  -3.895954e+02   1.591759e+02
  -5.946605e+02  -1.292777e+02
  -2.591758e+02  -3.442139e+02
   2.791918e+02  -2.587956e+02
   5.038360e+02   6.009876e+01
   2.083318e+02   3.324221e+02
  -2.296776e+02   3.210761e+02
  -4.026007e+02   1.312045e+02
  -2.923052e+02  -1.497959e+02
  -3.169755e+01  -2.960033e+02
   8.448765e+01  -1.545071e+02
   2.202324e+00   1.370761e+02
  -1.631411e+02   2.222574e+02
  -2.299508e+02  -9.420187e+01
  -6.296976e+01  -4.488650e+02
   2.171477e+02  -4.176156e+02
   3.280979e+02   1.133469e+01
   9.134589e+01   3.190026e+02
  -1.731731e+02   1.433094e+02
  -1.849839e+02  -2.600159e+02
   9.535315e+01  -3.689961e+02
   3.951222e+02  -6.248992e+01
   4.278217e+02   3.267177e+02
   1.366664e+02   4.237178e+02
  -2.461794e+02   2.244243e+02
  -4.457122e+02  -6.216954e+01
  -2.922710e+02  -2.364861e+02
   5.843122e+01  -2.059561e+02
   2.681525e+02  -5.287512e+01
   1.785578e+02   5.900930e+01
  -2.549955e+01   2.328546e+01
  -5.209238e+01  -7.801863e+01
   1.203053e+02  -7.537533e+01
   2.295700e+02   6.275990e+01
   9.599196e+01   1.937196e+02
  -1.622824e+02   1.950052e+02
  -2.941193e+02   7.609001e+01
  -1.924378e+02  -9.089319e+01
   4.711941e+01  -2.392137e+02
   2.558192e+02  -2.820181e+02
   3.151264e+02  -1.357904e+02
   2.084633e+02   1.366144e+02
   3.757921e+01   3.239294e+02
  -6.011783e+01   2.892251e+02
  -4.967752e+01   1.383830e+02
  -3.254595e+01   6.529082e+01
  -1.007232e+02   8.762079e+01
  -2.005408e+02   5.604116e+01
  -2.049240e+02  -9.442178e+01
  -7.940062e+01  -2.246365e+02
   8.187594e+01  -1.783840e+02
   1.696858e+02   2.781688e+01
   1.216333e+02   2.174433e+02
  -3.922018e+01   2.300175e+02
  -2.189129e+02   6.615443e+01
  -2.740598e+02  -1.531638e+02
  -1.443061e+02  -2.721602e+02
   5.749402e+01  -2.348082e+02
   1.538044e+02  -1.193904e+02
   1.294767e+02  -5.597114e+01
   1.251165e+02  -5.482111e+01
   2.352551e+02  -2.842174e+01
   3.486960e+02   9.840242e+01
   2.585982e+02   2.718742e+02
  -4.250210e+01   3.754868e+02
  -3.391236e+02   3.255166e+02
  -4.168987e+02   1.336382e+02
  -2.534527e+02  -9.558032e+01
  -1.703155e+01  -2.272790e+02
   9.640236e+01  -1.803008e+02
   2.718203e+01  -3.057961e+01
  -9.918353e+01   4.714106e+01
  -1.251452e+02  -2.532508e+01
  -1.213509e+01  -1.337274e+02
   1.139449e+02  -1.016960e+02
   1.054530e+02   5.047034e+01
  -2.889917e+01   1.222724e+02
  -1.440538e+02  -3.502293e+00
  -1.153952e+02  -2.133623e+02
   3.966685e+01  -2.922320e+02
   2.130295e+02  -1.605129e+02
   2.941254e+02   7.395815e+01
   2.281906e+02   2.346949e+02
   5.103816e+01   2.362250e+02
  -1.110232e+02   1.199378e+02
  -1.372048e+02   3.684646e+00
  -3.866680e+01  -1.527856e+01
   4.027365e+01   5.107758e+01
  -4.091273e+00   9.780957e+01
  -1.082074e+02   5.614078e+01
  -1.279361e+02  -2.703460e+01
  -2.751298e+01  -4.985639e+01
   6.809035e+01   1.111793e+01
   2.846116e+01   7.822649e+01
  -1.292944e+02   6.713382e+01
  -2.549097e+02  -2.964665e+01
  -2.141959e+02  -1.535546e+02
  -1.848873e+01  -2.276838e+02
   1.843045e+02  -1.989224e+02
   2.387000e+02  -7.761209e+01
   1.244679e+02   4.666033e+01
  -2.604967e+01   7.142201e+01
  -5.779698e+01  -5.689627e+00
   4.682413e+01  -7.120455e+01
   1.625636e+02  -2.455340e+01
   1.610289e+02   9.788031e+01
   4.237212e+01   1.676440e+02
  -8.171825e+01   1.178464e+02
  -1.099102e+02   1.391670e+01
  -4.133359e+01  -3.273277e+01
   3.286530e+01   1.403530e+01
   2.037941e+01   8.838812e+01
  -8.360910e+01   9.790053e+01
  -1.784524e+02   1.084352e+01
  -1.524375e+02  -1.151621e+02
  -4.953893e+00  -1.784708e+02
   1.365358e+02  -1.263189e+02
   1.488188e+02  -4.360703e+00
   4.344341e+01   8.410898e+01
  -5.684673e+01   8.007390e+01
  -6.268304e+01   1.902420e+01
  -3.996747e+00  -2.112183e+01
   2.822254e+01  -8.120912e+00
  -8.317927e+00   1.551518e+01
  -7.095055e+01  -6.738756e+00
  -8.167083e+01  -8.220234e+01
  -7.914224e-01  -1.461698e+02
   1.274853e+02  -1.236892e+02
   2.044286e+02  -5.236954e-01
   1.602407e+02   1.441151e+02
   2.332569e+01   2.013439e+02
  -9.576475e+01   1.370808e+02
  -1.158279e+02   2.124733e+01
  -6.330480e+01  -4.369899e+01
  -2.765167e+01  -2.963303e+01
  -4.514967e+01   9.988250e+00
  -7.241499e+01   5.085948e+00
  -4.438396e+01  -4.885262e+01
   3.708792e+01  -8.663185e+01
   1.042157e+02  -5.217504e+01
   8.860615e+01   4.014234e+01
  -1.767446e+01   1.082175e+02
  -1.383551e+02   7.338757e+01
  -1.721675e+02  -5.820822e+01
  -6.827117e+01  -1.826133e+02
   1.100424e+02  -1.853249e+02
   2.295375e+02  -6.258811e+01
   2.061819e+02   8.539663e+01
   7.993063e+01   1.497318e+02
  -3.858233e+01   1.174871e+02
  -7.898878e+01   6.441520e+01
  -6.393124e+01   5.608007e+01
  -5.515457e+01   7.724890e+01
  -8.045274e+01   6.410420e+01
  -1.112392e+02  -2.045642e+01
  -9.528527e+01  -1.350752e+02
  -1.438057e+01  -1.923295e+02
   9.113514e+01  -1.382507e+02
   1.454342e+02  -4.919542e+00
   1.042345e+02   1.113013e+02
   4.354518e+00   1.332510e+02
  -6.553861e+01   6.823611e+01
  -5.382412e+01  -1.081819e+01
   1.236280e+00  -4.287825e+01
   1.989455e+01  -2.984557e+01
  -2.385515e+01  -1.403692e+01
  -6.909531e+01  -2.108553e+01
  -3.969369e+01  -3.719010e+01
   6.203927e+01  -3.173259e+01
   1.454533e+02   6.041352e+00
   1.219521e+02   5.635002e+01
   1.569044e+00   8.226199e+01
  -1.117615e+02   6.066432e+01
  -1.222955e+02   4.656324e+00
  -3.727154e+01  -4.045392e+01
   5.030541e+01  -3.407657e+01
   6.318861e+01   1.775555e+01
   1.043506e+01   6.345291e+01
  -4.346336e+01   5.496511e+01
  -5.795359e+01  -2.224923e-01
  -4.564258e+01  -4.573041e+01
  -3.974990e+01  -3.922554e+01
  -4.908898e+01  -4.139543e+00
  -5.583040e+01  -3.858746e+00
  -3.299546e+01  -6.301044e+01
   2.980380e+01  -1.277742e+02
   1.100436e+02  -1.179339e+02
   1.503678e+02  -2.183662e+01
   1.059353e+02   8.307812e+01
  -4.760985e-01   1.096299e+02
  -7.802477e+01   5.283875e+01
  -5.135714e+01  -1.122818e+01
   5.011418e+01  -1.334066e+01
   1.137737e+02   4.177227e+01
   5.929479e+01   9.336499e+01
  -7.288062e+01   9.067869e+01
  -1.635122e+02   3.306687e+01
  -1.351789e+02  -3.749017e+01
  -2.547062e+01  -7.251908e+01
   5.650357e+01  -5.136809e+01
   4.196566e+01   3.733559e-01
  -3.543441e+01   2.397782e+01
  -7.870816e+01  -1.975054e+01
  -2.927683e+01  -9.959310e+01
   7.424370e+01  -1.294949e+02
   1.370558e+02  -5.401531e+01
   1.035766e+02   8.217097e+01
   6.712171e+00   1.638221e+02
  -7.346599e+01   1.172553e+02
  -8.652843e+01  -1.144665e+01
  -4.369932e+01  -1.025133e+02
   1.088947e+01  -8.757520e+01
   4.148191e+01  -1.293422e+01
   3.840086e+01   2.753974e+01
   1.712038e+01   6.973270e+00
   6.962908e+00  -1.458044e+01
   2.390098e+01   1.808379e+01
   4.539922e+01   7.774358e+01
   2.537353e+01   9.121125e+01
  -4.680402e+01   3.587609e+01
  -1.145344e+02  -3.537838e+01
  -1.042624e+02  -6.319970e+01
  -1.483910e+01  -4.569034e+01
   7.026037e+01  -1.870226e+01
   7.420793e+01  -2.123959e+00
   1.293873e+01   8.974302e+00
  -3.131309e+01   1.572247e+01
  -1.603104e+01   9.719028e+00
   1.514158e+01  -3.164845e+00
  -9.973643e-01  -5.664245e+00
  -5.617877e+01  -1.310517e+00
  -7.662501e+01  -1.921427e+01
  -1.355122e+01  -6.598603e+01
   9.453415e+01  -9.471846e+01
   1.574000e+02  -5.092250e+01
   1.234595e+02   5.228840e+01
   2.240216e+01   1.338378e+02
  -6.919186e+01   1.277174e+02
  -9.753044e+01   5.194194e+01
  -6.681271e+01  -1.767654e+01
  -2.157905e+01  -3.109482e+01
  -1.211127e+00  -8.945037e+00
  -1.103779e+01  -6.110182e+00
  -2.490991e+01  -4.184602e+01
  -1.385240e+01  -7.753133e+01
   2.571126e+01  -5.960783e+01
   6.506967e+01   1.573360e+01
   6.351368e+01   8.892756e+01
   7.660485e+00   9.322986e+01
  -6.410566e+01   2.337054e+01
  -8.629917e+01  -5.914614e+01
  -3.032275e+01  -8.773854e+01
   5.465855e+01  -5.096486e+01
   8.528462e+01   9.641576e+00
   3.565594e+01   4.820723e+01
  -3.020329e+01   4.854192e+01
  -3.287659e+01   2.294646e+01
   2.420390e+01  -3.524473e+00
   5.919168e+01  -6.192146e+00
   1.557731e+01   2.162774e+01
  -6.657951e+01   5.243167e+01
  -1.012187e+02   4.401829e+01
  -5.785703e+01  -1.213189e+01
   1.385883e+01  -6.841644e+01
   4.950491e+01  -6.688398e+01
   3.581412e+01  -8.659283e+00
   2.793010e+00   4.463444e+01
  -2.216849e+01   3.914865e+01
  -3.115976e+01  -1.145016e+01
  -2.284994e+01  -4.687459e+01
   1.715423e+00  -3.268445e+01
   2.806444e+01   5.927408e+00
   3.526396e+01   2.220112e+01
   1.858615e+01   4.535784e+00
  -1.581476e+00  -1.561270e+01
  -6.183499e+00  -5.158674e+00
  -8.456349e-01   2.768678e+01
  -6.110630e+00   4.289796e+01
  -2.420592e+01   1.551070e+01
  -3.112958e+01  -3.186806e+01
  -6.602203e+00  -5.102020e+01
   3.528579e+01  -2.068302e+01
   5.094745e+01   2.943766e+01
   1.472554e+01   5.145551e+01
  -4.777988e+01   2.942525e+01
  -7.750493e+01  -1.125681e+01
  -4.228531e+01  -3.693814e+01
   2.427276e+01  -3.664632e+01
   5.536889e+01  -2.150749e+01
   2.425542e+01  -5.557164e+00
  -2.501235e+01   6.904735e-01
  -2.895839e+01  -7.719149e+00
   2.094603e+01  -2.109315e+01
   6.825054e+01  -1.497135e+01
