
 $NMID
 id='ANONYMOUS ', fmtdat='(2E16.6)'
 volume=1.0
 tramp=1.0
 $END
  -2.769207e+03  -3.112554e+02
  -1.809140e+03  -1.084673e+03
   2.945059e+01  -1.838665e+03
   1.347892e+03  -8.867910e+02
   9.846274e+02  -3.108077e+02
   9.322292e+01   2.152569e+02
  -2.756424e+02  -2.174604e+01
  -2.359063e+02  -4.958328e+02
   3.881308e+02  -5.280983e+02
   6.862660e+02  -1.358291e+02
   4.562514e+02   4.083802e+02
   7.620870e+01   6.145545e+02
  -2.696042e+02   2.124101e+02
  -2.767921e+02  -4.220841e+02
   8.824309e+01  -4.987050e+02
   3.670471e+02  -9.071778e+01
   2.861246e+02   4.460132e+02
  -7.888973e+01   5.910240e+02
  -4.475480e+02   2.314988e+02
  -4.240072e+02  -1.080495e+02
  -1.069472e+02  -3.216210e+02
   9.155178e+01  -1.788915e+02
   8.336894e+01  -8.070537e+01
  -1.332352e+02  -1.007107e+02
  -2.518377e+02  -2.647627e+02
  -2.112847e+00  -3.115233e+02
   4.218054e+02  -1.366997e+02
   5.559932e+02   1.584430e+02
   2.077360e+02   2.936906e+02
  -2.756072e+02   1.555229e+02
  -4.165920e+02  -1.068480e+02
  -1.432631e+02  -2.815216e+02
   2.252739e+02  -2.609203e+02
   3.622199e+02  -1.085466e+02
   2.501882e+02   1.154419e+02
   7.646039e+01   2.523441e+02
  -1.128182e+01   1.613067e+02
   3.278999e+01  -5.815509e+01
   1.393313e+02  -1.189752e+02
   1.449364e+02   1.222046e+02
  -5.135300e+00   3.940323e+02
  -2.111904e+02   3.393389e+02
  -2.662997e+02  -2.742868e+01
  -7.639203e+01  -2.609823e+02
   1.275343e+02  -1.053498e+02
   1.324184e+02   2.629688e+02
  -1.110249e+02   3.400556e+02
  -3.868279e+02   4.019666e+01
  -4.186290e+02  -3.325779e+02
  -1.367459e+02  -4.320411e+02
   2.510157e+02  -2.240488e+02
   4.370601e+02   5.430479e+01
   2.897890e+02   2.043273e+02
  -3.320734e+01   1.848796e+02
  -2.338560e+02   7.472180e+01
  -1.779559e+02  -9.349239e+00
  -9.779661e+00  -1.021752e+01
   3.155399e+01   3.804086e+01
  -9.644702e+01   4.258859e+01
  -2.041855e+02  -5.013343e+01
  -1.051404e+02  -1.816185e+02
   1.521946e+02  -2.283979e+02
   3.310354e+02  -1.175278e+02
   2.519349e+02   1.071469e+02
  -2.572097e+01   3.053929e+02
  -2.792898e+02   3.292517e+02
  -3.326599e+02   1.380305e+02
  -2.055609e+02  -1.424618e+02
  -5.045365e+01  -3.117185e+02
   1.470404e+01  -2.874037e+02
   1.540743e+01  -1.739958e+02
   4.961582e+01  -1.138301e+02
   1.486729e+02  -1.015745e+02
   2.322092e+02  -3.022835e+01
   2.056542e+02   1.245199e+02
   7.007487e+01   2.352711e+02
  -8.853788e+01   1.703966e+02
  -1.700844e+02  -3.939982e+01
  -1.182634e+02  -2.182967e+02
   4.570937e+01  -2.239980e+02
   2.199604e+02  -5.498642e+01
   2.680353e+02   1.578007e+02
   1.405651e+02   2.685495e+02
  -4.333604e+01   2.369077e+02
  -1.368215e+02   1.317671e+02
  -1.241315e+02   7.592595e+01
  -1.396592e+02   6.919885e+01
  -2.615100e+02   3.569978e+01
  -3.744129e+02  -9.670980e+01
  -2.796009e+02  -2.834953e+02
   3.568045e+01  -3.995973e+02
   3.514227e+02  -3.463851e+02
   4.303208e+02  -1.397627e+02
   2.530086e+02   9.721844e+01
   1.593729e+01   2.173191e+02
  -8.070015e+01   1.663079e+02
  -6.375016e+00   3.426492e+01
   1.027995e+02  -2.371102e+01
   1.103922e+02   4.345542e+01
   5.094820e+00   1.245560e+02
  -1.014828e+02   8.534719e+01
  -9.329595e+01  -5.133820e+01
   2.796189e+01  -1.174076e+02
   1.453901e+02   2.825307e+00
   1.348055e+02   2.164827e+02
  -2.283014e+01   3.160991e+02
  -2.260457e+02   1.922012e+02
  -3.274364e+02  -6.432875e+01
  -2.501372e+02  -2.523040e+02
  -4.801255e+01  -2.547817e+02
   1.174729e+02  -1.204953e+02
   1.315902e+02   3.407815e-01
   2.987946e+01   5.400083e+00
  -3.893836e+01  -6.832763e+01
   1.421550e+01  -1.061120e+02
   1.168644e+02  -5.166016e+01
   1.310022e+02   3.109885e+01
   2.657589e+01   4.713137e+01
  -7.244226e+01  -1.822184e+01
  -3.000284e+01  -8.585106e+01
   1.404518e+02  -7.447517e+01
   2.767940e+02   2.785210e+01
   2.307156e+02   1.605593e+02
   1.753423e+01   2.389245e+02
  -1.941213e+02   2.058600e+02
  -2.403745e+02   8.005586e+01
  -1.159606e+02  -4.197333e+01
   3.121280e+01  -6.232983e+01
   5.197020e+01   1.334330e+01
  -5.848574e+01   7.233089e+01
  -1.712115e+02   2.115501e+01
  -1.651076e+02  -1.021136e+02
  -4.362766e+01  -1.708522e+02
   8.253752e+01  -1.183830e+02
   1.093161e+02  -1.123161e+01
   3.637656e+01   3.270617e+01
  -3.946362e+01  -2.354492e+01
  -1.867007e+01  -1.043150e+02
   9.637504e+01  -1.062693e+02
   1.937812e+02  -4.146034e+00
   1.581862e+02   1.286632e+02
   2.204603e-01   1.871554e+02
  -1.437996e+02   1.280198e+02
  -1.517771e+02   4.011781e+00
  -4.197031e+01  -8.337967e+01
   5.880261e+01  -7.876087e+01
   6.014105e+01  -1.746282e+01
  -3.564417e+00   2.210985e+01
  -3.508251e+01   4.834437e+00
   1.123852e+01  -2.307257e+01
   8.409117e+01   3.584211e+00
   9.327672e+01   9.134786e+01
  -1.006323e+00   1.639030e+02
  -1.415295e+02   1.348258e+02
  -2.199080e+02  -1.482111e+00
  -1.684520e+02  -1.527949e+02
  -2.696303e+01  -2.092436e+02
   9.326904e+01  -1.432468e+02
   1.157195e+02  -2.755344e+01
   6.693625e+01   3.934625e+01
   3.217775e+01   2.636914e+01
   5.120907e+01  -1.286088e+01
   8.125472e+01  -5.892673e+00
   5.401228e+01   5.369954e+01
  -3.689616e+01   9.945764e+01
  -1.170422e+02   6.252416e+01
  -1.014157e+02  -4.521279e+01
   1.918585e+01  -1.236643e+02
   1.559463e+02  -8.055839e+01
   1.886188e+02   6.863734e+01
   7.009042e+01   2.010775e+02
  -1.206027e+02   1.983432e+02
  -2.446247e+02   6.551633e+01
  -2.175956e+02  -8.856077e+01
  -8.672085e+01  -1.541968e+02
   3.684509e+01  -1.223617e+02
   8.093677e+01  -6.953648e+01
   6.517236e+01  -6.181871e+01
   5.544081e+01  -8.599813e+01
   8.318957e+01  -7.295335e+01
   1.188510e+02   1.748964e+01
   1.054327e+02   1.423504e+02
   1.978276e+01   2.056416e+02
  -9.398081e+01   1.469923e+02
  -1.532760e+02   3.231132e+00
  -1.093845e+02  -1.192602e+02
  -1.466879e+00  -1.391581e+02
   7.317283e+01  -6.706905e+01
   5.675731e+01   1.709185e+01
  -7.760104e+00   4.838307e+01
  -2.860977e+01   3.048275e+01
   2.403751e+01   1.084879e+01
   7.838305e+01   1.924893e+01
   4.528405e+01   3.937772e+01
  -6.975340e+01   3.489627e+01
  -1.598347e+02  -7.396861e+00
  -1.282907e+02  -6.270883e+01
   5.231970e+00  -8.909182e+01
   1.228459e+02  -6.277698e+01
   1.282576e+02  -6.553874e-01
   3.712781e+01   4.729602e+01
  -5.387982e+01   3.891012e+01
  -6.978156e+01  -1.928577e+01
  -1.852772e+01  -7.114937e+01
   4.031497e+01  -6.341759e+01
   6.411987e+01  -2.880806e+00
   5.663232e+01   4.777528e+01
   4.598454e+01   4.132221e+01
   5.000984e+01   2.567912e+00
   5.842360e+01   2.196522e+00
   4.038121e+01   6.832507e+01
  -2.605450e+01   1.396392e+02
  -1.178444e+02   1.296336e+02
  -1.659732e+02   2.470915e+01
  -1.165581e+02  -8.931105e+01
   2.415548e+00  -1.195756e+02
   8.680703e+01  -5.990439e+01
   5.637027e+01   1.028438e+01
  -5.319886e+01   1.670317e+01
  -1.197369e+02  -3.920896e+01
  -6.124360e+01  -9.504857e+01
   7.698790e+01  -9.493970e+01
   1.691044e+02  -3.608625e+01
   1.372711e+02   3.811738e+01
   2.390123e+01   7.488623e+01
  -5.849173e+01   5.129500e+01
  -4.096585e+01  -4.884065e+00
   3.978758e+01  -2.999842e+01
   8.550552e+01   1.793696e+01
   3.614691e+01   1.062087e+02
  -7.111484e+01   1.422921e+02
  -1.406406e+02   6.369706e+01
  -1.118304e+02  -8.329213e+01
  -1.264239e+01  -1.730738e+02
   7.510396e+01  -1.237836e+02
   9.288024e+01   1.424837e+01
   4.708860e+01   1.103415e+02
  -1.410797e+01   9.173778e+01
  -4.662043e+01   1.198726e+01
  -3.963575e+01  -2.864099e+01
  -1.534436e+01  -5.490152e+00
  -7.689308e+00   1.539077e+01
  -2.930561e+01  -2.119342e+01
  -5.128558e+01  -8.255803e+01
  -2.628293e+01  -9.431959e+01
   5.161170e+01  -3.730152e+01
   1.213578e+02   3.351451e+01
   1.095029e+02   6.200937e+01
   1.692810e+01   4.787803e+01
  -7.155397e+01   2.330854e+01
  -7.779299e+01   4.419292e+00
  -1.609292e+01  -1.112545e+01
   3.161666e+01  -1.883612e+01
   1.933506e+01  -1.030888e+01
  -1.191393e+01   4.072240e+00
   2.395483e+00   4.835722e+00
   5.859610e+01  -6.379962e-01
   8.259481e+01   2.054123e+01
   1.921035e+01   7.345011e+01
  -9.636715e+01   1.055924e+02
  -1.688748e+02   5.856818e+01
  -1.366374e+02  -5.292661e+01
  -2.798702e+01  -1.423134e+02
   7.302334e+01  -1.384415e+02
   1.045791e+02  -5.844921e+01
   7.133688e+01   1.744375e+01
   2.337184e+01   3.418769e+01
   2.808763e+00   1.209339e+01
   1.275283e+01   8.450314e+00
   2.625843e+01   4.505591e+01
   1.470481e+01   8.198983e+01
  -2.665273e+01   6.365914e+01
  -7.026475e+01  -1.422773e+01
  -7.252488e+01  -9.136443e+01
  -1.400870e+01  -9.951157e+01
   6.721199e+01  -3.001149e+01
   9.680227e+01   5.732253e+01
   3.815962e+01   9.322864e+01
  -5.726348e+01   5.919034e+01
  -9.464588e+01  -6.984670e+00
  -4.155637e+01  -5.381161e+01
   3.213063e+01  -5.647384e+01
   3.802299e+01  -2.549411e+01
  -2.214102e+01   6.688405e+00
  -6.048126e+01   8.709370e+00
  -1.577049e+01  -2.335810e+01
   7.079994e+01  -5.605478e+01
   1.077923e+02  -4.443343e+01
   6.200251e+01   1.664254e+01
  -1.481550e+01   7.555577e+01
  -5.467552e+01   7.351286e+01
  -4.211722e+01   1.083631e+01
  -7.038601e+00  -4.811795e+01
   2.217679e+01  -4.562703e+01
   3.507859e+01   7.666759e+00
   2.773430e+01   4.923252e+01
   3.181977e-01   3.790664e+01
  -3.046655e+01  -3.573917e+00
  -3.931041e+01  -2.327798e+01
  -2.004842e+01  -4.410087e+00
   3.158282e+00   1.997886e+01
   6.149219e+00   9.477493e+00
  -4.749144e+00  -2.934509e+01
  -1.264954e+00  -5.034569e+01
   2.296028e+01  -2.278892e+01
   3.821638e+01   2.998614e+01
   1.446389e+01   5.370952e+01
  -3.459104e+01   2.369272e+01
  -5.654610e+01  -2.894535e+01
  -1.814795e+01  -5.331820e+01
   5.152604e+01  -3.183580e+01
   8.468266e+01   9.889393e+00
   4.605495e+01   3.807774e+01
  -2.588150e+01   4.090419e+01
  -5.911517e+01   2.634065e+01
  -2.700625e+01   7.360288e+00
   2.419465e+01  -3.086695e+00
   2.975383e+01   4.122429e+00
  -1.916465e+01   2.090773e+01
  -6.790753e+01   1.820296e+01
