
 $NMID
 id='ANONYMOUS ', fmtdat='(2E16.6)'
 volume=1.0
 tramp=1.0
 $END
  -4.222741e+03  -1.881048e+02
  -2.956686e+03  -2.523046e+03
   7.649589e+02  -3.002740e+03
   2.439566e+03  -9.650472e+02
   1.058745e+03   6.916811e+02
  -7.889603e+02   7.458822e+02
  -1.004178e+03  -3.755386e+02
  -8.531046e-01  -1.230768e+03
   9.282492e+02  -8.508489e+02
   9.317292e+02   1.145550e+02
   4.465481e+02   8.424687e+02
  -2.294420e+02   9.940743e+02
  -7.222955e+02   1.138792e+02
  -5.013051e+02  -7.598564e+02
   2.451688e+02  -8.131174e+02
   6.043001e+02  -1.982439e+00
   3.887727e+02   7.526684e+02
  -2.559978e+02   6.974609e+02
  -6.542511e+02   1.144016e+02
  -4.682241e+02  -3.591634e+02
  -2.557134e+01  -4.770743e+02
   2.264270e+02  -3.093084e+02
   1.822152e+02  -5.286923e+01
  -1.289741e+02   1.001101e+02
  -4.356438e+02  -7.721469e+01
  -2.339069e+02  -4.176955e+02
   4.497543e+02  -4.551498e+02
   9.175873e+02  -4.192774e+00
   5.216135e+02   5.339597e+02
  -3.772847e+02   5.554949e+02
  -7.981010e+02  -5.062723e+00
  -4.192023e+02  -4.832801e+02
   2.646262e+02  -5.871957e+02
   6.075939e+02  -2.604234e+02
   4.503054e+02   2.063632e+02
   7.636410e+01   5.189787e+02
  -2.120572e+02   3.145203e+02
  -2.096333e+02  -2.602531e+02
   1.655051e+02  -5.206866e+02
   5.060975e+02  -2.790944e+01
   3.172598e+02   7.308636e+02
  -3.323008e+02   7.880373e+02
  -6.815896e+02   1.834301e+01
  -2.939803e+02  -6.131738e+02
   3.377451e+02  -3.809562e+02
   4.677118e+02   3.237428e+02
  -2.540401e+01   6.019625e+02
  -5.850821e+02   1.853314e+02
  -6.560878e+02  -3.901456e+02
  -1.930331e+02  -6.078068e+02
   3.940073e+02  -3.845567e+02
   6.720474e+02   5.022646e+01
   4.161710e+02   3.965800e+02
  -1.475222e+02   4.075058e+02
  -4.809587e+02   8.025316e+01
  -2.767218e+02  -2.135809e+02
   1.320280e+02  -1.329370e+02
   1.835693e+02   1.656976e+02
  -1.612763e+02   2.265396e+02
  -3.920025e+02  -5.945245e+01
  -1.819117e+02  -3.251652e+02
   2.043594e+02  -2.893894e+02
   3.494403e+02  -8.556096e+01
   2.025820e+02   7.820802e+01
  -2.257093e+01   2.138377e+02
  -2.005496e+02   3.313628e+02
  -3.150297e+02   2.455222e+02
  -2.986730e+02  -1.130221e+02
  -1.151365e+02  -4.390294e+02
   8.877189e+01  -4.055941e+02
   1.251547e+02  -1.282060e+02
   3.828609e+01   8.724063e+00
   3.984956e+01  -8.886103e+01
   1.836232e+02  -1.426270e+02
   2.849475e+02   3.217362e+01
   1.880551e+02   2.594354e+02
  -4.400388e+01   2.670734e+02
  -2.292387e+02   3.701857e+01
  -2.297602e+02  -2.244567e+02
  -2.436897e+01  -3.070170e+02
   2.703099e+02  -1.458126e+02
   3.996405e+02   1.527210e+02
   2.162036e+02   3.669441e+02
  -1.061197e+02   3.322918e+02
  -2.533486e+02   1.281493e+02
  -1.646976e+02  -1.008753e+00
  -9.460883e+01   3.728499e+01
  -2.338473e+02   8.152469e+01
  -4.231503e+02  -4.268628e+01
  -3.632010e+02  -2.884088e+02
  -1.760120e+01  -4.639279e+02
   3.573244e+02  -4.474630e+02
   5.011187e+02  -2.364909e+02
   3.588994e+02   7.511468e+01
   7.044059e+01   3.021622e+02
  -1.252798e+02   2.763294e+02
  -8.803164e+01   3.604019e+01
   1.120906e+02  -1.284409e+02
   2.144378e+02  -1.182797e+01
   7.400147e+01   2.089898e+02
  -1.556755e+02   2.034362e+02
  -1.928049e+02  -4.254578e+01
   3.794747e+00  -2.014563e+02
   1.943028e+02  -4.625264e+01
   1.755742e+02   2.500453e+02
  -1.899278e+01   3.672264e+02
  -2.280484e+02   2.110959e+02
  -3.363401e+02  -5.195747e+01
  -2.972836e+02  -2.349659e+02
  -1.122373e+02  -2.691894e+02
   1.100288e+02  -1.725158e+02
   1.863970e+02  -2.826400e+01
   6.437502e+01   3.623436e+01
  -7.838258e+01  -3.272503e+01
  -4.351712e+01  -1.288714e+02
   1.208770e+02  -1.139671e+02
   1.893168e+02  -4.252568e-01
   7.014499e+01   6.952410e+01
  -7.879269e+01   2.172297e+01
  -6.286676e+01  -6.942133e+01
   1.172118e+02  -9.401048e+01
   2.867248e+02  -1.855501e+01
   2.824862e+02   1.224270e+02
   8.548304e+01   2.568118e+02
  -1.681560e+02   2.848303e+02
  -2.863775e+02   1.532233e+02
  -1.839334e+02  -4.343604e+01
   1.765445e+01  -1.192205e+02
   9.808365e+01  -1.445755e+01
  -2.390138e+01   1.128134e+02
  -2.002600e+02   7.933631e+01
  -2.316648e+02  -9.227452e+01
  -8.777504e+01  -2.145502e+02
   8.740530e+01  -1.724435e+02
   1.487385e+02  -3.993170e+01
   7.865631e+01   3.846949e+01
  -2.482280e+01   5.260228e+00
  -4.155963e+01  -8.164069e+01
   6.622153e+01  -1.167745e+02
   2.000867e+02  -3.625833e+01
   2.024392e+02   1.202487e+02
   3.114956e+01   2.248296e+02
  -1.659632e+02   1.753875e+02
  -2.051126e+02   1.173134e+01
  -7.457065e+01  -1.190511e+02
   6.614371e+01  -1.211227e+02
   8.879756e+01  -3.867344e+01
   2.505007e+01   2.200503e+01
  -1.567228e+01   1.923871e+01
   1.401517e+01  -2.551881e+00
   7.381845e+01   1.493010e+01
   9.226729e+01   8.495283e+01
   2.040423e+01   1.610521e+02
  -1.238617e+02   1.613882e+02
  -2.404768e+02   3.940687e+01
  -2.169201e+02  -1.439657e+02
  -5.500648e+01  -2.447098e+02
   1.067935e+02  -1.820688e+02
   1.416172e+02  -3.362461e+01
   7.733752e+01   5.843627e+01
   3.024958e+01   3.884348e+01
   5.128163e+01  -1.357304e+01
   7.574441e+01  -9.224555e+00
   4.010182e+01   4.827748e+01
  -4.072075e+01   8.737812e+01
  -1.000839e+02   5.724212e+01
  -8.573627e+01  -3.299046e+01
   8.831389e+00  -1.128735e+02
   1.401703e+02  -9.637720e+01
   2.065024e+02   3.993679e+01
   1.175001e+02   2.014307e+02
  -9.347555e+01   2.431990e+02
  -2.692067e+02   1.168926e+02
  -2.725781e+02  -7.280599e+01
  -1.247659e+02  -1.769358e+02
   3.149598e+01  -1.550154e+02
   9.425220e+01  -9.267878e+01
   7.977143e+01  -7.748813e+01
   6.557007e+01  -9.725221e+01
   9.181098e+01  -7.912420e+01
   1.327416e+02   1.893941e+01
   1.286700e+02   1.539989e+02
   4.148631e+01   2.319715e+02
  -9.480977e+01   1.832690e+02
  -1.829064e+02   3.039829e+01
  -1.489053e+02  -1.198041e+02
  -2.798058e+01  -1.658930e+02
   6.483806e+01  -1.005651e+02
   6.121967e+01  -4.897276e+00
   7.413269e+00   4.245682e+01
  -6.556893e+00   3.495010e+01
   4.077902e+01   1.713177e+01
   8.276121e+01   2.051321e+01
   4.667502e+01   3.727045e+01
  -6.285215e+01   3.953525e+01
  -1.589127e+02   9.299682e+00
  -1.470204e+02  -4.466953e+01
  -2.025660e+01  -8.669904e+01
   1.183121e+02  -7.811436e+01
   1.471449e+02  -1.952005e+01
   5.103443e+01   3.817544e+01
  -6.107074e+01   3.873324e+01
  -7.972287e+01  -1.737419e+01
  -1.079787e+01  -6.942558e+01
   5.532839e+01  -6.093706e+01
   6.482181e+01  -7.804031e-01
   4.673621e+01   4.797537e+01
   4.718632e+01   3.948610e+01
   6.519978e+01  -1.364742e+00
   6.973352e+01  -2.328493e+00
   3.947094e+01   6.861491e+01
  -2.725779e+01   1.520628e+02
  -1.128346e+02   1.507654e+02
  -1.662670e+02   4.155328e+01
  -1.298891e+02  -8.798703e+01
  -1.170733e+01  -1.287785e+02
   8.638512e+01  -6.642110e+01
   6.267547e+01   1.279838e+01
  -6.001376e+01   2.325558e+01
  -1.433473e+02  -3.735146e+01
  -8.251391e+01  -1.048375e+02
   7.787913e+01  -1.178137e+02
   1.934437e+02  -6.181119e+01
   1.683603e+02   2.693370e+01
   4.255301e+01   8.804178e+01
  -5.979966e+01   7.634792e+01
  -5.150859e+01   1.039855e+01
   3.749323e+01  -2.987110e+01
   9.474301e+01   1.906454e+01
   4.033642e+01   1.217811e+02
  -8.776645e+01   1.643074e+02
  -1.718482e+02   7.208485e+01
  -1.369210e+02  -9.835842e+01
  -2.039662e+01  -2.033628e+02
   8.034433e+01  -1.525063e+02
   1.061918e+02   1.167249e+00
   6.768179e+01   1.163856e+02
   5.481659e+00   1.072783e+02
  -4.384987e+01   2.152631e+01
  -5.465246e+01  -2.962874e+01
  -2.751624e+01  -6.275682e+00
  -1.578781e+00   2.352028e+01
  -1.934599e+01  -1.269517e+01
  -6.131558e+01  -8.746146e+01
  -5.117573e+01  -1.097038e+02
   4.331717e+01  -4.758201e+01
   1.431687e+02   3.490842e+01
   1.362913e+02   6.620543e+01
   1.833548e+01   4.859116e+01
  -9.128846e+01   2.592781e+01
  -8.999464e+01   1.221528e+01
  -9.564345e+00  -7.259581e+00
   3.877362e+01  -2.645079e+01
   1.186477e+01  -2.135425e+01
  -2.258270e+01   1.803824e+00
   8.685854e+00   1.004700e+01
   7.951192e+01   2.427395e+00
   9.466662e+01   2.246632e+01
   8.221537e+00   8.394297e+01
  -1.207408e+02   1.221486e+02
  -1.888137e+02   6.456673e+01
  -1.468567e+02  -6.749136e+01
  -3.200275e+01  -1.669622e+02
   7.525900e+01  -1.557796e+02
   1.153167e+02  -6.311455e+01
   8.463544e+01   1.848178e+01
   2.768706e+01   3.372448e+01
  -2.762066e+00   8.128590e+00
   1.094944e+01   4.193159e+00
   3.686315e+01   4.678627e+01
   2.744025e+01   9.293610e+01
  -2.849995e+01   7.533126e+01
  -8.625099e+01  -1.701226e+01
  -8.370847e+01  -1.104790e+02
  -6.686846e+00  -1.160136e+02
   8.579901e+01  -2.643160e+01
   1.088897e+02   7.470033e+01
   3.567942e+01   1.044811e+02
  -6.658241e+01   5.845896e+01
  -9.980460e+01  -7.772409e+00
  -4.106438e+01  -4.819677e+01
   3.077423e+01  -5.346754e+01
   2.864932e+01  -3.168312e+01
  -3.661096e+01  -2.066200e-01
  -7.002088e+01   8.847742e+00
  -1.360042e+01  -2.525629e+01
   8.061537e+01  -7.131559e+01
   1.162139e+02  -6.446463e+01
   6.460619e+01   1.163300e+01
  -1.399674e+01   8.783307e+01
  -5.165521e+01   8.352507e+01
  -3.793622e+01   5.243355e+00
  -4.269266e+00  -5.858683e+01
   2.434598e+01  -4.421615e+01
   3.808494e+01   1.799226e+01
   2.908575e+01   5.276310e+01
  -1.988729e+00   3.102523e+01
  -3.368754e+01  -8.212126e+00
  -3.960152e+01  -1.797152e+01
  -1.949431e+01   1.754659e+00
   1.187112e+00   1.443286e+01
   5.822049e+00  -4.940960e+00
   5.441959e+00  -3.837565e+01
   1.642987e+01  -4.468170e+01
   3.289147e+01  -6.162537e+00
   3.032469e+01   4.664713e+01
  -2.644338e+00   6.190781e+01
  -4.589214e+01   2.060087e+01
  -5.844154e+01  -4.017556e+01
  -1.613835e+01  -6.508969e+01
   5.532689e+01  -3.630842e+01
   9.162183e+01   1.393158e+01
   5.145286e+01   4.427572e+01
  -2.921954e+01   4.241911e+01
  -6.639664e+01   2.297007e+01
  -2.343543e+01   5.271461e+00
   4.074510e+01   1.979721e+00
   4.020399e+01   1.663359e+01
  -3.263326e+01   3.456966e+01
  -9.614893e+01   2.380472e+01
