
 $NMID
 id='ANONYMOUS ', fmtdat='(2E16.6)'
 volume=1.0
 tramp=1.0
 $END
   3.589987e+03   1.954900e+01
   2.533883e+03   2.471251e+03
  -4.401374e+02   2.497788e+03
  -1.714308e+03   1.095979e+03
  -9.493103e+02  -3.523616e+02
   4.276551e+02  -5.556296e+02
   7.504211e+02   1.648962e+02
   1.054121e+02   8.432069e+02
  -6.634895e+02   8.240679e+02
  -8.787895e+02   3.802198e+01
  -4.837573e+02  -6.173097e+02
   1.462548e+02  -8.309848e+02
   5.756807e+02  -1.138883e+02
   4.248628e+02   5.625348e+02
  -1.611467e+02   6.908747e+02
  -6.024415e+02   5.286376e+01
  -3.749704e+02  -6.082204e+02
   1.542693e+02  -6.208656e+02
   5.314886e+02  -1.927391e+02
   4.272239e+02   2.562790e+02
   9.385369e+01   4.389941e+02
  -1.646572e+02   2.981406e+02
  -1.572709e+02   6.934088e+01
   1.382065e+02  -7.202131e+01
   3.758189e+02   1.506503e+02
   1.300669e+02   3.840941e+02
  -4.827822e+02   3.532061e+02
  -7.380909e+02  -6.052022e+01
  -3.496924e+02  -4.106194e+02
   3.364691e+02  -3.894059e+02
   6.283134e+02   1.000046e+01
   2.922933e+02   4.129975e+02
  -2.468587e+02   4.786164e+02
  -5.021565e+02   2.112808e+02
  -3.828706e+02  -1.954955e+02
  -8.442822e+01  -4.118581e+02
   1.064437e+02  -2.246139e+02
   5.984690e+01   1.863726e+02
  -1.725816e+02   3.485521e+02
  -3.518433e+02  -6.732764e+01
  -1.801791e+02  -5.878625e+02
   2.543293e+02  -6.114216e+02
   4.834282e+02  -2.498540e+01
   1.988965e+02   4.309429e+02
  -2.306574e+02   2.504765e+02
  -3.116080e+02  -2.811146e+02
   6.078336e+01  -4.811292e+02
   5.061239e+02  -1.317108e+02
   5.692694e+02   3.519286e+02
   1.884227e+02   5.258607e+02
  -3.241950e+02   3.235879e+02
  -5.683030e+02  -4.247978e+01
  -3.516219e+02  -3.008419e+02
   1.062056e+02  -2.967835e+02
   3.720571e+02  -7.212804e+01
   2.273186e+02   1.177068e+02
  -6.677500e+01   7.624639e+01
  -1.096781e+02  -9.716589e+01
   1.287078e+02  -1.335469e+02
   2.955905e+02   4.542960e+01
   1.464855e+02   2.400187e+02
  -1.618954e+02   2.592359e+02
  -3.198766e+02   1.197145e+02
  -2.241493e+02  -7.202456e+01
   7.654814e+00  -2.539156e+02
   2.249970e+02  -3.401148e+02
   3.277590e+02  -2.038856e+02
   2.636048e+02   1.263972e+02
   8.321102e+01   3.822502e+02
  -5.799675e+01   3.478006e+02
  -6.533226e+01   1.426140e+02
  -2.815231e+01   4.604747e+01
  -8.695430e+01   1.017371e+02
  -2.154826e+02   9.667726e+01
  -2.533823e+02  -7.667454e+01
  -1.239784e+02  -2.541158e+02
   7.446157e+01  -2.209152e+02
   1.973479e+02   3.150647e+00
   1.670031e+02   2.242822e+02
  -1.133985e+01   2.665000e+02
  -2.364655e+02   1.054136e+02
  -3.352995e+02  -1.437231e+02
  -1.972472e+02  -3.132241e+02
   5.613001e+01  -2.911202e+02
   1.909127e+02  -1.444262e+02
   1.462614e+02  -4.492818e+01
   1.144889e+02  -5.503149e+01
   2.437014e+02  -6.780709e+01
   4.079898e+02   5.072869e+01
   3.391268e+02   2.656999e+02
   7.769060e+00   4.299472e+02
  -3.453756e+02   4.102866e+02
  -4.601283e+02   2.087225e+02
  -3.046338e+02  -7.615742e+01
  -4.431112e+01  -2.671233e+02
   1.052341e+02  -2.295054e+02
   4.867008e+01  -3.269828e+01
  -1.090803e+02   8.630291e+01
  -1.672845e+02  -9.110650e+00
  -4.008141e+01  -1.686558e+02
   1.316859e+02  -1.453811e+02
   1.448947e+02   5.154793e+01
  -1.436648e+01   1.619361e+02
  -1.709866e+02   2.189091e+01
  -1.573862e+02  -2.318022e+02
   1.230396e+01  -3.374188e+02
   2.178764e+02  -2.021879e+02
   3.292208e+02   5.047557e+01
   2.801748e+02   2.358717e+02
   8.945812e+01   2.621790e+02
  -1.116202e+02   1.520726e+02
  -1.637804e+02   1.494840e+01
  -5.053402e+01  -2.779700e+01
   6.162618e+01   4.282558e+01
   2.064190e+01   1.177928e+02
  -1.149800e+02   9.120678e+01
  -1.587471e+02  -8.671326e+00
  -4.759440e+01  -5.968871e+01
   7.591106e+01  -7.265234e+00
   4.661178e+01   7.618545e+01
  -1.269656e+02   8.920633e+01
  -2.795415e+02   1.724897e+00
  -2.574077e+02  -1.378506e+02
  -5.605042e+01  -2.474238e+02
   1.778054e+02  -2.473256e+02
   2.659241e+02  -1.191004e+02
   1.553845e+02   4.280749e+01
  -2.271383e+01   9.545126e+01
  -8.051226e+01   7.055526e+00
   3.224470e+01  -9.034976e+01
   1.799372e+02  -5.483258e+01
   1.991335e+02   8.888089e+01
   7.115190e+01   1.861959e+02
  -7.995540e+01   1.436205e+02
  -1.277922e+02   2.756588e+01
  -5.815410e+01  -3.336522e+01
   3.483109e+01   9.540824e+00
   3.703970e+01   9.290219e+01
  -7.529797e+01   1.154607e+02
  -1.985854e+02   2.884389e+01
  -1.896611e+02  -1.171527e+02
  -2.567915e+01  -2.073824e+02
   1.509769e+02  -1.608527e+02
   1.808934e+02  -1.663785e+01
   6.363987e+01   9.940562e+01
  -5.753493e+01   1.042861e+02
  -7.125807e+01   3.227952e+01
  -9.786920e+00  -2.105266e+01
   2.500329e+01  -1.211973e+01
  -1.390648e+01   1.587041e+01
  -8.095754e+01  -3.381238e+00
  -9.682370e+01  -8.320044e+01
  -1.596924e+01  -1.616869e+02
   1.264882e+02  -1.532761e+02
   2.277976e+02  -2.665129e+01
   1.964075e+02   1.420920e+02
   4.691561e+01   2.264669e+02
  -9.747340e+01   1.648687e+02
  -1.304608e+02   3.092191e+01
  -7.355518e+01  -4.955745e+01
  -3.073436e+01  -3.288988e+01
  -4.953269e+01   1.464471e+01
  -7.886017e+01   1.007546e+01
  -4.870513e+01  -5.047298e+01
   3.645148e+01  -9.556727e+01
   1.069663e+02  -6.378349e+01
   9.666079e+01   3.479469e+01
  -8.879781e+00   1.184261e+02
  -1.435329e+02   9.521629e+01
  -2.002757e+02  -4.535097e+01
  -1.011374e+02  -1.976202e+02
   1.011869e+02  -2.242968e+02
   2.563415e+02  -9.842476e+01
   2.479919e+02   7.441537e+01
   1.079332e+02   1.626768e+02
  -3.274330e+01   1.383665e+02
  -8.435470e+01   8.361096e+01
  -6.755098e+01   7.326867e+01
  -5.566177e+01   9.471275e+01
  -8.644455e+01   7.871019e+01
  -1.294534e+02  -1.493067e+01
  -1.242132e+02  -1.449844e+02
  -3.832850e+01  -2.197960e+02
   8.997139e+01  -1.717034e+02
   1.699853e+02  -2.484887e+01
   1.360591e+02   1.168143e+02
   2.193242e+01   1.564209e+02
  -6.659321e+01   8.883521e+01
  -6.170080e+01  -5.240607e+00
  -4.079139e+00  -4.820909e+01
   1.575550e+01  -3.472218e+01
  -3.161005e+01  -1.191353e+01
  -7.967793e+01  -1.570259e+01
  -4.737317e+01  -3.623384e+01
   6.406454e+01  -4.019159e+01
   1.594704e+02  -6.801853e+00
   1.407971e+02   4.996036e+01
   1.002912e+01   8.973391e+01
  -1.224268e+02   7.581165e+01
  -1.426412e+02   1.400711e+01
  -4.757720e+01  -4.323379e+01
   5.777163e+01  -4.261215e+01
   7.704696e+01   1.380244e+01
   1.657688e+01   6.702438e+01
  -4.679972e+01   6.112714e+01
  -6.414533e+01   3.356368e+00
  -5.151087e+01  -4.532977e+01
  -4.557006e+01  -3.821351e+01
  -5.565531e+01   1.143050e+00
  -6.257425e+01   3.222659e+00
  -4.285566e+01  -6.408443e+01
   1.868734e+01  -1.452054e+02
   1.070938e+02  -1.470493e+02
   1.645646e+02  -4.411338e+01
   1.292630e+02   8.248000e+01
   1.289149e+01   1.271568e+02
  -8.253778e+01   6.992175e+01
  -6.066310e+01  -9.064525e+00
   5.426304e+01  -2.411953e+01
   1.313821e+02   3.308381e+01
   7.484846e+01   9.916079e+01
  -7.355143e+01   1.108762e+02
  -1.798872e+02   5.506666e+01
  -1.552216e+02  -2.924755e+01
  -3.713328e+01  -8.207423e+01
   5.727437e+01  -6.678751e+01
   4.813767e+01  -5.253089e+00
  -3.544215e+01   3.027355e+01
  -8.984322e+01  -1.496917e+01
  -4.299012e+01  -1.100359e+02
   7.255560e+01  -1.531867e+02
   1.528024e+02  -7.319956e+01
   1.274070e+02   8.324016e+01
   2.328628e+01   1.840243e+02
  -7.298446e+01   1.397379e+02
  -9.944343e+01  -3.252512e+00
  -5.941139e+01  -1.108135e+02
   3.968253e+00  -9.999824e+01
   4.675713e+01  -1.779854e+01
   4.772775e+01   2.987701e+01
   1.974928e+01   7.543565e+00
   2.725295e+00  -1.920130e+01
   2.472312e+01   1.526180e+01
   5.844905e+01   8.359592e+01
   4.010434e+01   1.026797e+02
  -4.824589e+01   4.454761e+01
  -1.341491e+02  -3.225540e+01
  -1.245058e+02  -6.347004e+01
  -1.905959e+01  -4.911669e+01
   8.015644e+01  -2.660466e+01
   8.335803e+01  -1.052588e+01
   1.348170e+01   7.932212e+00
  -3.403436e+01   2.276529e+01
  -1.495827e+01   1.615730e+01
   1.733496e+01  -3.236532e+00
  -5.320231e+00  -7.375935e+00
  -6.972522e+01   9.004998e-01
  -9.183164e+01  -1.920674e+01
  -1.895708e+01  -7.959989e+01
   1.049831e+02  -1.204126e+02
   1.807618e+02  -7.129988e+01
   1.489425e+02   5.347000e+01
   3.838997e+01   1.549963e+02
  -6.852730e+01   1.531240e+02
  -1.082014e+02   6.757106e+01
  -7.868025e+01  -1.390432e+01
  -2.670293e+01  -3.253670e+01
  -1.426828e+00  -9.123515e+00
  -1.388650e+01  -4.832955e+00
  -3.481239e+01  -4.469939e+01
  -2.454147e+01  -8.784151e+01
   2.544193e+01  -7.184669e+01
   7.872989e+01   1.205378e+01
   8.104108e+01   9.803030e+01
   1.376734e+01   1.071787e+02
  -7.493584e+01   3.059542e+01
  -1.038167e+02  -6.261714e+01
  -3.945238e+01  -9.761206e+01
   5.972461e+01  -6.131139e+01
   9.713317e+01   3.379819e+00
   4.374317e+01   4.929333e+01
  -2.799620e+01   5.648540e+01
  -3.074460e+01   3.064415e+01
   3.058048e+01  -3.340371e+00
   6.619541e+01  -9.733602e+00
   1.618646e+01   2.665006e+01
  -7.485047e+01   7.018743e+01
  -1.136533e+02   6.143723e+01
  -6.819574e+01  -1.155201e+01
   8.257682e+00  -8.442265e+01
   4.880120e+01  -8.334012e+01
   3.955968e+01  -1.209219e+01
   7.888682e+00   5.118968e+01
  -2.061286e+01   4.462575e+01
  -3.510817e+01  -1.169778e+01
  -2.837171e+01  -4.908235e+01
   5.397785e-01  -3.331900e+01
   3.181335e+01   5.405400e+00
   3.887762e+01   1.947535e+01
   1.844161e+01   1.052163e+00
  -3.496359e+00  -1.653528e+01
  -5.814109e+00  -2.349781e+00
   1.472686e+00   3.280746e+01
  -5.643340e+00   4.689092e+01
  -2.783032e+01   1.556917e+01
  -3.636644e+01  -3.663271e+01
  -8.120828e+00  -5.800260e+01
   3.993766e+01  -2.488151e+01
   5.960857e+01   3.166837e+01
   2.018888e+01   5.924520e+01
  -5.174327e+01   3.761775e+01
  -8.879720e+01  -7.775302e+00
  -5.097472e+01  -3.992100e+01
   2.555565e+01  -4.380195e+01
   6.185561e+01  -2.727603e+01
   2.504349e+01  -6.687046e+00
  -3.258703e+01   2.299511e+00
  -3.529916e+01  -9.352839e+00
   2.550694e+01  -2.909729e+01
   8.194815e+01  -2.368228e+01
