
 $NMID
 id='ANONYMOUS ', fmtdat='(2E16.6)'
 volume=1.0
 tramp=1.0
 $END
   3.114418e+03   1.648562e+02
   2.145893e+03   1.534188e+03
  -2.578287e+01   2.173812e+03
  -1.519253e+03   1.031808e+03
  -1.124671e+03   2.361651e+02
   9.017388e+01  -2.249987e+02
   4.597497e+02   3.289984e+01
   9.441689e+01   6.244898e+02
  -5.551920e+02   6.926655e+02
  -6.923421e+02   1.049860e+02
  -5.385952e+02  -4.999962e+02
  -1.477616e+01  -6.958777e+02
   2.768322e+02  -2.098625e+02
   2.923220e+02   4.628372e+02
  -1.508792e+02   5.984302e+02
  -4.471782e+02   9.068879e+01
  -3.546880e+02  -5.278484e+02
   1.096503e+02  -6.426191e+02
   4.803138e+02  -2.435166e+02
   4.501962e+02   1.445014e+02
   1.278046e+02   3.505731e+02
  -1.747917e+02   2.430517e+02
  -6.493009e+01   8.548389e+01
   1.887766e+02   4.910421e+01
   3.016814e+02   2.173992e+02
   2.552323e+01   3.276675e+02
  -4.499516e+02   2.109238e+02
  -6.768743e+02  -9.245016e+01
  -3.040301e+02  -3.223183e+02
   2.806552e+02  -2.467423e+02
   5.090150e+02   4.401909e+01
   2.215706e+02   3.191860e+02
  -2.574853e+02   3.953318e+02
  -4.775732e+02   1.817957e+02
  -3.524407e+02  -1.515141e+02
  -1.046023e+02  -3.475522e+02
   2.142490e+01  -2.444143e+02
   4.572909e+00   9.447143e+01
  -1.531010e+02   2.194664e+02
  -2.214876e+02  -8.088944e+01
  -6.584300e+01  -5.010893e+02
   2.292506e+02  -4.841943e+02
   3.372834e+02  -2.050679e+01
   1.496315e+02   3.417425e+02
  -1.504843e+02   1.769839e+02
  -2.001223e+02  -2.873707e+02
   1.045266e+02  -4.242975e+02
   4.622918e+02  -8.035058e+01
   5.116395e+02   3.724610e+02
   1.704714e+02   5.193827e+02
  -2.962233e+02   3.009428e+02
  -5.355822e+02  -3.960413e+01
  -3.672144e+02  -2.620904e+02
   3.618338e+01  -2.609627e+02
   3.078486e+02  -1.022368e+02
   2.352576e+02   4.857816e+01
  -5.003343e+00   4.966043e+01
  -7.849449e+01  -5.932169e+01
   9.894199e+01  -1.003861e+02
   2.656765e+02   2.641531e+01
   1.618432e+02   2.144374e+02
  -1.475788e+02   2.805878e+02
  -3.628645e+02   1.534180e+02
  -2.852791e+02  -9.581231e+01
   1.224948e+01  -3.231428e+02
   2.927614e+02  -3.757924e+02
   3.735733e+02  -1.816368e+02
   2.505328e+02   1.478410e+02
   6.840887e+01   3.690921e+02
  -2.881150e+01   3.458947e+02
  -3.206390e+01   1.921295e+02
  -4.609179e+01   1.054264e+02
  -1.368790e+02   1.079809e+02
  -2.397510e+02   5.830403e+01
  -2.411968e+02  -1.056150e+02
  -1.099638e+02  -2.485042e+02
   6.804695e+01  -2.038990e+02
   1.835747e+02   1.832553e+01
   1.559828e+02   2.341659e+02
  -1.876721e+01   2.657360e+02
  -2.434459e+02   8.718817e+01
  -3.327741e+02  -1.665426e+02
  -1.939803e+02  -3.164570e+02
   4.505420e+01  -2.887019e+02
   1.749804e+02  -1.585920e+02
   1.497381e+02  -7.318384e+01
   1.510913e+02  -7.482450e+01
   2.875985e+02  -5.610839e+01
   4.298667e+02   8.158486e+01
   3.375037e+02   2.981072e+02
  -1.251146e+01   4.488948e+02
  -3.747531e+02   4.188379e+02
  -4.798292e+02   2.018918e+02
  -2.994377e+02  -7.613773e+01
  -3.823390e+01  -2.468223e+02
   8.584602e+01  -2.139305e+02
   1.963195e+01  -4.959857e+01
  -1.151573e+02   4.780420e+01
  -1.454225e+02  -2.358460e+01
  -2.704541e+01  -1.439634e+02
   1.149305e+02  -1.198276e+02
   1.281816e+02   4.461592e+01
  -1.322382e+01   1.437894e+02
  -1.680601e+02   1.509887e+01
  -1.753197e+02  -2.366193e+02
   8.194667e-01  -3.605311e+02
   2.401289e+02  -2.265545e+02
   3.712543e+02   5.114053e+01
   2.971972e+02   2.603152e+02
   7.205661e+01   2.776409e+02
  -1.263209e+02   1.449997e+02
  -1.526679e+02   7.909368e+00
  -3.435494e+01  -1.625473e+01
   5.800894e+01   6.044249e+01
   3.550171e+00   1.199367e+02
  -1.234573e+02   7.956130e+01
  -1.536448e+02  -1.554914e+01
  -3.810655e+01  -5.260391e+01
   8.139804e+01   8.471774e+00
   4.213145e+01   9.134875e+01
  -1.484173e+02   9.522586e+01
  -3.109455e+02  -6.354631e+00
  -2.762391e+02  -1.583281e+02
  -4.819484e+01  -2.673274e+02
   1.963125e+02  -2.547138e+02
   2.705405e+02  -1.187455e+02
   1.455761e+02   3.688838e+01
  -2.647853e+01   8.138945e+01
  -6.706452e+01  -4.096576e+00
   5.235685e+01  -9.025379e+01
   1.920246e+02  -4.664792e+01
   2.011996e+02   9.834537e+01
   6.828330e+01   1.934126e+02
  -8.267026e+01   1.461020e+02
  -1.256953e+02   2.474956e+01
  -4.969202e+01  -3.319464e+01
   4.076312e+01   2.183717e+01
   2.909339e+01   1.116581e+02
  -9.637069e+01   1.225955e+02
  -2.159576e+02   1.716975e+01
  -1.913679e+02  -1.350485e+02
  -1.675782e+01  -2.152704e+02
   1.580819e+02  -1.591810e+02
   1.823744e+02  -1.532465e+01
   6.167328e+01   9.677924e+01
  -6.025279e+01   1.001309e+02
  -7.163277e+01   2.809041e+01
  -2.856395e+00  -2.400395e+01
   3.612741e+01  -8.550137e+00
  -1.117262e+01   2.589306e+01
  -9.194202e+01   6.665469e-01
  -1.088597e+02  -9.563361e+01
  -1.224640e+01  -1.822266e+02
   1.452740e+02  -1.607338e+02
   2.456134e+02  -1.546111e+01
   2.010563e+02   1.596149e+02
   4.482064e+01   2.350372e+02
  -9.813932e+01   1.681433e+02
  -1.317471e+02   3.617580e+01
  -7.879102e+01  -4.372171e+01
  -3.658926e+01  -2.931406e+01
  -5.630881e+01   1.630757e+01
  -8.814440e+01   9.643215e+00
  -5.740277e+01  -5.707523e+01
   3.868537e+01  -1.086241e+02
   1.258534e+02  -7.147525e+01
   1.125648e+02   4.511308e+01
  -1.389790e+01   1.360224e+02
  -1.669348e+02   9.868304e+01
  -2.144791e+02  -6.073909e+01
  -9.438704e+01  -2.146078e+02
   1.206740e+02  -2.301858e+02
   2.715783e+02  -9.157786e+01
   2.521614e+02   8.429174e+01
   1.071615e+02   1.680533e+02
  -3.546438e+01   1.407490e+02
  -8.821822e+01   8.566678e+01
  -6.995379e+01   7.753729e+01
  -5.767802e+01   1.014298e+02
  -9.062950e+01   8.397435e+01
  -1.363032e+02  -1.691921e+01
  -1.269786e+02  -1.553695e+02
  -3.318044e+01  -2.297107e+02
   9.897264e+01  -1.722292e+02
   1.734930e+02  -1.559689e+01
   1.309053e+02   1.272672e+02
   1.215445e+01   1.599405e+02
  -7.398217e+01   8.424050e+01
  -6.158854e+01  -1.342885e+01
   4.056859e+00  -5.379083e+01
   2.407919e+01  -3.482211e+01
  -3.316723e+01  -9.866382e+00
  -9.026759e+01  -1.719168e+01
  -5.214245e+01  -4.205253e+01
   7.601780e+01  -4.335244e+01
   1.785223e+02  -1.351771e+00
   1.473318e+02   6.123879e+01
  -2.857998e-01   9.759867e+01
  -1.355033e+02   7.533717e+01
  -1.459571e+02   7.416510e+00
  -4.349404e+01  -5.029477e+01
   6.221839e+01  -4.524031e+01
   8.182478e+01   1.920459e+01
   2.249439e+01   7.915857e+01
  -4.543428e+01   7.214053e+01
  -7.219471e+01   4.726054e+00
  -6.349841e+01  -5.157076e+01
  -5.292997e+01  -4.266848e+01
  -5.852209e+01   2.575699e+00
  -6.843362e+01   2.256339e+00
  -4.981316e+01  -7.558104e+01
   2.192942e+01  -1.618862e+02
   1.256552e+02  -1.558364e+02
   1.866015e+02  -3.892713e+01
   1.372973e+02   9.454461e+01
   4.048205e+00   1.359837e+02
  -9.533891e+01   7.223960e+01
  -6.424203e+01  -1.008747e+01
   6.145896e+01  -2.354143e+01
   1.415537e+02   3.660514e+01
   7.747702e+01   1.046053e+02
  -8.105401e+01   1.140482e+02
  -1.907543e+02   5.306740e+01
  -1.599941e+02  -3.408127e+01
  -3.306675e+01  -8.467440e+01
   6.395586e+01  -6.355495e+01
   4.936620e+01   1.554433e+00
  -4.153935e+01   3.554983e+01
  -9.832064e+01  -1.624464e+01
  -4.788751e+01  -1.198393e+02
   7.459894e+01  -1.665263e+02
   1.606793e+02  -7.965318e+01
   1.357271e+02   9.025753e+01
   2.558777e+01   1.978158e+02
  -7.795702e+01   1.466857e+02
  -1.064409e+02  -8.551209e+00
  -6.100745e+01  -1.199822e+02
   8.214293e+00  -1.030463e+02
   5.047624e+01  -1.574858e+01
   4.727643e+01   2.960632e+01
   1.871307e+01   4.474293e+00
   6.205058e+00  -1.838281e+01
   3.130108e+01   2.224432e+01
   6.179048e+01   9.033336e+01
   3.721416e+01   1.042667e+02
  -5.421441e+01   4.351014e+01
  -1.390544e+02  -3.238319e+01
  -1.273203e+02  -6.407129e+01
  -2.006493e+01  -5.240546e+01
   8.160454e+01  -2.969012e+01
   8.748449e+01  -9.187366e+00
   1.719536e+01   1.182517e+01
  -3.432055e+01   2.338806e+01
  -1.832204e+01   1.307960e+01
   1.564262e+01  -4.860495e+00
  -3.893285e+00  -4.369620e+00
  -6.906439e+01   4.729160e+00
  -9.543256e+01  -1.973722e+01
  -2.323696e+01  -8.445070e+01
   1.074552e+02  -1.251259e+02
   1.906756e+02  -7.197644e+01
   1.573782e+02   5.795323e+01
   3.682966e+01   1.626037e+02
  -7.853591e+01   1.596400e+02
  -1.176643e+02   6.918768e+01
  -8.232121e+01  -1.735818e+01
  -2.704302e+01  -3.761678e+01
  -1.714010e+00  -1.337044e+01
  -1.368765e+01  -8.489083e+00
  -3.239141e+01  -4.895494e+01
  -2.147510e+01  -9.159193e+01
   2.754171e+01  -7.344393e+01
   8.147505e+01   1.328980e+01
   8.644452e+01   1.019665e+02
   1.846673e+01   1.135098e+02
  -7.713070e+01   3.626021e+01
  -1.125359e+02  -6.273365e+01
  -4.553491e+01  -1.046373e+02
   6.356246e+01  -6.869436e+01
   1.066796e+02   4.194796e+00
   4.799251e+01   5.805057e+01
  -3.340141e+01   6.416449e+01
  -3.925856e+01   3.090759e+01
   2.711113e+01  -7.328377e+00
   6.821328e+01  -1.207046e+01
   1.734609e+01   2.623757e+01
  -7.888465e+01   6.819202e+01
  -1.199324e+02   5.673903e+01
  -6.984832e+01  -1.612866e+01
   1.362086e+01  -8.766168e+01
   5.784020e+01  -8.610442e+01
   4.639290e+01  -1.297817e+01
   9.873766e+00   5.518836e+01
  -2.265292e+01   5.162542e+01
  -3.911967e+01  -8.185961e+00
  -3.219463e+01  -5.322394e+01
  -1.357104e+00  -4.015158e+01
   3.391480e+01   3.836765e+00
   4.340511e+01   2.357586e+01
   2.121916e+01   2.242384e+00
  -3.960500e+00  -2.227516e+01
  -5.654898e+00  -8.651505e+00
   6.391754e+00   3.430625e+01
   9.374301e-01   5.645133e+01
  -2.747678e+01   2.442742e+01
  -4.379237e+01  -3.546929e+01
  -1.521848e+01  -6.250166e+01
   4.108308e+01  -2.844413e+01
   6.614070e+01   3.248713e+01
   2.245618e+01   6.215583e+01
  -5.748319e+01   3.943987e+01
  -9.638457e+01  -8.245004e+00
  -5.333696e+01  -4.243799e+01
   2.861499e+01  -4.782745e+01
   6.659998e+01  -3.146030e+01
   2.913449e+01  -7.960466e+00
  -2.992169e+01   5.371193e+00
  -3.548827e+01  -4.705083e+00
   2.252503e+01  -2.752056e+01
   8.001995e+01  -2.588491e+01
