
 $NMID
 id='ANONYMOUS ', fmtdat='(2E16.6)'
 volume=1.0
 tramp=1.0
 $END
  -2.372033e+03  -1.848038e+02
  -1.667482e+03  -1.433428e+03
   3.981443e+02  -1.714101e+03
   1.069942e+03  -3.741329e+02
   7.236772e+02   4.727210e+02
  -2.954182e+02   2.644231e+02
  -4.943569e+02  -2.159262e+02
   2.087390e+01  -6.782695e+02
   5.319286e+02  -5.024145e+02
   5.694419e+02   1.407662e+02
   2.328655e+02   5.531434e+02
  -9.836927e+01   4.607278e+02
  -3.880649e+02   8.148431e+00
  -2.631638e+02  -4.349691e+02
   1.666530e+02  -4.619509e+02
   2.915915e+02   4.819618e+00
   1.544510e+02   3.698435e+02
  -1.509790e+02   3.900877e+02
  -3.214690e+02   9.500412e+01
  -1.899785e+02  -1.754809e+02
   1.253298e+00  -2.787766e+02
   1.233914e+02  -1.672766e+02
   7.373847e+01  -7.368175e+00
  -1.086338e+02   4.470904e+01
  -2.636549e+02  -4.752151e+01
  -1.128080e+02  -2.491085e+02
   2.792159e+02  -2.294949e+02
   5.178204e+02   2.904096e+01
   2.560175e+02   2.979646e+02
  -2.356234e+02   2.710164e+02
  -4.157205e+02  -1.636366e+01
  -1.912306e+02  -2.557766e+02
   1.638032e+02  -2.798259e+02
   3.150055e+02  -1.041055e+02
   2.052429e+02   1.315541e+02
   3.137069e+01   2.689358e+02
  -9.415756e+01   1.488983e+02
  -8.643612e+01  -1.443792e+02
   9.747975e+01  -2.483255e+02
   2.536782e+02   4.130086e+00
   1.486467e+02   3.921966e+02
  -1.700075e+02   4.072047e+02
  -3.367023e+02   1.661041e+01
  -1.492953e+02  -2.922490e+02
   1.558441e+02  -1.785263e+02
   1.995175e+02   1.801706e+02
  -4.796974e+01   3.101208e+02
  -3.108029e+02   8.355115e+01
  -3.331308e+02  -2.220505e+02
  -9.290400e+01  -3.261857e+02
   1.993917e+02  -1.944922e+02
   3.426640e+02   4.099288e+01
   2.169675e+02   2.133039e+02
  -7.524360e+01   2.039816e+02
  -2.451878e+02   3.310954e+01
  -1.406473e+02  -1.008344e+02
   6.075598e+01  -4.839855e+01
   8.082576e+01   8.943001e+01
  -8.814529e+01   9.787609e+01
  -1.928831e+02  -4.524109e+01
  -8.093133e+01  -1.573793e+02
   1.116821e+02  -1.309861e+02
   1.843807e+02  -3.881429e+01
   1.108395e+02   4.060491e+01
  -1.416089e+01   1.254897e+02
  -1.274851e+02   1.932984e+02
  -1.957282e+02   1.269886e+02
  -1.670006e+02  -8.556599e+01
  -4.149729e+01  -2.525606e+02
   6.991787e+01  -2.092805e+02
   6.824385e+01  -5.139922e+01
   8.265774e+00   8.029183e+00
   1.789851e+01  -5.554550e+01
   1.080438e+02  -7.678629e+01
   1.594295e+02   3.226894e+01
   9.259007e+01   1.554879e+02
  -4.260736e+01   1.448359e+02
  -1.336814e+02   3.747843e+00
  -1.134626e+02  -1.393065e+02
   6.258880e+00  -1.647026e+02
   1.532728e+02  -6.189853e+01
   2.063849e+02   9.703248e+01
   1.064889e+02   1.944421e+02
  -5.134444e+01   1.679438e+02
  -1.245452e+02   7.136810e+01
  -8.713270e+01   1.446151e+01
  -6.475481e+01   2.808983e+01
  -1.383647e+02   3.495214e+01
  -2.218768e+02  -3.254980e+01
  -1.810108e+02  -1.562265e+02
   4.796742e-01  -2.455302e+02
   1.932762e+02  -2.380310e+02
   2.674825e+02  -1.209035e+02
   1.912609e+02   5.085602e+01
   3.766158e+01   1.677982e+02
  -6.854188e+01   1.471387e+02
  -4.747572e+01   2.082088e+01
   5.713151e+01  -5.895617e+01
   1.055960e+02   1.245292e+00
   2.751668e+01   1.012079e+02
  -8.765282e+01   8.886449e+01
  -9.678297e+01  -3.052513e+01
   1.200502e+01  -9.835734e+01
   1.059712e+02  -1.342720e+01
   8.868342e+01   1.330090e+02
  -1.805365e+01   1.880851e+02
  -1.287616e+02   1.078148e+02
  -1.840788e+02  -2.910529e+01
  -1.599175e+02  -1.312452e+02
  -5.539858e+01  -1.534532e+02
   6.614085e+01  -9.804495e+01
   1.049352e+02  -1.403841e+01
   3.743990e+01   2.200640e+01
  -3.814279e+01  -1.802202e+01
  -1.879902e+01  -6.887954e+01
   6.564569e+01  -5.511799e+01
   9.713559e+01   8.078712e+00
   3.201768e+01   4.099916e+01
  -4.525894e+01   8.137669e+00
  -3.312417e+01  -4.295980e+01
   6.556621e+01  -5.144070e+01
   1.556185e+02  -5.436844e+00
   1.497318e+02   7.183842e+01
   3.970662e+01   1.403231e+02
  -9.699949e+01   1.497504e+02
  -1.568153e+02   7.718833e+01
  -9.788074e+01  -2.498467e+01
   1.006811e+01  -6.170375e+01
   4.934333e+01  -7.394500e+00
  -1.776010e+01   5.437762e+01
  -1.097330e+02   3.323283e+01
  -1.209384e+02  -5.527535e+01
  -3.990590e+01  -1.152413e+02
   5.384071e+01  -9.105256e+01
   8.292574e+01  -2.034796e+01
   4.069371e+01   2.239789e+01
  -1.606960e+01   5.347835e+00
  -2.238613e+01  -4.264749e+01
   3.825149e+01  -6.407416e+01
   1.101006e+02  -2.157924e+01
   1.092690e+02   6.411197e+01
   1.684327e+01   1.220738e+02
  -8.783146e+01   9.594518e+01
  -1.084705e+02   8.101659e+00
  -3.940131e+01  -6.160638e+01
   3.541972e+01  -6.192967e+01
   4.728774e+01  -1.721519e+01
   1.138394e+01   1.511478e+01
  -1.384057e+01   1.139975e+01
   1.128323e+00  -4.021937e+00
   3.621892e+01   2.640199e+00
   4.964033e+01   4.150395e+01
   1.186853e+01   8.556687e+01
  -6.633734e+01   8.623872e+01
  -1.284412e+02   1.853421e+01
  -1.141418e+02  -8.187526e+01
  -2.643778e+01  -1.340272e+02
   5.950614e+01  -9.752861e+01
   7.808506e+01  -1.644283e+01
   4.239134e+01   3.227182e+01
   1.607810e+01   2.106914e+01
   2.727507e+01  -6.742389e+00
   4.250770e+01  -3.790887e+00
   2.539975e+01   2.632159e+01
  -1.962730e+01   4.668500e+01
  -5.527638e+01   3.068831e+01
  -4.827582e+01  -1.726321e+01
   4.523114e+00  -5.946649e+01
   7.739620e+01  -4.958734e+01
   1.110778e+02   2.421347e+01
   6.004874e+01   1.104302e+02
  -5.395250e+01   1.306010e+02
  -1.470819e+02   5.912208e+01
  -1.455064e+02  -4.420345e+01
  -6.477845e+01  -9.820846e+01
   1.882013e+01  -8.322877e+01
   5.180092e+01  -4.732246e+01
   4.415177e+01  -3.937336e+01
   3.717121e+01  -5.113333e+01
   5.062758e+01  -4.267288e+01
   7.122514e+01   9.373066e+00
   6.801087e+01   8.275697e+01
   2.178841e+01   1.247540e+02
  -4.999240e+01   9.832386e+01
  -9.702872e+01   1.628410e+01
  -7.990467e+01  -6.389051e+01
  -1.547609e+01  -8.838607e+01
   3.648217e+01  -5.365265e+01
   3.667515e+01  -2.797129e+00
   6.208781e+00   2.306689e+01
  -5.292087e+00   2.012816e+01
   1.840469e+01   1.092423e+01
   4.323202e+01   1.264621e+01
   2.597689e+01   2.132433e+01
  -3.401139e+01   2.229900e+01
  -8.772888e+01   5.290077e+00
  -8.097123e+01  -2.548565e+01
  -1.088592e+01  -4.951024e+01
   6.430921e+01  -4.493889e+01
   7.879260e+01  -1.169401e+01
   2.737000e+01   2.145021e+01
  -3.098368e+01   2.263568e+01
  -4.020041e+01  -8.028336e+00
  -4.714128e+00  -3.741660e+01
   2.909964e+01  -3.359008e+01
   3.415439e+01  -1.042642e+00
   2.507938e+01   2.645948e+01
   2.545881e+01   2.274751e+01
   3.456711e+01   1.048726e+00
   3.668949e+01  -3.504511e-01
   2.060336e+01   3.666554e+01
  -1.533871e+01   8.046081e+01
  -6.080509e+01   7.944992e+01
  -8.889081e+01   2.088376e+01
  -6.933863e+01  -4.777573e+01
  -6.428003e+00  -6.814959e+01
   4.581728e+01  -3.370632e+01
   3.371486e+01   8.369851e+00
  -3.189500e+01   1.164087e+01
  -7.745152e+01  -2.318942e+01
  -4.537299e+01  -5.923175e+01
   4.200345e+01  -6.353433e+01
   1.058376e+02  -3.135660e+01
   9.227091e+01   1.622439e+01
   2.270075e+01   4.744635e+01
  -3.342566e+01   4.022360e+01
  -2.779253e+01   5.060913e+00
   2.116039e+01  -1.605327e+01
   5.093230e+01   9.998520e+00
   2.029573e+01   6.484883e+01
  -4.835101e+01   8.751554e+01
  -9.132923e+01   3.795314e+01
  -7.064415e+01  -5.381928e+01
  -7.583620e+00  -1.100179e+02
   4.593314e+01  -8.153410e+01
   5.832531e+01   2.870818e+00
   3.551711e+01   6.613628e+01
   5.038076e-01   6.097866e+01
  -2.528741e+01   1.303894e+01
  -2.954259e+01  -1.650690e+01
  -1.508277e+01  -4.864304e+00
  -2.845590e+00   1.155352e+01
  -1.257323e+01  -7.194964e+00
  -3.279808e+01  -4.784034e+01
  -2.545832e+01  -6.095684e+01
   2.478818e+01  -2.734862e+01
   7.711053e+01   1.928281e+01
   7.383772e+01   3.798515e+01
   1.143603e+01   2.759288e+01
  -4.856699e+01   1.274693e+01
  -4.993956e+01   4.675925e+00
  -6.227304e+00  -3.685159e+00
   2.251720e+01  -1.216603e+01
   8.864802e+00  -1.002017e+01
  -1.242109e+01   8.434497e-01
   1.572766e+00   5.096815e+00
   4.032259e+01   1.485695e+00
   5.158197e+01   1.097858e+01
   6.825700e+00   4.175309e+01
  -6.286687e+01   6.303918e+01
  -9.990274e+01   3.593274e+01
  -7.686734e+01  -3.238385e+01
  -1.539308e+01  -8.694697e+01
   4.023748e+01  -8.311352e+01
   5.990328e+01  -3.336307e+01
   4.331947e+01   1.181873e+01
   1.409240e+01   1.957391e+01
  -1.634689e+00   3.664980e+00
   4.831439e+00   5.153057e-01
   1.810896e+01   2.440768e+01
   1.383108e+01   5.002256e+01
  -1.450505e+01   4.013358e+01
  -4.477495e+01  -1.011992e+01
  -4.409753e+01  -5.997049e+01
  -3.983517e+00  -6.211430e+01
   4.546625e+01  -1.384383e+01
   5.846662e+01   4.058440e+01
   1.966673e+01   5.651234e+01
  -3.547393e+01   3.142009e+01
  -5.399865e+01  -4.835153e+00
  -2.221696e+01  -2.662478e+01
   1.744213e+01  -2.836603e+01
   1.717100e+01  -1.570512e+01
  -1.874205e+01   9.895560e-01
  -3.900954e+01   5.502038e+00
  -9.956479e+00  -1.238030e+01
   4.169623e+01  -3.692353e+01
   6.237550e+01  -3.487351e+01
   3.474581e+01   3.822872e+00
  -8.513891e+00   4.457923e+01
  -2.867987e+01   4.422133e+01
  -1.965267e+01   3.377880e+00
   4.319976e-02  -3.181866e+01
   1.485771e+01  -2.493269e+01
   2.067193e+01   1.002319e+01
   1.486140e+01   3.112402e+01
  -1.741643e+00   1.894142e+01
  -1.865536e+01  -5.221654e+00
  -2.195208e+01  -1.246514e+01
  -1.081403e+01  -4.154747e-01
   9.245603e-01   8.933970e+00
   3.589964e+00  -9.181590e-01
   2.676050e+00  -2.050005e+01
   8.151861e+00  -2.545885e+01
   1.779513e+01  -4.839806e+00
   1.756450e+01   2.413812e+01
  -7.686566e-02   3.320389e+01
  -2.437746e+01   1.194098e+01
  -3.176163e+01  -2.019196e+01
  -8.715683e+00  -3.400351e+01
   2.980959e+01  -1.983663e+01
   4.896699e+01   6.239745e+00
   2.747421e+01   2.285480e+01
  -1.523195e+01   2.292590e+01
  -3.515828e+01   1.315732e+01
  -1.308600e+01   3.163961e+00
   2.072624e+01   3.789038e-01
   2.122462e+01   7.648980e+00
  -1.612902e+01   1.732217e+01
  -4.987203e+01   1.211218e+01
