
 $NMID
 id='ANONYMOUS ', fmtdat='(2E16.6)'
 volume=1.0
 tramp=1.0
 $END
   3.782034e+03   6.687437e+00
   2.324664e+03   2.391492e+03
  -7.847237e+02   2.608143e+03
  -1.679524e+03   6.520983e+02
  -7.740175e+02  -8.747318e+02
   7.234448e+02  -6.104370e+02
   9.739506e+02   5.113392e+02
  -7.633127e+01   9.181141e+02
  -8.072983e+02   7.847764e+02
  -9.455846e+02  -1.235919e+02
  -3.441226e+02  -6.843136e+02
   3.252083e+02  -6.724023e+02
   6.862350e+02  -4.165916e+01
   3.915853e+02   6.608958e+02
  -2.755166e+02   6.844867e+02
  -5.809275e+02   1.991352e+01
  -2.504852e+02  -5.959622e+02
   2.462585e+02  -5.577998e+02
   4.648143e+02  -6.085640e+01
   3.063714e+02   3.389099e+02
   3.292212e+01   3.997626e+02
  -2.072726e+02   2.279945e+02
  -2.195489e+02   2.811517e+01
   7.040006e+01  -1.236555e+02
   3.737652e+02   4.468109e+01
   2.144100e+02   3.922365e+02
  -3.771190e+02   4.284593e+02
  -7.529066e+02  -7.420736e+00
  -4.236851e+02  -4.603544e+02
   3.143621e+02  -4.523916e+02
   6.490609e+02  -2.119092e+01
   3.019318e+02   3.840535e+02
  -2.365036e+02   4.368282e+02
  -4.760369e+02   1.872200e+02
  -3.541849e+02  -2.009190e+02
  -5.504790e+01  -4.262720e+02
   1.918369e+02  -2.605933e+02
   1.597345e+02   2.103983e+02
  -1.536347e+02   4.062296e+02
  -4.079517e+02  -7.831836e+00
  -2.226254e+02  -5.984282e+02
   2.748326e+02  -6.320294e+02
   5.191710e+02  -4.201471e+00
   2.139765e+02   4.695939e+02
  -2.439692e+02   2.627880e+02
  -3.056644e+02  -2.783532e+02
   6.975435e+01  -4.573969e+02
   4.570295e+02  -1.132287e+02
   4.822650e+02   3.267324e+02
   1.452041e+02   4.705657e+02
  -2.987827e+02   2.879648e+02
  -5.186707e+02  -5.037457e+01
  -3.166712e+02  -3.241283e+02
   1.401049e+02  -3.229021e+02
   3.921053e+02  -4.871276e+01
   2.051419e+02   1.818365e+02
  -1.140071e+02   1.012923e+02
  -1.261508e+02  -1.424542e+02
   1.555125e+02  -1.735427e+02
   3.082789e+02   6.712758e+01
   1.151840e+02   2.677341e+02
  -1.792663e+02   2.204223e+02
  -2.682303e+02   5.383889e+01
  -1.493606e+02  -6.711503e+01
   1.470268e+01  -1.690119e+02
   1.590981e+02  -2.656388e+02
   2.680972e+02  -1.987496e+02
   2.542414e+02   9.641159e+01
   8.186887e+01   3.646480e+02
  -9.583382e+01   3.281106e+02
  -1.100606e+02   8.787403e+01
  -2.044250e+01  -2.550558e+01
  -2.083090e+01   6.844330e+01
  -1.462471e+02   1.211058e+02
  -2.295497e+02  -2.728519e+01
  -1.430503e+02  -2.208071e+02
   5.029979e+01  -2.226276e+02
   1.915423e+02  -2.136665e+01
   1.758606e+02   1.945680e+02
   2.462429e+00   2.522101e+02
  -2.185166e+02   1.120529e+02
  -3.060589e+02  -1.269743e+02
  -1.626187e+02  -2.903405e+02
   7.851264e+01  -2.593426e+02
   1.881845e+02  -1.020460e+02
   1.233648e+02   1.179820e+00
   7.941499e+01  -2.270852e+01
   1.846851e+02  -5.905835e+01
   3.199952e+02   3.276846e+01
   2.727839e+02   2.223122e+02
   1.478425e+01   3.599836e+02
  -2.711056e+02   3.455180e+02
  -3.898028e+02   1.802246e+02
  -2.895201e+02  -6.623399e+01
  -6.657816e+01  -2.456101e+02
   1.007303e+02  -2.186581e+02
   7.655625e+01  -2.920270e+01
  -8.270587e+01   9.368341e+01
  -1.652918e+02  -1.035393e+00
  -4.487844e+01  -1.676531e+02
   1.370358e+02  -1.505119e+02
   1.520971e+02   5.075388e+01
  -1.841540e+01   1.665114e+02
  -1.649423e+02   2.948395e+01
  -1.307283e+02  -2.074255e+02
   2.989042e+01  -2.883855e+02
   1.858184e+02  -1.575905e+02
   2.601110e+02   4.645473e+01
   2.304828e+02   1.846672e+02
   9.014843e+01   2.117244e+02
  -8.589976e+01   1.398611e+02
  -1.498935e+02   2.694888e+01
  -5.301782e+01  -2.728742e+01
   6.134728e+01   2.456730e+01
   3.215350e+01   1.019250e+02
  -9.956750e+01   9.033230e+01
  -1.523031e+02  -1.796558e+00
  -5.646652e+01  -5.927797e+01
   6.023520e+01  -2.027660e+01
   4.735478e+01   5.265324e+01
  -9.085363e+01   6.987341e+01
  -2.204228e+02   7.925678e+00
  -2.173133e+02  -1.013541e+02
  -6.503104e+01  -2.025060e+02
   1.348106e+02  -2.215682e+02
   2.301062e+02  -1.179199e+02
   1.487995e+02   3.551389e+01
  -1.284850e+01   9.394844e+01
  -7.677358e+01   1.180843e+01
   2.086220e+01  -8.634592e+01
   1.590590e+02  -5.833502e+01
   1.801473e+02   7.633634e+01
   6.472517e+01   1.708528e+02
  -7.194817e+01   1.376172e+02
  -1.191998e+02   3.310096e+01
  -6.517152e+01  -3.251787e+01
   1.622095e+01  -1.165056e+01
   3.275087e+01   5.603676e+01
  -4.815169e+01   9.018429e+01
  -1.536258e+02   3.378226e+01
  -1.590582e+02  -8.957958e+01
  -2.708094e+01  -1.774609e+02
   1.282067e+02  -1.424705e+02
   1.605679e+02  -1.272836e+01
   5.964148e+01   9.256759e+01
  -5.009568e+01   9.491690e+01
  -6.945023e+01   2.925047e+01
  -2.135145e+01  -2.030428e+01
   1.237552e+01  -1.959462e+01
  -5.941920e+00  -5.539315e-01
  -4.889246e+01  -8.870990e+00
  -6.612487e+01  -6.033758e+01
  -1.725512e+01  -1.209420e+02
   9.140777e+01  -1.253887e+02
   1.851312e+02  -3.275524e+01
   1.708691e+02   1.106527e+02
   4.588109e+01   1.920428e+02
  -8.074716e+01   1.448153e+02
  -1.092902e+02   2.801638e+01
  -5.922097e+01  -4.314075e+01
  -2.439414e+01  -2.991234e+01
  -4.141880e+01   9.493303e+00
  -6.117707e+01   7.580838e+00
  -3.203067e+01  -3.358634e+01
   3.017729e+01  -6.404139e+01
   7.497451e+01  -4.355498e+01
   6.449976e+01   2.108777e+01
  -6.128230e+00   8.157295e+01
  -1.046809e+02   7.219252e+01
  -1.572363e+02  -2.882849e+01
  -8.999695e+01  -1.534862e+02
   7.237598e+01  -1.880418e+02
   2.096372e+02  -9.054776e+01
   2.127912e+02   5.820535e+01
   9.801214e+01   1.398466e+02
  -2.411244e+01   1.222627e+02
  -7.383663e+01   7.217386e+01
  -6.411184e+01   5.814735e+01
  -5.280094e+01   7.386207e+01
  -7.085386e+01   6.173858e+01
  -1.006053e+02  -1.224162e+01
  -9.814783e+01  -1.168269e+02
  -3.345620e+01  -1.777561e+02
   6.992909e+01  -1.412459e+02
   1.387159e+02  -2.538558e+01
   1.144101e+02   8.895036e+01
   2.258555e+01   1.252495e+02
  -4.902908e+01   7.837532e+01
  -4.704791e+01   7.710659e+00
  -6.594669e+00  -2.999367e+01
   3.555838e+00  -2.858370e+01
  -3.215615e+01  -1.761396e+01
  -6.314721e+01  -1.872181e+01
  -3.496152e+01  -2.880076e+01
   4.838314e+01  -3.026730e+01
   1.223389e+02  -8.645887e+00
   1.156756e+02   3.292900e+01
   2.013115e+01   6.787041e+01
  -8.787832e+01   6.365891e+01
  -1.132263e+02   1.797232e+01
  -4.127613e+01  -2.836229e+01
   4.465814e+01  -2.958886e+01
   5.889475e+01   1.407715e+01
   5.824941e+00   5.414665e+01
  -4.388491e+01   4.649083e+01
  -4.921590e+01  -1.072315e+00
  -3.451838e+01  -3.948845e+01
  -3.587633e+01  -3.314197e+01
  -5.066478e+01  -1.267826e+00
  -5.223226e+01   8.941034e-01
  -2.631745e+01  -5.221817e+01
   2.544624e+01  -1.152343e+02
   8.804492e+01  -1.133922e+02
   1.263868e+02  -2.885513e+01
   9.847668e+01   6.937854e+01
   9.128314e+00   9.804593e+01
  -6.571498e+01   4.822380e+01
  -4.818203e+01  -1.140225e+01
   4.614424e+01  -1.598933e+01
   1.119160e+02   3.253905e+01
   6.609453e+01   8.336061e+01
  -5.928927e+01   9.143269e+01
  -1.513516e+02   4.823369e+01
  -1.329215e+02  -2.012814e+01
  -3.410619e+01  -6.735395e+01
   4.611132e+01  -5.851010e+01
   3.918137e+01  -7.609982e+00
  -3.012774e+01   2.283713e+01
  -7.293504e+01  -1.583007e+01
  -2.881097e+01  -9.546794e+01
   7.013714e+01  -1.264100e+02
   1.327979e+02  -5.286555e+01
   1.035008e+02   7.928019e+01
   1.305380e+01   1.595219e+02
  -6.431120e+01   1.188905e+02
  -8.411032e+01  -1.275791e+00
  -5.426233e+01  -9.257246e+01
  -5.565563e+00  -8.702726e+01
   3.374063e+01  -1.966629e+01
   4.354461e+01   2.254196e+01
   2.346733e+01   6.019437e+00
   3.362758e+00  -1.776532e+01
   1.599175e+01   9.276208e+00
   4.715295e+01   6.819872e+01
   3.926352e+01   8.731667e+01
  -3.348427e+01   3.886395e+01
  -1.115825e+02  -2.709919e+01
  -1.077935e+02  -5.262789e+01
  -1.628998e+01  -3.794881e+01
   7.087649e+01  -1.929698e+01
   7.136582e+01  -9.242016e+00
   7.646473e+00   4.405704e+00
  -3.193921e+01   1.900171e+01
  -1.052780e+01   1.590567e+01
   1.863326e+01  -1.879811e+00
  -4.538201e+00  -8.540298e+00
  -6.047750e+01  -2.296376e+00
  -7.295324e+01  -1.610506e+01
  -5.501753e+00  -6.222617e+01
   9.372708e+01  -9.267961e+01
   1.439190e+02  -5.025814e+01
   1.094763e+02   5.056048e+01
   2.245467e+01   1.276275e+02
  -5.674468e+01   1.191933e+02
  -8.604690e+01   4.721225e+01
  -6.381424e+01  -1.606998e+01
  -2.093156e+01  -2.681208e+01
   3.153475e+00  -5.435621e+00
  -6.449498e+00  -1.445656e+00
  -2.694274e+01  -3.447434e+01
  -2.124288e+01  -7.044611e+01
   2.062110e+01  -5.684565e+01
   6.451674e+01   1.433392e+01
   6.257347e+01   8.560567e+01
   3.955938e+00   8.846805e+01
  -6.596426e+01   1.811078e+01
  -8.260622e+01  -6.001663e+01
  -2.623539e+01  -8.100337e+01
   5.173254e+01  -4.317003e+01
   7.660428e+01   8.446087e+00
   3.069911e+01   3.755715e+01
  -2.513950e+01   3.943813e+01
  -2.342481e+01   2.263066e+01
   2.780340e+01  -4.963845e-01
   5.479237e+01  -7.640228e+00
   1.160980e+01   1.702174e+01
  -6.127458e+01   5.209319e+01
  -8.773624e+01   4.915341e+01
  -4.643589e+01  -6.892348e+00
   1.419483e+01  -6.513040e+01
   4.059455e+01  -6.229230e+01
   2.716226e+01  -2.074218e+00
   2.545743e-01   4.721896e+01
  -2.053514e+01   3.507983e+01
  -2.987854e+01  -1.523111e+01
  -2.295148e+01  -4.310966e+01
   1.043273e+00  -2.547831e+01
   2.643358e+01   6.581923e+00
   3.238485e+01   1.458283e+01
   1.689329e+01  -1.085356e+00
  -1.872101e-02  -1.078536e+01
  -4.831943e+00   5.022462e+00
  -5.454777e+00   3.148615e+01
  -1.442288e+01   3.603663e+01
  -2.668834e+01   5.160625e+00
  -2.404742e+01  -3.691041e+01
   2.067224e+00  -4.914989e+01
   3.540542e+01  -1.682168e+01
   4.461676e+01   3.085448e+01
   1.219654e+01   5.024956e+01
  -4.204852e+01   2.809174e+01
  -6.961824e+01  -1.037733e+01
  -3.942935e+01  -3.338898e+01
   2.180967e+01  -3.182645e+01
   5.025513e+01  -1.737619e+01
   1.761326e+01  -4.216694e+00
  -3.135481e+01  -1.812808e+00
  -3.048999e+01  -1.296880e+01
   2.568081e+01  -2.608512e+01
   7.449036e+01  -1.710545e+01
