
 $NMID
 id='ANONYMOUS ', fmtdat='(2E16.6)'
 volume=1.0
 tramp=1.0
 $END
   4.516052e+03   1.151905e+02
   2.763927e+03   3.119765e+03
  -9.739126e+02   3.342699e+03
  -2.139220e+03   6.804975e+02
  -9.238375e+02  -8.682510e+02
   9.526582e+02  -7.960578e+02
   1.118058e+03   5.955740e+02
  -3.500134e+01   1.170588e+03
  -9.644626e+02   9.015709e+02
  -1.124657e+03  -9.990828e+01
  -4.640827e+02  -9.271820e+02
   3.053093e+02  -8.120232e+02
   8.479927e+02  -7.352349e+01
   4.856123e+02   8.149507e+02
  -3.026097e+02   7.903711e+02
  -7.347630e+02  -3.772520e+00
  -2.979047e+02  -7.962806e+02
   2.986048e+02  -6.475603e+02
   6.561222e+02   5.056407e+00
   3.732630e+02   4.293702e+02
  -5.240300e+01   4.480522e+02
  -2.726126e+02   2.346671e+02
  -2.024475e+02  -1.446958e+01
   1.336495e+02  -9.035022e+01
   4.235389e+02   1.479063e+02
   1.837790e+02   4.669340e+02
  -4.949571e+02   4.424951e+02
  -8.935040e+02  -1.207786e+02
  -4.633869e+02  -6.224108e+02
   4.450401e+02  -5.562343e+02
   8.143287e+02   6.858234e+01
   3.606104e+02   5.387192e+02
  -3.128633e+02   5.593965e+02
  -6.140826e+02   1.960037e+02
  -4.399901e+02  -2.595600e+02
  -5.759240e+01  -5.318771e+02
   2.421415e+02  -2.822773e+02
   1.919046e+02   2.639098e+02
  -2.074809e+02   5.012271e+02
  -5.175821e+02  -2.969110e+01
  -2.725297e+02  -7.509632e+02
   3.672469e+02  -7.576337e+02
   6.693518e+02   2.044818e+01
   2.664866e+02   6.132472e+02
  -3.379041e+02   3.499219e+02
  -4.223423e+02  -3.454150e+02
   7.340350e+01  -5.707153e+02
   6.058370e+02  -1.208674e+02
   6.162555e+02   4.526967e+02
   1.447874e+02   6.273849e+02
  -4.410168e+02   3.416502e+02
  -6.789654e+02  -1.290406e+02
  -3.804587e+02  -4.496373e+02
   2.028454e+02  -3.898712e+02
   4.979123e+02  -2.593749e+01
   2.494755e+02   2.348039e+02
  -1.499568e+02   1.061568e+02
  -1.596117e+02  -1.924780e+02
   1.895857e+02  -2.083723e+02
   3.783035e+02   9.987712e+01
   1.395684e+02   3.357797e+02
  -2.302692e+02   2.575596e+02
  -3.451882e+02   3.791799e+01
  -1.859740e+02  -1.130987e+02
   4.758516e+01  -2.231203e+02
   2.469099e+02  -3.114426e+02
   3.651744e+02  -2.003617e+02
   3.058598e+02   1.647585e+02
   6.249042e+01   4.683366e+02
  -1.540644e+02   3.982889e+02
  -1.520759e+02   1.033356e+02
  -3.179380e+01  -2.254144e+01
  -4.258487e+01   8.924881e+01
  -2.063506e+02   1.331090e+02
  -2.941058e+02  -6.740670e+01
  -1.595778e+02  -2.971946e+02
   9.252769e+01  -2.723240e+02
   2.487077e+02   1.164279e-01
   1.974584e+02   2.653461e+02
  -3.390482e+01   3.120075e+02
  -2.942581e+02   1.059422e+02
  -3.742680e+02  -1.965915e+02
  -1.694323e+02  -3.833021e+02
   1.294943e+02  -3.218150e+02
   2.518307e+02  -1.138989e+02
   1.660925e+02   1.104414e+01
   1.105344e+02  -2.126510e+01
   2.448363e+02  -4.974378e+01
   4.062791e+02   8.288558e+01
   3.216653e+02   3.171881e+02
  -2.788183e+01   4.644467e+02
  -3.957420e+02   4.114624e+02
  -5.194253e+02   1.828021e+02
  -3.497466e+02  -1.197172e+02
  -3.997612e+01  -3.137112e+02
   1.532930e+02  -2.586451e+02
   9.069488e+01  -2.336142e+01
  -1.228736e+02   1.170718e+02
  -2.112027e+02  -7.860160e+00
  -4.889385e+01  -2.099005e+02
   1.785381e+02  -1.821261e+02
   1.868940e+02   6.683600e+01
  -2.659062e+01   2.042041e+02
  -2.045977e+02   2.823004e+01
  -1.529327e+02  -2.688582e+02
   5.931704e+01  -3.634943e+02
   2.543546e+02  -1.811097e+02
   3.308963e+02   9.394455e+01
   2.678516e+02   2.676054e+02
   8.083500e+01   2.768622e+02
  -1.259402e+02   1.584392e+02
  -1.858554e+02   1.137077e+01
  -6.054523e+01  -3.817187e+01
   7.165546e+01   4.036037e+01
   2.619347e+01   1.311022e+02
  -1.340396e+02   1.008943e+02
  -1.883261e+02  -1.835786e+01
  -5.993248e+01  -7.726064e+01
   8.300268e+01  -1.415836e+01
   5.394041e+01   7.673011e+01
  -1.318391e+02   8.092807e+01
  -2.913718e+02  -1.756408e+01
  -2.665153e+02  -1.598339e+02
  -5.163864e+01  -2.678192e+02
   2.038963e+02  -2.637986e+02
   3.060779e+02  -1.206926e+02
   1.831590e+02   6.164315e+01
  -2.496788e+01   1.175704e+02
  -9.531488e+01   8.867124e+00
   3.726400e+01  -1.031439e+02
   2.068837e+02  -5.288654e+01
   2.178758e+02   1.199234e+02
   5.963838e+01   2.253843e+02
  -1.105986e+02   1.636999e+02
  -1.549198e+02   2.376585e+01
  -7.321768e+01  -4.782331e+01
   2.599122e+01  -4.871102e+00
   3.127762e+01   8.158581e+01
  -8.011725e+01   1.060310e+02
  -2.033092e+02   1.665181e+01
  -1.891141e+02  -1.364851e+02
  -9.527382e+00  -2.257283e+02
   1.811549e+02  -1.617989e+02
   2.051727e+02   3.983449e+00
   6.398284e+01   1.233800e+02
  -7.666716e+01   1.123121e+02
  -9.116073e+01   2.625373e+01
  -2.067157e+01  -2.822307e+01
   2.148458e+01  -1.757427e+01
  -9.926587e+00   6.215967e+00
  -6.872828e+01  -1.606388e+01
  -8.116100e+01  -8.944931e+01
  -4.777058e+00  -1.599112e+02
   1.355016e+02  -1.470050e+02
   2.387799e+02  -1.500518e+01
   1.995965e+02   1.634477e+02
   3.087538e+01   2.493916e+02
  -1.240801e+02   1.726704e+02
  -1.453956e+02   2.094347e+01
  -7.249270e+01  -6.534949e+01
  -2.717739e+01  -4.356451e+01
  -5.314019e+01   6.609341e+00
  -7.841744e+01   1.060545e+00
  -3.781453e+01  -5.253851e+01
   4.850867e+01  -8.373354e+01
   1.042306e+02  -4.665881e+01
   8.266696e+01   4.094948e+01
  -1.874183e+01   1.071314e+02
  -1.441431e+02   7.563068e+01
  -1.947791e+02  -6.287896e+01
  -9.137093e+01  -2.087644e+02
   1.202538e+02  -2.260901e+02
   2.806185e+02  -8.291731e+01
   2.628543e+02   1.048540e+02
   1.046963e+02   1.921217e+02
  -4.938188e+01   1.509901e+02
  -1.050252e+02   8.072611e+01
  -8.863099e+01   6.444606e+01
  -7.645020e+01   8.754813e+01
  -9.983840e+01   6.953403e+01
  -1.288860e+02  -3.000134e+01
  -1.099784e+02  -1.646442e+02
  -1.683317e+01  -2.341013e+02
   1.108040e+02  -1.725359e+02
   1.817362e+02  -1.282108e+01
   1.344922e+02   1.319834e+02
   1.229437e+01   1.654357e+02
  -7.301741e+01   9.245328e+01
  -6.152862e+01  -3.158099e-01
  -4.254381e+00  -4.122299e+01
   9.778358e+00  -3.372090e+01
  -3.745894e+01  -2.274014e+01
  -7.817318e+01  -3.131769e+01
  -4.127922e+01  -4.296868e+01
   6.670270e+01  -3.200998e+01
   1.585878e+02   8.355489e+00
   1.417129e+02   5.994685e+01
   1.197919e+01   8.840695e+01
  -1.247206e+02   6.705298e+01
  -1.471062e+02   6.599983e+00
  -4.602643e+01  -4.225839e+01
   6.385416e+01  -3.327360e+01
   7.465782e+01   2.399593e+01
   3.227106e-01   7.013766e+01
  -6.280603e+01   5.539404e+01
  -6.343780e+01  -6.715585e+00
  -3.909954e+01  -5.493530e+01
  -4.054944e+01  -4.641933e+01
  -6.381266e+01  -6.567396e+00
  -6.777828e+01  -5.056159e+00
  -2.978916e+01  -7.131607e+01
   4.473251e+01  -1.455414e+02
   1.270268e+02  -1.346781e+02
   1.670512e+02  -2.198929e+01
   1.184634e+02   1.002140e+02
  -3.665907e-01   1.269510e+02
  -9.018090e+01   5.547758e+01
  -5.965611e+01  -1.898694e+01
   6.159937e+01  -1.538122e+01
   1.382595e+02   5.437184e+01
   7.189466e+01   1.151620e+02
  -8.947185e+01   1.111709e+02
  -2.002441e+02   4.290202e+01
  -1.665977e+02  -4.388594e+01
  -3.448204e+01  -9.235301e+01
   6.618191e+01  -7.059605e+01
   5.062761e+01  -5.921144e+00
  -4.153389e+01   2.524799e+01
  -9.135211e+01  -2.888638e+01
  -2.495379e+01  -1.249154e+02
   1.057242e+02  -1.537099e+02
   1.771035e+02  -5.297819e+01
   1.230742e+02   1.130127e+02
  -3.226964e+00   2.052747e+02
  -9.716828e+01   1.437107e+02
  -1.068216e+02  -1.320929e+01
  -5.604262e+01  -1.256876e+02
   6.178363e+00  -1.108317e+02
   4.752568e+01  -1.912164e+01
   5.332736e+01   3.575763e+01
   2.798247e+01   1.195614e+01
   4.127946e+00  -2.033911e+01
   1.719960e+01   1.545509e+01
   5.071109e+01   9.276022e+01
   3.857549e+01   1.145114e+02
  -4.897257e+01   4.401217e+01
  -1.406133e+02  -4.899491e+01
  -1.310682e+02  -8.164282e+01
  -1.461163e+01  -5.292249e+01
   9.421406e+01  -1.759386e+01
   9.268051e+01  -2.132166e+00
   9.979130e+00   8.743025e+00
  -4.181033e+01   2.128197e+01
  -1.493081e+01   1.803141e+01
   2.284579e+01  -7.862228e-01
  -6.020637e+00  -1.037607e+01
  -7.679339e+01  -8.044595e+00
  -9.114708e+01  -2.833031e+01
  -1.626410e+00  -8.115188e+01
   1.279345e+02  -1.093694e+02
   1.896575e+02  -4.916161e+01
   1.373027e+02   7.667433e+01
   1.669816e+01   1.661168e+02
  -8.696397e+01   1.468547e+02
  -1.181838e+02   5.161376e+01
  -8.103321e+01  -2.698217e+01
  -2.350398e+01  -3.658538e+01
   4.419394e+00  -7.445074e+00
  -9.416684e+00  -4.304644e+00
  -3.149277e+01  -4.928683e+01
  -1.825244e+01  -9.451310e+01
   3.522675e+01  -7.172978e+01
   8.352610e+01   2.557242e+01
   7.231510e+01   1.182949e+02
  -4.315105e+00   1.162953e+02
  -8.736484e+01   1.749562e+01
  -1.001998e+02  -8.643605e+01
  -2.434529e+01  -1.083633e+02
   7.252063e+01  -4.998008e+01
   9.814215e+01   2.117111e+01
   3.445674e+01   5.452986e+01
  -3.819567e+01   4.920811e+01
  -3.348682e+01   2.528223e+01
   3.569262e+01   6.209419e-01
   7.151337e+01  -3.754601e+00
   1.332868e+01   2.551500e+01
  -8.457922e+01   6.282295e+01
  -1.202750e+02   5.401856e+01
  -6.316377e+01  -1.590930e+01
   2.147753e+01  -8.484450e+01
   5.886620e+01  -7.809522e+01
   3.821098e+01  -2.030640e+00
  -1.689945e+00   5.848218e+01
  -2.926440e+01   4.156863e+01
  -3.638700e+01  -2.265944e+01
  -2.304539e+01  -5.725735e+01
   6.571020e+00  -3.231265e+01
   3.449611e+01   1.163252e+01
   3.956800e+01   2.387189e+01
   2.152736e+01   2.725708e+00
   1.614048e+00  -1.263550e+01
  -6.710787e+00   5.239381e+00
  -1.124720e+01   3.864207e+01
  -2.322616e+01   4.430090e+01
  -3.462505e+01   4.406872e+00
  -2.624791e+01  -4.940350e+01
   7.874080e+00  -6.270217e+01
   4.625626e+01  -1.782624e+01
   5.315489e+01   4.458110e+01
   1.000030e+01   6.563552e+01
  -5.726747e+01   3.041601e+01
  -8.861948e+01  -2.264535e+01
  -4.676128e+01  -4.884663e+01
   3.257275e+01  -3.935133e+01
   6.800904e+01  -1.649353e+01
   2.450303e+01  -2.341319e+00
  -3.931929e+01  -4.686917e+00
  -3.793044e+01  -1.970293e+01
   3.520829e+01  -3.119398e+01
   9.705283e+01  -1.414415e+01
