
 $NMID
 id='ANONYMOUS ', fmtdat='(2E16.6)'
 volume=1.0
 tramp=1.0
 $END
  -4.591019e+03  -2.084497e+01
  -2.866782e+03  -3.088150e+03
   9.347836e+02  -3.257104e+03
   2.000258e+03  -7.131195e+02
   9.790238e+02   7.627975e+02
  -9.189867e+02   6.453552e+02
  -1.150738e+03  -6.070473e+02
   4.685277e+01  -1.198892e+03
   9.412884e+02  -9.740057e+02
   1.165698e+03   1.046189e+02
   5.403500e+02   8.320987e+02
  -3.407555e+02   9.413606e+02
  -7.998138e+02   7.585972e+01
  -4.762867e+02  -8.852027e+02
   3.441922e+02  -8.128327e+02
   7.084429e+02   1.072197e+01
   2.649315e+02   7.218387e+02
  -3.494753e+02   6.724682e+02
  -6.106322e+02   6.324705e+01
  -4.066386e+02  -4.139349e+02
  -3.547267e+01  -5.189689e+02
   2.979356e+02  -3.055377e+02
   2.113762e+02  -1.270830e+01
  -1.034231e+02   1.026544e+02
  -4.360242e+02  -1.393798e+02
  -2.032852e+02  -4.854844e+02
   4.724637e+02  -4.741736e+02
   9.281406e+02   6.723563e+01
   4.911547e+02   5.885288e+02
  -4.282981e+02   5.616965e+02
  -8.098829e+02  -1.028924e+01
  -3.625828e+02  -5.036277e+02
   3.096840e+02  -5.801221e+02
   5.971208e+02  -2.526072e+02
   4.369864e+02   2.338402e+02
   6.706943e+01   5.491144e+02
  -2.406001e+02   3.321146e+02
  -2.269654e+02  -2.676400e+02
   1.629256e+02  -5.354644e+02
   5.070240e+02  -2.050347e+01
   3.077391e+02   7.344198e+02
  -3.245864e+02   7.893525e+02
  -6.601732e+02   1.725698e+00
  -3.081264e+02  -6.246371e+02
   3.220304e+02  -3.667676e+02
   4.529255e+02   3.552194e+02
  -4.727865e+01   6.048052e+02
  -5.974482e+02   1.572902e+02
  -6.413189e+02  -4.320360e+02
  -1.740732e+02  -6.225632e+02
   4.243919e+02  -3.616444e+02
   6.887652e+02   8.663657e+01
   4.005684e+02   4.272164e+02
  -1.801686e+02   4.065405e+02
  -4.971793e+02   5.275041e+01
  -2.608905e+02  -2.318087e+02
   1.460502e+02  -1.227871e+02
   1.679871e+02   1.858110e+02
  -1.849557e+02   2.213983e+02
  -3.835503e+02  -8.831257e+01
  -1.427216e+02  -3.468152e+02
   2.353617e+02  -2.845748e+02
   3.517735e+02  -5.958321e+01
   1.909113e+02   1.057478e+02
  -3.377233e+01   2.299871e+02
  -2.198274e+02   3.322926e+02
  -3.437350e+02   2.325060e+02
  -3.108469e+02  -1.386702e+02
  -9.295411e+01  -4.638339e+02
   1.196214e+02  -4.111148e+02
   1.296762e+02  -1.158757e+02
   2.393828e+01   1.687772e+01
   4.022109e+01  -9.697633e+01
   2.064007e+02  -1.468453e+02
   3.020634e+02   4.865653e+01
   1.756764e+02   2.855959e+02
  -7.266527e+01   2.748944e+02
  -2.431051e+02   1.798688e+01
  -2.154880e+02  -2.467237e+02
   4.387333e+00  -3.148764e+02
   2.835088e+02  -1.366994e+02
   3.943244e+02   1.708998e+02
   2.035374e+02   3.800594e+02
  -1.166895e+02   3.344463e+02
  -2.556281e+02   1.223534e+02
  -1.547309e+02  -9.049586e+00
  -9.038924e+01   3.903661e+01
  -2.400714e+02   8.206578e+01
  -4.332609e+02  -5.106696e+01
  -3.623608e+02  -3.053340e+02
  -6.376395e+00  -4.718689e+02
   3.730176e+02  -4.378084e+02
   5.093547e+02  -2.148025e+02
   3.600575e+02   9.522441e+01
   6.609334e+01   3.098661e+02
  -1.385463e+02   2.676235e+02
  -1.001848e+02   2.462130e+01
   1.100934e+02  -1.285931e+02
   2.201497e+02  -8.304392e-01
   7.092767e+01   2.189995e+02
  -1.696106e+02   1.978117e+02
  -1.996796e+02  -6.458892e+01
   1.596961e+01  -2.183913e+02
   2.130272e+02  -4.140548e+01
   1.758752e+02   2.691554e+02
  -3.464071e+01   3.771765e+02
  -2.409464e+02   2.038357e+02
  -3.348534e+02  -6.446704e+01
  -2.895041e+02  -2.455245e+02
  -1.073624e+02  -2.737808e+02
   1.119255e+02  -1.706776e+02
   1.879377e+02  -2.215324e+01
   6.416750e+01   3.854236e+01
  -7.915448e+01  -3.801441e+01
  -3.929673e+01  -1.380266e+02
   1.287719e+02  -1.151785e+02
   1.943599e+02   8.861955e+00
   6.789105e+01   7.758062e+01
  -8.169735e+01   1.931327e+01
  -5.957507e+01  -7.665837e+01
   1.249153e+02  -9.171465e+01
   2.909373e+02  -3.316797e+00
   2.781943e+02   1.396484e+02
   7.383477e+01   2.632719e+02
  -1.830780e+02   2.789896e+02
  -2.976904e+02   1.409092e+02
  -1.861092e+02  -5.332493e+01
   2.300220e+01  -1.215739e+02
   1.010972e+02  -1.091091e+01
  -2.865814e+01   1.141322e+02
  -2.070154e+02   7.209224e+01
  -2.307696e+02  -1.047453e+02
  -7.906000e+01  -2.232460e+02
   9.662109e+01  -1.730137e+02
   1.526830e+02  -3.528307e+01
   7.869464e+01   4.410647e+01
  -2.567469e+01   8.937317e+00
  -4.123181e+01  -8.012283e+01
   6.791117e+01  -1.181918e+02
   2.022959e+02  -3.791339e+01
   2.025157e+02   1.220767e+02
   2.713764e+01   2.294884e+02
  -1.714150e+02   1.773744e+02
  -2.068707e+02   8.216817e+00
  -7.179624e+01  -1.242122e+02
   6.986819e+01  -1.220536e+02
   9.035680e+01  -3.534565e+01
   2.463481e+01   2.600491e+01
  -1.729747e+01   2.067525e+01
   1.175452e+01  -4.477271e+00
   7.013721e+01   1.233701e+01
   8.930814e+01   8.348197e+01
   1.928478e+01   1.611883e+02
  -1.244888e+02   1.598316e+02
  -2.422302e+02   3.408447e+01
  -2.158930e+02  -1.511541e+02
  -4.989676e+01  -2.490042e+02
   1.126520e+02  -1.814940e+02
   1.437676e+02  -3.086424e+01
   7.605190e+01   5.840909e+01
   3.091749e+01   3.932957e+01
   5.457170e+01  -1.074794e+01
   7.881595e+01  -7.108400e+00
   4.015393e+01   4.703580e+01
  -4.169327e+01   8.530317e+01
  -9.843918e+01   5.703992e+01
  -8.361339e+01  -2.882871e+01
   8.720346e+00  -1.063231e+02
   1.357876e+02  -9.110391e+01
   2.015546e+02   4.212011e+01
   1.121357e+02   2.001505e+02
  -1.001295e+02   2.402497e+02
  -2.745606e+02   1.088289e+02
  -2.720744e+02  -8.368954e+01
  -1.196081e+02  -1.841862e+02
   3.800633e+01  -1.560177e+02
   9.943243e+01  -9.002169e+01
   8.525753e+01  -7.279057e+01
   7.111519e+01  -9.382509e+01
   9.393067e+01  -7.630759e+01
   1.297328e+02   2.173307e+01
   1.216590e+02   1.565996e+02
   3.484362e+01   2.327478e+02
  -9.774839e+01   1.807318e+02
  -1.814468e+02   2.602297e+01
  -1.448367e+02  -1.230302e+02
  -2.420537e+01  -1.660974e+02
   6.636823e+01  -9.965745e+01
   6.100389e+01  -5.513578e+00
   6.957058e+00   4.099576e+01
  -5.865400e+00   3.550529e+01
   4.135387e+01   2.077234e+01
   8.183597e+01   2.512157e+01
   4.476304e+01   3.942867e+01
  -6.390292e+01   3.786768e+01
  -1.586225e+02   5.300919e+00
  -1.469514e+02  -4.823312e+01
  -2.057561e+01  -8.719077e+01
   1.182001e+02  -7.535513e+01
   1.469193e+02  -1.598085e+01
   5.059235e+01   3.893487e+01
  -6.065811e+01   3.595038e+01
  -7.737902e+01  -2.041148e+01
  -7.356479e+00  -6.934953e+01
   5.714770e+01  -5.832148e+01
   6.350761e+01   2.122737e+00
   4.402283e+01   4.997335e+01
   4.548850e+01   4.174198e+01
   6.506777e+01   2.090305e+00
   6.843809e+01   2.150114e-01
   3.495753e+01   6.824067e+01
  -3.361741e+01   1.485329e+02
  -1.166444e+02   1.453116e+02
  -1.656213e+02   3.572515e+01
  -1.255336e+02  -9.137454e+01
  -8.195884e+00  -1.274809e+02
   8.683245e+01  -6.184740e+01
   6.080769e+01   1.557358e+01
  -6.108038e+01   2.079409e+01
  -1.430177e+02  -4.343720e+01
  -8.106620e+01  -1.090999e+02
   7.996127e+01  -1.175765e+02
   1.960075e+02  -5.858195e+01
   1.703340e+02   3.054860e+01
   4.252942e+01   8.975769e+01
  -6.113352e+01   7.628739e+01
  -5.212423e+01   1.032069e+01
   3.784908e+01  -2.794223e+01
   9.264636e+01   2.200922e+01
   3.362071e+01   1.221317e+02
  -9.567729e+01   1.591297e+02
  -1.741585e+02   6.348271e+01
  -1.307287e+02  -1.053710e+02
  -1.037938e+01  -2.057499e+02
   8.761366e+01  -1.507899e+02
   1.079858e+02   5.107456e+00
   6.580501e+01   1.213515e+02
   2.892038e+00   1.113736e+02
  -4.572215e+01   2.244092e+01
  -5.628365e+01  -3.183861e+01
  -2.912489e+01  -8.867840e+00
  -2.511622e+00   2.242644e+01
  -1.859790e+01  -1.325039e+01
  -5.889437e+01  -8.943125e+01
  -4.880301e+01  -1.124753e+02
   4.460596e+01  -4.778264e+01
   1.438481e+02   3.814350e+01
   1.370107e+02   7.002333e+01
   1.842880e+01   4.970519e+01
  -9.261171e+01   2.447765e+01
  -9.186805e+01   1.075163e+01
  -9.874948e+00  -7.018709e+00
   4.017497e+01  -2.553631e+01
   1.315949e+01  -2.133535e+01
  -2.287833e+01   1.347065e+00
   7.479997e+00   1.048257e+01
   7.828098e+01   4.595590e+00
   9.274186e+01   2.451914e+01
   4.747422e+00   8.239806e+01
  -1.237389e+02   1.163473e+02
  -1.882000e+02   5.749260e+01
  -1.417215e+02  -7.171334e+01
  -2.550304e+01  -1.663160e+02
   7.916662e+01  -1.518040e+02
   1.156103e+02  -5.891711e+01
   8.303800e+01   2.109583e+01
   2.603952e+01   3.461568e+01
  -3.579116e+00   7.907232e+00
   1.036734e+01   3.484072e+00
   3.560514e+01   4.612885e+01
   2.525188e+01   9.236319e+01
  -3.013452e+01   7.414668e+01
  -8.502851e+01  -1.931499e+01
  -7.946227e+01  -1.128150e+02
  -2.296515e+00  -1.158468e+02
   8.669761e+01  -2.258674e+01
   1.054934e+02   7.939839e+01
   3.115512e+01   1.053849e+02
  -6.889637e+01   5.454267e+01
  -9.892386e+01  -1.266948e+01
  -3.859159e+01  -4.971009e+01
   3.312839e+01  -5.155251e+01
   2.986091e+01  -2.996693e+01
  -3.627710e+01  -1.265449e+00
  -7.007845e+01   7.026953e+00
  -1.298660e+01  -2.465183e+01
   8.201069e+01  -6.815499e+01
   1.171009e+02  -6.174776e+01
   6.356881e+01   1.212642e+01
  -1.649988e+01   8.673252e+01
  -5.338508e+01   8.203427e+01
  -3.722271e+01   4.237931e+00
  -1.786230e+00  -5.864450e+01
   2.605559e+01  -4.333459e+01
   3.756283e+01   1.992063e+01
   2.738268e+01   5.483052e+01
  -3.436883e+00   3.185860e+01
  -3.427308e+01  -9.090866e+00
  -4.044364e+01  -1.980277e+01
  -2.121639e+01   5.420557e-01
  -6.370790e-01   1.342510e+01
   6.022232e+00  -6.465229e+00
   8.352430e+00  -3.996313e+01
   2.024661e+01  -4.546377e+01
   3.431684e+01  -5.619855e+00
   2.880749e+01   4.815042e+01
  -4.691178e+00   6.264504e+01
  -4.552750e+01   1.956034e+01
  -5.536718e+01  -4.193740e+01
  -1.328008e+01  -6.517730e+01
   5.550888e+01  -3.390039e+01
   8.951141e+01   1.689922e+01
   4.961705e+01   4.514642e+01
  -2.943193e+01   4.053402e+01
  -6.566945e+01   2.052330e+01
  -2.287329e+01   4.725049e+00
   4.063241e+01   3.830251e+00
   3.911765e+01   1.873571e+01
  -3.447868e+01   3.405524e+01
  -9.766726e+01   2.038892e+01
