
 $NMID
 id='ANONYMOUS ', fmtdat='(2E16.6)'
 volume=1.0
 tramp=1.0
 $END
   4.004064e+03   1.358515e+01
   2.649568e+03   2.683958e+03
  -7.542743e+02   3.014862e+03
  -1.856067e+03   8.930591e+02
  -9.851958e+02  -6.536817e+02
   5.475268e+02  -6.086649e+02
   8.604281e+02   4.093581e+02
   4.980071e+01   1.065770e+03
  -9.260042e+02   7.714514e+02
  -1.037573e+03  -4.584671e+01
  -4.418588e+02  -7.081458e+02
   1.951131e+02  -8.233631e+02
   6.015588e+02  -1.256299e+02
   4.006033e+02   6.069012e+02
  -2.311266e+02   7.087812e+02
  -6.111702e+02  -3.262383e+01
  -3.175916e+02  -7.242507e+02
   2.700328e+02  -6.413569e+02
   5.697084e+02  -1.349682e+02
   3.979506e+02   3.317381e+02
   2.324795e+01   4.503800e+02
  -2.086476e+02   2.491434e+02
  -1.388752e+02  -1.759336e+01
   1.738322e+02  -9.448422e+01
   3.995157e+02   9.690503e+01
   1.588871e+02   3.952082e+02
  -4.900435e+02   4.264669e+02
  -8.389594e+02  -5.499460e+01
  -3.950635e+02  -5.208049e+02
   4.015874e+02  -4.611099e+02
   6.955712e+02   8.754028e+00
   3.096742e+02   4.570499e+02
  -2.926413e+02   4.996251e+02
  -5.526837e+02   1.970856e+02
  -3.932964e+02  -2.314641e+02
  -7.827780e+01  -4.822615e+02
   1.580926e+02  -2.690741e+02
   1.374450e+02   2.086362e+02
  -1.716216e+02   4.360107e+02
  -4.266992e+02  -2.361289e+01
  -2.285291e+02  -6.895198e+02
   3.123694e+02  -7.068049e+02
   5.812795e+02  -5.949851e+00
   2.273013e+02   5.485486e+02
  -3.071210e+02   3.171721e+02
  -3.839642e+02  -3.265014e+02
   7.608397e+01  -5.639028e+02
   5.663327e+02  -1.524397e+02
   5.914935e+02   3.931721e+02
   1.539422e+02   5.695759e+02
  -3.818575e+02   3.355408e+02
  -6.123237e+02  -7.860194e+01
  -3.513804e+02  -3.734114e+02
   1.579248e+02  -3.528667e+02
   4.269745e+02  -5.607904e+01
   2.250196e+02   1.823353e+02
  -1.213510e+02   9.425839e+01
  -1.405281e+02  -1.570404e+02
   1.620581e+02  -1.940606e+02
   3.478919e+02   5.313096e+01
   1.619120e+02   2.792845e+02
  -1.690918e+02   2.613357e+02
  -3.076259e+02   9.607156e+01
  -1.963364e+02  -6.405469e+01
   1.057284e+01  -2.165219e+02
   2.039101e+02  -3.297535e+02
   3.224514e+02  -2.277972e+02
   2.835973e+02   1.200505e+02
   8.871546e+01   4.140751e+02
  -8.878085e+01   3.651968e+02
  -9.053757e+01   1.063260e+02
  -7.057989e+00  -4.548558e+00
  -3.911716e+01   9.629871e+01
  -1.945178e+02   1.357556e+02
  -2.740539e+02  -4.702992e+01
  -1.559827e+02  -2.628243e+02
   6.668043e+01  -2.512259e+02
   2.195647e+02  -1.637780e+01
   1.986932e+02   2.237909e+02
   6.275861e+00   2.792489e+02
  -2.459733e+02   1.186941e+02
  -3.532572e+02  -1.446916e+02
  -1.963371e+02  -3.301443e+02
   8.586394e+01  -3.008716e+02
   2.214662e+02  -1.205906e+02
   1.451071e+02  -3.863065e-01
   8.089583e+01  -3.144946e+01
   2.056210e+02  -8.013123e+01
   3.807287e+02   2.013512e+01
   3.359121e+02   2.467991e+02
   2.511325e+01   4.276283e+02
  -3.297224e+02   4.171551e+02
  -4.655584e+02   2.096843e+02
  -3.249513e+02  -8.444347e+01
  -5.715403e+01  -2.834074e+02
   1.226500e+02  -2.448205e+02
   7.635002e+01  -2.678214e+01
  -1.083119e+02   1.097877e+02
  -1.938301e+02   2.181836e+00
  -5.585766e+01  -1.842258e+02
   1.520017e+02  -1.687707e+02
   1.731247e+02   4.914049e+01
  -1.162825e+01   1.828860e+02
  -1.874326e+02   4.070910e+01
  -1.694204e+02  -2.245379e+02
   1.034389e+01  -3.331532e+02
   2.064143e+02  -2.008812e+02
   3.122656e+02   3.647703e+01
   2.791573e+02   2.122509e+02
   1.055041e+02   2.516932e+02
  -1.035666e+02   1.608818e+02
  -1.734149e+02   2.287801e+01
  -5.798129e+01  -3.582065e+01
   7.261527e+01   3.132409e+01
   3.662655e+01   1.202040e+02
  -1.153958e+02   1.019394e+02
  -1.731504e+02  -6.176158e+00
  -5.675972e+01  -6.921575e+01
   8.064485e+01  -2.100031e+01
   6.026560e+01   6.616790e+01
  -1.119589e+02   8.957003e+01
  -2.686979e+02   1.816607e+01
  -2.588314e+02  -1.145916e+02
  -7.225285e+01  -2.386781e+02
   1.613969e+02  -2.616870e+02
   2.649309e+02  -1.373109e+02
   1.661204e+02   4.349540e+01
  -1.995775e+01   1.106043e+02
  -9.125532e+01   1.254301e+01
   2.248374e+01  -1.031953e+02
   1.832701e+02  -7.029695e+01
   2.101353e+02   8.690569e+01
   7.736727e+01   1.958202e+02
  -8.236540e+01   1.543412e+02
  -1.366474e+02   3.178468e+01
  -6.910984e+01  -3.842493e+01
   2.811525e+01  -4.456256e+00
   4.181506e+01   7.842154e+01
  -6.171515e+01   1.119573e+02
  -1.886620e+02   3.663456e+01
  -1.895319e+02  -1.105830e+02
  -2.797830e+01  -2.100761e+02
   1.556142e+02  -1.645148e+02
   1.895519e+02  -1.151095e+01
   6.710286e+01   1.110068e+02
  -6.225846e+01   1.117426e+02
  -8.073649e+01   3.271385e+01
  -1.843103e+01  -2.424161e+01
   2.128531e+01  -1.806502e+01
  -7.976661e+00   8.031927e+00
  -6.826165e+01  -5.760789e+00
  -8.923527e+01  -7.342448e+01
  -2.391782e+01  -1.493298e+02
   1.120277e+02  -1.524941e+02
   2.228787e+02  -3.731853e+01
   2.009556e+02   1.326188e+02
   5.084857e+01   2.248464e+02
  -9.725410e+01   1.671922e+02
  -1.297933e+02   3.160146e+01
  -6.904609e+01  -5.028530e+01
  -2.863828e+01  -3.343663e+01
  -5.101284e+01   1.232565e+01
  -7.557681e+01   7.165003e+00
  -4.091202e+01  -4.554829e+01
   3.816864e+01  -8.312755e+01
   9.446551e+01  -5.641107e+01
   8.296765e+01   2.918078e+01
  -6.606714e+00   1.065455e+02
  -1.301769e+02   9.129410e+01
  -1.919878e+02  -3.777106e+01
  -1.084327e+02  -1.892211e+02
   8.852771e+01  -2.254280e+02
   2.511803e+02  -1.048204e+02
   2.520294e+02   7.097222e+01
   1.133481e+02   1.638120e+02
  -3.020656e+01   1.412364e+02
  -8.609152e+01   8.482551e+01
  -7.203765e+01   7.106315e+01
  -5.928185e+01   9.001270e+01
  -8.478634e+01   7.461456e+01
  -1.233690e+02  -1.513738e+01
  -1.198656e+02  -1.413158e+02
  -3.877544e+01  -2.150730e+02
   8.846517e+01  -1.700213e+02
   1.706078e+02  -2.700679e+01
   1.387334e+02   1.130453e+02
   2.478193e+01   1.551497e+02
  -6.357550e+01   9.276858e+01
  -6.007782e+01   2.170106e+00
  -6.529852e+00  -4.216484e+01
   9.994030e+00  -3.325901e+01
  -3.451690e+01  -1.368594e+01
  -7.755255e+01  -1.632546e+01
  -4.640439e+01  -3.520243e+01
   5.763664e+01  -4.040835e+01
   1.505618e+02  -1.116607e+01
   1.402771e+02   4.381950e+01
   1.907203e+01   8.586624e+01
  -1.136723e+02   7.626018e+01
  -1.412810e+02   1.762936e+01
  -5.026915e+01  -3.853863e+01
   5.639522e+01  -3.933321e+01
   7.576262e+01   1.281941e+01
   1.308434e+01   6.172926e+01
  -4.876773e+01   5.575274e+01
  -5.946118e+01   2.470115e+00
  -4.341447e+01  -4.195795e+01
  -4.198614e+01  -3.502321e+01
  -5.761402e+01   2.143009e+00
  -6.371226e+01   4.002682e+00
  -3.960069e+01  -6.088303e+01
   2.088222e+01  -1.402711e+02
   1.026754e+02  -1.430625e+02
   1.558359e+02  -4.256689e+01
   1.233756e+02   8.113772e+01
   1.259086e+01   1.229563e+02
  -7.977904e+01   6.510838e+01
  -5.850928e+01  -1.189620e+01
   5.519033e+01  -2.417423e+01
   1.329756e+02   3.350173e+01
   7.680655e+01   9.868428e+01
  -7.231899e+01   1.113566e+02
  -1.799099e+02   5.896208e+01
  -1.567856e+02  -2.427839e+01
  -3.954236e+01  -8.142151e+01
   5.554301e+01  -7.167513e+01
   4.774813e+01  -1.130586e+01
  -3.420806e+01   2.717979e+01
  -8.675698e+01  -1.548120e+01
  -3.764144e+01  -1.089296e+02
   7.823990e+01  -1.498347e+02
   1.553878e+02  -6.714257e+01
   1.252270e+02   8.921239e+01
   1.903791e+01   1.867529e+02
  -7.564286e+01   1.397154e+02
  -1.009643e+02  -3.479685e+00
  -6.254730e+01  -1.108229e+02
  -9.506636e-01  -1.010084e+02
   4.434833e+01  -1.898387e+01
   5.016315e+01   2.970870e+01
   2.300356e+01   7.338712e+00
   1.813131e+00  -2.205989e+01
   2.064178e+01   1.069185e+01
   5.716165e+01   8.118778e+01
   4.424442e+01   1.037134e+02
  -4.279473e+01   4.591238e+01
  -1.321184e+02  -3.274369e+01
  -1.252266e+02  -6.360231e+01
  -1.828862e+01  -4.645077e+01
   8.274368e+01  -2.340672e+01
   8.401720e+01  -1.007271e+01
   1.097128e+01   6.456728e+00
  -3.619508e+01   2.321916e+01
  -1.356148e+01   1.946099e+01
   1.980466e+01  -7.884362e-01
  -6.271385e+00  -8.275746e+00
  -7.253415e+01  -1.605629e+00
  -9.072403e+01  -2.013223e+01
  -1.302383e+01  -7.749955e+01
   1.087630e+02  -1.153503e+02
   1.761017e+02  -6.465113e+01
   1.384440e+02   5.816019e+01
   3.064803e+01   1.536361e+02
  -6.968608e+01   1.456208e+02
  -1.060317e+02   5.899129e+01
  -7.670140e+01  -1.852521e+01
  -2.428822e+01  -3.279132e+01
   3.103193e+00  -7.680263e+00
  -9.819759e+00  -2.918815e+00
  -3.404879e+01  -4.252289e+01
  -2.603077e+01  -8.543457e+01
   2.518629e+01  -6.973980e+01
   7.928089e+01   1.417468e+01
   7.885268e+01   9.974319e+01
   8.742375e+00   1.063537e+02
  -7.781718e+01   2.611726e+01
  -1.009982e+02  -6.687518e+01
  -3.435644e+01  -9.626361e+01
   6.069764e+01  -5.512353e+01
   9.271777e+01   7.181361e+00
   3.859123e+01   4.597588e+01
  -2.895143e+01   5.005702e+01
  -2.790488e+01   2.797999e+01
   3.297373e+01  -1.221904e+00
   6.565032e+01  -8.001700e+00
   1.403094e+01   2.463629e+01
  -7.527238e+01   6.683347e+01
  -1.103253e+02   5.975163e+01
  -6.259870e+01  -1.104264e+01
   1.206419e+01  -8.264699e+01
   4.847003e+01  -8.005581e+01
   3.620296e+01  -7.881742e+00
   4.871390e+00   5.319625e+01
  -2.149810e+01   4.224107e+01
  -3.411589e+01  -1.511162e+01
  -2.665921e+01  -4.890501e+01
   1.393581e+00  -2.969354e+01
   3.129227e+01   7.854850e+00
   3.722452e+01   1.837798e+01
   1.743745e+01  -4.066504e-01
  -3.280819e+00  -1.418876e+01
  -6.826410e+00   2.214936e+00
  -3.413978e+00   3.373439e+01
  -1.184272e+01   4.174125e+01
  -2.896412e+01   7.996275e+00
  -3.022303e+01  -4.094143e+01
  -3.978561e-01  -5.704885e+01
   4.170179e+01  -2.073961e+01
   5.535027e+01   3.540068e+01
   1.613270e+01   6.012047e+01
  -5.092809e+01   3.549594e+01
  -8.528956e+01  -1.063661e+01
  -4.889696e+01  -4.022993e+01
   2.519020e+01  -4.054359e+01
   6.030595e+01  -2.326705e+01
   2.257077e+01  -5.684573e+00
  -3.558859e+01  -7.276898e-01
  -3.650255e+01  -1.347963e+01
   2.795096e+01  -3.059607e+01
   8.582730e+01  -2.171624e+01
