
 $NMID
 id='ANONYMOUS ', fmtdat='(2E16.6)'
 volume=1.0
 tramp=1.0
 $END
   4.591528e+03  -1.032658e+02
   2.644083e+03   3.289043e+03
  -9.073786e+02   3.247655e+03
  -2.417844e+03   7.380314e+02
  -1.135950e+03  -9.606857e+02
   8.442100e+02  -7.782291e+02
   1.020663e+03   6.358963e+02
  -3.653530e+01   1.274250e+03
  -1.127214e+03   8.199589e+02
  -1.098776e+03  -1.381301e+02
  -4.583921e+02  -9.969264e+02
   3.505608e+02  -9.544121e+02
   8.649899e+02  -6.140707e+01
   4.486304e+02   8.490837e+02
  -3.379684e+02   8.975547e+02
  -7.411676e+02  -1.817111e+01
  -3.064546e+02  -8.084814e+02
   4.223762e+02  -6.782623e+02
   6.780951e+02  -6.699810e+01
   4.167569e+02   5.056753e+02
   1.092669e+01   5.311365e+02
  -2.876694e+02   2.867175e+02
  -2.567071e+02  -3.016117e+01
   1.089108e+02  -1.513650e+02
   4.680756e+02   8.792995e+01
   2.574706e+02   4.942856e+02
  -5.204314e+02   5.298346e+02
  -9.820886e+02  -5.427781e+01
  -5.110349e+02  -6.423841e+02
   4.535354e+02  -6.349282e+02
   8.913235e+02   2.462657e+01
   4.126188e+02   6.088910e+02
  -3.241740e+02   6.198378e+02
  -6.622744e+02   2.164176e+02
  -5.057182e+02  -2.912815e+02
  -8.246629e+01  -5.828267e+02
   2.749638e+02  -3.386875e+02
   2.409935e+02   2.930930e+02
  -1.847009e+02   5.532048e+02
  -5.690752e+02  -9.084603e+00
  -3.266298e+02  -8.264817e+02
   3.985958e+02  -8.558886e+02
   7.608711e+02   6.798437e+00
   3.152914e+02   6.833997e+02
  -3.814718e+02   3.825498e+02
  -4.845287e+02  -3.984450e+02
   8.621469e+01  -6.747581e+02
   6.703299e+02  -1.572413e+02
   6.917263e+02   4.942158e+02
   1.730757e+02   6.907939e+02
  -4.605488e+02   3.947297e+02
  -7.275693e+02  -1.144859e+02
  -4.150286e+02  -4.782882e+02
   2.097576e+02  -4.409215e+02
   5.341011e+02  -4.841593e+01
   2.726428e+02   2.631438e+02
  -1.577879e+02   1.365415e+02
  -1.664234e+02  -1.962688e+02
   2.159971e+02  -2.265818e+02
   4.158812e+02   1.070507e+02
   1.455790e+02   3.648813e+02
  -2.569337e+02   2.774081e+02
  -3.700941e+02   4.601847e+01
  -1.943379e+02  -9.890966e+01
   4.068154e+01  -2.165919e+02
   2.391356e+02  -3.430724e+02
   3.779622e+02  -2.556360e+02
   3.418888e+02   1.459136e+02
   9.035918e+01   5.109142e+02
  -1.580289e+02   4.538076e+02
  -1.688260e+02   1.170670e+02
  -3.314926e+01  -4.146380e+01
  -3.053857e+01   8.364384e+01
  -2.063097e+02   1.542937e+02
  -3.171970e+02  -5.130045e+01
  -1.878815e+02  -3.087183e+02
   8.161240e+01  -2.983295e+02
   2.635249e+02  -1.827265e+01
   2.291546e+02   2.711363e+02
  -1.089683e+01   3.383173e+02
  -3.039894e+02   1.414894e+02
  -4.104693e+02  -1.853285e+02
  -2.100921e+02  -4.086790e+02
   1.238603e+02  -3.557707e+02
   2.725761e+02  -1.316869e+02
   1.797550e+02   1.209984e+01
   1.112913e+02  -2.558725e+01
   2.547593e+02  -6.397637e+01
   4.366453e+02   7.644556e+01
   3.565418e+02   3.314001e+02
  -1.556237e+01   4.966007e+02
  -4.095964e+02   4.491106e+02
  -5.497967e+02   2.138164e+02
  -3.860186e+02  -1.110027e+02
  -6.265068e+01  -3.405079e+02
   1.594150e+02  -2.947059e+02
   1.050602e+02  -3.281232e+01
  -1.253398e+02   1.329823e+02
  -2.317762e+02  -2.134619e+00
  -5.674136e+01  -2.329856e+02
   1.976327e+02  -2.049010e+02
   2.131608e+02   7.437506e+01
  -2.829767e+01   2.263142e+02
  -2.256116e+02   3.210681e+01
  -1.658270e+02  -2.883305e+02
   6.451763e+01  -3.848182e+02
   2.669431e+02  -1.898477e+02
   3.453144e+02   9.236134e+01
   2.883432e+02   2.713190e+02
   1.006235e+02   2.909262e+02
  -1.261885e+02   1.785973e+02
  -2.039342e+02   2.363459e+01
  -7.277019e+01  -4.025814e+01
   7.773565e+01   3.862376e+01
   3.556605e+01   1.407716e+02
  -1.423011e+02   1.143373e+02
  -2.079442e+02  -1.572510e+01
  -7.036248e+01  -8.640890e+01
   8.819930e+01  -2.363867e+01
   6.117399e+01   7.438125e+01
  -1.348766e+02   8.543751e+01
  -3.045032e+02  -1.064901e+01
  -2.815544e+02  -1.578606e+02
  -6.045719e+01  -2.793028e+02
   2.078058e+02  -2.868025e+02
   3.209681e+02  -1.383038e+02
   1.968658e+02   6.258495e+01
  -2.514719e+01   1.291703e+02
  -1.056376e+02   1.220833e+01
   3.390667e+01  -1.144686e+02
   2.207388e+02  -6.532443e+01
   2.402417e+02   1.209409e+02
   7.350750e+01   2.399152e+02
  -1.127916e+02   1.800775e+02
  -1.665586e+02   3.239817e+01
  -8.258892e+01  -4.819799e+01
   2.635537e+01  -7.900259e+00
   3.749827e+01   8.526107e+01
  -7.981440e+01   1.192952e+02
  -2.173290e+02   3.023498e+01
  -2.105215e+02  -1.370191e+02
  -2.124819e+01  -2.439566e+02
   1.873520e+02  -1.836931e+02
   2.199183e+02  -4.813448e+00
   7.233517e+01   1.311304e+02
  -7.806486e+01   1.255728e+02
  -9.623303e+01   3.371968e+01
  -2.308296e+01  -2.853407e+01
   2.107837e+01  -2.253659e+01
  -1.172109e+01   2.489620e+00
  -7.226203e+01  -1.700989e+01
  -8.653601e+01  -9.182203e+01
  -8.638915e+00  -1.694177e+02
   1.408886e+02  -1.618485e+02
   2.564468e+02  -2.280711e+01
   2.214090e+02   1.725966e+02
   4.215553e+01   2.706352e+02
  -1.296146e+02   1.908355e+02
  -1.567059e+02   2.529689e+01
  -7.823320e+01  -6.823663e+01
  -3.110735e+01  -4.468462e+01
  -6.077077e+01   9.814418e+00
  -8.814370e+01   2.966512e+00
  -4.061582e+01  -5.686476e+01
   5.378566e+01  -9.259482e+01
   1.135609e+02  -5.254452e+01
   8.792062e+01   4.138921e+01
  -1.886764e+01   1.158205e+02
  -1.537584e+02   8.684554e+01
  -2.128010e+02  -6.013216e+01
  -1.083032e+02  -2.216944e+02
   1.192095e+02  -2.501708e+02
   2.983632e+02  -1.020724e+02
   2.880676e+02   1.014633e+02
   1.196833e+02   2.018317e+02
  -4.708315e+01   1.649522e+02
  -1.092008e+02   9.072105e+01
  -9.226088e+01   7.321139e+01
  -7.805872e+01   9.755625e+01
  -1.042779e+02   7.929439e+01
  -1.395641e+02  -2.735447e+01
  -1.251334e+02  -1.729775e+02
  -2.787997e+01  -2.511461e+02
   1.131055e+02  -1.901141e+02
   1.966868e+02  -2.126441e+01
   1.516746e+02   1.365358e+02
   2.033570e+01   1.783394e+02
  -7.535527e+01   1.043759e+02
  -6.676937e+01   4.290263e+00
  -6.410465e+00  -4.321082e+01
   9.137214e+00  -3.655997e+01
  -4.138121e+01  -2.255623e+01
  -8.660555e+01  -2.895470e+01
  -4.857295e+01  -4.332935e+01
   6.809653e+01  -3.811726e+01
   1.707560e+02   1.470930e-01
   1.573091e+02   5.809775e+01
   1.858567e+01   9.724228e+01
  -1.330426e+02   8.054250e+01
  -1.626026e+02   1.381532e+01
  -5.464604e+01  -4.535168e+01
   6.750212e+01  -4.025255e+01
   8.262554e+01   2.259301e+01
   2.789214e+00   7.544374e+01
  -6.724928e+01   6.152322e+01
  -6.969651e+01  -5.361326e+00
  -4.425389e+01  -5.815538e+01
  -4.550883e+01  -4.929575e+01
  -6.855277e+01  -6.316444e+00
  -7.173436e+01  -3.833030e+00
  -3.289833e+01  -7.460948e+01
   4.244349e+01  -1.575345e+02
   1.291396e+02  -1.504690e+02
   1.775695e+02  -3.151666e+01
   1.330267e+02   1.031499e+02
   7.192696e+00   1.374346e+02
  -9.403435e+01   6.355834e+01
  -6.594875e+01  -1.850850e+01
   6.505122e+01  -1.899248e+01
   1.512549e+02   5.315415e+01
   8.233711e+01   1.205039e+02
  -9.133116e+01   1.223096e+02
  -2.128451e+02   5.474571e+01
  -1.802177e+02  -3.860804e+01
  -4.093585e+01  -9.638968e+01
   6.725662e+01  -7.897307e+01
   5.356200e+01  -1.036438e+01
  -4.278909e+01   2.705057e+01
  -9.771966e+01  -2.772387e+01
  -3.096913e+01  -1.322053e+02
   1.076893e+02  -1.670438e+02
   1.886698e+02  -6.191165e+01
   1.373227e+02   1.167697e+02
   4.647315e+00   2.191440e+02
  -9.921472e+01   1.568596e+02
  -1.149830e+02  -9.384691e+00
  -6.408858e+01  -1.307573e+02
   2.685256e+00  -1.175544e+02
   4.960942e+01  -2.146127e+01
   5.791483e+01   3.648458e+01
   3.072688e+01   1.121058e+01
   4.475683e+00  -2.320808e+01
   1.922939e+01   1.558098e+01
   5.749778e+01   9.925669e+01
   4.534505e+01   1.239619e+02
  -5.103117e+01   4.984312e+01
  -1.531942e+02  -4.864225e+01
  -1.447022e+02  -8.351294e+01
  -1.832720e+01  -5.513538e+01
   1.004500e+02  -2.146999e+01
   9.931103e+01  -7.010277e+00
   9.911846e+00   7.004494e+00
  -4.543535e+01   2.411729e+01
  -1.565721e+01   2.124353e+01
   2.541870e+01  -1.517587e+00
  -6.038585e+00  -1.303320e+01
  -8.288581e+01  -8.569813e+00
  -9.878615e+01  -2.829719e+01
  -2.551514e+00  -8.694518e+01
   1.371026e+02  -1.211300e+02
   2.046285e+02  -5.745597e+01
   1.498759e+02   8.096114e+01
   2.094385e+01   1.810344e+02
  -9.147418e+01   1.616951e+02
  -1.271046e+02   5.776952e+01
  -8.849531e+01  -2.882919e+01
  -2.594446e+01  -4.037294e+01
   5.705290e+00  -8.823170e+00
  -8.959762e+00  -3.691688e+00
  -3.505388e+01  -5.022236e+01
  -2.333842e+01  -9.923687e+01
   3.445878e+01  -7.792411e+01
   9.001172e+01   2.370035e+01
   8.158924e+01   1.238065e+02
  -9.623615e-01   1.253752e+02
  -9.375850e+01   2.241192e+01
  -1.112012e+02  -8.953017e+01
  -3.007634e+01  -1.163568e+02
   7.665409e+01  -5.685827e+01
   1.068531e+02   1.925378e+01
   3.921618e+01   5.740640e+01
  -3.969783e+01   5.391294e+01
  -3.515877e+01   2.804442e+01
   3.952378e+01  -4.586823e-01
   7.830294e+01  -5.867127e+00
   1.564697e+01   2.813213e+01
  -8.977023e+01   7.159705e+01
  -1.281970e+02   6.303298e+01
  -6.806136e+01  -1.457378e+01
   2.090767e+01  -9.180349e+01
   5.987693e+01  -8.551382e+01
   3.918261e+01  -2.436234e+00
  -1.194969e+00   6.400255e+01
  -3.034048e+01   4.575833e+01
  -4.023015e+01  -2.444427e+01
  -2.728876e+01  -6.226367e+01
   5.922642e+00  -3.507331e+01
   3.803892e+01   1.251417e+01
   4.328923e+01   2.573073e+01
   2.147081e+01   2.750121e+00
  -1.407502e+00  -1.383810e+01
  -8.625796e+00   5.076753e+00
  -1.124725e+01   4.064053e+01
  -2.368191e+01   4.695942e+01
  -3.791283e+01   4.350401e+00
  -3.027152e+01  -5.333342e+01
   7.619227e+00  -6.869131e+01
   5.128656e+01  -2.130579e+01
   5.995150e+01   4.597915e+01
   1.289483e+01   7.072547e+01
  -6.086891e+01   3.531657e+01
  -9.587823e+01  -2.117302e+01
  -5.182181e+01  -5.095472e+01
   3.334911e+01  -4.320126e+01
   7.248764e+01  -1.963656e+01
   2.662383e+01  -3.441574e+00
  -4.241587e+01  -4.413290e+00
  -4.228870e+01  -2.033377e+01
   3.571886e+01  -3.441879e+01
   1.035048e+02  -1.805239e+01
