
 $NMID
 id='ANONYMOUS ', fmtdat='(2E16.6)'
 volume=1.0
 tramp=1.0
 $END
  -4.934218e+03   1.942035e+01
  -2.602869e+03  -3.069862e+03
   1.056476e+03  -2.884434e+03
   2.157136e+03  -9.474971e+02
   8.535475e+02   8.778246e+02
  -9.544975e+02   5.857934e+02
  -1.004584e+03  -5.544412e+02
   9.437457e+01  -1.207802e+03
   9.331985e+02  -8.877673e+02
   1.035421e+03   1.026264e+02
   5.295896e+02   9.709117e+02
  -2.430944e+02   9.352262e+02
  -7.243329e+02   1.014754e+02
  -3.405002e+02  -8.214059e+02
   3.735086e+02  -8.683657e+02
   7.205277e+02   5.415223e+01
   2.935414e+02   7.072772e+02
  -3.838041e+02   6.883009e+02
  -6.262178e+02   8.248963e+01
  -4.241339e+02  -4.051759e+02
  -4.295241e+01  -5.053043e+02
   2.845623e+02  -2.938131e+02
   2.667744e+02   2.102313e-02
  -1.086831e+02   1.193255e+02
  -4.450774e+02  -1.203354e+02
  -2.360033e+02  -4.881571e+02
   4.950508e+02  -4.673294e+02
   9.280800e+02   9.721114e+01
   4.506537e+02   6.385976e+02
  -4.381469e+02   5.438037e+02
  -8.011366e+02  -5.068875e+01
  -3.559579e+02  -5.400540e+02
   3.117321e+02  -5.512923e+02
   5.945559e+02  -2.107286e+02
   4.530740e+02   2.407653e+02
   7.441019e+01   5.140624e+02
  -2.307225e+02   3.014179e+02
  -2.214298e+02  -2.460444e+02
   1.749474e+02  -4.890813e+02
   5.056978e+02   1.347362e+01
   2.793201e+02   7.318804e+02
  -3.482849e+02   7.696464e+02
  -6.736871e+02   4.421403e+00
  -3.015524e+02  -6.164047e+02
   3.250820e+02  -3.528652e+02
   4.496069e+02   3.534345e+02
  -5.337345e+01   6.019849e+02
  -5.981699e+02   1.661132e+02
  -6.554609e+02  -4.294122e+02
  -1.853169e+02  -6.323326e+02
   4.240633e+02  -3.842553e+02
   6.919601e+02   7.952957e+01
   4.015283e+02   4.261154e+02
  -1.854797e+02   4.060188e+02
  -4.933393e+02   5.922896e+01
  -2.566773e+02  -2.240187e+02
   1.429305e+02  -1.212692e+02
   1.612073e+02   1.734013e+02
  -1.836231e+02   2.050498e+02
  -3.807804e+02  -9.253031e+01
  -1.458006e+02  -3.381961e+02
   2.377717e+02  -2.751915e+02
   3.698639e+02  -5.649346e+01
   2.109645e+02   1.110495e+02
  -3.505136e+01   2.447782e+02
  -2.441418e+02   3.438148e+02
  -3.686742e+02   2.266438e+02
  -3.194759e+02  -1.559671e+02
  -8.251390e+01  -4.775332e+02
   1.368791e+02  -4.115612e+02
   1.356048e+02  -1.058994e+02
   1.293900e+01   2.721073e+01
   2.551764e+01  -9.820867e+01
   2.062252e+02  -1.633464e+02
   3.155828e+02   3.796910e+01
   1.848516e+02   2.919776e+02
  -8.152907e+01   2.901861e+02
  -2.582348e+02   2.031821e+01
  -2.202310e+02  -2.631421e+02
   1.614924e+01  -3.255393e+02
   2.951190e+02  -1.356074e+02
   3.924062e+02   1.779052e+02
   1.992813e+02   3.784596e+02
  -1.105064e+02   3.285842e+02
  -2.445877e+02   1.250381e+02
  -1.550391e+02   2.650795e+00
  -9.772405e+01   4.461272e+01
  -2.444751e+02   8.266373e+01
  -4.264820e+02  -5.285981e+01
  -3.603578e+02  -3.025415e+02
  -1.158351e+01  -4.751724e+02
   3.698236e+02  -4.439556e+02
   5.185666e+02  -2.159590e+02
   3.683127e+02   9.979389e+01
   6.484193e+01   3.171293e+02
  -1.444590e+02   2.687874e+02
  -9.446901e+01   2.256523e+01
   1.186844e+02  -1.237823e+02
   2.158152e+02   5.748413e+00
   5.412469e+01   2.165257e+02
  -1.780871e+02   1.856154e+02
  -1.902418e+02  -6.930264e+01
   2.977035e+01  -2.089468e+02
   2.164554e+02  -2.825096e+01
   1.694124e+02   2.740650e+02
  -4.405047e+01   3.737790e+02
  -2.509998e+02   2.003988e+02
  -3.459030e+02  -6.810625e+01
  -2.937338e+02  -2.500804e+02
  -1.030972e+02  -2.779603e+02
   1.188691e+02  -1.723033e+02
   1.898010e+02  -2.580366e+01
   6.147902e+01   3.198674e+01
  -7.907862e+01  -4.328347e+01
  -3.522234e+01  -1.371889e+02
   1.352169e+02  -1.104002e+02
   1.980121e+02   1.270603e+01
   6.726739e+01   8.057700e+01
  -8.599765e+01   2.183895e+01
  -6.250306e+01  -7.611004e+01
   1.291517e+02  -9.334111e+01
   3.001573e+02  -1.518744e+00
   2.820976e+02   1.488892e+02
   6.567889e+01   2.749936e+02
  -1.971872e+02   2.829806e+02
  -3.067021e+02   1.376642e+02
  -1.868421e+02  -5.607691e+01
   2.353936e+01  -1.194711e+02
   9.657670e+01  -9.599917e+00
  -3.674720e+01   1.085832e+02
  -2.123710e+02   6.210260e+01
  -2.306926e+02  -1.136126e+02
  -7.328820e+01  -2.275936e+02
   1.044573e+02  -1.727730e+02
   1.583652e+02  -3.193021e+01
   7.883743e+01   4.795001e+01
  -2.920542e+01   9.506158e+00
  -4.302032e+01  -8.375479e+01
   7.166195e+01  -1.209263e+02
   2.085958e+02  -3.635992e+01
   2.049263e+02   1.269908e+02
   2.398376e+01   2.328408e+02
  -1.760102e+02   1.776292e+02
  -2.079579e+02   7.478147e+00
  -6.959017e+01  -1.246762e+02
   7.215099e+01  -1.210995e+02
   9.075351e+01  -3.347017e+01
   2.253657e+01   2.819055e+01
  -2.119900e+01   2.189706e+01
   8.713016e+00  -5.026102e+00
   6.999426e+01   1.135953e+01
   8.938909e+01   8.478478e+01
   1.664116e+01   1.630279e+02
  -1.305334e+02   1.593708e+02
  -2.461249e+02   2.957917e+01
  -2.150244e+02  -1.561554e+02
  -4.606523e+01  -2.525482e+02
   1.149656e+02  -1.846200e+02
   1.438777e+02  -3.234878e+01
   7.553400e+01   5.860746e+01
   3.313442e+01   4.007667e+01
   5.903737e+01  -1.068498e+01
   8.431970e+01  -6.949538e+00
   4.187576e+01   5.062017e+01
  -4.566992e+01   8.940159e+01
  -1.054204e+02   5.685094e+01
  -8.635018e+01  -3.596698e+01
   1.459606e+01  -1.121940e+02
   1.459642e+02  -8.716429e+01
   2.065152e+02   5.314363e+01
   1.077865e+02   2.100819e+02
  -1.098087e+02   2.414939e+02
  -2.811721e+02   1.037943e+02
  -2.742345e+02  -9.020171e+01
  -1.185584e+02  -1.887279e+02
   4.029294e+01  -1.588461e+02
   1.018606e+02  -9.003127e+01
   8.839771e+01  -7.149604e+01
   7.419628e+01  -9.318338e+01
   9.784212e+01  -7.643672e+01
   1.320404e+02   2.325051e+01
   1.214245e+02   1.615814e+02
   3.200919e+01   2.380596e+02
  -1.015161e+02   1.831547e+02
  -1.840502e+02   2.519707e+01
  -1.462192e+02  -1.250143e+02
  -2.462423e+01  -1.679574e+02
   6.767222e+01  -1.007664e+02
   6.325234e+01  -5.803328e+00
   8.018633e+00   4.157039e+01
  -7.815074e+00   3.682714e+01
   3.919879e+01   2.186811e+01
   8.246338e+01   2.576829e+01
   4.635030e+01   4.029653e+01
  -6.571211e+01   3.878164e+01
  -1.639773e+02   4.474050e+00
  -1.508604e+02  -5.206879e+01
  -1.924053e+01  -9.237203e+01
   1.235217e+02  -7.856707e+01
   1.516699e+02  -1.551180e+01
   5.191832e+01   4.149275e+01
  -6.173470e+01   3.801318e+01
  -7.752608e+01  -2.026390e+01
  -5.287235e+00  -7.032660e+01
   5.997160e+01  -5.816758e+01
   6.490464e+01   3.929417e+00
   4.332046e+01   5.307839e+01
   4.457104e+01   4.397656e+01
   6.557416e+01   3.942027e+00
   6.984012e+01   2.748375e+00
   3.406520e+01   7.190973e+01
  -3.832621e+01   1.515341e+02
  -1.232447e+02   1.454005e+02
  -1.705181e+02   3.226649e+01
  -1.273681e+02  -9.619991e+01
  -7.057638e+00  -1.309248e+02
   8.872658e+01  -6.256907e+01
   6.196434e+01   1.619780e+01
  -6.175237e+01   1.937949e+01
  -1.439335e+02  -4.821113e+01
  -7.992146e+01  -1.142641e+02
   8.434606e+01  -1.178606e+02
   2.009240e+02  -5.372671e+01
   1.717684e+02   3.617606e+01
   4.003533e+01   9.123689e+01
  -6.348209e+01   7.389811e+01
  -5.160200e+01   8.103533e+00
   3.976468e+01  -2.763570e+01
   9.327556e+01   2.428829e+01
   3.251032e+01   1.246323e+02
  -9.731621e+01   1.611744e+02
  -1.760279e+02   6.402706e+01
  -1.326070e+02  -1.069419e+02
  -1.103026e+01  -2.091587e+02
   8.934434e+01  -1.538174e+02
   1.105426e+02   4.787021e+00
   6.644618e+01   1.235512e+02
   1.248985e+00   1.139630e+02
  -4.734944e+01   2.369942e+01
  -5.688877e+01  -3.203877e+01
  -2.971454e+01  -1.025334e+01
  -4.072715e+00   2.037963e+01
  -1.973529e+01  -1.591248e+01
  -5.792739e+01  -9.262705e+01
  -4.618568e+01  -1.152135e+02
   4.725207e+01  -4.852063e+01
   1.462323e+02   4.033380e+01
   1.397518e+02   7.383213e+01
   2.065201e+01   5.223371e+01
  -9.301862e+01   2.435349e+01
  -9.454135e+01   9.659104e+00
  -1.204081e+01  -6.820457e+00
   4.082550e+01  -2.417238e+01
   1.520130e+01  -2.051531e+01
  -2.198604e+01   1.286875e+00
   6.644189e+00   1.151493e+01
   7.722137e+01   6.874073e+00
   9.244332e+01   2.552351e+01
   4.638953e+00   8.101706e+01
  -1.249158e+02   1.149689e+02
  -1.901148e+02   5.828220e+01
  -1.431839e+02  -7.013919e+01
  -2.536086e+01  -1.669776e+02
   8.052041e+01  -1.542769e+02
   1.171457e+02  -6.017257e+01
   8.406958e+01   2.203797e+01
   2.683638e+01   3.567693e+01
  -2.945456e+00   7.969737e+00
   1.041579e+01   4.060493e+00
   3.490661e+01   4.852758e+01
   2.405135e+01   9.523404e+01
  -3.094170e+01   7.516164e+01
  -8.539812e+01  -2.061138e+01
  -8.013487e+01  -1.148033e+02
  -3.137171e+00  -1.174625e+02
   8.691084e+01  -2.302792e+01
   1.071119e+02   8.078712e+01
   3.242888e+01   1.082338e+02
  -6.981907e+01   5.663211e+01
  -1.019829e+02  -1.310606e+01
  -4.099845e+01  -5.176239e+01
   3.344500e+01  -5.290752e+01
   3.198065e+01  -3.004622e+01
  -3.537008e+01  -8.853825e-01
  -7.175237e+01   7.265121e+00
  -1.574807e+01  -2.458349e+01
   8.079646e+01  -6.857919e+01
   1.183095e+02  -6.357802e+01
   6.597094e+01   9.069401e+00
  -1.438261e+01   8.477903e+01
  -5.183588e+01   8.274901e+01
  -3.601569e+01   6.552957e+00
  -7.239161e-01  -5.741096e+01
   2.660139e+01  -4.311449e+01
   3.751293e+01   2.106474e+01
   2.732871e+01   5.757371e+01
  -3.696417e+00   3.465666e+01
  -3.538325e+01  -8.773855e+00
  -4.236946e+01  -2.172128e+01
  -2.292919e+01  -1.549919e+00
  -5.872120e-01   1.267962e+01
   7.231325e+00  -5.781635e+00
   9.186397e+00  -3.911964e+01
   2.018728e+01  -4.528929e+01
   3.415406e+01  -6.000277e+00
   2.933925e+01   4.746525e+01
  -4.312365e+00   6.230860e+01
  -4.597004e+01   1.970085e+01
  -5.652445e+01  -4.175057e+01
  -1.347868e+01  -6.528669e+01
   5.686271e+01  -3.420763e+01
   9.178929e+01   1.719787e+01
   5.111811e+01   4.620918e+01
  -2.955445e+01   4.175004e+01
  -6.731728e+01   2.127729e+01
  -2.492709e+01   4.996124e+00
   3.961246e+01   3.659279e+00
   3.932270e+01   1.833755e+01
  -3.377147e+01   3.354286e+01
  -9.749932e+01   1.966201e+01
