
 $NMID
 id='ANONYMOUS ', fmtdat='(2E16.6)'
 volume=1.0
 tramp=1.0
 $END
  -3.985772e+03   1.999529e+02
  -2.279592e+03  -2.662218e+03
   6.653150e+02  -2.354963e+03
   1.969901e+03  -8.543775e+02
   7.958524e+02   5.591015e+02
  -6.554868e+02   4.870948e+02
  -7.862919e+02  -4.889395e+02
   4.690520e+01  -1.005579e+03
   8.222203e+02  -7.089993e+02
   8.640610e+02   1.523520e+02
   4.538448e+02   7.274836e+02
  -1.953664e+02   8.823065e+02
  -5.058124e+02   1.522946e+02
  -3.383942e+02  -6.723956e+02
   2.698973e+02  -7.197470e+02
   5.973054e+02   6.404019e+01
   2.284377e+02   6.383806e+02
  -3.452853e+02   6.159291e+02
  -5.779650e+02   9.270053e+01
  -4.186903e+02  -3.248340e+02
  -2.669215e+01  -4.644789e+02
   2.474236e+02  -2.644960e+02
   2.542002e+02   1.634493e+00
  -1.254376e+02   9.133037e+01
  -3.858942e+02  -8.964239e+01
  -1.744775e+02  -3.983481e+02
   4.194341e+02  -3.996949e+02
   7.939801e+02   6.706644e+01
   3.656688e+02   5.217634e+02
  -3.959119e+02   4.556640e+02
  -7.049453e+02  -6.863089e+01
  -3.072918e+02  -5.004462e+02
   3.031596e+02  -5.133388e+02
   5.635500e+02  -1.974973e+02
   4.371070e+02   2.207750e+02
   1.078090e+02   4.772395e+02
  -1.508727e+02   2.915967e+02
  -1.743107e+02  -1.931715e+02
   1.422478e+02  -4.147313e+02
   4.207810e+02   1.365328e+01
   2.576664e+02   6.873710e+02
  -2.760740e+02   7.104894e+02
  -5.859817e+02   2.461672e+01
  -2.725111e+02  -5.362220e+02
   2.634440e+02  -3.192556e+02
   3.778482e+02   3.212618e+02
  -6.088133e+01   5.555536e+02
  -5.565326e+02   1.567593e+02
  -6.132172e+02  -3.931104e+02
  -1.878381e+02  -5.753336e+02
   3.753223e+02  -3.513203e+02
   6.368111e+02   5.141842e+01
   3.835735e+02   3.659314e+02
  -1.477533e+02   3.693982e+02
  -4.515442e+02   7.828886e+01
  -2.595297e+02  -1.812903e+02
   1.012908e+02  -1.165868e+02
   1.415472e+02   1.301081e+02
  -1.512719e+02   1.761277e+02
  -3.360860e+02  -6.270196e+01
  -1.481606e+02  -2.875379e+02
   1.906461e+02  -2.714023e+02
   3.346121e+02  -1.029181e+02
   2.193747e+02   7.185462e+01
  -4.269895e+00   2.456286e+02
  -2.180290e+02   3.646642e+02
  -3.481672e+02   2.416344e+02
  -3.030394e+02  -1.389549e+02
  -8.913480e+01  -4.458966e+02
   1.032406e+02  -3.845150e+02
   1.075894e+02  -1.072695e+02
   1.394913e+01   1.012850e+01
   3.642781e+01  -9.627048e+01
   1.922452e+02  -1.392293e+02
   2.817025e+02   4.714493e+01
   1.659550e+02   2.692517e+02
  -6.369308e+01   2.562973e+02
  -2.265838e+02   1.087797e+01
  -2.058774e+02  -2.398725e+02
  -7.554609e-01  -2.961346e+02
   2.617536e+02  -1.287034e+02
   3.730700e+02   1.516175e+02
   2.105762e+02   3.429127e+02
  -8.035177e+01   3.158765e+02
  -2.205934e+02   1.357772e+02
  -1.493517e+02   1.893072e+01
  -9.481631e+01   4.345459e+01
  -2.337746e+02   7.738998e+01
  -4.065241e+02  -4.192454e+01
  -3.471559e+02  -2.744589e+02
  -1.847632e+01  -4.422775e+02
   3.457088e+02  -4.249492e+02
   4.843313e+02  -2.138562e+02
   3.418119e+02   8.282673e+01
   6.286414e+01   2.896244e+02
  -1.231909e+02   2.543619e+02
  -8.000748e+01   3.251799e+01
   1.064015e+02  -1.084324e+02
   1.953778e+02  -2.204088e+00
   5.959191e+01   1.887121e+02
  -1.482482e+02   1.728280e+02
  -1.738603e+02  -4.770355e+01
   1.146045e+01  -1.826273e+02
   1.896840e+02  -3.343588e+01
   1.732952e+02   2.393724e+02
  -1.627034e+01   3.466861e+02
  -2.248265e+02   2.038430e+02
  -3.332233e+02  -4.564408e+01
  -2.874237e+02  -2.258249e+02
  -9.892365e+01  -2.597906e+02
   1.122188e+02  -1.616783e+02
   1.747005e+02  -2.294969e+01
   5.374992e+01   3.176448e+01
  -7.378320e+01  -3.811319e+01
  -3.269427e+01  -1.247976e+02
   1.205470e+02  -1.009261e+02
   1.767843e+02   1.075170e+01
   5.720947e+01   7.078919e+01
  -8.340696e+01   1.516460e+01
  -6.077288e+01  -7.613875e+01
   1.200613e+02  -9.383814e+01
   2.854546e+02  -1.088493e+01
   2.732900e+02   1.296596e+02
   7.165437e+01   2.522214e+02
  -1.756206e+02   2.682070e+02
  -2.804077e+02   1.386175e+02
  -1.719151e+02  -4.269681e+01
   2.161571e+01  -1.082480e+02
   9.115144e+01  -1.071852e+01
  -2.984808e+01   1.014477e+02
  -1.948436e+02   6.424760e+01
  -2.180996e+02  -9.557850e+01
  -7.658411e+01  -2.042767e+02
   9.004669e+01  -1.590282e+02
   1.440247e+02  -3.176204e+01
   7.112273e+01   4.085646e+01
  -3.002960e+01   3.969970e+00
  -4.205464e+01  -8.289748e+01
   6.658168e+01  -1.161524e+02
   1.957142e+02  -3.553005e+01
   1.948467e+02   1.174101e+02
   2.855788e+01   2.178305e+02
  -1.590090e+02   1.695964e+02
  -1.942044e+02   1.222168e+01
  -7.021515e+01  -1.135698e+02
   6.264914e+01  -1.137112e+02
   8.283884e+01  -3.195965e+01
   1.844291e+01   2.674459e+01
  -2.416055e+01   1.736852e+01
   6.901129e+00  -1.258916e+01
   7.314529e+01   2.793753e+00
   9.603105e+01   7.864706e+01
   2.472043e+01   1.591269e+02
  -1.197382e+02   1.572056e+02
  -2.329931e+02   3.398122e+01
  -2.050574e+02  -1.412575e+02
  -4.835936e+01  -2.316912e+02
   1.027315e+02  -1.705246e+02
   1.328882e+02  -3.236251e+01
   7.170490e+01   5.088487e+01
   3.170394e+01   3.338608e+01
   5.533490e+01  -1.291095e+01
   8.082320e+01  -7.285839e+00
   4.474900e+01   5.077638e+01
  -3.847723e+01   9.122862e+01
  -1.014230e+02   6.118934e+01
  -8.900400e+01  -3.181270e+01
   6.417518e+00  -1.108776e+02
   1.371779e+02  -9.083450e+01
   1.977673e+02   4.327032e+01
   1.070133e+02   1.960117e+02
  -9.770972e+01   2.287354e+02
  -2.620749e+02   1.030463e+02
  -2.583370e+02  -7.692447e+01
  -1.139035e+02  -1.704941e+02
   3.447711e+01  -1.462851e+02
   9.100312e+01  -8.675370e+01
   7.626586e+01  -7.251950e+01
   6.300555e+01  -9.345222e+01
   8.909054e+01  -7.720130e+01
   1.289710e+02   1.745797e+01
   1.230291e+02   1.488909e+02
   3.733911e+01   2.239378e+02
  -9.262632e+01   1.751407e+02
  -1.735458e+02   2.686847e+01
  -1.384035e+02  -1.163697e+02
  -2.308352e+01  -1.578864e+02
   6.390089e+01  -9.293700e+01
   5.831830e+01  -5.339040e-01
   4.146013e+00   4.393527e+01
  -1.084196e+01   3.459847e+01
   3.620754e+01   1.542398e+01
   8.027970e+01   1.882654e+01
   4.618769e+01   3.693105e+01
  -6.320367e+01   3.969328e+01
  -1.585031e+02   7.973662e+00
  -1.441064e+02  -4.736208e+01
  -1.615830e+01  -8.806743e+01
   1.195048e+02  -7.651507e+01
   1.439622e+02  -1.604502e+01
   4.769139e+01   4.093953e+01
  -6.068216e+01   3.970743e+01
  -7.730062e+01  -1.702601e+01
  -1.031394e+01  -6.860038e+01
   5.315985e+01  -5.978807e+01
   6.266275e+01   2.355953e-01
   4.531538e+01   4.846784e+01
   4.438288e+01   3.942592e+01
   6.115979e+01  -1.222803e+00
   6.685195e+01  -2.710534e+00
   3.914831e+01   6.676922e+01
  -2.653152e+01   1.487567e+02
  -1.120830e+02   1.477762e+02
  -1.649051e+02   4.008411e+01
  -1.279326e+02  -8.794357e+01
  -1.133963e+01  -1.281482e+02
   8.355297e+01  -6.587987e+01
   6.033408e+01   1.328072e+01
  -5.745974e+01   2.298590e+01
  -1.368133e+02  -3.856241e+01
  -7.763705e+01  -1.047945e+02
   7.663068e+01  -1.139745e+02
   1.872397e+02  -5.626323e+01
   1.620291e+02   2.959209e+01
   3.984807e+01   8.488671e+01
  -5.819223e+01   7.093288e+01
  -4.883652e+01   8.713097e+00
   3.702742e+01  -2.771380e+01
   9.073126e+01   1.951147e+01
   3.765652e+01   1.162256e+02
  -8.434073e+01   1.556912e+02
  -1.629887e+02   6.775062e+01
  -1.286231e+02  -9.438940e+01
  -1.723359e+01  -1.936598e+02
   7.895364e+01  -1.438306e+02
   1.027131e+02   3.797888e+00
   6.320424e+01   1.136196e+02
   1.167664e+00   1.038340e+02
  -4.484673e+01   2.107071e+01
  -5.204984e+01  -2.801263e+01
  -2.537866e+01  -6.841380e+00
  -3.555682e+00   1.972984e+01
  -2.225470e+01  -1.556159e+01
  -5.901792e+01  -8.596252e+01
  -4.477081e+01  -1.064392e+02
   4.627723e+01  -4.678983e+01
   1.389918e+02   3.307463e+01
   1.308748e+02   6.528914e+01
   1.899500e+01   4.957967e+01
  -8.566761e+01   2.624233e+01
  -8.684642e+01   1.083994e+01
  -1.169571e+01  -7.330837e+00
   3.650223e+01  -2.341523e+01
   1.322671e+01  -1.845903e+01
  -2.081194e+01   1.266895e+00
   6.002750e+00   7.029038e+00
   7.391512e+01   6.726402e-01
   9.290716e+01   2.208767e+01
   1.315729e+01   8.152164e+01
  -1.133781e+02   1.182457e+02
  -1.843004e+02   6.358261e+01
  -1.453388e+02  -6.303517e+01
  -3.132105e+01  -1.600558e+02
   7.479240e+01  -1.511436e+02
   1.122680e+02  -6.191132e+01
   7.989473e+01   1.847446e+01
   2.475723e+01   3.445126e+01
  -2.783618e+00   8.823015e+00
   1.111934e+01   3.020827e+00
   3.521099e+01   4.297012e+01
   2.583085e+01   8.791732e+01
  -2.663480e+01   7.295805e+01
  -8.125513e+01  -1.378641e+01
  -8.040339e+01  -1.034719e+02
  -8.626052e+00  -1.113245e+02
   8.021920e+01  -2.744605e+01
   1.042702e+02   7.052422e+01
   3.509767e+01   1.014220e+02
  -6.405999e+01   5.752812e+01
  -9.787616e+01  -8.674549e+00
  -4.124813e+01  -4.930050e+01
   3.025272e+01  -5.271146e+01
   3.066627e+01  -2.921275e+01
  -3.207529e+01   7.556695e-01
  -6.714194e+01   7.540737e+00
  -1.542136e+01  -2.520566e+01
   7.590722e+01  -6.721639e+01
   1.130035e+02  -5.992470e+01
   6.520659e+01   1.097554e+01
  -1.136313e+01   8.274739e+01
  -4.960274e+01   8.025038e+01
  -3.724886e+01   7.980127e+00
  -4.241357e+00  -5.356435e+01
   2.375881e+01  -4.251671e+01
   3.642143e+01   1.663446e+01
   2.736359e+01   5.266831e+01
  -2.182303e+00   3.319904e+01
  -3.299464e+01  -7.258182e+00
  -3.925750e+01  -1.998429e+01
  -1.994674e+01  -3.581661e-01
   7.488514e-01   1.524950e+01
   5.449885e+00  -1.891059e+00
   3.852387e+00  -3.646687e+01
   1.375239e+01  -4.601204e+01
   3.145635e+01  -9.290655e+00
   3.231621e+01   4.360231e+01
   9.567877e-01   6.037736e+01
  -4.368052e+01   2.120199e+01
  -5.820072e+01  -3.746408e+01
  -1.714802e+01  -6.184679e+01
   5.344527e+01  -3.515006e+01
   8.909316e+01   1.208737e+01
   5.046581e+01   4.161021e+01
  -2.693842e+01   4.153034e+01
  -6.323898e+01   2.377275e+01
  -2.394107e+01   5.415820e+00
   3.651069e+01  -6.299964e-03
   3.772686e+01   1.364629e+01
  -2.865359e+01   3.266345e+01
  -8.874334e+01   2.404208e+01
