
 $NMID
 id='ANONYMOUS ', fmtdat='(2E16.6)'
 volume=1.0
 tramp=1.0
 $END
   3.008228e+03  -1.409430e+02
   2.091781e+03   2.003226e+03
  -2.036800e+02   2.146260e+03
  -1.351384e+03   1.300576e+03
  -7.501823e+02  -8.026502e+01
   1.116890e+02  -2.689529e+02
   4.746783e+02   3.382535e+02
  -4.394940e+01   6.171363e+02
  -4.896802e+02   6.860418e+02
  -7.090316e+02   7.373136e+01
  -4.772773e+02  -4.687843e+02
   3.360585e+01  -7.100525e+02
   3.877761e+02  -1.465970e+02
   2.063124e+02   4.240870e+02
  -1.279602e+02   6.215368e+02
  -4.835609e+02   3.855134e+01
  -3.096273e+02  -4.790546e+02
   1.904432e+02  -5.507946e+02
   5.194114e+02  -2.072334e+02
   4.046927e+02   1.745163e+02
   1.180040e+02   3.849067e+02
  -1.480845e+02   2.630944e+02
  -8.448951e+01   5.352255e+01
   1.570777e+02   4.058139e+01
   2.709516e+02   2.108569e+02
   1.330037e+01   3.845411e+02
  -4.573963e+02   2.276072e+02
  -6.080057e+02  -1.492604e+02
  -2.249402e+02  -4.201408e+02
   3.699033e+02  -2.786406e+02
   5.713709e+02   1.204082e+02
   2.162994e+02   4.298141e+02
  -2.803341e+02   4.361560e+02
  -4.830741e+02   1.577459e+02
  -3.579792e+02  -2.018494e+02
  -9.978801e+01  -3.783206e+02
   8.873993e+01  -2.128883e+02
   4.086102e+01   1.475683e+02
  -1.678961e+02   2.411422e+02
  -2.693029e+02  -1.110086e+02
  -7.507815e+01  -5.582550e+02
   2.844351e+02  -5.161507e+02
   4.063171e+02   4.867440e+00
   1.563116e+02   3.938583e+02
  -2.010129e+02   2.147458e+02
  -2.268290e+02  -2.728195e+02
   1.033106e+02  -4.387428e+02
   4.699998e+02  -8.797677e+01
   5.121114e+02   3.825307e+02
   1.593677e+02   5.281611e+02
  -3.312790e+02   3.144080e+02
  -5.684840e+02  -5.074125e+01
  -3.731127e+02  -2.825893e+02
   5.566229e+01  -2.697088e+02
   3.224356e+02  -8.496402e+01
   2.231734e+02   6.575447e+01
  -2.203723e+01   4.556749e+01
  -7.472305e+01  -7.330482e+01
   1.075093e+02  -9.628172e+01
   2.462532e+02   4.152388e+01
   1.275505e+02   2.109781e+02
  -1.511864e+02   2.574458e+02
  -3.274944e+02   1.428487e+02
  -2.585164e+02  -7.730220e+01
  -6.284198e+00  -3.014455e+02
   2.535170e+02  -3.777246e+02
   3.583167e+02  -1.949148e+02
   2.565888e+02   1.499880e+02
   5.876850e+01   3.781627e+02
  -6.164849e+01   3.286214e+02
  -5.125410e+01   1.458417e+02
  -2.766899e+01   6.738776e+01
  -1.043177e+02   1.059877e+02
  -2.287024e+02   7.246175e+01
  -2.509809e+02  -1.047159e+02
  -1.149364e+02  -2.617337e+02
   8.210557e+01  -2.078198e+02
   1.974751e+02   2.436645e+01
   1.567335e+02   2.366200e+02
  -3.317402e+01   2.524451e+02
  -2.458888e+02   7.599170e+01
  -3.137264e+02  -1.617660e+02
  -1.669535e+02  -2.997583e+02
   6.205183e+01  -2.681956e+02
   1.776700e+02  -1.423650e+02
   1.382183e+02  -5.946135e+01
   1.239402e+02  -5.972891e+01
   2.575095e+02  -4.345605e+01
   4.042245e+02   8.182553e+01
   3.283383e+02   2.852497e+02
  -1.111225e+01   4.285203e+02
  -3.676334e+02   3.949589e+02
  -4.774735e+02   1.826278e+02
  -2.975356e+02  -9.351347e+01
  -2.731117e+01  -2.566609e+02
   1.039418e+02  -2.051327e+02
   3.109115e+01  -3.007171e+01
  -1.149087e+02   5.859199e+01
  -1.477638e+02  -2.953113e+01
  -2.099065e+01  -1.533252e+02
   1.246712e+02  -1.204660e+02
   1.248961e+02   5.428882e+01
  -2.576456e+01   1.469323e+02
  -1.674700e+02   1.353862e+01
  -1.572757e+02  -2.266792e+02
   1.200527e+01  -3.354706e+02
   2.244293e+02  -2.080179e+02
   3.401273e+02   4.579312e+01
   2.790328e+02   2.408713e+02
   7.423053e+01   2.640263e+02
  -1.201697e+02   1.454534e+02
  -1.540554e+02   1.167508e+01
  -3.816432e+01  -1.878225e+01
   5.834217e+01   5.414851e+01
   9.051165e+00   1.157138e+02
  -1.193963e+02   7.561302e+01
  -1.523624e+02  -2.156607e+01
  -3.988087e+01  -5.703568e+01
   7.862342e+01   6.564790e+00
   4.283226e+01   8.784725e+01
  -1.374244e+02   8.739939e+01
  -2.899631e+02  -1.363440e+01
  -2.556901e+02  -1.559511e+02
  -3.990486e+01  -2.533308e+02
   1.926490e+02  -2.367455e+02
   2.637472e+02  -1.053650e+02
   1.422990e+02   4.366755e+01
  -2.821722e+01   8.375963e+01
  -7.136873e+01  -2.651759e+00
   4.439474e+01  -8.751415e+01
   1.833160e+02  -4.413693e+01
   1.937317e+02   9.782420e+01
   6.364420e+01   1.883431e+02
  -8.428985e+01   1.394081e+02
  -1.262888e+02   1.979652e+01
  -5.133747e+01  -3.782045e+01
   3.908092e+01   1.458612e+01
   3.186360e+01   1.033140e+02
  -8.680851e+01   1.185897e+02
  -2.030762e+02   1.998896e+01
  -1.815919e+02  -1.264251e+02
  -1.483658e+01  -2.056143e+02
   1.528482e+02  -1.514912e+02
   1.736201e+02  -1.221091e+01
   5.569344e+01   9.647821e+01
  -6.094934e+01   9.952664e+01
  -7.042543e+01   2.886479e+01
  -4.137456e+00  -2.373069e+01
   3.359856e+01  -1.102870e+01
  -1.039539e+01   2.303614e+01
  -8.777176e+01   2.302132e+00
  -1.068432e+02  -8.737054e+01
  -1.814879e+01  -1.728765e+02
   1.347828e+02  -1.566237e+02
   2.360659e+02  -1.892700e+01
   1.968757e+02   1.498404e+02
   4.355217e+01   2.239797e+02
  -9.610317e+01   1.589392e+02
  -1.254306e+02   3.217837e+01
  -7.172441e+01  -4.173404e+01
  -3.332015e+01  -2.674882e+01
  -5.456354e+01   1.524890e+01
  -8.402799e+01   8.416081e+00
  -5.249199e+01  -5.265379e+01
   3.819074e+01  -1.016421e+02
   1.149124e+02  -6.835060e+01
   1.011961e+02   3.777501e+01
  -1.275923e+01   1.240891e+02
  -1.538624e+02   9.357103e+01
  -2.015607e+02  -5.521818e+01
  -9.094576e+01  -2.041441e+02
   1.146109e+02  -2.219246e+02
   2.615178e+02  -8.789469e+01
   2.433085e+02   8.274502e+01
   1.003839e+02   1.652153e+02
  -3.704138e+01   1.375605e+02
  -8.580732e+01   8.107330e+01
  -6.849826e+01   7.134156e+01
  -5.597218e+01   9.528490e+01
  -8.757801e+01   8.024524e+01
  -1.302431e+02  -1.623345e+01
  -1.216318e+02  -1.496782e+02
  -3.223054e+01  -2.224843e+02
   9.531681e+01  -1.673466e+02
   1.688332e+02  -1.680795e+01
   1.287703e+02   1.209583e+02
   1.422802e+01   1.534981e+02
  -6.950951e+01   8.259180e+01
  -5.919715e+01  -1.013832e+01
   2.390327e+00  -5.057353e+01
   2.248088e+01  -3.471038e+01
  -2.916043e+01  -1.065628e+01
  -8.269891e+01  -1.524089e+01
  -4.971910e+01  -3.769140e+01
   6.832276e+01  -4.073613e+01
   1.672778e+02  -2.711569e+00
   1.428185e+02   5.782149e+01
   3.852875e+00   9.511307e+01
  -1.291625e+02   7.396621e+01
  -1.432179e+02   7.256704e+00
  -4.438908e+01  -4.888622e+01
   5.947596e+01  -4.338141e+01
   7.787329e+01   1.723636e+01
   1.942978e+01   7.151997e+01
  -4.373815e+01   6.384852e+01
  -6.454676e+01   3.221794e+00
  -5.420043e+01  -4.735284e+01
  -4.633852e+01  -3.907187e+01
  -5.472176e+01   1.767749e+00
  -6.456196e+01   2.705571e+00
  -4.605061e+01  -6.784814e+01
   2.124717e+01  -1.494835e+02
   1.173569e+02  -1.472214e+02
   1.747279e+02  -3.849713e+01
   1.302498e+02   8.997720e+01
   5.459156e+00   1.309460e+02
  -8.961186e+01   6.966876e+01
  -6.205653e+01  -1.077755e+01
   5.618650e+01  -2.332083e+01
   1.320205e+02   3.610097e+01
   7.212768e+01   1.014603e+02
  -7.791307e+01   1.085122e+02
  -1.819067e+02   4.834289e+01
  -1.529539e+02  -3.547034e+01
  -3.226809e+01  -8.293712e+01
   6.062786e+01  -6.250633e+01
   4.797824e+01  -7.454943e-01
  -3.699577e+01   3.138248e+01
  -8.997331e+01  -1.671924e+01
  -4.099510e+01  -1.121786e+02
   7.475344e+01  -1.534256e+02
   1.540255e+02  -7.074247e+01
   1.268682e+02   8.800203e+01
   2.004519e+01   1.879593e+02
  -7.821666e+01   1.393051e+02
  -1.030531e+02  -7.967978e+00
  -5.735761e+01  -1.152650e+02
   9.658673e+00  -1.004512e+02
   4.985279e+01  -1.579410e+01
   4.552912e+01   3.030804e+01
   1.661497e+01   6.279004e+00
   4.153476e+00  -1.885228e+01
   2.901027e+01   1.802909e+01
   5.948693e+01   8.601969e+01
   3.599043e+01   1.023717e+02
  -5.210622e+01   4.290610e+01
  -1.333937e+02  -3.354541e+01
  -1.212573e+02  -6.481103e+01
  -1.749387e+01  -5.071962e+01
   8.001634e+01  -2.682259e+01
   8.457997e+01  -8.022552e+00
   1.622844e+01   1.139041e+01
  -3.342082e+01   2.411676e+01
  -1.767809e+01   1.552218e+01
   1.480500e+01  -3.547859e+00
  -4.587287e+00  -6.336016e+00
  -6.745452e+01   1.540708e+00
  -9.188052e+01  -2.012258e+01
  -2.108923e+01  -8.087712e+01
   1.051221e+02  -1.199103e+02
   1.847379e+02  -6.820180e+01
   1.523110e+02   5.800136e+01
   3.588599e+01   1.591550e+02
  -7.598338e+01   1.549468e+02
  -1.149356e+02   6.629465e+01
  -8.135338e+01  -1.701997e+01
  -2.717118e+01  -3.566589e+01
  -2.140868e+00  -1.194157e+01
  -1.442996e+01  -7.850806e+00
  -3.304960e+01  -4.783608e+01
  -2.109825e+01  -8.960115e+01
   2.802977e+01  -7.201459e+01
   7.966608e+01   1.219456e+01
   8.189264e+01   9.773413e+01
   1.540902e+01   1.079950e+02
  -7.380779e+01   3.284388e+01
  -1.044410e+02  -6.127741e+01
  -4.008212e+01  -9.884503e+01
   6.188021e+01  -6.262621e+01
   1.013710e+02   5.860004e+00
   4.530698e+01   5.509828e+01
  -3.195351e+01   6.053963e+01
  -3.780600e+01   3.041960e+01
   2.565122e+01  -4.922655e+00
   6.549202e+01  -9.362534e+00
   1.658531e+01   2.706387e+01
  -7.697587e+01   6.691242e+01
  -1.176958e+02   5.489306e+01
  -6.969393e+01  -1.686369e+01
   1.142140e+01  -8.622305e+01
   5.419869e+01  -8.344042e+01
   4.312245e+01  -1.229991e+01
   8.619436e+00   5.181344e+01
  -2.116988e+01   4.685626e+01
  -3.581581e+01  -1.001612e+01
  -2.909204e+01  -5.087551e+01
  -2.106598e-01  -3.710975e+01
   3.270542e+01   4.113115e+00
   4.086025e+01   2.203584e+01
   1.941612e+01   3.206916e+00
  -4.311754e+00  -1.798700e+01
  -6.193976e+00  -5.790056e+00
   4.022519e+00   3.191768e+01
  -1.830743e+00   5.023092e+01
  -2.734625e+01   1.989205e+01
  -4.052257e+01  -3.476451e+01
  -1.230690e+01  -5.885272e+01
   3.947525e+01  -2.618332e+01
   6.163282e+01   3.143118e+01
   2.024736e+01   5.941605e+01
  -5.443592e+01   3.702159e+01
  -9.097152e+01  -9.543490e+00
  -5.049390e+01  -4.215673e+01
   2.701625e+01  -4.563902e+01
   6.307116e+01  -2.848611e+01
   2.690719e+01  -6.886871e+00
  -2.933273e+01   3.446696e+00
  -3.306016e+01  -7.193483e+00
   2.435904e+01  -2.711272e+01
   7.917155e+01  -2.294471e+01
