
 $NMID
 id='ANONYMOUS ', fmtdat='(2E16.6)'
 volume=1.0
 tramp=1.0
 $END
  -3.968318e+03   2.191353e+02
  -2.463093e+03  -2.724244e+03
   5.815329e+02  -2.716787e+03
   2.013084e+03  -1.093645e+03
   9.043190e+02   5.225488e+02
  -5.325514e+02   5.137498e+02
  -7.884311e+02  -3.904316e+02
  -8.057047e+01  -1.058646e+03
   8.382116e+02  -8.268661e+02
   8.889616e+02   3.410869e+01
   5.687361e+02   7.077908e+02
  -1.376739e+02   9.186094e+02
  -5.468667e+02   1.361964e+02
  -3.294389e+02  -6.198416e+02
   2.506670e+02  -7.955225e+02
   6.798509e+02  -1.937514e+01
   3.118599e+02   6.815297e+02
  -3.217463e+02   6.638018e+02
  -5.884489e+02   1.081590e+02
  -3.838801e+02  -3.651203e+02
  -5.965331e+01  -4.663625e+02
   2.329958e+02  -2.829620e+02
   2.087427e+02  -1.857444e+00
  -1.353361e+02   1.190225e+02
  -3.893079e+02  -8.437856e+01
  -1.883542e+02  -4.502203e+02
   4.558851e+02  -4.022649e+02
   8.107053e+02   8.907587e+01
   3.816366e+02   5.497716e+02
  -4.033087e+02   4.632132e+02
  -7.196263e+02  -5.881975e+01
  -3.551015e+02  -4.919339e+02
   2.522749e+02  -5.251934e+02
   5.497768e+02  -2.015065e+02
   4.218037e+02   2.329363e+02
   9.919180e+01   4.785001e+02
  -1.728730e+02   2.802678e+02
  -1.705334e+02  -2.114785e+02
   1.422278e+02  -4.138892e+02
   4.205089e+02   2.624482e+01
   2.201150e+02   6.691330e+02
  -3.227367e+02   6.908835e+02
  -6.114834e+02   1.778200e+01
  -2.741793e+02  -5.408761e+02
   2.924410e+02  -3.280204e+02
   3.951378e+02   2.913876e+02
  -5.649877e+01   5.358689e+02
  -5.540869e+02   1.484211e+02
  -5.986741e+02  -4.066366e+02
  -1.720190e+02  -6.013115e+02
   3.911004e+02  -3.716319e+02
   6.580810e+02   6.616326e+01
   4.101753e+02   3.861704e+02
  -1.211349e+02   3.773817e+02
  -4.398962e+02   7.644885e+01
  -2.652056e+02  -1.818238e+02
   9.567310e+01  -1.117227e+02
   1.488455e+02   1.359807e+02
  -1.390690e+02   1.790481e+02
  -3.290233e+02  -6.428610e+01
  -1.403174e+02  -2.885495e+02
   2.023709e+02  -2.610217e+02
   3.350000e+02  -7.952418e+01
   1.990506e+02   8.574614e+01
  -2.617720e+01   2.247951e+02
  -2.176470e+02   3.178217e+02
  -3.280156e+02   2.076128e+02
  -2.824234e+02  -1.402636e+02
  -7.449005e+01  -4.359446e+02
   1.210145e+02  -3.890566e+02
   1.325957e+02  -1.201375e+02
   3.756443e+01   9.989851e+00
   5.069390e+01  -8.064459e+01
   1.965279e+02  -1.218164e+02
   2.780520e+02   5.771414e+01
   1.543661e+02   2.720078e+02
  -7.547560e+01   2.505570e+02
  -2.217936e+02   3.135744e+00
  -1.849367e+02  -2.426637e+02
   1.859449e+01  -2.853607e+02
   2.584453e+02  -1.084194e+02
   3.508835e+02   1.638370e+02
   1.890145e+02   3.421571e+02
  -9.172669e+01   3.056878e+02
  -2.321235e+02   1.292966e+02
  -1.621377e+02   5.964010e+00
  -1.026450e+02   2.471567e+01
  -2.255983e+02   5.498754e+01
  -3.880533e+02  -6.041163e+01
  -3.269218e+02  -2.829661e+02
   6.563052e+00  -4.377963e+02
   3.621007e+02  -4.056040e+02
   4.873004e+02  -1.928691e+02
   3.329357e+02   9.450332e+01
   5.356851e+01   2.900023e+02
  -1.274207e+02   2.558010e+02
  -8.054401e+01   3.983683e+01
   1.054810e+02  -1.013076e+02
   1.894732e+02   1.024493e+00
   4.839191e+01   1.848159e+02
  -1.554848e+02   1.664915e+02
  -1.709540e+02  -5.462353e+01
   1.945318e+01  -1.827591e+02
   1.875291e+02  -2.724029e+01
   1.540195e+02   2.461464e+02
  -3.546704e+01   3.408754e+02
  -2.252905e+02   1.837106e+02
  -3.151655e+02  -6.584432e+01
  -2.690166e+02  -2.347450e+02
  -9.381606e+01  -2.566988e+02
   1.093452e+02  -1.563512e+02
   1.751040e+02  -2.159783e+01
   6.021474e+01   3.081045e+01
  -6.633329e+01  -3.647423e+01
  -2.945316e+01  -1.205768e+02
   1.198580e+02  -9.747803e+01
   1.725865e+02   1.058345e+01
   5.573945e+01   6.588120e+01
  -7.528345e+01   1.084832e+01
  -4.606287e+01  -7.045254e+01
   1.279589e+02  -7.440664e+01
   2.742966e+02   1.345911e+01
   2.479208e+02   1.417664e+02
   4.862553e+01   2.440925e+02
  -1.848365e+02   2.477060e+02
  -2.784071e+02   1.211810e+02
  -1.677571e+02  -4.996693e+01
   2.245370e+01  -1.082654e+02
   8.951230e+01  -1.165013e+01
  -2.915221e+01   9.526265e+01
  -1.885558e+02   5.458692e+01
  -2.070944e+02  -1.023575e+02
  -6.687156e+01  -2.023281e+02
   9.313397e+01  -1.500201e+02
   1.407325e+02  -2.483917e+01
   6.890117e+01   3.874210e+01
  -2.547444e+01  -2.124618e+00
  -3.295323e+01  -8.318768e+01
   7.290152e+01  -1.067513e+02
   1.941673e+02  -2.275798e+01
   1.865330e+02   1.251617e+02
   1.874065e+01   2.169780e+02
  -1.654193e+02   1.627584e+02
  -1.944256e+02   4.871749e+00
  -6.580573e+01  -1.159352e+02
   6.604572e+01  -1.124334e+02
   8.215213e+01  -3.117238e+01
   1.714244e+01   2.428424e+01
  -2.126334e+01   1.545615e+01
   1.256542e+01  -9.775838e+00
   7.340830e+01   1.056385e+01
   8.768784e+01   8.463263e+01
   1.348262e+01   1.570117e+02
  -1.267401e+02   1.475210e+02
  -2.308765e+02   2.212149e+01
  -1.979210e+02  -1.491401e+02
  -3.893747e+01  -2.332099e+02
   1.104279e+02  -1.658918e+02
   1.356738e+02  -2.536098e+01
   6.897487e+01   5.590172e+01
   2.729942e+01   3.478190e+01
   5.390772e+01  -1.189759e+01
   8.023878e+01  -2.839062e+00
   4.057531e+01   5.391499e+01
  -4.538266e+01   8.841134e+01
  -1.048924e+02   5.136333e+01
  -8.541620e+01  -3.884555e+01
   1.416026e+01  -1.092365e+02
   1.399528e+02  -8.140901e+01
   1.929020e+02   5.241012e+01
   9.729111e+01   1.969076e+02
  -1.063106e+02   2.210205e+02
  -2.628173e+02   9.007061e+01
  -2.520413e+02  -8.673130e+01
  -1.045941e+02  -1.733123e+02
   4.064697e+01  -1.427659e+02
   9.217087e+01  -8.223425e+01
   7.609825e+01  -6.965310e+01
   6.529655e+01  -9.105348e+01
   9.343105e+01  -7.338906e+01
   1.282122e+02   2.279225e+01
   1.151759e+02   1.524999e+02
   2.664762e+01   2.232067e+02
  -9.967798e+01   1.705218e+02
  -1.743304e+02   2.101295e+01
  -1.351542e+02  -1.209926e+02
  -1.871145e+01  -1.595085e+02
   6.743343e+01  -9.211277e+01
   5.916873e+01   5.887520e-01
   1.995298e+00   4.331867e+01
  -1.455051e+01   3.314118e+01
   3.299470e+01   1.575549e+01
   7.789344e+01   2.078290e+01
   4.422499e+01   3.658134e+01
  -6.374714e+01   3.392684e+01
  -1.562539e+02  -1.518516e+00
  -1.394734e+02  -5.453963e+01
  -1.121388e+01  -8.813116e+01
   1.228903e+02  -7.103861e+01
   1.449902e+02  -1.012664e+01
   4.719954e+01   4.326681e+01
  -6.108867e+01   3.877111e+01
  -7.627322e+01  -1.826487e+01
  -7.600798e+00  -6.778131e+01
   5.560913e+01  -5.685861e+01
   6.280480e+01   3.428503e+00
   4.224175e+01   5.155971e+01
   3.972559e+01   4.253541e+01
   5.674915e+01   2.685975e+00
   6.241338e+01  -1.370275e-01
   3.393893e+01   6.460261e+01
  -3.136345e+01   1.405965e+02
  -1.132151e+02   1.368550e+02
  -1.614957e+02   3.189984e+01
  -1.215569e+02  -8.998827e+01
  -5.722691e+00  -1.247266e+02
   8.573672e+01  -6.080566e+01
   5.938424e+01   1.540028e+01
  -5.814093e+01   2.008715e+01
  -1.333774e+02  -4.373985e+01
  -7.099976e+01  -1.069234e+02
   8.152849e+01  -1.094668e+02
   1.866129e+02  -4.730283e+01
   1.572631e+02   3.674309e+01
   3.545231e+01   8.622184e+01
  -5.936187e+01   6.817295e+01
  -4.831653e+01   6.800413e+00
   3.667450e+01  -2.553326e+01
   8.776287e+01   2.281245e+01
   3.182551e+01   1.158593e+02
  -9.082548e+01   1.498893e+02
  -1.663366e+02   5.981559e+01
  -1.249538e+02  -9.965205e+01
  -7.756915e+00  -1.940508e+02
   8.766939e+01  -1.406829e+02
   1.041174e+02   7.894705e+00
   5.736710e+01   1.162266e+02
  -5.248177e+00   1.036411e+02
  -4.681352e+01   1.844671e+01
  -5.018988e+01  -3.116407e+01
  -2.325467e+01  -8.023611e+00
  -2.254091e+00   2.034298e+01
  -2.005932e+01  -1.554314e+01
  -5.500070e+01  -8.750952e+01
  -4.062397e+01  -1.071263e+02
   4.743257e+01  -4.344292e+01
   1.359686e+02   3.985061e+01
   1.257240e+02   7.092169e+01
   1.498409e+01   5.000444e+01
  -8.658949e+01   2.220231e+01
  -8.537294e+01   6.481847e+00
  -1.005375e+01  -9.050226e+00
   3.689494e+01  -2.282230e+01
   1.286353e+01  -1.754099e+01
  -2.108862e+01   1.864005e+00
   5.865562e+00   8.423731e+00
   7.324657e+01   3.519000e+00
   9.140372e+01   2.478498e+01
   1.051187e+01   8.127174e+01
  -1.165385e+02   1.135488e+02
  -1.865954e+02   5.624642e+01
  -1.444108e+02  -6.906287e+01
  -2.629872e+01  -1.617198e+02
   8.182655e+01  -1.485163e+02
   1.171235e+02  -5.731932e+01
   8.106722e+01   2.218856e+01
   2.400035e+01   3.632019e+01
  -3.280620e+00   9.991992e+00
   1.023052e+01   4.773243e+00
   3.202922e+01   4.515137e+01
   2.075155e+01   8.914479e+01
  -3.016206e+01   7.186604e+01
  -8.047679e+01  -1.686886e+01
  -7.609567e+01  -1.066709e+02
  -4.262839e+00  -1.120496e+02
   8.118057e+01  -2.485879e+01
   1.010274e+02   7.474916e+01
   2.985842e+01   1.034998e+02
  -6.788949e+01   5.513528e+01
  -9.762855e+01  -1.366711e+01
  -3.760902e+01  -5.258794e+01
   3.407893e+01  -5.186226e+01
   3.176660e+01  -2.650881e+01
  -3.369394e+01   1.336464e+00
  -6.879001e+01   4.812847e+00
  -1.449989e+01  -2.831585e+01
   7.965280e+01  -6.694919e+01
   1.170130e+02  -5.548879e+01
   6.627787e+01   1.657491e+01
  -1.437080e+01   8.588293e+01
  -5.423130e+01   7.965970e+01
  -4.006580e+01   5.286920e+00
  -3.730673e+00  -5.556143e+01
   2.526593e+01  -4.227831e+01
   3.595533e+01   1.822158e+01
   2.462975e+01   5.341269e+01
  -5.011393e+00   3.235273e+01
  -3.335664e+01  -9.403982e+00
  -3.742168e+01  -2.270088e+01
  -1.769624e+01  -2.916283e+00
   2.064039e+00   1.378407e+01
   6.119069e+00  -1.187945e+00
   5.042052e+00  -3.463367e+01
   1.565105e+01  -4.448128e+01
   3.253972e+01  -8.604407e+00
   3.147206e+01   4.469041e+01
  -1.156602e+00   6.155189e+01
  -4.473080e+01   2.098075e+01
  -5.726853e+01  -3.965117e+01
  -1.511251e+01  -6.369172e+01
   5.451898e+01  -3.358455e+01
   8.827158e+01   1.659746e+01
   4.841002e+01   4.504685e+01
  -2.933446e+01   4.089287e+01
  -6.516174e+01   2.050361e+01
  -2.466061e+01   2.960101e+00
   3.680450e+01  -6.418114e-02
   3.803673e+01   1.426918e+01
  -2.935145e+01   3.153814e+01
  -8.947606e+01   2.109798e+01
