
 $NMID
 id='ANONYMOUS ', fmtdat='(2E16.6)'
 volume=1.0
 tramp=1.0
 $END
  -1.885356e+03   2.722239e+02
  -1.039109e+03  -1.234081e+03
   5.455398e+02  -1.127756e+03
   8.836501e+02  -4.044901e+02
   3.614355e+02   3.443008e+02
  -3.143453e+02   2.332514e+02
  -2.843657e+02  -1.513179e+02
  -1.713352e+01  -4.591747e+02
   3.624648e+02  -2.463173e+02
   3.411020e+02  -1.138586e+01
   2.462553e+02   2.794697e+02
  -9.523744e+01   3.557339e+02
  -3.168242e+02   7.239747e+01
  -1.787945e+02  -3.377646e+02
   7.413176e+01  -2.086995e+02
   2.636896e+02  -1.319683e+01
   1.199084e+02   2.853989e+02
  -1.661905e+02   1.523488e+02
  -2.430948e+02   4.497527e+01
  -1.820264e+02  -1.163223e+02
   7.994131e+00  -1.442457e+02
   1.410851e+02  -6.990824e+01
   1.171696e+02   1.965793e+01
  -3.583505e+01   3.574556e+01
  -1.552239e+02  -5.239572e+01
  -6.735231e+01  -1.657221e+02
   1.734561e+02  -1.725802e+02
   3.319383e+02   5.248209e+01
   1.800490e+02   2.661500e+02
  -1.661378e+02   2.261787e+02
  -3.131316e+02  -3.339591e+01
  -1.704943e+02  -2.304890e+02
   8.878206e+01  -2.048705e+02
   2.254501e+02  -7.416587e+01
   1.830090e+02   1.038280e+02
   4.587187e+01   1.715709e+02
  -9.032991e+01   8.462109e+01
  -8.852720e+01  -9.479709e+01
   7.235953e+01  -1.648093e+02
   1.832376e+02   2.195984e+01
   9.330298e+01   2.713630e+02
  -1.428194e+02   2.645818e+02
  -2.547046e+02  -1.525457e+01
  -9.916457e+01  -2.364070e+02
   1.308759e+02  -1.441905e+02
   1.602370e+02   1.205301e+02
  -3.763085e+01   2.315840e+02
  -2.367277e+02   5.099405e+01
  -2.348925e+02  -1.743600e+02
  -5.824783e+01  -2.551735e+02
   1.683429e+02  -1.392648e+02
   2.539341e+02   4.498161e+01
   1.470480e+02   1.640526e+02
  -6.154219e+01   1.356902e+02
  -1.718305e+02   1.788971e-01
  -8.518602e+01  -9.158927e+01
   5.876733e+01  -3.312864e+01
   5.577452e+01   7.882075e+01
  -7.751439e+01   7.649050e+01
  -1.403022e+02  -4.733921e+01
  -3.400884e+01  -1.353449e+02
   1.122622e+02  -9.692445e+01
   1.409912e+02  -6.694502e+00
   5.943676e+01   4.821311e+01
  -3.228626e+01   8.266849e+01
  -9.293663e+01   1.135221e+02
  -1.260643e+02   7.650658e+01
  -1.054278e+02  -5.789117e+01
  -1.827810e+01  -1.767064e+02
   6.310535e+01  -1.543986e+02
   5.900361e+01  -3.938948e+01
   7.123861e+00   1.423644e+01
   1.012437e+01  -2.843534e+01
   7.955948e+01  -5.074143e+01
   1.180347e+02   2.526339e+01
   5.990731e+01   1.163201e+02
  -4.286548e+01   1.048939e+02
  -9.896746e+01  -6.395080e+00
  -7.374865e+01  -1.057545e+02
   1.474515e+01  -1.202878e+02
   1.094533e+02  -3.820264e+01
   1.340167e+02   7.106749e+01
   6.297005e+01   1.408830e+02
  -4.972449e+01   1.167465e+02
  -9.318060e+01   3.853684e+01
  -5.529205e+01  -7.998226e+00
  -3.358032e+01   4.509570e+00
  -9.098798e+01   1.524634e+01
  -1.565131e+02  -3.465625e+01
  -1.218905e+02  -1.218364e+02
   1.383931e+01  -1.764771e+02
   1.553707e+02  -1.579367e+02
   2.016400e+02  -7.444149e+01
   1.364041e+02   4.093087e+01
   2.078073e+01   1.189977e+02
  -5.408975e+01   1.030782e+02
  -3.136893e+01   1.310930e+01
   4.706272e+01  -4.265942e+01
   8.348604e+01   5.662431e+00
   1.875060e+01   8.385369e+01
  -7.090402e+01   7.166570e+01
  -7.396839e+01  -2.652256e+01
   1.196384e+01  -7.819741e+01
   7.967526e+01  -3.499770e+00
   5.193513e+01   1.102178e+02
  -3.437907e+01   1.369547e+02
  -1.028935e+02   5.820180e+01
  -1.224399e+02  -4.536759e+01
  -9.666773e+01  -1.026370e+02
  -3.130178e+01  -1.011068e+02
   4.497621e+01  -5.843385e+01
   6.921270e+01  -7.340485e+00
   2.488252e+01   9.019147e+00
  -2.509846e+01  -2.002801e+01
  -8.238688e+00  -5.275817e+01
   5.347977e+01  -3.755470e+01
   7.416423e+01   1.073241e+01
   2.396872e+01   3.211759e+01
  -3.146033e+01   4.688111e+00
  -1.876868e+01  -3.159227e+01
   5.392910e+01  -2.981101e+01
   1.137785e+02   1.268477e+01
   1.006898e+02   6.768796e+01
   1.604252e+01   1.058110e+02
  -8.159442e+01   1.008222e+02
  -1.193642e+02   4.556047e+01
  -7.198886e+01  -2.230236e+01
   7.285748e+00  -4.265583e+01
   3.343390e+01  -2.820576e+00
  -1.717542e+01   3.619653e+01
  -8.028536e+01   1.455822e+01
  -8.172480e+01  -5.023356e+01
  -1.939191e+01  -8.678453e+01
   4.480728e+01  -6.061435e+01
   5.976848e+01  -7.682814e+00
   2.798054e+01   1.874710e+01
  -9.442281e+00   2.167127e+00
  -1.100439e+01  -3.082718e+01
   3.171837e+01  -4.121549e+01
   7.929301e+01  -7.630183e+00
   7.403170e+01   5.224222e+01
   4.613587e+00   8.830967e+01
  -6.936852e+01   6.518656e+01
  -7.863908e+01   1.071695e+00
  -2.444394e+01  -4.577724e+01
   2.858778e+01  -4.297630e+01
   3.376803e+01  -1.042790e+01
   7.031493e+00   1.019852e+01
  -8.027199e+00   6.980535e+00
   4.521746e+00  -6.984433e-01
   2.576906e+01   8.701109e+00
   2.908690e+01   3.597139e+01
  -3.365349e-02   6.068392e+01
  -5.343042e+01   5.417834e+01
  -9.318770e+01   3.371012e+00
  -7.732589e+01  -6.423225e+01
  -1.105005e+01  -9.668220e+01
   4.868961e+01  -6.749395e+01
   5.585446e+01  -9.779770e+00
   2.687441e+01   2.398528e+01
   1.131176e+01   1.604533e+01
   2.288429e+01  -3.653995e+00
   3.342402e+01  -1.158172e+00
   1.534041e+01   1.973834e+01
  -1.943211e+01   3.340243e+01
  -4.063988e+01   1.971826e+01
  -3.105204e+01  -1.539012e+01
   7.846715e+00  -4.127307e+01
   5.530825e+01  -2.953774e+01
   7.388587e+01   2.366551e+01
   3.469991e+01   8.000641e+01
  -4.622398e+01   8.654674e+01
  -1.075056e+02   3.092523e+01
  -1.000838e+02  -4.159214e+01
  -3.760089e+01  -7.416253e+01
   2.047663e+01  -5.716149e+01
   4.126608e+01  -2.975970e+01
   3.411912e+01  -2.351138e+01
   2.938507e+01  -3.341485e+01
   3.825430e+01  -2.577786e+01
   4.848351e+01   1.273018e+01
   4.071152e+01   6.264044e+01
   5.896063e+00   8.751952e+01
  -4.141022e+01   6.427101e+01
  -6.823182e+01   5.459023e+00
  -5.162282e+01  -4.838360e+01
  -6.150333e+00  -6.225999e+01
   2.704893e+01  -3.643071e+01
   2.418260e+01  -1.768407e+00
   2.574140e+00   1.525242e+01
  -4.262044e+00   1.368887e+01
   1.260859e+01   9.208439e+00
   2.886135e+01   1.132567e+01
   1.656314e+01   1.543892e+01
  -2.401725e+01   1.256227e+01
  -6.022446e+01  -1.622829e+00
  -5.579859e+01  -2.188002e+01
  -7.272042e+00  -3.487570e+01
   4.566929e+01  -2.840251e+01
   5.592402e+01  -4.941883e+00
   1.898271e+01   1.512289e+01
  -2.214001e+01   1.278116e+01
  -2.630417e+01  -9.160589e+00
   1.381433e+00  -2.660358e+01
   2.438767e+01  -2.056669e+01
   2.378926e+01   3.789400e+00
   1.477133e+01   2.218327e+01
   1.551685e+01   1.945339e+01
   2.372253e+01   4.904086e+00
   2.384904e+01   4.202246e+00
   8.127121e+00   2.678282e+01
  -1.924078e+01   5.235478e+01
  -4.833202e+01   4.763072e+01
  -6.199496e+01   6.837770e+00
  -4.365809e+01  -3.725565e+01
   1.376157e-01  -4.651910e+01
   3.318637e+01  -1.999676e+01
   2.159367e+01   7.319540e+00
  -2.369074e+01   4.814347e+00
  -5.237258e+01  -2.304353e+01
  -2.657913e+01  -4.647674e+01
   3.566960e+01  -4.303001e+01
   7.821183e+01  -1.423986e+01
   6.513932e+01   2.026215e+01
   1.350725e+01   3.764660e+01
  -2.584118e+01   2.785392e+01
  -2.042938e+01   2.783307e+00
   1.420930e+01  -8.684608e+00
   3.278831e+01   1.162467e+01
   7.555061e+00   4.730674e+01
  -4.174353e+01   5.759687e+01
  -6.799013e+01   1.929678e+01
  -4.644292e+01  -4.392482e+01
   2.589036e+00  -7.932501e+01
   3.879269e+01  -5.565235e+01
   4.182060e+01   5.444028e+00
   2.108897e+01   4.985781e+01
  -3.961196e+00   4.435949e+01
  -1.984934e+01   7.933379e+00
  -2.123617e+01  -1.441857e+01
  -1.057535e+01  -5.772859e+00
  -9.773932e-01   6.969619e+00
  -6.032472e+00  -6.117860e+00
  -1.937373e+01  -3.529833e+01
  -1.547394e+01  -4.350326e+01
   1.778924e+01  -1.684609e+01
   5.376113e+01   1.844225e+01
   5.118744e+01   3.093980e+01
   6.850547e+00   2.043815e+01
  -3.582943e+01   7.366408e+00
  -3.625831e+01   1.435003e+00
  -4.622344e+00  -3.408725e+00
   1.607903e+01  -8.459810e+00
   6.249853e+00  -6.983145e+00
  -8.802244e+00   8.122350e-01
   1.184911e+00   4.772735e+00
   2.772407e+01   3.425846e+00
   3.387360e+01   9.924322e+00
   8.345142e-01   2.899526e+01
  -4.788478e+01   3.985816e+01
  -7.154204e+01   1.778895e+01
  -5.194835e+01  -2.924451e+01
  -5.732081e+00  -6.321934e+01
   3.432486e+01  -5.602194e+01
   4.665091e+01  -1.945917e+01
   3.212521e+01   1.115225e+01
   9.461937e+00   1.520551e+01
  -1.920834e+00   3.680309e+00
   2.791356e+00   1.749545e+00
   1.114093e+01   1.827461e+01
   6.904901e+00   3.540268e+01
  -1.236684e+01   2.728482e+01
  -3.015614e+01  -8.977830e+00
  -2.677168e+01  -4.378238e+01
   1.182035e+00  -4.339044e+01
   3.224794e+01  -6.582553e+00
   3.771112e+01   3.268976e+01
   9.481148e+00   4.141098e+01
  -2.737398e+01   1.967065e+01
  -3.777743e+01  -7.537505e+00
  -1.369424e+01  -2.083039e+01
   1.442890e+01  -1.890949e+01
   1.329557e+01  -9.423662e+00
  -1.319983e+01   4.721978e-01
  -2.789464e+01   1.969536e+00
  -6.959237e+00  -9.873439e+00
   3.027196e+01  -2.494441e+01
   4.516755e+01  -2.217815e+01
   2.532887e+01   4.352584e+00
  -5.898637e+00   3.129630e+01
  -2.014733e+01   2.969597e+01
  -1.353404e+01   1.564697e+00
   6.414482e-01  -2.117473e+01
   1.080630e+01  -1.489928e+01
   1.377290e+01   9.124194e+00
   9.141009e+00   2.228647e+01
  -2.592478e+00   1.307626e+01
  -1.419331e+01  -3.814697e+00
  -1.631941e+01  -9.662214e+00
  -8.483345e+00  -2.977709e+00
   5.974724e-01   2.798596e+00
   4.304812e+00  -2.085040e+00
   5.534627e+00  -1.266478e+01
   8.594939e+00  -1.464764e+01
   1.228351e+01  -1.514570e+00
   9.390884e+00   1.729965e+01
  -2.676289e+00   2.242832e+01
  -1.653372e+01   6.884216e+00
  -1.931018e+01  -1.594937e+01
  -3.731223e+00  -2.436435e+01
   2.114565e+01  -1.145148e+01
   3.317043e+01   8.692640e+00
   1.792764e+01   1.855424e+01
  -1.176013e+01   1.482130e+01
  -2.561289e+01   6.212737e+00
  -9.682920e+00   1.132409e+00
   1.445228e+01   1.899309e+00
   1.438221e+01   7.096896e+00
  -1.298493e+01   1.134015e+01
  -3.649800e+01   5.312059e+00
