
 $NMID
 id='ANONYMOUS ', fmtdat='(2E16.6)'
 volume=1.0
 tramp=1.0
 $END
   2.767685e+03  -2.982472e+02
   1.160163e+03   1.797810e+03
  -5.521711e+02   1.454080e+03
  -1.205924e+03   4.665975e+02
  -4.556051e+02  -3.770970e+02
   3.701962e+02  -3.772509e+02
   5.091797e+02   3.137008e+02
   8.946137e+01   5.340622e+02
  -4.665809e+02   3.944333e+02
  -4.983714e+02  -2.487190e+01
  -3.207139e+02  -5.296101e+02
   1.282534e+02  -4.498037e+02
   3.699166e+02  -1.220867e+02
   1.611355e+02   3.797791e+02
  -1.765987e+02   3.617910e+02
  -3.922583e+02   2.905288e+01
  -1.212744e+02  -3.687747e+02
   2.192130e+02  -2.949501e+02
   3.483100e+02  -5.350068e+00
   1.987442e+02   2.433646e+02
  -1.570833e+01   1.878382e+02
  -1.462881e+02   7.855588e+01
  -1.080301e+02  -1.258905e+01
   5.874704e+01  -3.998820e+01
   2.309139e+02   1.030083e+02
   1.233504e+02   2.923885e+02
  -2.600864e+02   2.281132e+02
  -4.929501e+02  -7.654048e+01
  -2.714440e+02  -3.785989e+02
   2.586342e+02  -2.812073e+02
   4.544573e+02   3.999160e+01
   2.156402e+02   3.205682e+02
  -1.821762e+02   3.029556e+02
  -3.471279e+02   1.035771e+02
  -2.501494e+02  -1.586921e+02
  -3.099127e+01  -2.808909e+02
   1.518401e+02  -1.456445e+02
   1.173024e+02   1.529781e+02
  -1.171713e+02   2.560180e+02
  -2.904591e+02  -3.370739e+01
  -1.479603e+02  -4.270188e+02
   2.363843e+02  -4.154550e+02
   3.923420e+02   3.928642e+01
   1.530741e+02   3.721735e+02
  -2.076299e+02   1.954300e+02
  -2.546529e+02  -2.039590e+02
   3.920355e+01  -3.406602e+02
   3.402585e+02  -7.732915e+01
   3.476388e+02   2.539163e+02
   8.123522e+01   3.546111e+02
  -2.583721e+02   1.888702e+02
  -3.875517e+02  -8.677310e+01
  -2.015138e+02  -2.719843e+02
   1.412632e+02  -2.220763e+02
   2.959045e+02   1.700605e+00
   1.325278e+02   1.534201e+02
  -1.003534e+02   5.931013e+01
  -8.831233e+01  -1.244115e+02
   1.298213e+02  -1.236961e+02
   2.326876e+02   7.129209e+01
   7.301970e+01   2.124099e+02
  -1.561290e+02   1.589321e+02
  -2.208498e+02   2.332968e+01
  -1.171237e+02  -7.003431e+01
   2.792418e+01  -1.399151e+02
   1.485921e+02  -1.933340e+02
   2.188631e+02  -1.233150e+02
   1.797259e+02   9.737302e+01
   2.865362e+01   2.762895e+02
  -1.001214e+02   2.294956e+02
  -8.785067e+01   5.051694e+01
  -3.285344e+00  -2.162997e+01
  -9.012244e+00   5.371990e+01
  -1.189200e+02   8.915934e+01
  -1.832086e+02  -3.183887e+01
  -1.016532e+02  -1.771845e+02
   5.750545e+01  -1.697548e+02
   1.539756e+02  -3.295173e+00
   1.198875e+02   1.610701e+02
  -2.339774e+01   1.905281e+02
  -1.746274e+02   6.358353e+01
  -2.135872e+02  -1.172308e+02
  -9.328148e+01  -2.217193e+02
   7.920313e+01  -1.765882e+02
   1.419719e+02  -5.656912e+01
   8.601586e+01   9.959134e+00
   5.456012e+01  -1.681269e+01
   1.369074e+02  -3.642722e+01
   2.380943e+02   4.363711e+01
   1.946122e+02   1.856799e+02
  -1.413451e+01   2.736694e+02
  -2.306361e+02   2.432573e+02
  -3.068060e+02   1.083645e+02
  -2.023847e+02  -7.080673e+01
  -2.530254e+01  -1.838536e+02
   8.869338e+01  -1.496017e+02
   4.820271e+01  -8.455442e+00
  -7.863728e+01   6.879528e+01
  -1.305345e+02  -1.273491e+01
  -2.547354e+01  -1.348526e+02
   1.160313e+02  -1.125196e+02
   1.200435e+02   4.472460e+01
  -1.687075e+01   1.293817e+02
  -1.286016e+02   1.987161e+01
  -9.700380e+01  -1.601311e+02
   3.201299e+01  -2.184986e+02
   1.487166e+02  -1.102921e+02
   1.951127e+02   4.878373e+01
   1.614056e+02   1.497456e+02
   5.640516e+01   1.583942e+02
  -6.739231e+01   9.445480e+01
  -1.074145e+02   1.182027e+01
  -3.539246e+01  -1.765272e+01
   4.381486e+01   2.827188e+01
   1.632898e+01   8.242960e+01
  -8.297885e+01   6.343640e+01
  -1.174379e+02  -1.173265e+01
  -3.879077e+01  -5.130460e+01
   5.067171e+01  -1.451894e+01
   3.514662e+01   4.369024e+01
  -7.647800e+01   5.147749e+01
  -1.733025e+02  -5.919043e+00
  -1.581776e+02  -9.368712e+01
  -2.983355e+01  -1.619508e+02
   1.215266e+02  -1.585677e+02
   1.802800e+02  -6.948289e+01
   1.054572e+02   3.993138e+01
  -1.733809e+01   6.889686e+01
  -5.627860e+01   9.395089e-01
   2.491224e+01  -6.403740e+01
   1.256040e+02  -2.981871e+01
   1.308033e+02   7.438668e+01
   3.523344e+01   1.354039e+02
  -6.715773e+01   9.783103e+01
  -9.409855e+01   1.394182e+01
  -4.479062e+01  -3.014388e+01
   1.745555e+01  -5.907579e+00
   2.353668e+01   4.790252e+01
  -4.283976e+01   6.703181e+01
  -1.191769e+02   1.629173e+01
  -1.138340e+02  -7.635806e+01
  -8.624760e+00  -1.320359e+02
   1.045420e+02  -9.509995e+01
   1.179897e+02   3.448048e+00
   3.418174e+01   7.426024e+01
  -4.812311e+01   6.658159e+01
  -5.545875e+01   1.362111e+01
  -1.239074e+01  -2.062828e+01
   1.347932e+01  -1.572533e+01
  -3.855848e+00   2.258829e-01
  -3.800892e+01  -9.481625e+00
  -4.694561e+01  -5.133863e+01
  -3.279174e+00  -9.371946e+01
   8.100355e+01  -8.725591e+01
   1.438817e+02  -1.047308e+01
   1.219614e+02   9.504988e+01
   2.034039e+01   1.463023e+02
  -7.123678e+01   1.036647e+02
  -8.481633e+01   1.588781e+01
  -4.089105e+01  -3.485945e+01
  -1.604220e+01  -2.353975e+01
  -3.228260e+01   4.845277e+00
  -4.791227e+01   2.160568e+00
  -2.279213e+01  -2.818540e+01
   2.767199e+01  -4.898824e+01
   5.964626e+01  -2.964296e+01
   4.644260e+01   2.120673e+01
  -1.114958e+01   6.255051e+01
  -8.486500e+01   4.735358e+01
  -1.157626e+02  -3.454418e+01
  -5.572474e+01  -1.226269e+02
   6.931842e+01  -1.366449e+02
   1.634562e+02  -5.315724e+01
   1.541145e+02   5.844435e+01
   6.167080e+01   1.117245e+02
  -2.748061e+01   9.005090e+01
  -6.047739e+01   4.927436e+01
  -5.242747e+01   3.867223e+01
  -4.564560e+01   5.110051e+01
  -5.858521e+01   3.894288e+01
  -7.463912e+01  -1.987846e+01
  -6.364723e+01  -9.765226e+01
  -9.896734e+00  -1.358317e+02
   6.482089e+01  -9.901784e+01
   1.067994e+02  -7.117414e+00
   7.961129e+01   7.580458e+01
   8.088344e+00   9.619464e+01
  -4.214085e+01   5.641061e+01
  -3.639027e+01   3.225958e+00
  -4.067345e+00  -2.333610e+01
   3.691664e+00  -2.170886e+01
  -2.318188e+01  -1.440143e+01
  -4.610604e+01  -1.641324e+01
  -2.497076e+01  -2.304280e+01
   3.728490e+01  -2.050982e+01
   9.129488e+01   8.279571e-02
   8.370324e+01   3.184635e+01
   9.909025e+00   5.244302e+01
  -7.037260e+01   4.161975e+01
  -8.580344e+01   5.203078e+00
  -2.847128e+01  -2.404707e+01
   3.558898e+01  -1.853153e+01
   4.291603e+01   1.445278e+01
   8.066257e-01   3.959066e+01
  -3.534551e+01   3.086908e+01
  -3.583168e+01  -3.262851e+00
  -2.301436e+01  -2.924729e+01
  -2.537923e+01  -2.487862e+01
  -3.914735e+01  -3.962476e+00
  -4.029201e+01  -4.051507e+00
  -1.714923e+01  -4.162377e+01
   2.569101e+01  -8.432194e+01
   7.246525e+01  -7.856415e+01
   9.586806e+01  -1.432455e+01
   6.869278e+01   5.657583e+01
   3.001453e-01   7.320459e+01
  -5.191462e+01   3.231757e+01
  -3.427754e+01  -1.129566e+01
   3.682411e+01  -1.006401e+01
   8.193626e+01   3.012283e+01
   4.370555e+01   6.664176e+01
  -5.051122e+01   6.611717e+01
  -1.154495e+02   2.790971e+01
  -9.740445e+01  -2.354857e+01
  -2.163920e+01  -5.336464e+01
   3.696526e+01  -4.169764e+01
   2.980897e+01  -3.928772e+00
  -2.221830e+01   1.434176e+01
  -5.150671e+01  -1.698575e+01
  -1.463837e+01  -7.224467e+01
   6.049004e+01  -8.776737e+01
   1.027891e+02  -2.888744e+01
   7.283340e+01   6.642321e+01
  -8.609483e-01   1.194255e+02
  -5.699796e+01   8.431856e+01
  -6.397256e+01  -5.996928e+00
  -3.452384e+01  -7.241659e+01
   2.620448e+00  -6.578538e+01
   2.788044e+01  -1.268294e+01
   3.200078e+01   2.066391e+01
   1.718432e+01   7.744994e+00
   2.728382e+00  -1.187417e+01
   9.948820e+00   8.056968e+00
   2.961791e+01   5.364703e+01
   2.315807e+01   6.772092e+01
  -2.745669e+01   2.684162e+01
  -8.136203e+01  -2.800447e+01
  -7.683128e+01  -4.708218e+01
  -9.579804e+00  -2.993664e+01
   5.433701e+01  -9.820289e+00
   5.422494e+01  -1.910407e+00
   6.189810e+00   4.179918e+00
  -2.457637e+01   1.278912e+01
  -9.524721e+00   1.200025e+01
   1.254558e+01  -2.031658e-02
  -3.161091e+00  -7.603422e+00
  -4.288563e+01  -6.930299e+00
  -5.017851e+01  -1.692901e+01
   1.647810e+00  -4.494056e+01
   7.496891e+01  -5.949410e+01
   1.082859e+02  -2.444495e+01
   7.659538e+01   4.707153e+01
   7.182731e+00   9.652519e+01
  -5.180349e+01   8.358988e+01
  -6.963895e+01   2.820972e+01
  -4.838222e+01  -1.636597e+01
  -1.462102e+01  -2.133753e+01
   2.703684e+00  -4.816169e+00
  -4.757117e+00  -3.345155e+00
  -1.810661e+01  -2.894183e+01
  -1.129519e+01  -5.426031e+01
   1.950212e+01  -4.101603e+01
   4.768310e+01   1.421314e+01
   4.138104e+01   6.667983e+01
  -2.521221e+00   6.548676e+01
  -4.995457e+01   9.486216e+00
  -5.732740e+01  -4.934502e+01
  -1.425547e+01  -6.187941e+01
   4.108691e+01  -2.966469e+01
   5.694498e+01   1.012644e+01
   2.197997e+01   2.980625e+01
  -1.940054e+01   2.896955e+01
  -1.845577e+01   1.666247e+01
   1.953147e+01   2.078174e+00
   3.994389e+01  -1.872162e+00
   7.811351e+00   1.427631e+01
  -4.776151e+01   3.649964e+01
  -6.843144e+01   3.220249e+01
  -3.667033e+01  -7.922705e+00
   1.087130e+01  -4.831383e+01
   3.171263e+01  -4.497884e+01
   2.058317e+01  -1.437634e+00
  -1.036708e+00   3.327804e+01
  -1.600924e+01   2.344388e+01
  -2.093028e+01  -1.317701e+01
  -1.458975e+01  -3.307451e+01
   2.136269e+00  -1.911532e+01
   1.970275e+01   5.176380e+00
   2.438863e+01   1.241008e+01
   1.403092e+01   1.584175e+00
   7.609222e-01  -5.713449e+00
  -5.341057e+00   4.054178e+00
  -7.753937e+00   2.112676e+01
  -1.308589e+01   2.329635e+01
  -1.842764e+01   1.628222e+00
  -1.364366e+01  -2.723199e+01
   5.147311e+00  -3.410255e+01
   2.612255e+01  -9.389404e+00
   2.938702e+01   2.527566e+01
   4.817122e+00   3.736991e+01
  -3.291944e+01   1.774856e+01
  -5.053752e+01  -1.279654e+01
  -2.718591e+01  -2.832002e+01
   1.754405e+01  -2.295145e+01
   3.818916e+01  -9.803478e+00
   1.423685e+01  -2.112672e+00
  -2.152808e+01  -3.962898e+00
  -2.052111e+01  -1.201602e+01
   2.107040e+01  -1.731097e+01
   5.611692e+01  -6.764137e+00
