
 $NMID
 id='ANONYMOUS ', fmtdat='(2E16.6)'
 volume=1.0
 tramp=1.0
 $END
  -3.999024e+03  -5.316016e+01
  -2.352035e+03  -2.468331e+03
   7.132763e+02  -2.584253e+03
   2.088389e+03  -6.940123e+02
   9.290871e+02   6.191594e+02
  -6.799582e+02   5.006445e+02
  -7.465052e+02  -4.909440e+02
   2.654071e+01  -1.003379e+03
   8.180066e+02  -5.967607e+02
   7.642091e+02   1.423213e+02
   4.219903e+02   7.763999e+02
  -1.914701e+02   8.822508e+02
  -5.431939e+02   7.581907e+01
  -3.023820e+02  -7.294378e+02
   3.169387e+02  -7.354483e+02
   5.404999e+02   3.089858e+01
   1.784204e+02   6.731314e+02
  -3.747454e+02   5.772773e+02
  -6.059553e+02   4.547627e+01
  -3.543750e+02  -4.047657e+02
  -1.203505e+01  -4.280974e+02
   2.537152e+02  -2.423009e+02
   2.307191e+02   1.607135e+01
  -9.331722e+01   7.599021e+01
  -3.810560e+02  -1.057420e+02
  -1.566768e+02  -4.006365e+02
   4.228005e+02  -3.902074e+02
   7.817503e+02   8.191528e+01
   3.884172e+02   5.638591e+02
  -3.810110e+02   4.805596e+02
  -7.104695e+02  -6.152631e+01
  -3.353034e+02  -4.987434e+02
   2.778151e+02  -5.161874e+02
   5.785494e+02  -1.789866e+02
   4.342066e+02   2.344872e+02
   8.064894e+01   4.794160e+02
  -2.234541e+02   3.139895e+02
  -2.075783e+02  -1.729803e+02
   1.561618e+02  -4.397718e+02
   4.598436e+02  -1.013264e+01
   2.537170e+02   6.625223e+02
  -3.459661e+02   6.878190e+02
  -6.515951e+02   1.147133e+00
  -2.784857e+02  -5.771751e+02
   3.134893e+02  -3.312476e+02
   4.077400e+02   3.115431e+02
  -4.864401e+01   5.440967e+02
  -5.358156e+02   1.282564e+02
  -5.663124e+02  -4.112948e+02
  -1.397326e+02  -5.787198e+02
   3.928653e+02  -3.255952e+02
   6.287324e+02   1.061589e+02
   3.646080e+02   4.154279e+02
  -1.742329e+02   3.794737e+02
  -4.679083e+02   4.260966e+01
  -2.477403e+02  -2.246453e+02
   1.355303e+02  -1.204844e+02
   1.611757e+02   1.630734e+02
  -1.669700e+02   2.013127e+02
  -3.638547e+02  -7.404684e+01
  -1.558882e+02  -3.082350e+02
   2.006647e+02  -2.622906e+02
   3.376495e+02  -6.980627e+01
   2.073689e+02   8.461896e+01
  -1.767830e+01   2.148244e+02
  -2.213470e+02   3.166436e+02
  -3.419852e+02   2.159880e+02
  -2.891916e+02  -1.337889e+02
  -6.711372e+01  -4.313268e+02
   1.300596e+02  -3.781823e+02
   1.307592e+02  -1.027282e+02
   2.630939e+01   2.648583e+01
   3.525358e+01  -6.763026e+01
   1.774524e+02  -1.179276e+02
   2.573371e+02   4.746205e+01
   1.439126e+02   2.546260e+02
  -7.037335e+01   2.446485e+02
  -2.118900e+02   9.869192e+00
  -1.816110e+02  -2.380245e+02
   1.141352e+01  -2.957099e+02
   2.561435e+02  -1.167734e+02
   3.514465e+02   1.738616e+02
   1.802315e+02   3.619231e+02
  -1.078000e+02   3.037975e+02
  -2.374649e+02   1.049363e+02
  -1.516034e+02  -1.521592e+01
  -8.438097e+01   2.568558e+01
  -2.157706e+02   6.520043e+01
  -3.876413e+02  -5.381735e+01
  -3.242865e+02  -2.832270e+02
   3.618270e+00  -4.303120e+02
   3.559248e+02  -3.909812e+02
   4.800578e+02  -1.808772e+02
   3.247290e+02   9.790104e+01
   4.243528e+01   2.873179e+02
  -1.419196e+02   2.448884e+02
  -9.183068e+01   2.142298e+01
   1.084925e+02  -1.188675e+02
   2.040029e+02  -1.397644e+00
   5.886889e+01   1.999860e+02
  -1.624368e+02   1.850456e+02
  -1.892733e+02  -5.262264e+01
   6.071991e+00  -1.990584e+02
   1.903490e+02  -4.837373e+01
   1.629765e+02   2.330087e+02
  -3.287668e+01   3.405867e+02
  -2.248729e+02   1.895749e+02
  -3.116330e+02  -6.174034e+01
  -2.608655e+02  -2.341556e+02
  -8.877975e+01  -2.558696e+02
   1.098876e+02  -1.538056e+02
   1.727637e+02  -1.670265e+01
   5.656962e+01   3.447912e+01
  -7.278189e+01  -3.714990e+01
  -3.524045e+01  -1.238559e+02
   1.190809e+02  -1.013328e+02
   1.794391e+02   8.363415e+00
   6.400070e+01   6.880248e+01
  -7.409416e+01   1.823909e+01
  -5.579784e+01  -6.470074e+01
   1.127079e+02  -7.804793e+01
   2.646296e+02   6.892911e-01
   2.506328e+02   1.291457e+02
   5.978445e+01   2.402706e+02
  -1.758392e+02   2.505586e+02
  -2.756891e+02   1.216905e+02
  -1.664448e+02  -5.420199e+01
   2.702471e+01  -1.116310e+02
   9.553314e+01  -7.809922e+00
  -2.807778e+01   1.048301e+02
  -1.925985e+02   6.280295e+01
  -2.117684e+02  -9.990295e+01
  -6.888114e+01  -2.056194e+02
   9.260069e+01  -1.563308e+02
   1.414177e+02  -2.937365e+01
   7.158681e+01   4.045875e+01
  -2.217504e+01   5.387119e+00
  -3.331677e+01  -7.533803e+01
   6.667362e+01  -1.039414e+02
   1.847805e+02  -2.482469e+01
   1.796488e+02   1.203281e+02
   1.764462e+01   2.109490e+02
  -1.615384e+02   1.555763e+02
  -1.898116e+02  -3.582209e-01
  -6.334683e+01  -1.167230e+02
   6.684840e+01  -1.093368e+02
   8.409021e+01  -2.793597e+01
   2.194395e+01   2.569402e+01
  -1.714242e+01   1.861366e+01
   1.083385e+01  -3.819480e+00
   6.541324e+01   1.444244e+01
   7.831431e+01   8.175763e+01
   8.392956e+00   1.497409e+02
  -1.232737e+02   1.411338e+02
  -2.238416e+02   2.021450e+01
  -1.911537e+02  -1.480239e+02
  -3.535303e+01  -2.305557e+02
   1.101689e+02  -1.628354e+02
   1.332746e+02  -2.272999e+01
   6.738770e+01   5.711991e+01
   2.680219e+01   3.681473e+01
   5.160481e+01  -8.660109e+00
   7.371247e+01  -2.396615e+00
   3.417967e+01   4.748019e+01
  -4.453666e+01   7.792580e+01
  -9.470373e+01   4.538896e+01
  -7.533417e+01  -3.572704e+01
   1.602238e+01  -1.005660e+02
   1.328932e+02  -7.640004e+01
   1.833521e+02   5.086279e+01
   9.373402e+01   1.924453e+02
  -1.027364e+02   2.174424e+02
  -2.564247e+02   8.845627e+01
  -2.482615e+02  -8.726880e+01
  -1.047857e+02  -1.742384e+02
   3.947669e+01  -1.431242e+02
   9.439170e+01  -8.083672e+01
   8.106849e+01  -6.630941e+01
   6.937639e+01  -8.566125e+01
   9.234965e+01  -6.758934e+01
   1.225886e+02   2.598101e+01
   1.085253e+02   1.518153e+02
   2.202915e+01   2.186373e+02
  -1.002836e+02   1.639470e+02
  -1.701699e+02   1.596424e+01
  -1.281666e+02  -1.200389e+02
  -1.428257e+01  -1.534756e+02
   6.550160e+01  -8.690734e+01
   5.508968e+01  -3.024406e-01
   2.757993e+00   3.852686e+01
  -8.614352e+00   3.051507e+01
   3.678015e+01   1.791071e+01
   7.553665e+01   2.478807e+01
   4.143182e+01   3.824346e+01
  -5.980058e+01   3.304047e+01
  -1.470773e+02  -1.359284e+00
  -1.337034e+02  -5.086212e+01
  -1.403450e+01  -8.180109e+01
   1.146680e+02  -6.477453e+01
   1.383274e+02  -7.753913e+00
   4.528475e+01   4.005609e+01
  -5.968660e+01   3.294781e+01
  -7.350733e+01  -2.115868e+01
  -5.216658e+00  -6.522105e+01
   5.584736e+01  -5.219794e+01
   5.924975e+01   5.149927e+00
   3.712853e+01   4.870604e+01
   3.799794e+01   3.921703e+01
   5.938792e+01   1.661357e+00
   6.517033e+01   1.543607e+00
   3.233307e+01   6.593496e+01
  -3.621472e+01   1.390933e+02
  -1.151141e+02   1.316273e+02
  -1.572967e+02   2.640809e+01
  -1.152279e+02  -9.117554e+01
  -3.031591e+00  -1.203862e+02
   8.436581e+01  -5.560951e+01
   5.764890e+01   1.645671e+01
  -5.700664e+01   1.784558e+01
  -1.316020e+02  -4.472981e+01
  -7.114198e+01  -1.041530e+02
   7.986233e+01  -1.058623e+02
   1.849718e+02  -4.647021e+01
   1.562215e+02   3.522409e+01
   3.464782e+01   8.504690e+01
  -6.013646e+01   6.829440e+01
  -4.823728e+01   7.711830e+00
   3.641213e+01  -2.441622e+01
   8.544358e+01   2.381066e+01
   2.819912e+01   1.149635e+02
  -9.237810e+01   1.454881e+02
  -1.635816e+02   5.416223e+01
  -1.201856e+02  -1.009459e+02
  -5.155675e+00  -1.896808e+02
   8.548886e+01  -1.356541e+02
   9.994553e+01   8.284042e+00
   5.605537e+01   1.127564e+02
  -2.354397e+00   1.008242e+02
  -4.320740e+01   1.843522e+01
  -5.007721e+01  -3.067476e+01
  -2.618138e+01  -8.692106e+00
  -3.511045e+00   1.994000e+01
  -1.666871e+01  -1.382071e+01
  -5.023719e+01  -8.481249e+01
  -3.980749e+01  -1.050522e+02
   4.335941e+01  -4.226717e+01
   1.310912e+02   4.055934e+01
   1.237208e+02   7.039624e+01
   1.543093e+01   4.775985e+01
  -8.614421e+01   1.973059e+01
  -8.535559e+01   6.180079e+00
  -9.520159e+00  -7.280232e+00
   3.772152e+01  -2.172544e+01
   1.318161e+01  -1.851762e+01
  -2.062041e+01   4.763581e-01
   6.990678e+00   9.737017e+00
   7.226959e+01   7.807009e+00
   8.487842e+01   2.817579e+01
   1.161650e+00   7.926963e+01
  -1.203937e+02   1.050156e+02
  -1.799724e+02   4.578178e+01
  -1.325328e+02  -7.435121e+01
  -1.876593e+01  -1.581855e+02
   8.106833e+01  -1.397056e+02
   1.126589e+02  -5.074318e+01
   7.815911e+01   2.299594e+01
   2.293401e+01   3.396313e+01
  -4.482134e+00   8.441177e+00
   8.761374e+00   4.707564e+00
   3.110678e+01   4.435683e+01
   2.029500e+01   8.624078e+01
  -3.046230e+01   6.781661e+01
  -7.913345e+01  -2.011149e+01
  -7.184689e+01  -1.071398e+02
   2.329007e-01  -1.090337e+02
   8.165673e+01  -2.042890e+01
   9.719331e+01   7.620800e+01
   2.676088e+01   9.970608e+01
  -6.600114e+01   4.950792e+01
  -9.242717e+01  -1.518265e+01
  -3.457061e+01  -4.834864e+01
   3.280693e+01  -4.702497e+01
   2.906762e+01  -2.631011e+01
  -3.357623e+01  -2.151775e+00
  -6.499590e+01   3.303887e+00
  -1.091353e+01  -2.462191e+01
   7.851562e+01  -6.086889e+01
   1.107348e+02  -5.249709e+01
   5.910773e+01   1.442413e+01
  -1.709979e+01   7.998261e+01
  -5.159995e+01   7.382660e+01
  -3.538116e+01   2.334989e+00
  -5.408384e-01  -5.452881e+01
   2.583951e+01  -3.922118e+01
   3.488959e+01   1.964183e+01
   2.432500e+01   5.167935e+01
  -3.886975e+00   2.970349e+01
  -3.150310e+01  -9.175704e+00
  -3.677261e+01  -1.951814e+01
  -1.964261e+01  -5.102447e-01
  -5.333699e-01   1.215951e+01
   6.317463e+00  -4.844563e+00
   9.200593e+00  -3.551915e+01
   1.951727e+01  -4.079437e+01
   3.112683e+01  -4.112908e+00
   2.473503e+01   4.531377e+01
  -6.704800e+00   5.787919e+01
  -4.352261e+01   1.651591e+01
  -5.087270e+01  -4.141086e+01
  -1.034806e+01  -6.177231e+01
   5.338762e+01  -3.007985e+01
   8.350136e+01   1.895003e+01
   4.510542e+01   4.413677e+01
  -2.881657e+01   3.714420e+01
  -6.231149e+01   1.706196e+01
  -2.229893e+01   3.257086e+00
   3.729053e+01   4.151904e+00
   3.657941e+01   1.842061e+01
  -3.154235e+01   3.121953e+01
  -9.077886e+01   1.682822e+01
