
 $NMID
 id='ANONYMOUS ', fmtdat='(2E16.6)'
 volume=1.0
 tramp=1.0
 $END
   2.579754e+03  -8.076796e+01
   1.351352e+03   1.197664e+03
   5.088869e+01   1.176073e+03
  -6.992001e+02   9.322835e+02
  -6.654522e+02   2.396972e+02
  -2.857472e+01  -3.041232e+01
   1.236971e+02   1.498961e+02
  -1.209698e+02   2.699186e+02
  -2.571258e+02   3.221920e+02
  -3.049957e+02   4.887094e+01
  -2.658839e+02  -3.134580e+02
  -1.179648e+02  -4.143944e+02
   1.043300e+02  -1.642990e+02
   3.303735e+01   2.276604e+02
  -7.575571e+01   3.168412e+02
  -2.057812e+02   1.039249e+02
  -1.960654e+02  -2.345348e+02
   1.862641e+01  -4.034948e+02
   2.671730e+02  -2.811118e+02
   3.395896e+02   5.715193e+01
   1.871863e+02   2.116579e+02
  -3.318814e+01   1.905420e+02
  -2.801603e+01   8.943837e+01
   1.250004e+02   1.248143e+02
   1.612561e+02   2.408057e+02
  -2.185650e+01   2.297708e+02
  -3.027501e+02   6.349302e+01
  -3.383686e+02  -1.425954e+02
  -1.297474e+02  -1.919475e+02
   1.790133e+02  -7.734120e+01
   2.644702e+02   1.109284e+02
   1.170793e+02   2.244432e+02
  -1.135739e+02   1.728388e+02
  -2.563869e+02   9.187982e+01
  -2.075736e+02  -5.643267e+01
  -9.586778e+01  -1.554907e+02
  -2.759803e+01  -1.099723e+02
  -5.849452e+01   1.788812e+01
  -1.064216e+02   5.184438e+01
  -9.052438e+01  -9.256515e+01
   1.766553e+01  -2.624955e+02
   1.309464e+02  -2.414750e+02
   1.591142e+02  -2.380139e+01
   7.380007e+01   1.500601e+02
  -5.348794e+01   6.849328e+01
  -8.292497e+01  -1.323989e+02
   5.036488e+01  -2.161873e+02
   2.383653e+02  -5.045862e+01
   2.912283e+02   2.004084e+02
   1.259121e+02   2.935410e+02
  -1.411312e+02   1.745919e+02
  -2.953412e+02  -9.182549e+00
  -2.335238e+02  -1.138399e+02
  -2.045596e+01  -1.230798e+02
   1.504838e+02  -8.333719e+01
   1.585066e+02  -2.909370e+01
   5.351601e+01   1.374955e+01
  -1.513102e+01   1.862824e+01
   3.139059e+01  -1.009931e+00
   1.127376e+02   1.386960e+01
   8.676374e+01   9.367521e+01
  -7.593050e+01   1.692522e+02
  -2.339238e+02   1.254593e+02
  -2.146276e+02  -5.669716e+01
  -8.812527e+00  -2.461074e+02
   2.084801e+02  -2.763475e+02
   2.651557e+02  -1.118897e+02
   1.639424e+02   1.153919e+02
   4.478017e+01   2.380578e+02
   5.675296e+00   2.130957e+02
   1.077094e+01   1.348834e+02
  -2.412923e+01   9.995756e+01
  -1.106017e+02   9.623798e+01
  -1.785427e+02   4.290993e+01
  -1.607853e+02  -7.372814e+01
  -5.999839e+01  -1.607110e+02
   6.011470e+01  -1.207053e+02
   1.194772e+02   2.917715e+01
   8.167534e+01   1.612238e+02
  -3.762759e+01   1.649838e+02
  -1.627765e+02   4.262695e+01
  -2.017966e+02  -1.055938e+02
  -1.226849e+02  -1.839494e+02
   1.140736e+01  -1.718858e+02
   9.366561e+01  -1.246285e+02
   1.013445e+02  -8.596499e+01
   1.159666e+02  -6.802552e+01
   2.026208e+02  -3.038341e+01
   2.895376e+02   6.415406e+01
   2.317728e+02   1.998425e+02
  -9.262674e-01   3.058940e+02
  -2.491942e+02   2.872157e+02
  -3.204363e+02   1.340395e+02
  -1.908564e+02  -6.417698e+01
  -1.761201e+01  -1.655694e+02
   4.242570e+01  -1.254034e+02
  -1.882457e+01  -2.577447e+01
  -7.916833e+01   1.530650e+01
  -6.495712e+01  -3.459387e+01
   7.084990e+00  -8.688606e+01
   6.396275e+01  -5.791169e+01
   5.206915e+01   3.164303e+01
  -2.320173e+01   7.067053e+01
  -1.013971e+02  -1.112073e+01
  -1.025995e+02  -1.582661e+02
   7.354751e+00  -2.329096e+02
   1.694033e+02  -1.537627e+02
   2.618589e+02   2.784764e+01
   2.039226e+02   1.753220e+02
   4.439072e+01   1.913292e+02
  -8.593612e+01   9.978175e+01
  -9.367507e+01   9.002620e+00
  -1.510740e+01  -1.722865e+00
   3.539925e+01   4.704294e+01
  -5.615243e+00   7.609483e+01
  -8.235662e+01   4.309637e+01
  -9.283747e+01  -1.393383e+01
  -1.517298e+01  -2.899230e+01
   5.971755e+01   1.687362e+01
   2.588469e+01   7.286297e+01
  -1.103536e+02   7.051844e+01
  -2.223000e+02  -9.782127e+00
  -1.881971e+02  -1.205139e+02
  -2.084164e+01  -1.869077e+02
   1.436318e+02  -1.637571e+02
   1.795748e+02  -7.008323e+01
   8.871416e+01   2.142229e+01
  -1.708805e+01   4.316721e+01
  -3.377484e+01  -3.767296e+00
   4.118746e+01  -4.696989e+01
   1.221161e+02  -1.907101e+01
   1.242110e+02   6.486749e+01
   4.156294e+01   1.197881e+02
  -5.343333e+01   8.883210e+01
  -7.975739e+01   1.152646e+01
  -2.629258e+01  -2.268007e+01
   3.486180e+01   2.085033e+01
   2.060312e+01   8.494906e+01
  -7.106888e+01   8.811736e+01
  -1.503470e+02   1.077549e+01
  -1.273033e+02  -9.075882e+01
  -1.106846e+01  -1.406367e+02
   9.783863e+01  -1.059536e+02
   1.105921e+02  -1.794596e+01
   3.707549e+01   5.448587e+01
  -3.501718e+01   6.204929e+01
  -3.904261e+01   1.815076e+01
   7.076552e+00  -1.666413e+01
   3.221104e+01  -4.616264e+00
  -4.714293e+00   2.635939e+01
  -6.934614e+01   1.165723e+01
  -8.660402e+01  -6.181772e+01
  -1.766407e+01  -1.297924e+02
   9.724926e+01  -1.156103e+02
   1.681708e+02  -1.254796e+01
   1.385827e+02   1.036695e+02
   3.472564e+01   1.505059e+02
  -5.879716e+01   1.076208e+02
  -8.298075e+01   2.880567e+01
  -5.188378e+01  -1.953804e+01
  -2.743678e+01  -1.363800e+01
  -4.069030e+01   1.465059e+01
  -6.497401e+01   8.603611e+00
  -4.761159e+01  -4.084198e+01
   2.287945e+01  -8.347093e+01
   9.069570e+01  -5.802518e+01
   8.466244e+01   2.960224e+01
  -8.807715e+00   9.948353e+01
  -1.200120e+02   7.174015e+01
  -1.505237e+02  -4.350419e+01
  -6.154878e+01  -1.503855e+02
   8.694973e+01  -1.576330e+02
   1.836472e+02  -6.196921e+01
   1.684669e+02   5.489704e+01
   7.063965e+01   1.105869e+02
  -2.259383e+01   9.436890e+01
  -5.516210e+01   5.863697e+01
  -4.187038e+01   5.290576e+01
  -3.504743e+01   7.045717e+01
  -6.038266e+01   6.121924e+01
  -9.346600e+01  -6.174017e+00
  -8.907978e+01  -1.025079e+02
  -2.712719e+01  -1.552987e+02
   6.132972e+01  -1.172677e+02
   1.134136e+02  -1.258273e+01
   8.817251e+01   8.186967e+01
   9.770663e+00   1.036643e+02
  -4.998553e+01   5.446504e+01
  -4.197232e+01  -1.118601e+01
   6.539754e+00  -4.058036e+01
   2.437220e+01  -2.708511e+01
  -1.679235e+01  -4.741893e+00
  -6.274042e+01  -5.222095e+00
  -3.930922e+01  -2.446411e+01
   5.277120e+01  -3.094587e+01
   1.265489e+02  -3.768617e+00
   1.022303e+02   4.296364e+01
  -4.034292e+00   7.088023e+01
  -9.650010e+01   5.360992e+01
  -1.007085e+02   2.997626e+00
  -3.050027e+01  -3.880025e+01
   4.044028e+01  -3.504390e+01
   5.678646e+01   1.018468e+01
   2.220239e+01   5.253546e+01
  -2.410226e+01   4.994127e+01
  -4.912570e+01   6.410101e+00
  -4.827177e+01  -3.178319e+01
  -3.844951e+01  -2.826881e+01
  -3.769405e+01  -4.480211e-02
  -4.574493e+01  -4.463701e-01
  -3.764746e+01  -5.214507e+01
   1.137283e+01  -1.112334e+02
   8.737673e+01  -1.090870e+02
   1.333101e+02  -3.121957e+01
   9.886496e+01   6.252110e+01
   4.271167e+00   9.639621e+01
  -6.599112e+01   5.579727e+01
  -4.552721e+01  -3.627889e+00
   4.020737e+01  -1.812127e+01
   9.481646e+01   2.238255e+01
   5.225360e+01   7.165212e+01
  -5.500988e+01   7.922864e+01
  -1.295666e+02   3.510838e+01
  -1.090954e+02  -2.597585e+01
  -2.315931e+01  -5.820154e+01
   4.281459e+01  -4.172580e+01
   3.407856e+01   2.177578e+00
  -2.588056e+01   2.465562e+01
  -6.552488e+01  -9.047553e+00
  -3.652299e+01  -7.867618e+01
   4.169880e+01  -1.143511e+02
   1.026115e+02  -6.131856e+01
   9.489417e+01   5.283642e+01
   2.661012e+01   1.308248e+02
  -4.669540e+01   1.012454e+02
  -7.254513e+01  -3.259317e+00
  -4.266771e+01  -8.020294e+01
   7.941832e+00  -6.951919e+01
   3.685783e+01  -1.043399e+01
   2.978412e+01   2.001904e+01
   8.095808e+00   3.217921e+00
   4.541154e+00  -1.094252e+01
   2.667360e+01   1.631992e+01
   4.497118e+01   6.013830e+01
   2.199242e+01   6.818072e+01
  -4.117174e+01   2.972357e+01
  -9.382763e+01  -1.807152e+01
  -8.357165e+01  -4.054517e+01
  -1.477231e+01  -3.744769e+01
   5.098863e+01  -2.422060e+01
   5.843932e+01  -7.577642e+00
   1.602477e+01   9.900539e+00
  -2.013005e+01   1.734091e+01
  -1.547339e+01   7.866056e+00
   5.846370e+00  -4.739550e+00
  -1.654616e+00  -2.339471e+00
  -4.151602e+01   6.071749e+00
  -6.429295e+01  -9.965651e+00
  -2.400261e+01  -5.587574e+01
   6.306159e+01  -8.822033e+01
   1.274396e+02  -5.705572e+01
   1.136831e+02   3.080546e+01
   3.363482e+01   1.080322e+02
  -4.889276e+01   1.138714e+02
  -8.009978e+01   5.498705e+01
  -5.872742e+01  -7.510945e+00
  -2.260381e+01  -2.642079e+01
  -5.712399e+00  -1.224197e+01
  -1.187907e+01  -8.634331e+00
  -2.179899e+01  -3.486047e+01
  -1.436415e+01  -6.308315e+01
   1.676711e+01  -5.206032e+01
   5.419274e+01   3.630399e+00
   6.289012e+01   6.216641e+01
   2.131844e+01   7.457325e+01
  -4.595206e+01   3.043918e+01
  -7.784407e+01  -3.381115e+01
  -3.722390e+01  -6.887848e+01
   3.990261e+01  -5.270629e+01
   7.649746e+01  -2.998861e+00
   3.958122e+01   4.136799e+01
  -2.016982e+01   5.043447e+01
  -3.070646e+01   2.407072e+01
   1.287541e+01  -7.864722e+00
   4.568818e+01  -1.133427e+01
   1.660516e+01   1.889534e+01
  -4.857384e+01   4.995267e+01
  -8.211095e+01   4.135566e+01
  -5.398228e+01  -9.783310e+00
   2.339994e+00  -5.973548e+01
   3.670550e+01  -6.142853e+01
   3.381206e+01  -1.411714e+01
   1.094621e+01   3.367138e+01
  -1.233072e+01   3.670631e+01
  -2.660276e+01  -1.222486e+00
  -2.464132e+01  -3.499931e+01
  -3.584558e+00  -3.104457e+01
   2.339832e+01  -1.133887e+00
   3.223545e+01   1.615675e+01
   1.586195e+01   3.441468e+00
  -4.583478e+00  -1.608356e+01
  -4.428662e+00  -1.035877e+01
   9.906497e+00   2.040240e+01
   9.981451e+00   4.105698e+01
  -1.446491e+01   2.401941e+01
  -3.543366e+01  -1.663911e+01
  -1.993172e+01  -3.960653e+01
   2.382411e+01  -2.210150e+01
   4.800165e+01   1.704267e+01
   1.917160e+01   3.997669e+01
  -3.890974e+01   2.937122e+01
  -6.795802e+01  -1.185312e+00
  -3.881612e+01  -2.767167e+01
   1.695316e+01  -3.630667e+01
   4.361952e+01  -2.642172e+01
   2.167457e+01  -7.003506e+00
  -1.505991e+01   6.555255e+00
  -2.090190e+01   9.340840e-01
   1.186162e+01  -1.762118e+01
   4.792965e+01  -2.049698e+01
