
 $NMID
 id='ANONYMOUS ', fmtdat='(2E16.6)'
 volume=1.0
 tramp=1.0
 $END
  -5.117859e+03   2.383744e+02
  -2.521219e+03  -3.140837e+03
   9.936923e+02  -3.094406e+03
   2.448860e+03  -7.168949e+02
   9.379520e+02   9.699578e+02
  -7.902917e+02   5.810877e+02
  -1.042473e+03  -5.293523e+02
   5.079566e+01  -1.250976e+03
   1.084955e+03  -8.774093e+02
   1.081859e+03   2.063839e+02
   4.848671e+02   1.019283e+03
  -3.869408e+02   1.117299e+03
  -7.797330e+02   1.328854e+02
  -3.911079e+02  -9.330963e+02
   4.456912e+02  -8.724467e+02
   7.102075e+02   1.859693e+01
   2.707769e+02   7.904187e+02
  -4.029428e+02   7.207429e+02
  -5.854860e+02   4.130524e+01
  -3.746147e+02  -4.558700e+02
   7.537703e+00  -4.875522e+02
   3.245106e+02  -2.534361e+02
   2.906846e+02   4.055493e+01
  -1.224809e+02   1.109834e+02
  -4.956506e+02  -1.635816e+02
  -2.720564e+02  -5.552899e+02
   5.120824e+02  -4.936949e+02
   1.023795e+03   9.683190e+01
   5.272516e+02   6.612984e+02
  -4.715907e+02   5.753606e+02
  -8.988674e+02  -5.412437e+01
  -3.940440e+02  -5.856690e+02
   3.751814e+02  -5.908037e+02
   6.779878e+02  -2.153844e+02
   4.691377e+02   2.773852e+02
   5.491063e+01   5.611644e+02
  -2.674106e+02   3.305438e+02
  -2.087144e+02  -2.934277e+02
   2.114327e+02  -5.253245e+02
   5.248220e+02   4.594683e+01
   2.570764e+02   8.284709e+02
  -4.013158e+02   8.145839e+02
  -7.161950e+02  -4.724662e+01
  -3.025982e+02  -7.024036e+02
   3.503894e+02  -3.909712e+02
   4.601469e+02   3.835637e+02
  -7.515299e+01   6.342236e+02
  -6.372971e+02   1.525967e+02
  -6.737056e+02  -4.762068e+02
  -1.675488e+02  -6.777447e+02
   4.633230e+02  -3.980562e+02
   7.261867e+02   8.819951e+01
   4.028891e+02   4.537787e+02
  -2.095029e+02   4.249387e+02
  -5.141110e+02   4.665765e+01
  -2.489111e+02  -2.498061e+02
   1.601729e+02  -1.234455e+02
   1.553654e+02   1.943301e+02
  -2.144907e+02   2.148859e+02
  -3.990991e+02  -1.134268e+02
  -1.350969e+02  -3.663638e+02
   2.531375e+02  -2.845607e+02
   3.696778e+02  -5.469970e+01
   2.076445e+02   1.049951e+02
  -2.993316e+01   2.353584e+02
  -2.460474e+02   3.486712e+02
  -3.920820e+02   2.344155e+02
  -3.390862e+02  -1.732809e+02
  -6.903628e+01  -5.167740e+02
   1.761088e+02  -4.380811e+02
   1.677312e+02  -1.029489e+02
   2.314902e+01   3.935698e+01
   3.093927e+01  -9.619561e+01
   2.190538e+02  -1.595455e+02
   3.270557e+02   5.968478e+01
   1.781412e+02   3.269194e+02
  -1.009078e+02   3.075110e+02
  -2.723776e+02   4.018782e+00
  -2.145392e+02  -2.930416e+02
   3.170578e+01  -3.439443e+02
   3.098594e+02  -1.219332e+02
   3.958835e+02   2.106791e+02
   1.932090e+02   4.088142e+02
  -1.247267e+02   3.442810e+02
  -2.621827e+02   1.245730e+02
  -1.778116e+02  -1.201314e+01
  -1.200436e+02   2.139888e+01
  -2.600743e+02   5.383966e+01
  -4.296298e+02  -8.234189e+01
  -3.491716e+02  -3.289015e+02
   1.676399e+01  -4.889229e+02
   4.122294e+02  -4.468752e+02
   5.606500e+02  -2.070432e+02
   3.889561e+02   1.201872e+02
   5.280223e+01   3.417220e+02
  -1.730583e+02   2.876206e+02
  -1.078579e+02   2.948257e+01
   1.311347e+02  -1.224863e+02
   2.337191e+02   1.361185e+01
   5.001597e+01   2.292890e+02
  -2.022129e+02   1.937930e+02
  -2.110880e+02  -7.932963e+01
   3.170859e+01  -2.252460e+02
   2.270949e+02  -2.871472e+01
   1.666755e+02   2.931042e+02
  -6.408743e+01   3.928230e+02
  -2.696715e+02   1.987813e+02
  -3.540806e+02  -9.075023e+01
  -2.968596e+02  -2.789398e+02
  -1.033608e+02  -2.992018e+02
   1.258235e+02  -1.791290e+02
   2.033165e+02  -2.052217e+01
   7.068362e+01   3.934793e+01
  -7.797228e+01  -4.479110e+01
  -3.255300e+01  -1.458626e+02
   1.450099e+02  -1.147173e+02
   2.075862e+02   1.772131e+01
   6.810313e+01   8.688034e+01
  -8.957327e+01   2.058380e+01
  -5.995598e+01  -8.054438e+01
   1.405265e+02  -9.023640e+01
   3.133190e+02   1.210006e+01
   2.885300e+02   1.669629e+02
   5.923490e+01   2.897897e+02
  -2.174492e+02   2.901162e+02
  -3.307561e+02   1.336074e+02
  -1.991892e+02  -6.853532e+01
   2.842597e+01  -1.303918e+02
   1.062960e+02  -1.071405e+01
  -3.795114e+01   1.132979e+02
  -2.240955e+02   5.957422e+01
  -2.377784e+02  -1.276614e+02
  -6.755241e+01  -2.432200e+02
   1.173063e+02  -1.790823e+02
   1.677909e+02  -2.752951e+01
   8.138801e+01   5.324838e+01
  -2.929428e+01   8.034600e+00
  -4.010928e+01  -9.080295e+01
   8.072308e+01  -1.257121e+02
   2.220602e+02  -3.024030e+01
   2.148701e+02   1.428801e+02
   2.089584e+01   2.487434e+02
  -1.912348e+02   1.830225e+02
  -2.233729e+02   1.148192e-01
  -7.242212e+01  -1.354528e+02
   8.124324e+01  -1.274453e+02
   1.010862e+02  -3.305876e+01
   2.681907e+01   3.166623e+01
  -2.074787e+01   2.525063e+01
   9.820689e+00  -2.572093e+00
   7.227127e+01   1.495842e+01
   8.885518e+01   9.209797e+01
   9.543250e+00   1.725286e+02
  -1.443120e+02   1.636891e+02
  -2.610147e+02   2.116232e+01
  -2.212251e+02  -1.769000e+02
  -3.774043e+01  -2.723300e+02
   1.320276e+02  -1.901010e+02
   1.566145e+02  -2.456477e+01
   7.774458e+01   6.772998e+01
   3.119691e+01   4.237283e+01
   6.058505e+01  -1.179490e+01
   8.803205e+01  -5.037073e+00
   4.329222e+01   5.506857e+01
  -4.833160e+01   9.334184e+01
  -1.104435e+02   5.450418e+01
  -8.810087e+01  -4.242790e+01
   1.944124e+01  -1.175277e+02
   1.577712e+02  -8.516128e+01
   2.177663e+02   6.486553e+01
   1.080284e+02   2.273250e+02
  -1.253472e+02   2.523205e+02
  -3.045734e+02   9.965491e+01
  -2.890863e+02  -1.058316e+02
  -1.180030e+02  -2.046912e+02
   5.104095e+01  -1.665437e+02
   1.128911e+02  -9.170944e+01
   9.615558e+01  -7.312296e+01
   8.225225e+01  -9.571418e+01
   1.063126e+02  -7.516793e+01
   1.387524e+02   3.293751e+01
   1.211942e+02   1.779695e+02
   2.303249e+01   2.537452e+02
  -1.163836e+02   1.892385e+02
  -1.983891e+02   1.774119e+01
  -1.523843e+02  -1.404989e+02
  -2.045383e+01  -1.815809e+02
   7.694566e+01  -1.063359e+02
   6.994781e+01  -4.667744e+00
   8.957873e+00   4.501324e+01
  -9.158113e+00   4.006498e+01
   3.975147e+01   2.528865e+01
   8.501686e+01   2.975527e+01
   4.737726e+01   4.306340e+01
  -7.001095e+01   3.793303e+01
  -1.735682e+02  -8.893328e-01
  -1.591929e+02  -6.028109e+01
  -1.906627e+01  -9.940001e+01
   1.332240e+02  -8.093579e+01
   1.626682e+02  -1.352434e+01
   5.535346e+01   4.413732e+01
  -6.546614e+01   3.772603e+01
  -8.060002e+01  -2.365071e+01
  -2.109891e+00  -7.411695e+01
   6.656662e+01  -5.972972e+01
   6.902076e+01   5.925521e+00
   4.433208e+01   5.779185e+01
   4.645827e+01   4.996200e+01
   6.979210e+01   8.288236e+00
   7.266609e+01   5.613045e+00
   3.131371e+01   7.561875e+01
  -4.654000e+01   1.569316e+02
  -1.337278e+02   1.487303e+02
  -1.792507e+02   2.931640e+01
  -1.310915e+02  -1.044651e+02
  -4.575705e+00  -1.372433e+02
   9.436516e+01  -6.242609e+01
   6.413426e+01   1.858382e+01
  -6.711145e+01   1.612686e+01
  -1.519380e+02  -5.844916e+01
  -8.029404e+01  -1.252815e+02
   9.636121e+01  -1.226931e+02
   2.187668e+02  -5.032398e+01
   1.833286e+02   4.456196e+01
   3.969995e+01   9.964983e+01
  -7.023111e+01   7.867560e+01
  -5.482814e+01   9.336327e+00
   4.339364e+01  -2.616900e+01
   9.736684e+01   2.996652e+01
   2.801201e+01   1.336440e+02
  -1.115696e+02   1.663708e+02
  -1.902036e+02   5.947593e+01
  -1.355371e+02  -1.200385e+02
  -8.435983e-01  -2.222942e+02
   1.034893e+02  -1.584346e+02
   1.184013e+02   1.124339e+01
   6.510931e+01   1.357802e+02
  -4.663837e+00   1.232909e+02
  -5.314303e+01   2.481355e+01
  -6.107339e+01  -3.678219e+01
  -3.277551e+01  -1.381916e+01
  -5.477835e+00   2.028890e+01
  -1.917167e+01  -1.754302e+01
  -5.611646e+01  -1.001009e+02
  -4.375311e+01  -1.239699e+02
   5.105502e+01  -4.926459e+01
   1.516763e+02   4.953292e+01
   1.437291e+02   8.396207e+01
   1.949081e+01   5.413431e+01
  -9.822076e+01   1.942929e+01
  -9.807704e+01   5.928950e+00
  -1.047302e+01  -5.637414e+00
   4.438327e+01  -2.152675e+01
   1.485401e+01  -2.058931e+01
  -2.617462e+01  -4.179429e-01
   5.523315e+00   1.121398e+01
   8.326894e+01   9.024668e+00
   9.992161e+01   2.952168e+01
   3.359492e+00   8.558581e+01
  -1.370981e+02   1.174641e+02
  -2.042989e+02   5.531216e+01
  -1.478912e+02  -7.927248e+01
  -1.833934e+01  -1.775087e+02
   9.240988e+01  -1.594388e+02
   1.258047e+02  -5.754039e+01
   8.670922e+01   2.828283e+01
   2.554727e+01   3.974338e+01
  -4.720501e+00   7.687343e+00
   9.740197e+00   2.844694e+00
   3.448585e+01   5.084875e+01
   2.233524e+01   1.006550e+02
  -3.439048e+01   7.796566e+01
  -8.801715e+01  -2.546347e+01
  -7.855145e+01  -1.250498e+02
   2.702322e+00  -1.242163e+02
   9.313815e+01  -1.964132e+01
   1.092121e+02   9.133455e+01
   2.890509e+01   1.163804e+02
  -7.614499e+01   5.657656e+01
  -1.064291e+02  -1.856469e+01
  -4.017047e+01  -5.612492e+01
   3.800484e+01  -5.361522e+01
   3.457651e+01  -2.943649e+01
  -3.902465e+01  -1.924406e+00
  -7.838216e+01   4.561158e+00
  -1.709768e+01  -2.703797e+01
   8.856349e+01  -6.995227e+01
   1.286609e+02  -6.374512e+01
   6.973850e+01   1.054105e+01
  -1.908014e+01   8.745804e+01
  -5.775657e+01   8.460397e+01
  -3.650620e+01   5.503794e+00
   3.391328e+00  -6.006702e+01
   3.035781e+01  -4.354814e+01
   3.872187e+01   2.453981e+01
   2.671759e+01   6.224662e+01
  -4.838863e+00   3.601249e+01
  -3.740364e+01  -1.124434e+01
  -4.491333e+01  -2.481262e+01
  -2.471134e+01  -2.768346e+00
  -4.300048e-01   1.263401e+01
   9.650052e+00  -6.623794e+00
   1.335756e+01  -4.070661e+01
   2.473118e+01  -4.553454e+01
   3.713047e+01  -3.106842e+00
   2.861940e+01   5.295239e+01
  -8.644011e+00   6.680334e+01
  -5.121069e+01   1.992292e+01
  -5.892381e+01  -4.584685e+01
  -1.176001e+01  -6.968703e+01
   6.140755e+01  -3.398200e+01
   9.559666e+01   2.190460e+01
   5.120569e+01   5.058350e+01
  -3.375236e+01   4.181731e+01
  -7.238633e+01   1.864460e+01
  -2.661755e+01   4.227619e+00
   4.178304e+01   6.305039e+00
   4.138232e+01   2.112440e+01
  -3.625106e+01   3.296521e+01
  -1.034749e+02   1.579199e+01
