
 $NMID
 id='ANONYMOUS ', fmtdat='(2E16.6)'
 volume=1.0
 tramp=1.0
 $END
   4.355460e+03  -9.499134e+01
   2.552289e+03   2.309085e+03
  -5.366683e+02   2.693805e+03
  -1.842175e+03   1.010962e+03
  -8.642854e+02  -4.087096e+02
   4.055996e+02  -2.921562e+02
   6.492464e+02   5.278369e+02
  -7.742745e+01   8.581112e+02
  -7.551461e+02   6.658188e+02
  -8.634010e+02  -7.966667e+01
  -4.292432e+02  -8.501414e+02
   1.089568e+02  -8.964123e+02
   4.934957e+02  -1.323385e+02
   3.235641e+02   6.220868e+02
  -1.908986e+02   6.443271e+02
  -4.803000e+02   8.259369e+01
  -2.944264e+02  -6.010983e+02
   2.845502e+02  -5.957585e+02
   6.157535e+02  -1.616964e+02
   4.264074e+02   3.338766e+02
   1.694532e+01   4.358139e+02
  -2.926776e+02   2.644413e+02
  -1.954189e+02   3.671357e+01
   1.537987e+02  -2.122069e+01
   3.686183e+02   1.525828e+02
   1.217821e+02   4.180647e+02
  -4.768121e+02   3.468793e+02
  -7.850721e+02  -1.286740e+02
  -3.953053e+02  -5.483353e+02
   4.117340e+02  -4.135064e+02
   7.016683e+02   9.124677e+01
   3.187441e+02   4.779182e+02
  -2.808846e+02   4.739375e+02
  -5.605263e+02   1.646444e+02
  -3.887568e+02  -2.155971e+02
  -8.987450e+01  -4.250583e+02
   1.530588e+02  -2.614648e+02
   1.098257e+02   1.675838e+02
  -1.751669e+02   3.298602e+02
  -3.833125e+02  -5.864918e+01
  -1.611604e+02  -6.454651e+02
   3.295305e+02  -6.388966e+02
   5.501969e+02   6.040398e+00
   2.290661e+02   5.249528e+02
  -2.694225e+02   2.875731e+02
  -3.274736e+02  -3.198953e+02
   9.813654e+01  -5.304493e+02
   5.480365e+02  -1.050702e+02
   5.616141e+02   4.351114e+02
   1.416847e+02   5.969055e+02
  -3.782591e+02   3.232619e+02
  -6.075512e+02  -9.926288e+01
  -3.674042e+02  -3.713693e+02
   1.357254e+02  -3.330064e+02
   4.248574e+02  -5.202827e+01
   2.545518e+02   1.653400e+02
  -8.743930e+01   9.261131e+01
  -1.347011e+02  -1.221244e+02
   1.431950e+02  -1.463577e+02
   3.240005e+02   7.822807e+01
   1.356703e+02   2.788398e+02
  -2.076578e+02   2.522131e+02
  -3.490051e+02   8.033638e+01
  -2.124001e+02  -9.454519e+01
   3.385400e+01  -2.489949e+02
   2.439887e+02  -3.367627e+02
   3.475654e+02  -2.070636e+02
   2.839808e+02   1.464276e+02
   7.687489e+01   4.320667e+02
  -1.027652e+02   3.842998e+02
  -1.114684e+02   1.318651e+02
  -3.532855e+01   1.060669e+01
  -6.396980e+01   8.919235e+01
  -2.065503e+02   1.129313e+02
  -2.738999e+02  -7.034264e+01
  -1.446200e+02  -2.730274e+02
   8.381728e+01  -2.407802e+02
   2.208676e+02   1.300631e+01
   1.704818e+02   2.501207e+02
  -3.364002e+01   2.791895e+02
  -2.632809e+02   8.775778e+01
  -3.343258e+02  -1.769796e+02
  -1.713548e+02  -3.374963e+02
   9.220994e+01  -2.944672e+02
   2.187779e+02  -1.333392e+02
   1.601693e+02  -2.038434e+01
   1.184417e+02  -2.382185e+01
   2.397530e+02  -3.031444e+01
   3.876174e+02   8.541676e+01
   3.139138e+02   2.914047e+02
  -2.137706e+01   4.351160e+02
  -3.806762e+02   3.983644e+02
  -5.008291e+02   1.838734e+02
  -3.284863e+02  -1.076747e+02
  -4.352035e+01  -2.901564e+02
   1.242921e+02  -2.426102e+02
   6.488336e+01  -3.616328e+01
  -1.125482e+02   8.498327e+01
  -1.793090e+02  -2.302723e+01
  -3.515336e+01  -1.866701e+02
   1.573163e+02  -1.555110e+02
   1.664362e+02   6.402538e+01
  -2.493283e+01   1.826263e+02
  -1.926328e+02   2.208133e+01
  -1.601889e+02  -2.518974e+02
   4.015536e+01  -3.485135e+02
   2.445375e+02  -1.861357e+02
   3.335262e+02   7.358964e+01
   2.662323e+02   2.486500e+02
   7.499653e+01   2.639542e+02
  -1.224165e+02   1.538818e+02
  -1.721951e+02   1.843287e+01
  -5.379116e+01  -2.722585e+01
   6.429389e+01   4.344632e+01
   1.932742e+01   1.215928e+02
  -1.297939e+02   9.039466e+01
  -1.794245e+02  -2.059917e+01
  -5.763616e+01  -7.477525e+01
   7.976564e+01  -1.340818e+01
   5.241165e+01   7.507080e+01
  -1.296159e+02   7.838243e+01
  -2.839206e+02  -2.084775e+01
  -2.513889e+02  -1.597468e+02
  -3.700778e+01  -2.573882e+02
   2.025279e+02  -2.447169e+02
   2.859884e+02  -1.090839e+02
   1.639618e+02   5.606949e+01
  -2.594534e+01   1.058142e+02
  -8.533975e+01   8.915316e+00
   3.750211e+01  -9.230288e+01
   1.944262e+02  -4.873990e+01
   2.081625e+02   1.090174e+02
   6.244620e+01   2.095464e+02
  -1.010085e+02   1.555999e+02
  -1.466138e+02   2.475477e+01
  -6.742249e+01  -4.202603e+01
   3.027689e+01   2.933610e+00
   3.247906e+01   8.891819e+01
  -8.064351e+01   1.106297e+02
  -2.023553e+02   2.020192e+01
  -1.892966e+02  -1.290379e+02
  -1.827561e+01  -2.178988e+02
   1.652187e+02  -1.628810e+02
   1.948126e+02  -8.061028e+00
   6.692447e+01   1.119581e+02
  -6.622991e+01   1.109042e+02
  -8.353752e+01   2.916786e+01
  -1.615482e+01  -2.855567e+01
   2.687464e+01  -1.954706e+01
  -6.013637e+00   1.139560e+01
  -7.022517e+01  -5.240934e+00
  -8.668699e+01  -8.220256e+01
  -1.036291e+01  -1.587799e+02
   1.309857e+02  -1.466888e+02
   2.322907e+02  -1.585314e+01
   1.953118e+02   1.562108e+02
   3.486642e+01   2.367640e+02
  -1.111210e+02   1.658639e+02
  -1.364403e+02   2.557136e+01
  -7.105375e+01  -5.541121e+01
  -2.885535e+01  -3.537794e+01
  -5.369296e+01   1.225412e+01
  -8.063580e+01   4.865286e+00
  -4.375540e+01  -5.159159e+01
   4.295327e+01  -8.927513e+01
   1.053168e+02  -5.172957e+01
   8.444590e+01   4.226041e+01
  -1.980553e+01   1.130547e+02
  -1.491735e+02   7.767330e+01
  -1.964688e+02  -6.317447e+01
  -9.085750e+01  -2.067287e+02
   1.175108e+02  -2.232380e+02
   2.702380e+02  -8.466715e+01
   2.533141e+02   9.472822e+01
   1.019364e+02   1.800677e+02
  -4.417239e+01   1.455705e+02
  -9.727333e+01   8.083456e+01
  -8.071840e+01   6.584602e+01
  -6.918648e+01   8.773614e+01
  -9.467248e+01   7.132833e+01
  -1.272369e+02  -2.453584e+01
  -1.118876e+02  -1.562085e+02
  -2.216435e+01  -2.266805e+02
   1.024869e+02  -1.699174e+02
   1.741050e+02  -1.589070e+01
   1.323352e+02   1.261420e+02
   1.482285e+01   1.609283e+02
  -7.143271e+01   8.994382e+01
  -6.246900e+01  -3.685176e+00
  -2.767790e+00  -4.613344e+01
   1.603998e+01  -3.566681e+01
  -3.239806e+01  -1.800570e+01
  -8.017361e+01  -2.317093e+01
  -4.631036e+01  -3.923131e+01
   6.605768e+01  -3.608639e+01
   1.619574e+02   1.065137e+00
   1.431329e+02   5.601707e+01
   1.057036e+01   9.026460e+01
  -1.242636e+02   7.190022e+01
  -1.445911e+02   9.978916e+00
  -4.670858e+01  -4.358454e+01
   5.960699e+01  -3.839287e+01
   7.455000e+01   1.969630e+01
   8.430199e+00   7.005185e+01
  -5.416345e+01   5.870840e+01
  -6.362509e+01  -3.572520e+00
  -4.559352e+01  -5.324644e+01
  -4.284543e+01  -4.501874e+01
  -5.859957e+01  -3.821776e+00
  -6.374655e+01  -1.888948e+00
  -3.347716e+01  -6.881787e+01
   3.619016e+01  -1.453666e+02
   1.214658e+02  -1.376162e+02
   1.680792e+02  -2.746883e+01
   1.228131e+02   9.597721e+01
   2.868362e+00   1.281000e+02
  -8.924335e+01   6.096534e+01
  -6.109535e+01  -1.607447e+01
   5.893712e+01  -1.913486e+01
   1.357949e+02   4.685675e+01
   7.238113e+01   1.099459e+02
  -8.429800e+01   1.102121e+02
  -1.911349e+02   4.520879e+01
  -1.593032e+02  -3.950342e+01
  -3.366634e+01  -8.664334e+01
   6.166008e+01  -6.616979e+01
   4.701329e+01  -4.446130e+00
  -4.014181e+01   2.597773e+01
  -8.949547e+01  -2.461747e+01
  -3.026543e+01  -1.195784e+02
   9.400906e+01  -1.537047e+02
   1.687106e+02  -6.103275e+01
   1.261441e+02   1.029538e+02
   7.182530e+00   2.000179e+02
  -8.993314e+01   1.439532e+02
  -1.063356e+02  -1.026605e+01
  -5.691721e+01  -1.215766e+02
   8.095052e+00  -1.066955e+02
   4.906964e+01  -1.748489e+01
   5.035057e+01   3.374098e+01
   2.309099e+01   1.004062e+01
   3.723256e+00  -1.868819e+01
   2.150540e+01   1.773541e+01
   5.390457e+01   9.012906e+01
   3.735007e+01   1.090102e+02
  -5.030645e+01   4.337343e+01
  -1.378203e+02  -4.212436e+01
  -1.274032e+02  -7.436813e+01
  -1.645648e+01  -5.225739e+01
   8.754051e+01  -2.180533e+01
   8.876246e+01  -4.669976e+00
   1.257251e+01   9.763324e+00
  -3.777430e+01   2.171368e+01
  -1.546215e+01   1.609230e+01
   2.005068e+01  -2.433781e+00
  -4.680552e+00  -8.221053e+00
  -7.210963e+01  -2.506006e+00
  -9.167279e+01  -2.262916e+01
  -1.155657e+01  -7.899425e+01
   1.158451e+02  -1.134805e+02
   1.855388e+02  -5.928321e+01
   1.426674e+02   6.575903e+01
   2.475545e+01   1.612272e+02
  -8.179348e+01   1.501015e+02
  -1.161079e+02   5.794654e+01
  -8.074336e+01  -2.379898e+01
  -2.470975e+01  -3.837011e+01
   2.674816e+00  -1.121038e+01
  -9.293481e+00  -5.871185e+00
  -2.982161e+01  -4.696678e+01
  -1.897883e+01  -9.006897e+01
   3.071760e+01  -7.076699e+01
   8.021286e+01   1.922225e+01
   7.639008e+01   1.085394e+02
   5.126790e+00   1.126512e+02
  -8.121931e+01   2.468390e+01
  -1.029469e+02  -7.570144e+01
  -3.186284e+01  -1.053338e+02
   6.836364e+01  -5.659569e+01
   1.005324e+02   1.435343e+01
   3.972784e+01   5.506432e+01
  -3.535231e+01   5.384705e+01
  -3.492351e+01   2.665613e+01
   3.250602e+01  -2.378035e+00
   7.041511e+01  -5.959951e+00
   1.611245e+01   2.682992e+01
  -8.037393e+01   6.568758e+01
  -1.187509e+02   5.616515e+01
  -6.618731e+01  -1.420573e+01
   1.628603e+01  -8.419348e+01
   5.558231e+01  -8.084795e+01
   3.941097e+01  -7.213527e+00
   2.256162e+00   5.579069e+01
  -2.604300e+01   4.461349e+01
  -3.666812e+01  -1.746843e+01
  -2.594175e+01  -5.638856e+01
   3.941956e+00  -3.629148e+01
   3.485507e+01   8.398651e+00
   4.127825e+01   2.466753e+01
   2.112958e+01   4.206860e+00
  -1.340022e+00  -1.493203e+01
  -6.694639e+00  -1.984850e-01
  -4.594976e+00   3.569895e+01
  -1.402467e+01   4.766843e+01
  -3.220306e+01   1.177199e+01
  -3.329113e+01  -4.298283e+01
  -1.079251e+00  -6.149207e+01
   4.388116e+01  -2.192786e+01
   5.740360e+01   3.830038e+01
   1.433156e+01   6.221253e+01
  -5.601460e+01   3.270662e+01
  -8.906313e+01  -1.691374e+01
  -4.762929e+01  -4.508764e+01
   3.051336e+01  -4.125835e+01
   6.623028e+01  -2.140186e+01
   2.638174e+01  -4.015092e+00
  -3.430204e+01  -2.141350e-01
  -3.642837e+01  -1.307427e+01
   2.853362e+01  -2.909162e+01
   8.749758e+01  -1.864129e+01
