
 $NMID
 id='ANONYMOUS ', fmtdat='(2E16.6)'
 volume=1.0
 tramp=1.0
 $END
   3.364573e+03  -3.067920e+02
   2.310000e+03   1.998237e+03
  -2.866139e+02   2.016524e+03
  -1.624908e+03   1.230215e+03
  -7.978640e+02  -3.139589e+01
   1.165207e+02  -3.625693e+02
   4.801580e+02   2.128040e+02
   8.179967e+01   6.543358e+02
  -4.291891e+02   6.351641e+02
  -6.765898e+02   1.362618e+00
  -4.919546e+02  -5.755516e+02
   4.935565e+01  -6.920989e+02
   4.119620e+02  -1.712752e+02
   2.745204e+02   4.798340e+02
  -2.450291e+02   5.033742e+02
  -4.465950e+02   7.643617e+01
  -3.147008e+02  -5.488978e+02
   1.530321e+02  -5.722484e+02
   5.041595e+02  -2.164826e+02
   4.276643e+02   2.266324e+02
   1.159339e+02   3.586603e+02
  -1.471654e+02   2.152920e+02
  -1.511582e+02   3.752439e+01
   1.471634e+02  -4.134747e+00
   3.083679e+02   2.198000e+02
   7.684876e+01   3.793163e+02
  -4.202311e+02   2.514220e+02
  -6.318328e+02  -1.553105e+02
  -2.663914e+02  -4.178342e+02
   3.288794e+02  -3.020148e+02
   5.678519e+02   1.075185e+02
   2.755281e+02   3.857687e+02
  -2.296804e+02   4.248552e+02
  -4.839859e+02   1.708700e+02
  -3.697862e+02  -1.484214e+02
  -9.793558e+01  -3.391644e+02
   7.359030e+01  -2.341033e+02
   4.166540e+01   1.080389e+02
  -1.499954e+02   2.295163e+02
  -2.634341e+02  -7.688691e+01
  -9.165563e+01  -5.076159e+02
   2.395293e+02  -4.919561e+02
   3.881344e+02  -8.476000e+00
   1.630339e+02   3.499957e+02
  -1.727203e+02   1.694255e+02
  -2.123861e+02  -2.631663e+02
   9.348676e+01  -3.869063e+02
   4.501328e+02  -5.557006e+01
   4.941842e+02   3.463413e+02
   1.610474e+02   4.797865e+02
  -2.949003e+02   2.801299e+02
  -5.206405e+02  -3.324445e+01
  -3.406023e+02  -2.440411e+02
   6.411755e+01  -2.416841e+02
   3.122811e+02  -7.535064e+01
   2.090105e+02   6.876071e+01
  -3.149848e+01   4.449153e+01
  -7.527149e+01  -7.628685e+01
   1.115779e+02  -9.121882e+01
   2.462920e+02   5.576299e+01
   1.225438e+02   2.137187e+02
  -1.469299e+02   2.331364e+02
  -3.003932e+02   1.145464e+02
  -2.183672e+02  -6.999869e+01
   1.605334e+01  -2.544584e+02
   2.420932e+02  -3.307482e+02
   3.295991e+02  -1.810434e+02
   2.398478e+02   1.411662e+02
   6.094227e+01   3.756471e+02
  -5.473397e+01   3.360686e+02
  -5.102170e+01   1.443413e+02
  -2.832329e+01   5.263538e+01
  -9.764160e+01   9.646848e+01
  -2.182133e+02   8.427931e+01
  -2.483970e+02  -8.126389e+01
  -1.227900e+02  -2.455572e+02
   7.205555e+01  -2.112347e+02
   1.959025e+02   1.007573e+01
   1.597421e+02   2.190961e+02
  -2.199251e+01   2.511910e+02
  -2.418815e+02   8.416575e+01
  -3.184084e+02  -1.492042e+02
  -1.744323e+02  -2.956657e+02
   6.077164e+01  -2.702981e+02
   1.767363e+02  -1.459946e+02
   1.377636e+02  -5.800057e+01
   1.191594e+02  -5.320571e+01
   2.461775e+02  -4.972622e+01
   3.913422e+02   6.610216e+01
   3.178201e+02   2.647040e+02
  -2.828439e+00   4.143198e+02
  -3.434797e+02   3.909588e+02
  -4.497950e+02   1.864701e+02
  -2.898149e+02  -8.534248e+01
  -3.669271e+01  -2.520722e+02
   9.035222e+01  -2.110918e+02
   3.245156e+01  -3.760130e+01
  -1.031361e+02   5.929779e+01
  -1.345596e+02  -2.315293e+01
  -1.598849e+01  -1.481964e+02
   1.205360e+02  -1.181902e+02
   1.198609e+02   5.042290e+01
  -2.463906e+01   1.397608e+02
  -1.567510e+02   1.007425e+01
  -1.421540e+02  -2.198698e+02
   1.810984e+01  -3.163625e+02
   2.133348e+02  -1.894357e+02
   3.190850e+02   5.053304e+01
   2.644513e+02   2.285439e+02
   7.644077e+01   2.483029e+02
  -1.105913e+02   1.393589e+02
  -1.506057e+02   1.456988e+01
  -4.311122e+01  -1.609741e+01
   5.465417e+01   5.036626e+01
   8.895762e+00   1.087428e+02
  -1.165143e+02   7.141437e+01
  -1.481204e+02  -2.199050e+01
  -3.471253e+01  -5.825488e+01
   8.282044e+01   2.908878e+00
   4.582557e+01   8.450046e+01
  -1.322020e+02   8.911273e+01
  -2.812606e+02  -5.687301e+00
  -2.489136e+02  -1.454524e+02
  -4.198965e+01  -2.450764e+02
   1.828206e+02  -2.334060e+02
   2.549103e+02  -1.060341e+02
   1.405050e+02   4.232373e+01
  -2.514168e+01   8.515655e+01
  -7.033671e+01   2.939419e+00
   4.002803e+01  -8.138801e+01
   1.745690e+02  -4.286592e+01
   1.843568e+02   9.223839e+01
   5.773384e+01   1.795893e+02
  -8.465662e+01   1.340481e+02
  -1.234613e+02   2.038382e+01
  -5.069697e+01  -3.587883e+01
   3.643039e+01   1.154406e+01
   3.091688e+01   9.418855e+01
  -8.081599e+01   1.102638e+02
  -1.927775e+02   1.966831e+01
  -1.755107e+02  -1.192205e+02
  -1.758332e+01  -1.969850e+02
   1.446748e+02  -1.470737e+02
   1.687972e+02  -1.233556e+01
   5.679660e+01   9.264283e+01
  -5.687069e+01   9.497797e+01
  -6.828992e+01   2.692566e+01
  -5.922876e+00  -2.233696e+01
   3.053906e+01  -1.101714e+01
  -8.652994e+00   1.993518e+01
  -8.002153e+01   2.715844e+00
  -9.909535e+01  -7.864886e+01
  -1.929164e+01  -1.584040e+02
   1.228046e+02  -1.483975e+02
   2.212410e+02  -2.314164e+01
   1.869127e+02   1.373797e+02
   4.173012e+01   2.127791e+02
  -9.342192e+01   1.535294e+02
  -1.205439e+02   3.164521e+01
  -6.689902e+01  -4.244546e+01
  -2.915445e+01  -2.714644e+01
  -5.268911e+01   1.498217e+01
  -8.171841e+01   8.952458e+00
  -5.021461e+01  -5.060964e+01
   3.623388e+01  -9.654219e+01
   1.086568e+02  -6.467317e+01
   9.455173e+01   3.546514e+01
  -1.247664e+01   1.173102e+02
  -1.447629e+02   8.867267e+01
  -1.904272e+02  -5.152048e+01
  -8.691945e+01  -1.951535e+02
   1.073308e+02  -2.134928e+02
   2.472886e+02  -8.634377e+01
   2.326997e+02   7.874758e+01
   9.795651e+01   1.590160e+02
  -3.407882e+01   1.318064e+02
  -8.192751e+01   7.619946e+01
  -6.339920e+01   6.546960e+01
  -5.186737e+01   8.886564e+01
  -8.210366e+01   7.697267e+01
  -1.240072e+02  -1.246896e+01
  -1.170897e+02  -1.394384e+02
  -3.253581e+01  -2.108430e+02
   8.956530e+01  -1.612022e+02
   1.610181e+02  -1.847197e+01
   1.240373e+02   1.143134e+02
   1.458080e+01   1.474067e+02
  -6.696214e+01   8.053347e+01
  -5.875723e+01  -9.436692e+00
  -4.007927e-01  -4.999581e+01
   2.022340e+01  -3.594445e+01
  -2.665396e+01  -1.232640e+01
  -7.663098e+01  -1.479353e+01
  -4.650424e+01  -3.549485e+01
   6.402825e+01  -3.991138e+01
   1.588276e+02  -5.862649e+00
   1.389204e+02   5.190428e+01
   8.403769e+00   9.029994e+01
  -1.208343e+02   7.400007e+01
  -1.386506e+02   1.180675e+01
  -4.598792e+01  -4.352063e+01
   5.477909e+01  -4.185599e+01
   7.356123e+01   1.330555e+01
   1.655563e+01   6.473817e+01
  -4.437245e+01   5.903221e+01
  -6.205377e+01   2.337528e+00
  -4.991045e+01  -4.576963e+01
  -4.329352e+01  -3.975861e+01
  -5.320906e+01  -1.077489e+00
  -6.132613e+01   9.431817e-01
  -4.055497e+01  -6.438058e+01
   2.388014e+01  -1.419498e+02
   1.121354e+02  -1.402062e+02
   1.641774e+02  -3.747779e+01
   1.235334e+02   8.483218e+01
   7.487185e+00   1.250158e+02
  -8.288995e+01   6.696800e+01
  -5.894316e+01  -9.412370e+00
   5.280266e+01  -2.196156e+01
   1.267716e+02   3.510356e+01
   7.058119e+01   9.795000e+01
  -7.444633e+01   1.053892e+02
  -1.774118e+02   4.772655e+01
  -1.507952e+02  -3.303697e+01
  -3.308037e+01  -8.043993e+01
   5.881998e+01  -6.256040e+01
   4.714115e+01  -3.988199e+00
  -3.564029e+01   2.779720e+01
  -8.638244e+01  -1.645339e+01
  -3.828213e+01  -1.065856e+02
   7.332603e+01  -1.462047e+02
   1.477996e+02  -6.803453e+01
   1.202686e+02   8.316628e+01
   1.856878e+01   1.791697e+02
  -7.363886e+01   1.337152e+02
  -9.685691e+01  -6.708297e+00
  -5.473313e+01  -1.101280e+02
   8.084590e+00  -9.699485e+01
   4.717735e+01  -1.537803e+01
   4.429172e+01   3.060473e+01
   1.624256e+01   8.226999e+00
   2.572622e+00  -1.763871e+01
   2.562668e+01   1.586418e+01
   5.575964e+01   8.094300e+01
   3.497211e+01   9.830447e+01
  -4.931758e+01   4.200232e+01
  -1.285956e+02  -3.244631e+01
  -1.179880e+02  -6.344431e+01
  -1.804015e+01  -4.982722e+01
   7.649169e+01  -2.625405e+01
   8.157671e+01  -8.548657e+00
   1.622993e+01   8.958114e+00
  -3.134224e+01   2.145764e+01
  -1.566391e+01   1.476206e+01
   1.593749e+01  -2.770916e+00
  -2.872218e+00  -6.205137e+00
  -6.394212e+01   1.114381e+00
  -8.818660e+01  -1.802370e+01
  -2.072845e+01  -7.443609e+01
   9.977710e+01  -1.129735e+02
   1.756495e+02  -6.734154e+01
   1.452574e+02   5.108058e+01
   3.583716e+01   1.494412e+02
  -6.969649e+01   1.490571e+02
  -1.072851e+02   6.622076e+01
  -7.692995e+01  -1.433961e+01
  -2.625882e+01  -3.373159e+01
  -1.826954e+00  -1.075655e+01
  -1.308312e+01  -5.493224e+00
  -3.161163e+01  -4.315738e+01
  -2.197875e+01  -8.413008e+01
   2.390652e+01  -6.907701e+01
   7.324381e+01   1.025765e+01
   7.663412e+01   9.201084e+01
   1.487985e+01   1.020896e+02
  -6.911122e+01   3.074919e+01
  -9.857612e+01  -5.890528e+01
  -3.855331e+01  -9.492701e+01
   5.735300e+01  -6.077499e+01
   9.527103e+01   3.788159e+00
   4.374518e+01   5.029744e+01
  -2.833967e+01   5.610045e+01
  -3.354721e+01   2.857472e+01
   2.654296e+01  -4.243838e+00
   6.470054e+01  -8.529531e+00
   1.842559e+01   2.600830e+01
  -7.144166e+01   6.495327e+01
  -1.124037e+02   5.517785e+01
  -6.843370e+01  -1.250562e+01
   8.570863e+00  -7.969132e+01
   5.045222e+01  -7.938226e+01
   4.052989e+01  -1.311967e+01
   7.245515e+00   4.804322e+01
  -2.123856e+01   4.385915e+01
  -3.460560e+01  -1.024953e+01
  -2.734288e+01  -4.921261e+01
   4.206703e-01  -3.589606e+01
   3.134131e+01   4.067157e+00
   3.921130e+01   2.140184e+01
   1.879446e+01   3.670994e+00
  -4.798824e+00  -1.687638e+01
  -7.541046e+00  -6.490722e+00
   2.559971e+00   2.795671e+01
  -9.360579e-01   4.477173e+01
  -2.318492e+01   1.733697e+01
  -3.523712e+01  -3.232640e+01
  -1.035625e+01  -5.376618e+01
   3.742446e+01  -2.320999e+01
   5.846544e+01   3.004430e+01
   2.010473e+01   5.604165e+01
  -5.063766e+01   3.555519e+01
  -8.648772e+01  -7.583469e+00
  -4.951871e+01  -3.867531e+01
   2.406520e+01  -4.292608e+01
   5.943496e+01  -2.736646e+01
   2.639558e+01  -6.905383e+00
  -2.723518e+01   3.083480e+00
  -3.187311e+01  -7.229568e+00
   2.216650e+01  -2.655343e+01
   7.488073e+01  -2.285842e+01
