
 $NMID
 id='ANONYMOUS ', fmtdat='(2E16.6)'
 volume=1.0
 tramp=1.0
 $END
  -3.841177e+02  -3.947587e+00
  -2.877218e+01  -1.764749e+01
  -7.017213e+01  -6.658788e+01
   1.493525e+02  -5.913389e+01
  -3.102582e+00  -3.281524e+01
   1.766173e+00  -1.164465e+01
  -5.071446e+01  -2.037531e+01
  -6.682087e+00  -1.084655e+02
  -3.712358e+01  -9.126348e+01
   4.972743e+00  -3.198775e+01
  -1.485848e+01   7.005875e+01
  -6.835954e+00   5.038114e+01
   1.750736e+01   3.007113e+01
   8.551448e+01  -8.014834e+01
   6.650806e+01  -6.659631e+01
   2.469006e+01   2.253806e+01
  -2.592030e+01   5.457545e+00
  -1.877506e+01   2.076231e+01
  -1.722222e-01  -3.671469e+01
   7.274862e+00   1.731580e+01
   6.039730e+01   3.201431e+01
   3.174019e+01   4.699807e+00
  -1.034987e+01   1.237680e+01
  -2.450714e+01  -1.276256e+01
   2.468474e+01  -8.560906e+01
   5.055465e+01  -3.998914e+01
   1.923929e+01   5.308961e+01
  -2.037913e+01   9.613238e+01
  -4.745877e+01   3.260647e+01
  -1.731043e+01  -3.235892e+01
   1.476453e+01  -6.057569e+01
   4.673750e+01  -2.353989e+01
   2.612700e+01   4.046303e+01
  -1.307058e+01   2.123252e+01
  -1.611278e+01  -1.905998e+01
  -1.704749e+01  -2.505376e+01
   3.358244e+00  -7.423627e+00
   2.008474e+01   2.245066e+01
   1.721695e+01   3.056558e+01
  -1.153855e+01   1.605639e+01
  -3.161499e+01  -3.212570e+01
  -3.724414e+00  -3.572061e+01
   2.832388e+01  -9.289076e+00
   2.993400e+01   1.381405e+01
  -1.132138e+01   2.681845e+01
  -2.522560e+01   1.782457e+01
  -1.870481e+01  -1.823794e+01
   3.758939e+00  -2.254672e+01
   1.827231e+01  -1.739503e+01
   2.203889e+01   3.677191e+00
   9.902550e+00   1.768622e+01
  -1.558142e+01   1.778037e+01
  -2.655481e+01  -2.324806e+00
  -9.165105e+00  -2.428238e+01
   2.212535e+01  -1.510163e+01
   2.151331e+01   1.777118e+01
  -1.265394e+01   2.715434e+01
  -3.333375e+01  -3.487917e+00
  -8.614645e+00  -3.247952e+01
   2.532640e+01  -2.085533e+01
   2.376469e+01   1.045066e+01
  -1.003265e+00   1.910753e+01
  -1.038804e+01   6.694552e+00
  -4.675225e+00   1.459368e+00
  -8.711069e+00   3.077260e+00
  -1.569372e+01  -8.155161e+00
  -9.898345e-01  -2.318878e+01
   2.426182e+01  -1.432911e+01
   2.312597e+01   1.262438e+01
  -4.462465e+00   2.028859e+01
  -1.790292e+01  -3.684856e-01
   8.377802e-02  -1.555134e+01
   1.780567e+01  -3.571280e+00
   9.653973e+00   1.561252e+01
  -1.074473e+01   1.477265e+01
  -1.588079e+01  -1.201720e+00
  -6.049374e+00  -1.194438e+01
   6.758687e+00  -1.497950e+01
   1.474643e+01  -9.379530e+00
   1.657448e+01   6.454176e+00
   4.875773e+00   2.214211e+01
  -1.409372e+01   2.205708e+01
  -2.321288e+01  -2.427765e+00
  -8.357770e+00  -1.740378e+01
   1.216348e+01  -1.114515e+01
   7.680755e+00   5.956931e+00
  -8.607569e+00   7.327779e+00
  -1.391870e+01  -1.099297e+01
  -1.605355e+00  -2.640843e+01
   1.811285e+01  -1.451832e+01
   2.582396e+01   1.035407e+01
   1.667834e+01   2.410731e+01
  -5.071034e+00   2.260224e+01
  -2.195232e+01   7.692274e+00
  -2.350418e+01  -1.104946e+01
  -3.755305e+00  -2.197808e+01
   1.883779e+01  -1.050146e+01
   1.433428e+01   1.062533e+01
  -7.410682e+00   1.414198e+01
  -1.645651e+01  -1.478637e+00
  -1.827498e+00  -1.569006e+01
   1.630741e+01  -8.859418e+00
   1.380150e+01   8.720551e+00
  -3.685717e+00   1.602518e+01
  -1.676759e+01   7.812397e+00
  -1.368507e+01  -6.190729e+00
  -4.493010e+00  -1.439354e+01
   4.709229e+00  -1.587029e+01
   1.451774e+01  -7.490561e+00
   1.681702e+01   6.187592e+00
   3.402731e+00   1.582983e+01
  -1.112144e+01   9.170663e+00
  -1.026742e+01  -5.733492e+00
   5.176878e+00  -9.791941e+00
   1.285075e+01   1.482000e+00
   2.638920e+00   1.213568e+01
  -1.099206e+01   8.038709e+00
  -1.101355e+01  -4.580100e+00
   2.994333e-01  -1.124379e+01
   1.039674e+01  -6.349200e+00
   1.176787e+01   5.964941e+00
   4.424022e+00   1.678838e+01
  -8.700411e+00   1.705962e+01
  -1.935498e+01   2.774593e+00
  -1.608262e+01  -1.535296e+01
   5.127073e-01  -1.922918e+01
   1.294211e+01  -4.716408e+00
   7.563397e+00   9.866960e+00
  -7.097503e+00   7.015164e+00
  -1.083088e+01  -8.093830e+00
   1.342405e+00  -1.571190e+01
   1.450687e+01  -7.950695e+00
   1.466808e+01   5.323054e+00
   4.175344e+00   1.239911e+01
  -5.962373e+00   1.018955e+01
  -8.692064e+00   2.307147e+00
  -3.390661e+00  -5.715345e+00
   4.923259e+00  -5.756960e+00
   7.690502e+00   3.808833e+00
  -1.495409e-01   1.222256e+01
  -1.212700e+01   6.993249e+00
  -1.435246e+01  -8.751281e+00
  -2.967755e+00  -1.764071e+01
   1.069200e+01  -1.000639e+01
   1.308656e+01   3.923581e+00
   5.028321e+00   9.977706e+00
  -3.324420e+00   5.548543e+00
  -4.955399e+00  -4.562958e-01
  -1.195347e+00  -3.499295e+00
   2.468450e+00  -2.425261e+00
   2.600951e+00   2.213680e+00
  -2.474317e+00   5.576017e+00
  -8.279627e+00   9.666263e-01
  -6.238433e+00  -8.817730e+00
   4.988264e+00  -1.316544e+01
   1.553840e+01  -5.013831e+00
   1.289328e+01   8.597829e+00
   1.085693e+00   1.395205e+01
  -8.206468e+00   7.340765e+00
  -6.984052e+00  -1.631992e+00
  -1.096346e+00  -2.973417e+00
   4.750693e-01   2.225780e-01
  -8.959883e-02   1.465568e+00
  -5.029147e-01   1.570971e+00
  -1.216883e+00   4.159764e-01
  -1.580328e+00  -1.615033e+00
   3.425312e-02  -3.585055e+00
   4.023913e+00   1.155234e-01
   1.178996e+00   8.407567e+00
  -7.404580e+00   1.058134e+01
  -1.497273e+01   1.710050e-01
  -1.177813e+01  -1.499284e+01
   2.697642e+00  -1.934474e+01
   1.480895e+01  -1.037346e+01
   1.406280e+01   2.260054e+00
   6.838717e+00   7.568961e+00
   6.456426e-01   6.723060e+00
   2.722218e-01   5.168180e+00
   1.556034e+00   5.685013e+00
   5.940932e-01   6.655376e+00
  -4.606105e+00   6.115302e+00
  -1.158907e+01   2.811655e+00
  -1.343048e+01  -4.570963e+00
  -5.695018e+00  -1.213687e+01
   6.613806e+00  -1.253203e+01
   1.320206e+01  -3.538867e+00
   8.956374e+00   6.738883e+00
   4.915903e-01   9.355106e+00
  -3.914063e+00   4.249813e+00
  -3.297035e+00  -1.267097e+00
  -1.996126e+00  -2.047156e+00
  -2.008711e+00   3.956799e-01
  -2.634697e+00   2.221709e+00
  -2.895122e+00   7.962477e-01
  -1.799181e+00  -4.179881e+00
   1.719731e+00  -8.812444e+00
   6.740627e+00  -7.216039e+00
   8.059900e+00   1.494321e+00
   2.538575e+00   9.655626e+00
  -4.645606e+00   8.697257e+00
  -5.737937e+00   1.901376e-01
  -2.933905e-01  -6.013525e+00
   4.353044e+00  -3.608678e+00
   3.319322e+00   2.377001e+00
  -2.509309e-01   4.344882e+00
  -2.213299e+00   1.636939e+00
  -1.790692e+00  -6.974088e-01
  -5.443048e-01   2.060808e-01
   3.732337e-01   3.250281e+00
   2.010087e-02   4.520942e+00
  -3.463177e+00   2.747641e+00
  -7.485773e+00  -2.439350e+00
  -7.199955e+00  -7.838124e+00
   1.814004e-01  -9.068055e+00
   7.752281e+00  -4.647285e+00
   7.391817e+00   2.394276e+00
   2.535595e-01   5.668367e+00
  -4.167077e+00   1.678952e+00
  -5.855544e-01  -5.145177e+00
   6.567272e+00  -6.879669e+00
   9.315960e+00  -1.074528e+00
   5.093451e+00   7.876214e+00
  -2.019497e+00   1.207458e+01
  -6.767396e+00   7.860327e+00
  -6.452078e+00  -9.645933e-01
  -2.314200e+00  -5.750920e+00
   1.142377e+00  -2.565981e+00
  -1.637758e-03   3.023326e+00
  -4.384381e+00   3.141127e+00
  -6.351273e+00  -3.765900e+00
  -2.186803e+00  -1.015836e+01
   5.060870e+00  -8.486507e+00
   9.440139e+00   8.200889e-02
   7.659855e+00   7.660356e+00
   1.627552e+00   8.466608e+00
  -4.437743e+00   3.607836e+00
  -6.969192e+00  -1.789059e+00
  -4.338916e+00  -3.729643e+00
   9.266482e-01  -1.988335e+00
   3.288804e+00   2.745065e-01
   4.055892e-01   1.682018e-01
  -2.632059e+00  -2.011577e+00
   1.858646e-01  -3.298287e+00
   6.630807e+00  -1.250381e+00
   8.087179e+00   2.980024e+00
   1.005779e+00   5.899377e+00
  -7.416857e+00   5.423950e+00
  -8.483155e+00   1.835658e+00
  -2.243709e+00  -2.584586e+00
   3.266564e+00  -5.037709e+00
   3.150918e+00  -3.580662e+00
   2.964178e-01   3.975364e-01
  -6.844861e-01   3.110744e+00
   6.998120e-01   2.003824e+00
   1.449766e+00  -5.783578e-01
  -2.753226e-01  -1.632401e-02
  -3.494729e+00   3.187989e+00
  -5.449168e+00   3.516835e+00
  -4.632140e+00  -2.302275e+00
  -7.588927e-01  -9.736634e+00
   4.503789e+00  -1.073839e+01
   8.028964e+00  -3.649124e+00
   7.612342e+00   5.344351e+00
   3.414371e+00   9.147341e+00
  -1.608886e+00   6.291875e+00
  -3.746819e+00   1.157978e+00
  -2.032179e+00  -1.286537e+00
   6.601943e-01   8.814712e-02
   3.813692e-01   2.387787e+00
  -3.506379e+00   1.667004e+00
  -6.200562e+00  -2.200034e+00
  -3.059454e+00  -5.426881e+00
   4.203605e+00  -3.945981e+00
   8.318413e+00   1.156608e+00
   4.436322e+00   4.831215e+00
  -3.426419e+00   4.074743e+00
  -7.346324e+00   3.107340e-01
  -4.342507e+00  -2.913266e+00
   1.228479e+00  -3.957113e+00
   3.647002e+00  -2.864299e+00
   1.902434e+00  -1.033374e-01
  -8.102983e-02   2.087560e+00
   5.331702e-01   1.228346e+00
   2.728224e+00  -2.158040e+00
   3.576387e+00  -3.178547e+00
   1.916500e+00   1.426052e+00
  -1.174051e+00   7.429777e+00
  -3.322648e+00   7.393163e+00
  -3.455157e+00   4.203016e-01
  -1.963721e+00  -6.208814e+00
   4.168925e-01  -5.898019e+00
   2.277558e+00  -3.645062e-03
   1.923259e+00   4.484362e+00
  -7.982377e-01   3.471460e+00
  -3.259250e+00  -4.848578e-01
  -2.801881e+00  -2.811100e+00
   3.348834e-01  -1.877369e+00
   2.872056e+00   5.187112e-02
   1.968616e+00   6.723818e-01
  -1.203206e+00  -4.942886e-01
  -2.123481e+00  -1.438697e+00
   1.223384e-01  -8.077027e-01
   2.500714e+00   1.347341e+00
   1.918034e+00   2.407439e+00
  -1.333538e+00   1.076517e+00
  -3.422403e+00  -1.585942e+00
  -1.882697e+00  -3.114159e+00
   2.265703e+00  -2.671951e+00
   5.267441e+00  -5.491146e-01
   4.155334e+00   2.433457e+00
  -3.838611e-01   4.729298e+00
  -4.251910e+00   4.469274e+00
  -3.821126e+00   8.567305e-01
  -2.940121e-01  -3.079485e+00
   2.057997e+00  -3.461782e+00
   3.316231e-01   2.880320e-01
  -3.001070e+00   3.281530e+00
  -3.808599e+00   1.123857e+00
  -8.897003e-01  -4.225225e+00
   3.114654e+00  -6.247205e+00
