
 $NMID
 id='ANONYMOUS ', fmtdat='(2E16.6)'
 volume=1.0
 tramp=1.0
 $END
   3.896493e+03  -2.854858e+02
   2.024589e+03   2.365823e+03
  -7.789240e+02   2.448424e+03
  -1.791227e+03   5.502900e+02
  -8.788637e+02  -7.354851e+02
   6.250169e+02  -3.209810e+02
   7.613227e+02   5.048153e+02
   4.339747e+01   9.617869e+02
  -7.029109e+02   6.714641e+02
  -9.165926e+02  -2.026821e+00
  -5.339214e+02  -7.616317e+02
   1.254128e+02  -8.836196e+02
   5.684211e+02  -8.971826e+01
   3.302123e+02   6.729101e+02
  -3.684895e+02   7.042514e+02
  -5.991789e+02   3.158801e+01
  -2.142533e+02  -6.079355e+02
   3.179524e+02  -5.446161e+02
   5.229807e+02  -5.366699e+01
   3.107759e+02   3.403996e+02
   2.175124e+01   3.594096e+02
  -2.512776e+02   2.036689e+02
  -2.146920e+02  -6.902300e+00
   1.092100e+02  -1.043358e+02
   3.914107e+02   6.021957e+01
   2.269105e+02   4.086032e+02
  -4.062238e+02   4.202939e+02
  -7.946162e+02  -5.308098e+01
  -4.066069e+02  -4.841844e+02
   3.383916e+02  -4.442596e+02
   6.704871e+02   8.292014e+00
   3.187518e+02   3.889870e+02
  -2.416226e+02   4.450309e+02
  -4.598704e+02   1.883876e+02
  -3.619288e+02  -1.701394e+02
  -8.299494e+01  -3.979238e+02
   1.483709e+02  -2.608148e+02
   1.643385e+02   1.731516e+02
  -1.031881e+02   3.866152e+02
  -3.787526e+02   1.438517e+01
  -2.494503e+02  -5.867915e+02
   2.246525e+02  -6.102470e+02
   5.139513e+02  -5.746678e+00
   2.574567e+02   4.972133e+02
  -2.364644e+02   2.852424e+02
  -3.475550e+02  -2.700779e+02
   1.961345e+01  -4.813180e+02
   4.568737e+02  -1.456277e+02
   5.164793e+02   3.123632e+02
   1.671856e+02   4.876595e+02
  -3.037755e+02   3.131942e+02
  -5.338268e+02  -3.371598e+01
  -3.212118e+02  -3.119644e+02
   1.360077e+02  -3.192236e+02
   3.850788e+02  -5.515013e+01
   2.083050e+02   1.746083e+02
  -1.038271e+02   1.032855e+02
  -1.225607e+02  -1.240334e+02
   1.415690e+02  -1.513028e+02
   2.908260e+02   7.497072e+01
   1.119490e+02   2.565846e+02
  -1.697538e+02   2.062940e+02
  -2.598484e+02   5.525828e+01
  -1.495301e+02  -5.081982e+01
   1.024865e+01  -1.544433e+02
   1.549185e+02  -2.613749e+02
   2.660745e+02  -1.967996e+02
   2.512742e+02   1.057902e+02
   7.360201e+01   3.787990e+02
  -1.087145e+02   3.362323e+02
  -1.194077e+02   8.557709e+01
  -2.099814e+01  -3.066857e+01
  -1.994749e+01   6.724853e+01
  -1.567005e+02   1.239290e+02
  -2.480252e+02  -3.027037e+01
  -1.539999e+02  -2.300843e+02
   5.476354e+01  -2.281607e+02
   2.017281e+02  -2.103389e+01
   1.765881e+02   1.969560e+02
  -3.412886e+00   2.509923e+02
  -2.230048e+02   1.072912e+02
  -3.058492e+02  -1.313819e+02
  -1.601772e+02  -2.932684e+02
   8.279523e+01  -2.614266e+02
   1.948163e+02  -1.055816e+02
   1.289623e+02   2.143761e+00
   8.111250e+01  -1.959148e+01
   1.886816e+02  -5.193713e+01
   3.248935e+02   4.187169e+01
   2.754459e+02   2.311919e+02
   4.247788e+00   3.701232e+02
  -2.938893e+02   3.518190e+02
  -4.081014e+02   1.752321e+02
  -2.949410e+02  -7.651819e+01
  -5.999706e+01  -2.563475e+02
   1.079860e+02  -2.262856e+02
   7.936191e+01  -3.095563e+01
  -8.632508e+01   9.188912e+01
  -1.671717e+02  -4.597348e-01
  -4.169458e+01  -1.665776e+02
   1.415536e+02  -1.485710e+02
   1.519343e+02   4.935571e+01
  -2.125420e+01   1.606889e+02
  -1.638365e+02   2.399608e+01
  -1.260003e+02  -2.075847e+02
   3.747337e+01  -2.820896e+02
   1.861895e+02  -1.497974e+02
   2.561706e+02   4.983550e+01
   2.260604e+02   1.842404e+02
   9.075150e+01   2.086696e+02
  -8.348483e+01   1.368963e+02
  -1.505009e+02   2.672983e+01
  -5.726141e+01  -2.323542e+01
   5.763143e+01   2.966081e+01
   3.090866e+01   1.024157e+02
  -9.998132e+01   8.514418e+01
  -1.519633e+02  -7.828555e+00
  -5.530664e+01  -5.975852e+01
   6.078246e+01  -1.694929e+01
   4.357241e+01   5.342190e+01
  -9.846615e+01   6.437811e+01
  -2.246229e+02  -1.600947e+00
  -2.112864e+02  -1.100658e+02
  -5.111256e+01  -2.063496e+02
   1.476466e+02  -2.194924e+02
   2.354751e+02  -1.121435e+02
   1.483466e+02   4.153699e+01
  -1.474889e+01   9.862621e+01
  -7.763657e+01   1.552765e+01
   2.055350e+01  -8.248102e+01
   1.581677e+02  -5.410946e+01
   1.774076e+02   7.918115e+01
   6.024242e+01   1.701945e+02
  -7.600230e+01   1.327617e+02
  -1.191678e+02   2.683814e+01
  -6.072120e+01  -3.467846e+01
   2.064229e+01  -6.412593e+00
   3.232423e+01   6.426340e+01
  -5.328313e+01   9.289405e+01
  -1.589333e+02   2.780047e+01
  -1.601096e+02  -9.860187e+01
  -2.330292e+01  -1.821367e+02
   1.336074e+02  -1.403870e+02
   1.649056e+02  -7.828258e+00
   6.119900e+01   9.615640e+01
  -5.136269e+01   9.592438e+01
  -7.099459e+01   2.904380e+01
  -2.167416e+01  -1.974785e+01
   1.237768e+01  -1.802762e+01
  -7.550987e+00   8.786992e-01
  -5.179777e+01  -1.015540e+01
  -6.674497e+01  -6.408659e+01
  -1.367811e+01  -1.246530e+02
   9.815970e+01  -1.246409e+02
   1.892747e+02  -2.650661e+01
   1.682362e+02   1.188673e+02
   3.877560e+01   1.976167e+02
  -8.827217e+01   1.448576e+02
  -1.126024e+02   2.333802e+01
  -5.911537e+01  -4.844077e+01
  -2.400093e+01  -3.018556e+01
  -4.397020e+01   1.069042e+01
  -6.459416e+01   6.877771e+00
  -3.216838e+01  -3.944855e+01
   3.466877e+01  -6.904473e+01
   8.001158e+01  -4.264082e+01
   6.504831e+01   2.816508e+01
  -1.170473e+01   8.734638e+01
  -1.137551e+02   6.934538e+01
  -1.596307e+02  -3.863629e+01
  -8.480090e+01  -1.627611e+02
   8.358260e+01  -1.902462e+02
   2.172904e+02  -8.307969e+01
   2.137314e+02   6.863856e+01
   9.305217e+01   1.462762e+02
  -3.072702e+01   1.218107e+02
  -7.831420e+01   6.927987e+01
  -6.560797e+01   5.694376e+01
  -5.403484e+01   7.474105e+01
  -7.366927e+01   6.179593e+01
  -1.033901e+02  -1.634603e+01
  -9.806461e+01  -1.240490e+02
  -2.890672e+01  -1.849509e+02
   7.737781e+01  -1.450167e+02
   1.454613e+02  -2.241961e+01
   1.180560e+02   9.754147e+01
   2.199683e+01   1.340028e+02
  -5.289763e+01   8.118214e+01
  -5.135481e+01   4.175873e+00
  -7.996101e+00  -3.426385e+01
   5.590175e+00  -2.893762e+01
  -3.027600e+01  -1.528639e+01
  -6.396993e+01  -1.805898e+01
  -3.626476e+01  -3.068622e+01
   5.093631e+01  -3.100218e+01
   1.280377e+02  -5.393804e+00
   1.189146e+02   3.852419e+01
   1.638673e+01   7.207210e+01
  -9.618128e+01   6.478478e+01
  -1.195637e+02   1.677681e+01
  -4.215778e+01  -3.068234e+01
   4.737509e+01  -3.192225e+01
   6.060821e+01   1.296190e+01
   4.477046e+00   5.462036e+01
  -4.658502e+01   4.686212e+01
  -5.055941e+01  -2.643622e+00
  -3.334938e+01  -4.238289e+01
  -3.385151e+01  -3.505870e+01
  -4.954099e+01  -9.893255e-01
  -5.230917e+01   2.030977e+00
  -2.654147e+01  -5.216856e+01
   2.596368e+01  -1.170074e+02
   8.960773e+01  -1.150778e+02
   1.287553e+02  -2.884196e+01
   1.002760e+02   7.187297e+01
   9.469023e+00   1.011622e+02
  -6.642651e+01   4.977591e+01
  -4.878844e+01  -1.198563e+01
   4.660056e+01  -1.610062e+01
   1.117485e+02   3.557904e+01
   6.312872e+01   8.766136e+01
  -6.425596e+01   9.243070e+01
  -1.551630e+02   4.392170e+01
  -1.331919e+02  -2.606653e+01
  -3.175418e+01  -7.046509e+01
   4.827517e+01  -5.832169e+01
   3.960839e+01  -7.470384e+00
  -3.108011e+01   2.124456e+01
  -7.310773e+01  -1.772193e+01
  -2.646119e+01  -9.549139e+01
   7.473376e+01  -1.250779e+02
   1.366748e+02  -5.134424e+01
   1.033491e+02   8.104428e+01
   8.055045e+00   1.611295e+02
  -7.043821e+01   1.193502e+02
  -8.651661e+01  -3.610518e+00
  -5.115944e+01  -9.659609e+01
  -2.494182e-02  -8.995462e+01
   3.791298e+01  -1.974590e+01
   4.516760e+01   2.458209e+01
   2.339771e+01   8.148602e+00
   2.569592e+00  -1.598624e+01
   1.476383e+01   1.170065e+01
   4.582692e+01   7.124535e+01
   3.789849e+01   8.935019e+01
  -3.502307e+01   3.817756e+01
  -1.132381e+02  -3.062768e+01
  -1.090015e+02  -5.669120e+01
  -1.641508e+01  -4.000539e+01
   7.158692e+01  -1.886719e+01
   7.218723e+01  -8.217651e+00
   8.754450e+00   4.484512e+00
  -3.060347e+01   1.848719e+01
  -9.397340e+00   1.638151e+01
   1.871034e+01  -4.869671e-01
  -5.725064e+00  -8.138058e+00
  -6.267496e+01  -3.909455e+00
  -7.566185e+01  -1.882569e+01
  -6.608893e+00  -6.435246e+01
   9.679524e+01  -9.357847e+01
   1.508144e+02  -5.001842e+01
   1.155959e+02   5.223187e+01
   2.263699e+01   1.307486e+02
  -6.216504e+01   1.222411e+02
  -9.141117e+01   4.839465e+01
  -6.469747e+01  -1.669894e+01
  -1.925785e+01  -2.768073e+01
   3.415015e+00  -5.349486e+00
  -8.129724e+00  -1.533876e+00
  -2.818549e+01  -3.613316e+01
  -2.032948e+01  -7.335818e+01
   2.258125e+01  -5.925749e+01
   6.593984e+01   1.441724e+01
   6.317515e+01   8.846223e+01
   3.751702e+00   9.178223e+01
  -6.710018e+01   1.890696e+01
  -8.390676e+01  -6.252183e+01
  -2.600343e+01  -8.483246e+01
   5.409656e+01  -4.488446e+01
   7.955160e+01   9.727861e+00
   3.204672e+01   3.996376e+01
  -2.549773e+01   4.037506e+01
  -2.360451e+01   2.225255e+01
   2.941240e+01  -1.495622e-03
   5.809302e+01  -4.882860e+00
   1.417949e+01   2.124770e+01
  -6.218856e+01   5.597122e+01
  -9.308105e+01   5.146314e+01
  -5.355087e+01  -6.277394e+00
   9.330243e+00  -6.620469e+01
   4.001841e+01  -6.507438e+01
   2.884586e+01  -5.762142e+00
   1.394659e+00   4.446735e+01
  -2.047588e+01   3.375966e+01
  -2.926973e+01  -1.570501e+01
  -2.106923e+01  -4.371995e+01
   2.775775e+00  -2.578296e+01
   2.718606e+01   7.817046e+00
   3.183009e+01   1.757526e+01
   1.612646e+01   1.235024e+00
  -1.453450e+00  -1.056722e+01
  -6.631703e+00   2.865985e+00
  -6.961618e+00   2.876161e+01
  -1.487628e+01   3.404097e+01
  -2.604696e+01   4.097386e+00
  -2.269221e+01  -3.764591e+01
   3.820648e+00  -4.936117e+01
   3.707261e+01  -1.589289e+01
   4.559407e+01   3.247803e+01
   1.162943e+01   5.122043e+01
  -4.371234e+01   2.721720e+01
  -7.125401e+01  -1.284833e+01
  -3.983007e+01  -3.542782e+01
   2.282242e+01  -3.224248e+01
   5.242776e+01  -1.633514e+01
   1.973781e+01  -3.255617e+00
  -3.075721e+01  -1.860585e+00
  -3.169506e+01  -1.397322e+01
   2.455333e+01  -2.725879e+01
   7.494000e+01  -1.741394e+01
