
 $NMID
 id='ANONYMOUS ', fmtdat='(2E16.6)'
 volume=1.0
 tramp=1.0
 $END
  -4.659523e+03   5.054122e+01
  -2.546859e+03  -2.619157e+03
   9.112974e+02  -2.714672e+03
   2.367907e+03  -8.795261e+02
   9.315347e+02   8.724177e+02
  -6.949019e+02   5.449086e+02
  -9.331394e+02  -4.229270e+02
  -2.127942e+01  -1.171694e+03
   9.208763e+02  -7.063999e+02
   9.676068e+02   1.990914e+02
   3.869178e+02   1.081934e+03
  -3.235868e+02   9.862828e+02
  -7.042750e+02   1.158640e+02
  -3.608296e+02  -7.634837e+02
   2.943941e+02  -8.203972e+02
   6.684031e+02  -5.398166e+01
   2.925940e+02   7.664059e+02
  -4.096482e+02   7.322916e+02
  -6.460041e+02   1.373775e+02
  -4.006788e+02  -4.288296e+02
  -7.249119e+00  -4.970164e+02
   2.509648e+02  -3.257091e+02
   2.668398e+02  -5.693974e+01
  -3.806249e+01   1.415030e+02
  -4.413150e+02  -7.324793e+01
  -2.827909e+02  -4.468835e+02
   4.224688e+02  -4.889953e+02
   9.350947e+02   1.940953e+01
   5.633461e+02   6.010148e+02
  -3.922689e+02   5.826690e+02
  -8.583069e+02   2.236641e+01
  -4.305229e+02  -5.216484e+02
   2.701504e+02  -5.695519e+02
   6.204719e+02  -2.535501e+02
   4.781629e+02   2.141248e+02
   8.625420e+01   4.862059e+02
  -2.370620e+02   3.376638e+02
  -2.242484e+02  -2.163311e+02
   1.726078e+02  -4.845862e+02
   5.034336e+02  -1.013913e+01
   3.209465e+02   7.305531e+02
  -3.207558e+02   7.961513e+02
  -6.713945e+02   3.258902e+01
  -2.971945e+02  -6.219869e+02
   3.287533e+02  -3.746176e+02
   4.464029e+02   3.393050e+02
  -5.409048e+01   6.238077e+02
  -5.869527e+02   1.892592e+02
  -6.375209e+02  -4.076026e+02
  -1.938483e+02  -6.246936e+02
   3.961456e+02  -3.934386e+02
   6.777908e+02   5.850914e+01
   4.163269e+02   4.210785e+02
  -1.693150e+02   4.295827e+02
  -5.020953e+02   8.256538e+01
  -2.783979e+02  -2.320257e+02
   1.412526e+02  -1.475129e+02
   1.812019e+02   1.661986e+02
  -1.743806e+02   2.325137e+02
  -3.975113e+02  -5.852353e+01
  -1.735602e+02  -3.298606e+02
   2.138765e+02  -2.939122e+02
   3.530325e+02  -8.703047e+01
   2.098813e+02   7.948541e+01
  -7.388316e+00   2.216983e+02
  -1.978622e+02   3.485110e+02
  -3.401246e+02   2.640377e+02
  -3.302601e+02  -1.116544e+02
  -1.141815e+02  -4.603695e+02
   1.204277e+02  -4.243882e+02
   1.461118e+02  -1.177884e+02
   2.288861e+01   3.812790e+01
   7.452969e+00  -7.686005e+01
   1.686129e+02  -1.626835e+02
   2.962953e+02   1.146189e+01
   2.075234e+02   2.656953e+02
  -4.075667e+01   2.923284e+02
  -2.457138e+02   5.015265e+01
  -2.512195e+02  -2.346470e+02
  -2.883310e+01  -3.265364e+02
   2.765599e+02  -1.547326e+02
   4.030754e+02   1.545927e+02
   2.186211e+02   3.700613e+02
  -1.035334e+02   3.295955e+02
  -2.463202e+02   1.281646e+02
  -1.589121e+02  -6.979179e-01
  -9.126046e+01   3.785160e+01
  -2.279772e+02   8.626609e+01
  -4.197898e+02  -3.270552e+01
  -3.671651e+02  -2.787821e+02
  -3.319476e+01  -4.623590e+02
   3.412667e+02  -4.573477e+02
   5.012223e+02  -2.523418e+02
   3.754361e+02   6.996004e+01
   9.281081e+01   3.151843e+02
  -1.246701e+02   2.880812e+02
  -9.864930e+01   3.747283e+01
   1.056519e+02  -1.344114e+02
   2.230231e+02  -1.261417e+01
   7.521786e+01   2.183716e+02
  -1.703730e+02   2.095785e+02
  -2.132686e+02  -5.386769e+01
   1.405329e+00  -2.215601e+02
   2.133783e+02  -5.631911e+01
   1.958694e+02   2.502217e+02
  -1.011544e+01   3.690121e+02
  -2.265544e+02   2.126118e+02
  -3.409415e+02  -4.582249e+01
  -3.090546e+02  -2.273913e+02
  -1.271133e+02  -2.693399e+02
   1.070749e+02  -1.826609e+02
   1.980198e+02  -4.070548e+01
   7.623159e+01   3.096197e+01
  -7.754679e+01  -3.269807e+01
  -4.789157e+01  -1.325246e+02
   1.229760e+02  -1.202002e+02
   1.971183e+02  -1.225659e+00
   7.449645e+01   7.764091e+01
  -8.103861e+01   3.069676e+01
  -6.626888e+01  -6.804785e+01
   1.163729e+02  -1.014617e+02
   2.891725e+02  -2.805545e+01
   2.874527e+02   1.179900e+02
   9.137890e+01   2.606030e+02
  -1.653005e+02   2.937499e+02
  -2.895495e+02   1.602810e+02
  -1.888288e+02  -4.223823e+01
   1.675152e+01  -1.213180e+02
   9.998900e+01  -1.480959e+01
  -2.507700e+01   1.146708e+02
  -2.065704e+02   7.985040e+01
  -2.387600e+02  -9.567786e+01
  -9.073878e+01  -2.204165e+02
   9.009167e+01  -1.796187e+02
   1.556270e+02  -4.503548e+01
   8.542376e+01   4.031343e+01
  -2.364586e+01   1.420761e+01
  -4.810203e+01  -7.406349e+01
   5.680622e+01  -1.210843e+02
   1.978425e+02  -5.149841e+01
   2.103360e+02   1.085439e+02
   4.231243e+01   2.273332e+02
  -1.602671e+02   1.869940e+02
  -2.063549e+02   1.990788e+01
  -7.907568e+01  -1.191207e+02
   6.216013e+01  -1.245893e+02
   8.764409e+01  -4.051585e+01
   2.642249e+01   2.280709e+01
  -1.439135e+01   2.193720e+01
   1.175177e+01  -1.906765e+00
   6.909958e+01   1.066675e+01
   9.068859e+01   7.698133e+01
   2.521519e+01   1.554207e+02
  -1.159899e+02   1.642113e+02
  -2.378993e+02   4.844952e+01
  -2.218623e+02  -1.370453e+02
  -6.189064e+01  -2.460495e+02
   1.018196e+02  -1.889270e+02
   1.400426e+02  -3.825056e+01
   7.630529e+01   5.484659e+01
   3.188164e+01   3.731485e+01
   5.458651e+01  -1.553767e+01
   7.986919e+01  -1.204101e+01
   4.099953e+01   4.550864e+01
  -3.907286e+01   8.672822e+01
  -9.627200e+01   5.804692e+01
  -8.210901e+01  -3.063134e+01
   9.259398e+00  -1.094019e+02
   1.380438e+02  -9.714674e+01
   2.068566e+02   3.625734e+01
   1.223247e+02   2.004609e+02
  -9.006780e+01   2.478863e+02
  -2.701899e+02   1.230823e+02
  -2.781778e+02  -7.019111e+01
  -1.304419e+02  -1.782865e+02
   2.838085e+01  -1.593567e+02
   9.454402e+01  -9.739448e+01
   8.268383e+01  -7.976078e+01
   6.855852e+01  -9.848821e+01
   9.360711e+01  -7.935688e+01
   1.338350e+02   1.929001e+01
   1.308788e+02   1.552486e+02
   4.494332e+01   2.332686e+02
  -9.190075e+01   1.858383e+02
  -1.825772e+02   3.512754e+01
  -1.524932e+02  -1.141122e+02
  -3.460908e+01  -1.632454e+02
   5.903584e+01  -1.038773e+02
   6.019307e+01  -1.214891e+01
   1.125870e+01   3.740239e+01
  -1.780231e+00   3.587395e+01
   4.269065e+01   2.092702e+01
   8.230458e+01   2.188713e+01
   4.707001e+01   3.576080e+01
  -6.087905e+01   4.019098e+01
  -1.584943e+02   1.474110e+01
  -1.509050e+02  -3.851801e+01
  -2.587959e+01  -8.549942e+01
   1.154769e+02  -8.244783e+01
   1.472177e+02  -2.500481e+01
   5.133968e+01   3.509047e+01
  -6.118361e+01   3.816780e+01
  -7.809205e+01  -1.699241e+01
  -7.333565e+00  -6.870633e+01
   5.727338e+01  -5.984439e+01
   6.335185e+01   3.894793e-02
   4.461153e+01   4.770400e+01
   4.756715e+01   3.831809e+01
   6.790926e+01  -1.865890e+00
   7.115565e+01  -1.689046e+00
   3.822492e+01   6.952352e+01
  -2.898128e+01   1.526348e+02
  -1.120132e+02   1.512620e+02
  -1.640134e+02   4.301008e+01
  -1.292680e+02  -8.598039e+01
  -1.390562e+01  -1.277153e+02
   8.354213e+01  -6.604578e+01
   6.042996e+01   1.347556e+01
  -6.248158e+01   2.484103e+01
  -1.472301e+02  -3.624351e+01
  -8.728829e+01  -1.070119e+02
   7.540956e+01  -1.242640e+02
   1.944409e+02  -7.049214e+01
   1.718539e+02   2.148015e+01
   4.677318e+01   8.742672e+01
  -5.540131e+01   7.857737e+01
  -4.811301e+01   1.253504e+01
   3.879342e+01  -2.839795e+01
   9.371080e+01   2.056437e+01
   3.882867e+01   1.233417e+02
  -8.820843e+01   1.648243e+02
  -1.718437e+02   7.166929e+01
  -1.384651e+02  -9.876216e+01
  -2.352208e+01  -2.046423e+02
   7.885533e+01  -1.565369e+02
   1.091575e+02  -4.213405e+00
   7.411328e+01   1.143619e+02
   1.150910e+01   1.110712e+02
  -4.161440e+01   2.793166e+01
  -5.690396e+01  -2.546148e+01
  -3.176113e+01  -5.954253e+00
  -4.856645e+00   2.230549e+01
  -2.053177e+01  -1.360373e+01
  -6.120931e+01  -8.863609e+01
  -5.139912e+01  -1.120538e+02
   4.297172e+01  -4.982063e+01
   1.446270e+02   3.386053e+01
   1.398361e+02   6.587598e+01
   2.166797e+01   4.814402e+01
  -9.058094e+01   2.583904e+01
  -9.093587e+01   1.357249e+01
  -9.554512e+00  -5.021771e+00
   4.032452e+01  -2.489192e+01
   1.289478e+01  -2.114761e+01
  -2.325245e+01   1.996008e+00
   7.445865e+00   1.085106e+01
   7.888651e+01   3.092947e+00
   9.410152e+01   2.186052e+01
   6.937407e+00   8.188947e+01
  -1.212906e+02   1.208140e+02
  -1.869827e+02   6.496437e+01
  -1.436830e+02  -6.600055e+01
  -3.048601e+01  -1.660400e+02
   7.413792e+01  -1.555239e+02
   1.135817e+02  -6.268154e+01
   8.409490e+01   1.970508e+01
   2.721355e+01   3.522687e+01
  -4.465124e+00   8.663329e+00
   8.605386e+00   3.011960e+00
   3.628057e+01   4.446898e+01
   2.904097e+01   9.044382e+01
  -2.634514e+01   7.398741e+01
  -8.489839e+01  -1.676642e+01
  -8.347650e+01  -1.092464e+02
  -6.790809e+00  -1.149337e+02
   8.613236e+01  -2.592078e+01
   1.095305e+02   7.520322e+01
   3.642198e+01   1.049963e+02
  -6.593687e+01   5.894778e+01
  -9.967726e+01  -7.303877e+00
  -4.175055e+01  -4.730519e+01
   2.975967e+01  -5.244422e+01
   2.792198e+01  -3.107453e+01
  -3.654915e+01   5.284816e-01
  -6.974253e+01   1.076178e+01
  -1.486796e+01  -2.225700e+01
   7.677430e+01  -7.003748e+01
   1.102655e+02  -6.732139e+01
   6.003495e+01   5.822596e+00
  -1.401480e+01   8.249885e+01
  -4.733500e+01   8.024118e+01
  -3.307366e+01   3.783536e+00
  -1.159712e+00  -5.890021e+01
   2.538675e+01  -4.340278e+01
   3.896533e+01   1.975640e+01
   3.104749e+01   5.455513e+01
  -4.203675e-01   3.218364e+01
  -3.401488e+01  -7.287213e+00
  -4.212197e+01  -1.683786e+01
  -2.272648e+01   2.447926e+00
  -5.857996e-01   1.315775e+01
   6.449588e+00  -7.564344e+00
   8.075560e+00  -4.057602e+01
   1.919701e+01  -4.541594e+01
   3.393947e+01  -5.883486e+00
   2.983848e+01   4.757999e+01
  -3.457880e+00   6.302947e+01
  -4.570131e+01   2.144853e+01
  -5.748774e+01  -3.982118e+01
  -1.577601e+01  -6.523752e+01
   5.464617e+01  -3.697094e+01
   9.096345e+01   1.318403e+01
   5.217459e+01   4.337734e+01
  -2.743770e+01   4.188034e+01
  -6.514411e+01   2.321602e+01
  -2.330504e+01   6.272962e+00
   4.063827e+01   3.199322e+00
   4.047069e+01   1.756795e+01
  -3.226157e+01   3.478513e+01
  -9.641511e+01   2.322305e+01
