
 $NMID
 id='ANONYMOUS ', fmtdat='(2E16.6)'
 volume=1.0
 tramp=1.0
 $END
   3.343312e+03  -2.124027e+01
   1.884625e+03   1.492011e+03
  -2.941937e+02   1.906447e+03
  -1.222515e+03   9.567497e+02
  -6.824958e+02   1.557512e+01
   1.949739e+02  -1.170249e+02
   4.759581e+02   1.750992e+02
   6.567666e+01   5.673737e+02
  -4.981261e+02   4.703358e+02
  -5.529981e+02   7.905838e+01
  -2.928981e+02  -4.934377e+02
   1.076117e+02  -6.511803e+02
   3.019948e+02  -1.742232e+02
   1.429293e+02   4.109341e+02
  -1.464827e+02   5.286253e+02
  -3.926568e+02   2.145384e+01
  -2.567135e+02  -4.830941e+02
   9.887489e+01  -5.024137e+02
   3.799188e+02  -2.254841e+02
   3.830274e+02   1.689755e+02
   1.171515e+02   3.251802e+02
  -8.782235e+01   2.039876e+02
  -7.097892e+01   6.788207e+01
   1.380839e+02   4.986570e+01
   2.627248e+02   2.166788e+02
   2.785451e+01   3.364699e+02
  -4.095608e+02   1.607442e+02
  -5.747041e+02  -1.884052e+02
  -2.289253e+02  -3.639310e+02
   2.998192e+02  -2.253819e+02
   4.980191e+02   1.063614e+02
   2.234773e+02   3.377385e+02
  -2.164428e+02   3.484478e+02
  -4.175624e+02   1.239392e+02
  -2.965285e+02  -1.352236e+02
  -4.810269e+01  -2.818135e+02
   8.174334e+01  -1.582787e+02
  -7.441080e+00   1.182369e+02
  -1.766022e+02   1.834770e+02
  -2.307995e+02  -1.009165e+02
  -4.501584e+01  -4.390221e+02
   2.531040e+02  -4.204109e+02
   3.343384e+02  -1.885707e+01
   1.376397e+02   2.717515e+02
  -1.319714e+02   1.403153e+02
  -1.768036e+02  -2.080449e+02
   7.967458e+01  -3.272048e+02
   3.908045e+02  -4.996867e+01
   4.382930e+02   3.216148e+02
   1.454998e+02   4.445674e+02
  -2.675515e+02   2.619939e+02
  -4.598198e+02  -4.449842e+01
  -2.883059e+02  -2.315811e+02
   5.443953e+01  -2.045875e+02
   2.516806e+02  -5.175521e+01
   1.707431e+02   5.676332e+01
  -1.156638e+01   2.999935e+01
  -4.202743e+01  -5.341048e+01
   9.955008e+01  -5.602481e+01
   2.003275e+02   5.619828e+01
   9.360496e+01   1.828591e+02
  -1.440696e+02   2.093014e+02
  -2.933424e+02   1.040000e+02
  -2.203186e+02  -8.628195e+01
   1.775843e+01  -2.651570e+02
   2.482220e+02  -3.048670e+02
   3.201030e+02  -1.358860e+02
   2.110825e+02   1.432484e+02
   3.890234e+01   3.171433e+02
  -5.083677e+01   2.767474e+02
  -3.494575e+01   1.399209e+02
  -2.257201e+01   7.911586e+01
  -1.005547e+02   9.776246e+01
  -2.092037e+02   5.705220e+01
  -2.175250e+02  -9.438397e+01
  -8.745064e+01  -2.223144e+02
   8.557951e+01  -1.743819e+02
   1.754127e+02   2.885228e+01
   1.249190e+02   2.130669e+02
  -4.422460e+01   2.220909e+02
  -2.197981e+02   5.709584e+01
  -2.649223e+02  -1.494680e+02
  -1.359829e+02  -2.589531e+02
   5.557604e+01  -2.211551e+02
   1.428216e+02  -1.185642e+02
   1.165551e+02  -6.266599e+01
   1.188873e+02  -6.255214e+01
   2.328902e+02  -3.737590e+01
   3.451412e+02   8.077806e+01
   2.656607e+02   2.533952e+02
  -2.492506e+01   3.649775e+02
  -3.210219e+02   3.263337e+02
  -4.006281e+02   1.409843e+02
  -2.421624e+02  -8.918151e+01
  -1.366162e+01  -2.156574e+02
   8.771359e+01  -1.653519e+02
   1.756170e+01  -2.137505e+01
  -1.052984e+02   4.286031e+01
  -1.198651e+02  -3.627122e+01
  -6.593877e+00  -1.328139e+02
   1.102540e+02  -9.480793e+01
   1.013203e+02   5.215354e+01
  -2.754955e+01   1.192742e+02
  -1.420384e+02  -6.579821e-01
  -1.247540e+02  -2.047320e+02
   2.461231e+01  -2.929454e+02
   2.092083e+02  -1.730615e+02
   3.022646e+02   5.615593e+01
   2.365028e+02   2.268393e+02
   5.374333e+01   2.384317e+02
  -1.098601e+02   1.237041e+02
  -1.312612e+02   4.739874e+00
  -3.200287e+01  -1.533426e+01
   4.465189e+01   5.202086e+01
  -6.100390e-01   1.028583e+02
  -1.070313e+02   6.372476e+01
  -1.305849e+02  -2.293029e+01
  -3.326177e+01  -5.442151e+01
   6.797929e+01   2.988967e+00
   3.650781e+01   7.841798e+01
  -1.215759e+02   8.037165e+01
  -2.563469e+02  -1.439364e+01
  -2.236538e+02  -1.485036e+02
  -2.729855e+01  -2.324878e+02
   1.789164e+02  -2.049521e+02
   2.346026e+02  -8.072509e+01
   1.209976e+02   4.409780e+01
  -2.563859e+01   6.905908e+01
  -5.477205e+01  -5.613365e+00
   4.795272e+01  -7.023404e+01
   1.610706e+02  -2.756176e+01
   1.612868e+02   9.141924e+01
   4.639895e+01   1.637085e+02
  -7.856450e+01   1.192646e+02
  -1.101732e+02   1.658837e+01
  -4.185089e+01  -3.214284e+01
   3.620779e+01   1.394950e+01
   2.551110e+01   9.066810e+01
  -8.122308e+01   1.010407e+02
  -1.799454e+02   1.276549e+01
  -1.557185e+02  -1.137362e+02
  -9.139161e+00  -1.775407e+02
   1.324056e+02  -1.271957e+02
   1.472470e+02  -7.880236e+00
   4.631636e+01   8.175922e+01
  -5.248542e+01   8.086124e+01
  -6.086803e+01   1.977258e+01
  -4.164578e+00  -2.313596e+01
   2.931052e+01  -1.013776e+01
  -5.536528e+00   1.901881e+01
  -6.989799e+01   5.187615e-01
  -8.467050e+01  -7.664088e+01
  -7.236120e+00  -1.463738e+02
   1.215018e+02  -1.265500e+02
   2.015055e+02  -5.834944e+00
   1.607606e+02   1.364586e+02
   2.850788e+01   1.945739e+02
  -8.848697e+01   1.357333e+02
  -1.105070e+02   2.586594e+01
  -6.206243e+01  -3.936714e+01
  -2.684912e+01  -2.633241e+01
  -4.515506e+01   1.209790e+01
  -7.260118e+01   8.725397e+00
  -4.799372e+01  -4.563972e+01
   3.238764e+01  -8.848223e+01
   1.026683e+02  -5.650575e+01
   8.926533e+01   3.879221e+01
  -1.715898e+01   1.107217e+02
  -1.409428e+02   7.467778e+01
  -1.756574e+02  -6.147477e+01
  -6.996687e+01  -1.855631e+02
   1.085901e+02  -1.894093e+02
   2.290947e+02  -6.676972e+01
   2.093486e+02   8.102763e+01
   8.530343e+01   1.474072e+02
  -3.362099e+01   1.193120e+02
  -7.791552e+01   6.844989e+01
  -6.439131e+01   5.901672e+01
  -5.329762e+01   7.899772e+01
  -7.773081e+01   6.494050e+01
  -1.103175e+02  -1.949448e+01
  -9.841589e+01  -1.335216e+02
  -2.004378e+01  -1.916875e+02
   8.624094e+01  -1.395969e+02
   1.441080e+02  -8.464868e+00
   1.073764e+02   1.067481e+02
   9.400169e+00   1.307613e+02
  -6.216487e+01   6.884176e+01
  -5.330779e+01  -9.372739e+00
   7.659777e-01  -4.320373e+01
   1.999137e+01  -3.131143e+01
  -2.322131e+01  -1.355930e+01
  -6.896486e+01  -1.805641e+01
  -4.001236e+01  -3.430366e+01
   6.202105e+01  -3.217187e+01
   1.454647e+02   3.366568e+00
   1.214460e+02   5.437634e+01
   5.846412e-01   8.239196e+01
  -1.124588e+02   6.107907e+01
  -1.228137e+02   3.939271e+00
  -3.801127e+01  -4.158941e+01
   5.001127e+01  -3.491312e+01
   6.486575e+01   1.679513e+01
   1.410110e+01   6.192867e+01
  -4.061462e+01   5.403871e+01
  -5.787172e+01   8.851011e-01
  -4.798208e+01  -4.308838e+01
  -4.129554e+01  -3.674400e+01
  -4.917035e+01  -2.663603e+00
  -5.624684e+01  -2.971262e+00
  -3.596752e+01  -6.289505e+01
   2.583499e+01  -1.299325e+02
   1.077038e+02  -1.230235e+02
   1.515397e+02  -2.748631e+01
   1.093639e+02   8.047597e+01
   2.877956e+00   1.120707e+02
  -7.633242e+01   5.791481e+01
  -5.207752e+01  -8.837861e+00
   4.839383e+01  -1.593841e+01
   1.128296e+02   3.709856e+01
   6.048828e+01   9.135640e+01
  -7.055972e+01   9.299817e+01
  -1.616140e+02   3.715368e+01
  -1.347777e+02  -3.539596e+01
  -2.699194e+01  -7.331411e+01
   5.440304e+01  -5.243954e+01
   4.109429e+01   7.065604e-01
  -3.418796e+01   2.550312e+01
  -7.753962e+01  -1.798429e+01
  -3.158192e+01  -9.914789e+01
   6.841443e+01  -1.316479e+02
   1.330360e+02  -5.847132e+01
   1.064246e+02   7.787945e+01
   1.449028e+01   1.626942e+02
  -6.815076e+01   1.195140e+02
  -8.801342e+01  -8.389831e+00
  -4.838540e+01  -1.014246e+02
   9.424885e+00  -8.909547e+01
   4.412440e+01  -1.494696e+01
   4.078471e+01   2.712396e+01
   1.667576e+01   8.338554e+00
   5.420419e+00  -1.306271e+01
   2.428826e+01   1.805392e+01
   4.705225e+01   7.604935e+01
   2.636563e+01   8.938367e+01
  -4.674856e+01   3.588685e+01
  -1.139309e+02  -3.256217e+01
  -1.038227e+02  -5.969172e+01
  -1.618303e+01  -4.439501e+01
   6.771097e+01  -2.067655e+01
   7.326576e+01  -5.223750e+00
   1.499844e+01   7.815785e+00
  -2.878869e+01   1.706672e+01
  -1.599516e+01   1.186205e+01
   1.282121e+01  -2.128820e+00
  -2.344435e+00  -5.638509e+00
  -5.558175e+01  -1.018875e+00
  -7.659975e+01  -1.829790e+01
  -1.618433e+01  -6.581242e+01
   9.061675e+01  -9.699577e+01
   1.561186e+02  -5.544837e+01
   1.261935e+02   4.835662e+01
   2.726390e+01   1.333995e+02
  -6.566792e+01   1.308283e+02
  -9.718042e+01   5.594493e+01
  -6.919126e+01  -1.541615e+01
  -2.469818e+01  -3.121913e+01
  -3.494882e+00  -1.058624e+01
  -1.194601e+01  -7.879816e+00
  -2.538939e+01  -4.330361e+01
  -1.491722e+01  -7.834173e+01
   2.472699e+01  -6.055710e+01
   6.588307e+01   1.339010e+01
   6.696515e+01   8.558779e+01
   1.181215e+01   9.162469e+01
  -6.253716e+01   2.571848e+01
  -8.855884e+01  -5.479478e+01
  -3.403568e+01  -8.644025e+01
   5.343038e+01  -5.471342e+01
   8.831089e+01   4.788489e+00
   4.062760e+01   4.793837e+01
  -2.727655e+01   5.306734e+01
  -3.398419e+01   2.701377e+01
   2.049220e+01  -3.759696e+00
   5.667032e+01  -8.638493e+00
   1.624385e+01   2.115370e+01
  -6.433100e+01   5.515082e+01
  -1.007678e+02   4.707732e+01
  -6.039371e+01  -1.123137e+01
   9.314149e+00  -6.999925e+01
   4.616061e+01  -7.023537e+01
   3.570575e+01  -1.216384e+01
   5.413310e+00   4.233540e+01
  -1.920062e+01   3.912955e+01
  -3.043545e+01  -9.424412e+00
  -2.433700e+01  -4.520575e+01
  -1.550978e-01  -3.345133e+01
   2.787144e+01   2.965958e+00
   3.656304e+01   1.954013e+01
   1.927839e+01   3.304320e+00
  -2.156058e+00  -1.543387e+01
  -5.853719e+00  -5.211464e+00
   2.172213e+00   2.704503e+01
  -1.418018e+00   4.288681e+01
  -2.173335e+01   1.751853e+01
  -3.303189e+01  -2.843728e+01
  -1.032591e+01  -4.868385e+01
   3.313079e+01  -2.115545e+01
   5.158896e+01   2.721758e+01
   1.585039e+01   5.035650e+01
  -4.798876e+01   3.061355e+01
  -7.846640e+01  -9.519689e+00
  -4.306810e+01  -3.691251e+01
   2.391404e+01  -3.896349e+01
   5.498499e+01  -2.417751e+01
   2.435460e+01  -6.526289e+00
  -2.358575e+01   1.733616e+00
  -2.726896e+01  -6.226914e+00
   2.088256e+01  -2.104452e+01
   6.686069e+01  -1.650201e+01
