
 $NMID
 id='ANONYMOUS ', fmtdat='(2E16.6)'
 volume=1.0
 tramp=1.0
 $END
  -4.195960e+03  -8.013102e+00
  -2.650561e+03  -2.272089e+03
   3.377098e+02  -2.582535e+03
   1.894629e+03  -1.212550e+03
   1.140824e+03   1.901341e+02
  -3.190147e+02   4.655542e+02
  -7.787126e+02  -2.781586e+02
  -8.567085e+01  -9.302168e+02
   6.855445e+02  -8.755169e+02
   9.247876e+02  -1.006954e+00
   5.172946e+02   9.299637e+02
  -1.785012e+02   9.713557e+02
  -5.378135e+02   1.118765e+02
  -3.043846e+02  -6.867179e+02
   1.722411e+02  -7.493954e+02
   5.780562e+02  -7.809260e+01
   3.538154e+02   6.432160e+02
  -2.234834e+02   7.818509e+02
  -5.611865e+02   2.136468e+02
  -4.344515e+02  -3.247397e+02
  -1.548485e+01  -4.636046e+02
   2.710179e+02  -2.864913e+02
   2.131537e+02  -1.934218e+01
  -1.029233e+02   1.895351e+01
  -3.941630e+02  -1.930149e+02
  -1.620175e+02  -4.044170e+02
   4.796479e+02  -3.534071e+02
   8.423354e+02   1.116746e+02
   4.091878e+02   5.391893e+02
  -3.932924e+02   4.675984e+02
  -7.552479e+02  -5.225512e+01
  -3.467714e+02  -4.779881e+02
   2.890855e+02  -5.124695e+02
   5.832525e+02  -2.008992e+02
   4.208234e+02   2.032878e+02
   5.819381e+01   4.657274e+02
  -1.907593e+02   3.098891e+02
  -1.339393e+02  -1.862032e+02
   1.810156e+02  -4.269752e+02
   4.343065e+02   1.859051e+01
   2.348781e+02   6.796506e+02
  -3.178651e+02   7.038975e+02
  -5.986512e+02   1.079046e+01
  -2.523390e+02  -5.576003e+02
   2.988455e+02  -3.228251e+02
   4.076516e+02   3.324833e+02
  -5.669270e+01   5.585423e+02
  -5.668538e+02   1.495051e+02
  -6.209953e+02  -4.195024e+02
  -1.832105e+02  -6.035573e+02
   3.872271e+02  -3.520301e+02
   6.428799e+02   8.309070e+01
   3.852017e+02   3.870640e+02
  -1.470433e+02   3.631016e+02
  -4.487708e+02   6.462134e+01
  -2.584885e+02  -1.802842e+02
   1.056070e+02  -1.061744e+02
   1.448106e+02   1.371756e+02
  -1.609695e+02   1.751772e+02
  -3.547643e+02  -7.109985e+01
  -1.512256e+02  -3.026817e+02
   2.153485e+02  -2.804937e+02
   3.653546e+02  -8.809882e+01
   2.249755e+02   1.042655e+02
  -2.894889e+01   2.614345e+02
  -2.484160e+02   3.447089e+02
  -3.621662e+02   2.083085e+02
  -3.015172e+02  -1.534654e+02
  -8.576439e+01  -4.442561e+02
   1.040982e+02  -3.941486e+02
   1.144750e+02  -1.364364e+02
   3.437608e+01  -1.820827e+01
   6.547561e+01  -1.040090e+02
   2.158960e+02  -1.278546e+02
   2.867687e+02   6.602804e+01
   1.539839e+02   2.828302e+02
  -7.925602e+01   2.594508e+02
  -2.274096e+02   2.236802e+00
  -1.910172e+02  -2.562809e+02
   2.239724e+01  -3.077605e+02
   2.791512e+02  -1.161266e+02
   3.753462e+02   1.848843e+02
   1.984666e+02   3.720200e+02
  -9.752402e+01   3.256579e+02
  -2.337986e+02   1.350963e+02
  -1.605613e+02   1.450017e+01
  -1.084925e+02   4.257449e+01
  -2.525756e+02   6.585070e+01
  -4.345653e+02  -6.350440e+01
  -3.592793e+02  -3.034965e+02
  -2.064427e-01  -4.728461e+02
   3.838274e+02  -4.396329e+02
   5.156222e+02  -2.103304e+02
   3.496198e+02   9.712180e+01
   5.436550e+01   3.015855e+02
  -1.267315e+02   2.548770e+02
  -7.277461e+01   2.840864e+01
   1.170726e+02  -1.100392e+02
   1.976739e+02   6.102943e+00
   5.421749e+01   2.011400e+02
  -1.532162e+02   1.782851e+02
  -1.744331e+02  -6.121680e+01
   1.951566e+01  -2.002676e+02
   2.040850e+02  -3.558936e+01
   1.799875e+02   2.631497e+02
  -2.424125e+01   3.813603e+02
  -2.466878e+02   2.188825e+02
  -3.597279e+02  -6.295602e+01
  -3.054382e+02  -2.603761e+02
  -1.009962e+02  -2.868078e+02
   1.233936e+02  -1.697849e+02
   1.881862e+02  -2.119541e+01
   5.930081e+01   2.970287e+01
  -7.481789e+01  -4.801937e+01
  -2.961328e+01  -1.366753e+02
   1.334803e+02  -1.057719e+02
   1.907425e+02   1.421393e+01
   6.319540e+01   7.649599e+01
  -8.340715e+01   1.460352e+01
  -5.668820e+01  -8.271898e+01
   1.344275e+02  -9.574532e+01
   3.036521e+02   3.340366e+00
   2.813812e+02   1.576145e+02
   6.040602e+01   2.774204e+02
  -2.011142e+02   2.755890e+02
  -3.039727e+02   1.284298e+02
  -1.803547e+02  -5.726660e+01
   2.631543e+01  -1.151043e+02
   9.593223e+01  -7.998369e+00
  -3.528641e+01   1.069794e+02
  -2.081175e+02   6.264893e+01
  -2.276905e+02  -1.085232e+02
  -7.503597e+01  -2.216670e+02
   1.005983e+02  -1.690957e+02
   1.539716e+02  -3.018705e+01
   7.379198e+01   4.573823e+01
  -3.265889e+01   2.544949e+00
  -4.185857e+01  -9.127875e+01
   7.548822e+01  -1.223498e+02
   2.101085e+02  -3.232177e+01
   2.047020e+02   1.281892e+02
   2.681426e+01   2.290817e+02
  -1.704170e+02   1.751420e+02
  -2.052060e+02   1.049425e+01
  -7.183590e+01  -1.190300e+02
   6.919664e+01  -1.185249e+02
   8.856601e+01  -3.319095e+01
   1.870280e+01   2.782022e+01
  -2.511447e+01   1.881119e+01
   9.242092e+00  -1.234812e+01
   7.724953e+01   5.069516e+00
   9.685409e+01   8.515140e+01
   1.727752e+01   1.687603e+02
  -1.327110e+02   1.634332e+02
  -2.463725e+02   2.877302e+01
  -2.142919e+02  -1.568506e+02
  -4.868702e+01  -2.500764e+02
   1.111486e+02  -1.818530e+02
   1.427281e+02  -3.282130e+01
   7.730739e+01   5.640885e+01
   3.212221e+01   3.742141e+01
   5.639012e+01  -1.420421e+01
   8.408436e+01  -1.010380e+01
   4.707927e+01   5.088204e+01
  -4.063907e+01   9.475026e+01
  -1.075582e+02   6.091116e+01
  -9.250397e+01  -3.715890e+01
   1.454453e+01  -1.184690e+02
   1.533918e+02  -9.250568e+01
   2.113204e+02   5.431029e+01
   1.068200e+02   2.149414e+02
  -1.132754e+02   2.439931e+02
  -2.835302e+02   1.049308e+02
  -2.750942e+02  -8.892767e+01
  -1.207534e+02  -1.868820e+02
   3.856158e+01  -1.582177e+02
   9.983972e+01  -9.214285e+01
   8.498038e+01  -7.516877e+01
   7.068943e+01  -9.665246e+01
   9.764519e+01  -7.883278e+01
   1.363096e+02   2.246390e+01
   1.262482e+02   1.623598e+02
   3.409694e+01   2.403843e+02
  -1.020177e+02   1.850967e+02
  -1.856696e+02   2.466022e+01
  -1.475984e+02  -1.273600e+02
  -2.462908e+01  -1.691726e+02
   6.952010e+01  -9.923067e+01
   6.541970e+01  -2.358523e+00
   7.224069e+00   4.459524e+01
  -1.082610e+01   3.740991e+01
   3.780165e+01   2.047539e+01
   8.429725e+01   2.466726e+01
   4.773049e+01   4.013978e+01
  -6.853162e+01   3.879735e+01
  -1.683686e+02   4.284562e+00
  -1.511629e+02  -5.153521e+01
  -1.562014e+01  -9.116191e+01
   1.253485e+02  -7.826747e+01
   1.491288e+02  -1.665424e+01
   4.888686e+01   4.079842e+01
  -6.214136e+01   3.892264e+01
  -7.806099e+01  -2.017062e+01
  -8.815516e+00  -7.350892e+01
   5.709149e+01  -6.334346e+01
   6.786077e+01   7.970517e-01
   5.050537e+01   5.332650e+01
   4.876142e+01   4.520374e+01
   6.472293e+01   2.901882e+00
   6.882674e+01   1.245471e+00
   3.694376e+01   7.264701e+01
  -3.424132e+01   1.546911e+02
  -1.232061e+02   1.488046e+02
  -1.741761e+02   3.466782e+01
  -1.304705e+02  -9.574923e+01
  -7.234547e+00  -1.323762e+02
   9.027519e+01  -6.517544e+01
   6.237978e+01   1.458695e+01
  -6.290861e+01   2.051155e+01
  -1.449337e+02  -4.624741e+01
  -7.961599e+01  -1.141348e+02
   8.569016e+01  -1.197079e+02
   2.023600e+02  -5.489372e+01
   1.721644e+02   3.647939e+01
   3.910145e+01   9.171441e+01
  -6.493674e+01   7.319764e+01
  -5.152341e+01   6.530959e+00
   4.207380e+01  -2.933097e+01
   9.717147e+01   2.307430e+01
   3.637665e+01   1.254533e+02
  -9.497461e+01   1.648154e+02
  -1.759931e+02   6.899213e+01
  -1.345791e+02  -1.042536e+02
  -1.279933e+01  -2.094572e+02
   8.895479e+01  -1.543585e+02
   1.108470e+02   6.545512e+00
   6.562517e+01   1.260730e+02
  -9.004576e-01   1.146893e+02
  -4.898444e+01   2.311966e+01
  -5.668077e+01  -3.177248e+01
  -2.926876e+01  -9.212046e+00
  -5.705101e+00   1.980411e+01
  -2.289630e+01  -1.826145e+01
  -5.960246e+01  -9.412443e+01
  -4.457292e+01  -1.146726e+02
   4.994783e+01  -4.782366e+01
   1.469105e+02   3.941801e+01
   1.384247e+02   7.236465e+01
   1.998371e+01   5.198944e+01
  -9.152489e+01   2.449103e+01
  -9.252753e+01   8.784569e+00
  -1.157789e+01  -7.700442e+00
   4.052402e+01  -2.263718e+01
   1.562937e+01  -1.716817e+01
  -2.135375e+01   2.826589e+00
   6.288403e+00   8.618654e+00
   7.694838e+01   1.744037e+00
   9.533518e+01   2.319185e+01
   1.037091e+01   8.419099e+01
  -1.209275e+02   1.221248e+02
  -1.920663e+02   6.543440e+01
  -1.491157e+02  -6.678740e+01
  -3.018614e+01  -1.684703e+02
   7.951236e+01  -1.588970e+02
   1.180280e+02  -6.422319e+01
   8.456927e+01   2.107639e+01
   2.708721e+01   3.744448e+01
  -1.911389e+00   1.011225e+01
   1.147003e+01   4.993778e+00
   3.480625e+01   4.830838e+01
   2.367384e+01   9.443674e+01
  -3.065900e+01   7.477625e+01
  -8.533924e+01  -1.968346e+01
  -8.186235e+01  -1.134277e+02
  -5.821283e+00  -1.173147e+02
   8.641993e+01  -2.521503e+01
   1.099361e+02   7.841626e+01
   3.576915e+01   1.087172e+02
  -6.955553e+01   5.976040e+01
  -1.046194e+02  -1.116923e+01
  -4.325830e+01  -5.327990e+01
   3.393874e+01  -5.572278e+01
   3.394540e+01  -3.023231e+01
  -3.452221e+01   1.637368e+00
  -7.285413e+01   8.967226e+00
  -1.733141e+01  -2.538775e+01
   8.072654e+01  -7.013042e+01
   1.198550e+02  -6.386948e+01
   6.755525e+01   9.772498e+00
  -1.448005e+01   8.541871e+01
  -5.386923e+01   8.381831e+01
  -3.825620e+01   7.954590e+00
  -1.854965e+00  -5.726308e+01
   2.675897e+01  -4.572598e+01
   3.847680e+01   1.745423e+01
   2.882203e+01   5.610891e+01
  -1.811516e+00   3.566237e+01
  -3.434521e+01  -7.203786e+00
  -4.244565e+01  -2.112446e+01
  -2.337377e+01  -9.373400e-01
  -5.338691e-01   1.485720e+01
   6.883520e+00  -3.532260e+00
   6.945601e+00  -3.930946e+01
   1.725999e+01  -4.822731e+01
   3.363722e+01  -9.023427e+00
   3.210637e+01   4.682330e+01
  -1.237807e+00   6.366643e+01
  -4.608699e+01   2.141026e+01
  -5.902970e+01  -4.063989e+01
  -1.519694e+01  -6.545756e+01
   5.799904e+01  -3.554759e+01
   9.382455e+01   1.520676e+01
   5.205276e+01   4.520662e+01
  -2.994219e+01   4.310711e+01
  -6.805110e+01   2.408513e+01
  -2.578608e+01   6.471824e+00
   3.853542e+01   2.187286e+00
   3.955696e+01   1.554384e+01
  -3.145759e+01   3.225112e+01
  -9.486910e+01   2.091395e+01
