
 $NMID
 id='ANONYMOUS ', fmtdat='(2E16.6)'
 volume=1.0
 tramp=1.0
 $END
   3.463715e+03   2.867846e+02
   1.734670e+03   1.470946e+03
  -2.235599e+02   1.802895e+03
  -1.231916e+03   1.052473e+03
  -8.193848e+02   1.500642e+01
   2.305837e+02  -2.996283e+02
   5.432913e+02   4.734068e+01
  -7.360969e+01   6.504178e+02
  -3.884330e+02   6.069078e+02
  -6.471526e+02   7.197641e+01
  -2.916996e+02  -6.684985e+02
   1.319767e+02  -6.519567e+02
   3.547958e+02  -9.514572e+01
   1.969092e+02   4.742756e+02
  -1.303048e+02   5.601331e+02
  -3.426571e+02  -6.315652e+00
  -2.137800e+02  -5.044744e+02
   1.606083e+02  -5.440057e+02
   4.204460e+02  -1.738740e+02
   3.694068e+02   2.127571e+02
   8.583772e+01   3.639402e+02
  -1.418073e+02   2.136299e+02
  -7.988742e+01   6.736785e+01
   1.425391e+02   4.400584e+00
   2.716195e+02   2.031916e+02
   3.783610e+01   3.341587e+02
  -4.363132e+02   1.940270e+02
  -6.268426e+02  -1.677036e+02
  -2.679104e+02  -3.847434e+02
   3.280126e+02  -2.414965e+02
   5.481278e+02   1.000131e+02
   2.208574e+02   3.526389e+02
  -2.560201e+02   3.440421e+02
  -4.388323e+02   1.231685e+02
  -2.905034e+02  -1.700470e+02
  -3.526579e+01  -3.175238e+02
   8.729643e+01  -1.988513e+02
  -4.896208e+00   1.304089e+02
  -1.871398e+02   2.322491e+02
  -2.625801e+02  -8.383062e+01
  -6.017257e+01  -4.986445e+02
   2.582483e+02  -4.836970e+02
   3.710209e+02  -3.166679e+00
   1.533222e+02   3.597404e+02
  -1.601556e+02   1.876148e+02
  -2.229999e+02  -2.446686e+02
   6.305079e+01  -3.972067e+02
   4.174407e+02  -9.321342e+01
   4.821065e+02   3.275565e+02
   1.631090e+02   4.743130e+02
  -2.802648e+02   2.810195e+02
  -4.901030e+02  -4.951053e+01
  -3.044740e+02  -2.608794e+02
   7.915025e+01  -2.336322e+02
   2.912349e+02  -5.010066e+01
   1.827588e+02   8.811816e+01
  -4.381406e+01   5.575746e+01
  -7.992259e+01  -6.706513e+01
   9.746646e+01  -9.315872e+01
   2.304344e+02   3.279540e+01
   1.211726e+02   1.901858e+02
  -1.372213e+02   2.343530e+02
  -3.011024e+02   1.291068e+02
  -2.360763e+02  -7.374805e+01
  -2.518967e+00  -2.745949e+02
   2.338249e+02  -3.345311e+02
   3.253030e+02  -1.657968e+02
   2.302161e+02   1.376229e+02
   5.403807e+01   3.332339e+02
  -4.646300e+01   2.867681e+02
  -2.951361e+01   1.286495e+02
  -7.109753e+00   6.548902e+01
  -8.258011e+01   1.080381e+02
  -2.059847e+02   8.565896e+01
  -2.335168e+02  -7.587091e+01
  -1.119018e+02  -2.287707e+02
   7.474084e+01  -1.960061e+02
   1.895192e+02   1.456017e+01
   1.528762e+02   2.196200e+02
  -2.644125e+01   2.456279e+02
  -2.334548e+02   8.047696e+01
  -3.005572e+02  -1.481180e+02
  -1.616166e+02  -2.780081e+02
   5.746938e+01  -2.466864e+02
   1.621395e+02  -1.283038e+02
   1.259106e+02  -5.478408e+01
   1.172932e+02  -5.768371e+01
   2.327867e+02  -5.051846e+01
   3.630443e+02   6.187936e+01
   2.918746e+02   2.509411e+02
  -4.788954e+00   3.928675e+02
  -3.203676e+02   3.699223e+02
  -4.224922e+02   1.716168e+02
  -2.697105e+02  -9.172386e+01
  -2.844549e+01  -2.446229e+02
   9.928698e+01  -1.900062e+02
   3.821101e+01  -1.926400e+01
  -1.008049e+02   6.602242e+01
  -1.409243e+02  -1.948496e+01
  -2.700908e+01  -1.405113e+02
   1.123057e+02  -1.136292e+02
   1.210581e+02   4.681011e+01
  -1.750569e+01   1.332634e+02
  -1.549394e+02   1.379152e+01
  -1.498512e+02  -2.082407e+02
   9.152358e+00  -3.104632e+02
   2.136486e+02  -1.931709e+02
   3.240665e+02   4.457720e+01
   2.619774e+02   2.273130e+02
   6.710493e+01   2.504476e+02
  -1.153209e+02   1.372564e+02
  -1.462791e+02   8.872858e+00
  -3.768447e+01  -2.274103e+01
   5.390302e+01   4.547276e+01
   1.037065e+01   1.078673e+02
  -1.063674e+02   7.626945e+01
  -1.384077e+02  -1.408527e+01
  -3.698002e+01  -5.689017e+01
   7.285144e+01  -4.314751e+00
   4.403358e+01   7.752136e+01
  -1.199052e+02   9.170673e+01
  -2.661341e+02   5.362100e+00
  -2.431560e+02  -1.344083e+02
  -4.692303e+01  -2.373375e+02
   1.724493e+02  -2.271781e+02
   2.441733e+02  -1.025252e+02
   1.337221e+02   4.019405e+01
  -2.514303e+01   7.959389e+01
  -6.681661e+01   8.571515e-01
   3.918171e+01  -7.859338e+01
   1.671220e+02  -4.118988e+01
   1.775278e+02   8.715552e+01
   5.882937e+01   1.707474e+02
  -7.806121e+01   1.288157e+02
  -1.190288e+02   1.977176e+01
  -5.010330e+01  -3.631841e+01
   3.736155e+01   7.693982e+00
   3.565858e+01   8.841213e+01
  -7.154909e+01   1.081634e+02
  -1.813142e+02   2.486312e+01
  -1.663986e+02  -1.080237e+02
  -1.692877e+01  -1.848424e+02
   1.360910e+02  -1.400042e+02
   1.578686e+02  -1.180193e+01
   5.259854e+01   9.059646e+01
  -5.465165e+01   9.325422e+01
  -6.639161e+01   2.558327e+01
  -7.329204e+00  -2.514088e+01
   2.895342e+01  -1.326112e+01
  -6.711686e+00   1.961663e+01
  -7.441236e+01   4.469657e+00
  -9.378094e+01  -7.581565e+01
  -1.642893e+01  -1.538742e+02
   1.196262e+02  -1.417926e+02
   2.111262e+02  -1.868082e+01
   1.767236e+02   1.350068e+02
   3.935147e+01   2.043408e+02
  -8.661132e+01   1.464856e+02
  -1.140437e+02   3.037506e+01
  -6.540280e+01  -3.933292e+01
  -2.907054e+01  -2.679216e+01
  -4.655746e+01   1.362703e+01
  -7.427700e+01   1.070477e+01
  -4.897340e+01  -4.359538e+01
   2.890536e+01  -8.857933e+01
   9.922341e+01  -5.966742e+01
   8.999026e+01   3.479721e+01
  -1.099932e+01   1.122918e+02
  -1.387611e+02   8.235546e+01
  -1.845844e+02  -5.269214e+01
  -8.508646e+01  -1.866324e+02
   1.015657e+02  -2.019124e+02
   2.361453e+02  -8.180676e+01
   2.236545e+02   7.388869e+01
   9.577417e+01   1.504012e+02
  -3.158828e+01   1.275762e+02
  -7.979947e+01   7.620168e+01
  -6.514041e+01   6.481345e+01
  -5.405037e+01   8.395494e+01
  -8.107286e+01   7.017390e+01
  -1.187915e+02  -1.608745e+01
  -1.102345e+02  -1.365852e+02
  -2.879149e+01  -2.015506e+02
   8.655269e+01  -1.519732e+02
   1.534943e+02  -1.621644e+01
   1.183465e+02   1.075460e+02
   1.523271e+01   1.373288e+02
  -6.202109e+01   7.576067e+01
  -5.515611e+01  -5.766548e+00
  -9.010338e-01  -4.328099e+01
   1.812907e+01  -3.249418e+01
  -2.616931e+01  -1.299786e+01
  -7.272313e+01  -1.578383e+01
  -4.342496e+01  -3.393771e+01
   6.113332e+01  -3.650723e+01
   1.492840e+02  -3.499463e+00
   1.283869e+02   5.018585e+01
   5.115951e+00   8.401614e+01
  -1.138716e+02   6.630533e+01
  -1.270606e+02   7.752176e+00
  -3.898604e+01  -4.178686e+01
   5.369873e+01  -3.702675e+01
   6.882881e+01   1.647402e+01
   1.464509e+01   6.414397e+01
  -4.230781e+01   5.666501e+01
  -5.886839e+01   1.805604e+00
  -4.755641e+01  -4.314722e+01
  -4.129926e+01  -3.537463e+01
  -5.098342e+01   1.356372e+00
  -5.981079e+01   1.100513e+00
  -4.065044e+01  -6.298719e+01
   2.198274e+01  -1.353146e+02
   1.075146e+02  -1.309359e+02
   1.560963e+02  -3.280536e+01
   1.145046e+02   8.047030e+01
   3.672635e+00   1.160610e+02
  -7.944486e+01   6.074046e+01
  -5.304048e+01  -1.032055e+01
   5.391136e+01  -2.078172e+01
   1.221295e+02   3.411365e+01
   6.669106e+01   9.501196e+01
  -7.161797e+01   1.029756e+02
  -1.683427e+02   4.753269e+01
  -1.426773e+02  -3.163682e+01
  -3.192363e+01  -7.728433e+01
   5.385918e+01  -5.898072e+01
   4.259163e+01  -2.165707e+00
  -3.459703e+01   2.729063e+01
  -8.120530e+01  -1.647582e+01
  -3.515105e+01  -1.027986e+02
   6.955611e+01  -1.395332e+02
   1.392765e+02  -6.435527e+01
   1.135409e+02   7.951117e+01
   1.829498e+01   1.705489e+02
  -6.878352e+01   1.274636e+02
  -9.210897e+01  -5.595300e+00
  -5.399074e+01  -1.040638e+02
   4.883838e+00  -9.307244e+01
   4.322607e+01  -1.755209e+01
   4.312604e+01   2.557582e+01
   1.896362e+01   6.280970e+00
   6.193552e+00  -1.521293e+01
   2.591162e+01   1.772728e+01
   5.231798e+01   7.800259e+01
   3.194624e+01   9.245075e+01
  -4.704366e+01   3.891224e+01
  -1.206992e+02  -3.001685e+01
  -1.101968e+02  -5.822573e+01
  -1.618612e+01  -4.514786e+01
   7.208842e+01  -2.331170e+01
   7.571531e+01  -7.120515e+00
   1.350797e+01   8.734159e+00
  -3.059284e+01   1.989959e+01
  -1.531047e+01   1.362785e+01
   1.363923e+01  -2.025993e+00
  -5.064725e+00  -5.315638e+00
  -6.119173e+01  -2.134762e-01
  -8.060659e+01  -1.958278e+01
  -1.531388e+01  -7.102576e+01
   9.551573e+01  -1.033279e+02
   1.621334e+02  -5.826656e+01
   1.309033e+02   5.103198e+01
   2.924231e+01   1.390571e+02
  -6.678466e+01   1.358255e+02
  -1.000881e+02   5.848154e+01
  -7.124053e+01  -1.485663e+01
  -2.408018e+01  -3.126394e+01
  -1.821466e+00  -9.856905e+00
  -1.275954e+01  -6.436536e+00
  -2.964142e+01  -4.284722e+01
  -1.932586e+01  -8.057540e+01
   2.454253e+01  -6.387016e+01
   7.058386e+01   1.285976e+01
   7.209092e+01   8.928525e+01
   1.240688e+01   9.630089e+01
  -6.712849e+01   2.686282e+01
  -9.386424e+01  -5.719864e+01
  -3.621559e+01  -8.880061e+01
   5.475178e+01  -5.559858e+01
   9.000702e+01   4.272145e+00
   4.101621e+01   4.664003e+01
  -2.709681e+01   5.238283e+01
  -3.238177e+01   2.776028e+01
   2.309364e+01  -3.175203e+00
   5.793106e+01  -9.629483e+00
   1.562280e+01   2.031694e+01
  -6.536027e+01   5.673590e+01
  -1.001673e+02   5.037223e+01
  -5.866928e+01  -9.600986e+00
   1.057742e+01  -7.119260e+01
   4.606773e+01  -7.120660e+01
   3.514557e+01  -1.028572e+01
   4.619256e+00   4.543850e+01
  -2.069653e+01   4.006077e+01
  -3.214623e+01  -1.095081e+01
  -2.513187e+01  -4.626398e+01
   2.820764e-01  -3.275355e+01
   2.879943e+01   3.929066e+00
   3.704222e+01   1.842251e+01
   2.001084e+01   1.260830e+00
  -9.840803e-01  -1.562862e+01
  -5.374887e+00  -2.053459e+00
   4.805302e-01   3.115691e+01
  -5.005352e+00   4.457040e+01
  -2.460000e+01   1.522299e+01
  -3.304680e+01  -3.308702e+01
  -7.929639e+00  -5.216945e+01
   3.575029e+01  -2.109239e+01
   5.338749e+01   3.022746e+01
   1.638523e+01   5.373199e+01
  -4.943036e+01   3.256081e+01
  -8.168839e+01  -9.074510e+00
  -4.551559e+01  -3.719008e+01
   2.386296e+01  -3.955378e+01
   5.615430e+01  -2.511209e+01
   2.344023e+01  -7.491619e+00
  -2.721695e+01   8.305084e-01
  -2.986733e+01  -7.810838e+00
   2.294843e+01  -2.408482e+01
   7.236140e+01  -1.923182e+01
