
 $NMID
 id='ANONYMOUS ', fmtdat='(2E16.6)'
 volume=1.0
 tramp=1.0
 $END
  -4.603590e+03  -2.750350e+02
  -2.860232e+03  -2.721799e+03
   6.180436e+02  -3.053766e+03
   2.507518e+03  -8.546977e+02
   8.740225e+02   5.738661e+02
  -7.832434e+02   6.289933e+02
  -9.611397e+02  -5.448050e+02
   1.506949e+02  -1.128313e+03
   8.728360e+02  -8.229913e+02
   1.022054e+03   1.184480e+02
   3.935310e+02   1.011941e+03
  -3.608812e+02   9.864313e+02
  -6.857436e+02   9.439669e+01
  -4.268136e+02  -7.649922e+02
   2.102617e+02  -7.893106e+02
   5.938364e+02   4.916578e+01
   2.770661e+02   7.682589e+02
  -3.442608e+02   6.942107e+02
  -5.830041e+02   8.829628e+01
  -3.955493e+02  -3.926944e+02
   2.464039e+01  -4.687752e+02
   2.865614e+02  -3.041544e+02
   1.984804e+02  -4.284503e+01
  -1.289262e+02   1.204070e+02
  -4.207693e+02  -9.433005e+01
  -2.166383e+02  -4.532017e+02
   5.153812e+02  -4.612027e+02
   9.397776e+02   4.423102e+01
   5.023102e+02   6.028240e+02
  -3.996176e+02   5.512641e+02
  -8.245090e+02  -3.281726e-01
  -4.084150e+02  -5.198026e+02
   2.798276e+02  -5.739727e+02
   6.169112e+02  -2.357727e+02
   4.449559e+02   2.636892e+02
   5.806979e+01   5.353999e+02
  -2.474217e+02   3.275964e+02
  -2.174312e+02  -2.725982e+02
   1.636899e+02  -5.324400e+02
   5.154436e+02  -1.013228e+01
   2.893900e+02   7.387191e+02
  -3.654015e+02   7.889817e+02
  -6.858862e+02   1.347651e+01
  -3.026312e+02  -6.211069e+02
   3.255809e+02  -3.738657e+02
   4.461007e+02   3.221282e+02
  -5.111288e+01   5.818081e+02
  -5.868312e+02   1.565476e+02
  -6.395272e+02  -4.199180e+02
  -1.854997e+02  -6.170950e+02
   4.026090e+02  -3.654991e+02
   6.733162e+02   9.270562e+01
   3.974126e+02   4.379877e+02
  -1.777004e+02   4.101143e+02
  -4.929140e+02   4.765394e+01
  -2.659544e+02  -2.417758e+02
   1.417727e+02  -1.321488e+02
   1.761735e+02   1.833761e+02
  -1.665301e+02   2.316794e+02
  -3.717867e+02  -6.382668e+01
  -1.527672e+02  -3.145960e+02
   2.069488e+02  -2.573042e+02
   3.218559e+02  -5.527020e+01
   1.748898e+02   7.902479e+01
  -2.993961e+01   1.883926e+02
  -2.016460e+02   3.068864e+02
  -3.265815e+02   2.389243e+02
  -3.044073e+02  -1.160312e+02
  -9.076777e+01  -4.542711e+02
   1.319941e+02  -4.177061e+02
   1.502573e+02  -1.154707e+02
   3.240306e+01   3.770065e+01
   2.382357e+01  -7.344334e+01
   1.811207e+02  -1.452111e+02
   2.905231e+02   3.331002e+01
   1.835195e+02   2.721771e+02
  -6.099018e+01   2.776969e+02
  -2.422973e+02   3.176657e+01
  -2.255502e+02  -2.376725e+02
  -6.480521e+00  -3.128721e+02
   2.749733e+02  -1.416709e+02
   3.867618e+02   1.602556e+02
   2.051351e+02   3.687562e+02
  -1.080970e+02   3.296338e+02
  -2.484574e+02   1.240105e+02
  -1.626197e+02  -1.206800e+01
  -9.668947e+01   2.302982e+01
  -2.247969e+02   6.742167e+01
  -3.974247e+02  -5.088853e+01
  -3.331613e+02  -2.834323e+02
   6.560842e-01  -4.495317e+02
   3.551042e+02  -4.252129e+02
   4.902685e+02  -2.142871e+02
   3.498778e+02   9.051523e+01
   6.903753e+01   3.159763e+02
  -1.361088e+02   2.796846e+02
  -1.019169e+02   3.021913e+01
   1.025279e+02  -1.378620e+02
   2.155063e+02  -1.445438e+01
   7.006663e+01   2.125421e+02
  -1.663587e+02   2.037930e+02
  -2.039898e+02  -5.344704e+01
   4.027786e+00  -2.150311e+02
   2.052093e+02  -5.523833e+01
   1.832084e+02   2.480810e+02
  -1.750283e+01   3.623350e+02
  -2.246585e+02   2.012684e+02
  -3.288171e+02  -5.659839e+01
  -2.888522e+02  -2.321967e+02
  -1.086321e+02  -2.638901e+02
   1.127713e+02  -1.689914e+02
   1.909502e+02  -2.657031e+01
   6.943419e+01   3.877049e+01
  -7.491868e+01  -2.984721e+01
  -4.219936e+01  -1.289072e+02
   1.197033e+02  -1.142579e+02
   1.871213e+02   3.252172e+00
   7.076526e+01   7.690748e+01
  -7.315786e+01   2.700083e+01
  -5.754362e+01  -6.789357e+01
   1.142571e+02  -9.144215e+01
   2.749579e+02  -1.145524e+01
   2.695505e+02   1.281467e+02
   7.780281e+01   2.539871e+02
  -1.718832e+02   2.729645e+02
  -2.881969e+02   1.395584e+02
  -1.819306e+02  -5.200718e+01
   2.378919e+01  -1.210348e+02
   1.034226e+02  -1.369187e+01
  -2.241005e+01   1.108913e+02
  -1.989595e+02   7.387627e+01
  -2.263943e+02  -9.605279e+01
  -8.013478e+01  -2.138847e+02
   9.325429e+01  -1.689902e+02
   1.509399e+02  -3.810615e+01
   8.026708e+01   3.955578e+01
  -2.213958e+01   9.415948e+00
  -3.939764e+01  -7.281002e+01
   6.379408e+01  -1.080628e+02
   1.921447e+02  -3.339991e+01
   1.925282e+02   1.173641e+02
   2.411899e+01   2.193219e+02
  -1.671401e+02   1.694861e+02
  -2.006330e+02   6.228416e+00
  -6.947294e+01  -1.221206e+02
   6.823485e+01  -1.203319e+02
   8.895548e+01  -3.485405e+01
   2.597641e+01   2.736863e+01
  -1.454128e+01   2.505866e+01
   1.104419e+01   2.004953e-02
   6.398822e+01   1.275505e+01
   8.045223e+01   7.874800e+01
   1.415374e+01   1.524037e+02
  -1.208882e+02   1.527761e+02
  -2.302342e+02   3.204454e+01
  -2.056445e+02  -1.466864e+02
  -4.673841e+01  -2.410687e+02
   1.089966e+02  -1.745347e+02
   1.387195e+02  -2.513335e+01
   7.092717e+01   6.071575e+01
   2.641509e+01   3.889565e+01
   4.946936e+01  -1.271992e+01
   7.451883e+01  -6.955650e+00
   3.577144e+01   4.618684e+01
  -4.253031e+01   8.091710e+01
  -9.702641e+01   5.022069e+01
  -7.999919e+01  -3.270637e+01
   1.228073e+01  -1.054348e+02
   1.354388e+02  -8.717802e+01
   1.973053e+02   4.322824e+01
   1.098002e+02   1.966130e+02
  -9.673745e+01   2.355479e+02
  -2.660333e+02   1.087544e+02
  -2.655533e+02  -7.862483e+01
  -1.179713e+02  -1.776701e+02
   3.474382e+01  -1.513469e+02
   9.392912e+01  -8.740464e+01
   7.987953e+01  -7.176704e+01
   6.786148e+01  -9.317961e+01
   9.423634e+01  -7.611711e+01
   1.317882e+02   2.128958e+01
   1.226829e+02   1.544187e+02
   3.434003e+01   2.283581e+02
  -9.760045e+01   1.770099e+02
  -1.785343e+02   2.585175e+01
  -1.405510e+02  -1.186925e+02
  -2.205730e+01  -1.599991e+02
   6.483104e+01  -9.499847e+01
   5.758905e+01  -3.933834e+00
   4.824624e+00   3.985591e+01
  -7.010471e+00   3.281948e+01
   3.915704e+01   1.768132e+01
   7.849473e+01   2.220819e+01
   4.395225e+01   3.663843e+01
  -5.973763e+01   3.609247e+01
  -1.518426e+02   5.599902e+00
  -1.421314e+02  -4.572458e+01
  -2.003869e+01  -8.401514e+01
   1.164052e+02  -7.361392e+01
   1.449337e+02  -1.581523e+01
   4.855655e+01   3.897672e+01
  -6.251149e+01   3.687263e+01
  -7.745137e+01  -1.892879e+01
  -5.377501e+00  -6.765112e+01
   5.870935e+01  -5.669292e+01
   6.178441e+01   2.878256e+00
   3.958428e+01   4.950634e+01
   4.100891e+01   3.999461e+01
   6.255658e+01  -2.999498e-01
   6.750730e+01  -2.098425e+00
   3.503206e+01   6.527946e+01
  -3.079967e+01   1.446409e+02
  -1.110862e+02   1.421912e+02
  -1.594424e+02   3.571254e+01
  -1.225943e+02  -8.819642e+01
  -9.344428e+00  -1.241984e+02
   8.399943e+01  -6.009202e+01
   5.953004e+01   1.642353e+01
  -6.064908e+01   2.251685e+01
  -1.413789e+02  -4.057877e+01
  -8.082422e+01  -1.069149e+02
   7.709151e+01  -1.169587e+02
   1.900958e+02  -6.017094e+01
   1.646777e+02   2.725978e+01
   4.118020e+01   8.560271e+01
  -5.746761e+01   7.324640e+01
  -4.720774e+01   9.821181e+00
   3.956665e+01  -2.616246e+01
   9.117962e+01   2.311247e+01
   3.296212e+01   1.202100e+02
  -9.329280e+01   1.549338e+02
  -1.700735e+02   6.125860e+01
  -1.278989e+02  -1.015935e+02
  -1.009428e+01  -1.977043e+02
   8.535078e+01  -1.445421e+02
   1.041323e+02   4.425161e+00
   6.222581e+01   1.151433e+02
   2.091056e+00   1.055452e+02
  -4.285505e+01   2.112030e+01
  -5.260860e+01  -2.985846e+01
  -2.768832e+01  -7.028796e+00
  -3.454736e+00   2.310605e+01
  -1.889498e+01  -1.280778e+01
  -5.662595e+01  -8.859419e+01
  -4.598994e+01  -1.113959e+02
   4.431902e+01  -4.649207e+01
   1.396400e+02   3.971702e+01
   1.321806e+02   7.073478e+01
   1.660132e+01   4.782847e+01
  -9.076653e+01   2.029265e+01
  -8.853128e+01   7.414594e+00
  -7.292500e+00  -7.345806e+00
   4.146106e+01  -2.367538e+01
   1.377407e+01  -1.997363e+01
  -2.224781e+01   1.283829e+00
   8.146512e+00   1.058021e+01
   7.842524e+01   6.292969e+00
   9.191626e+01   2.681571e+01
   3.397786e+00   8.329745e+01
  -1.248180e+02   1.149083e+02
  -1.880125e+02   5.464245e+01
  -1.401108e+02  -7.353316e+01
  -2.342291e+01  -1.658198e+02
   8.065502e+01  -1.493521e+02
   1.157041e+02  -5.622316e+01
   8.209076e+01   2.231461e+01
   2.492198e+01   3.466105e+01
  -4.300463e+00   7.976352e+00
   9.755255e+00   3.914479e+00
   3.463772e+01   4.564705e+01
   2.434893e+01   9.039475e+01
  -3.008488e+01   7.220851e+01
  -8.342287e+01  -1.943570e+01
  -7.731745e+01  -1.110027e+02
  -1.256985e+00  -1.139258e+02
   8.564339e+01  -2.214801e+01
   1.034509e+02   7.853054e+01
   3.018158e+01   1.039703e+02
  -6.718889e+01   5.337816e+01
  -9.585260e+01  -1.257601e+01
  -3.691309e+01  -4.763838e+01
   3.208890e+01  -4.807819e+01
   2.777971e+01  -2.799517e+01
  -3.706028e+01  -2.024101e+00
  -6.886545e+01   5.204240e+00
  -1.172775e+01  -2.436600e+01
   8.111570e+01  -6.441972e+01
   1.135992e+02  -5.752215e+01
   5.916070e+01   1.294896e+01
  -1.972724e+01   8.308056e+01
  -5.376824e+01   7.669402e+01
  -3.550772e+01   9.691609e-01
   4.866558e-01  -5.901244e+01
   2.687108e+01  -4.201054e+01
   3.660633e+01   2.042768e+01
   2.614757e+01   5.331820e+01
  -2.855762e+00   2.983762e+01
  -3.179163e+01  -9.824420e+00
  -3.779067e+01  -1.903354e+01
  -1.992054e+01   1.308493e+00
  -5.304008e-01   1.358365e+01
   5.777280e+00  -6.026249e+00
   8.650128e+00  -3.856051e+01
   2.077818e+01  -4.336491e+01
   3.436004e+01  -3.827717e+00
   2.790591e+01   4.893451e+01
  -6.281181e+00   6.249803e+01
  -4.634303e+01   1.907013e+01
  -5.514394e+01  -4.208980e+01
  -1.319397e+01  -6.491392e+01
   5.438118e+01  -3.339495e+01
   8.777520e+01   1.707154e+01
   4.885956e+01   4.418149e+01
  -2.857371e+01   3.881203e+01
  -6.428135e+01   1.912097e+01
  -2.224114e+01   4.726771e+00
   4.034861e+01   4.574360e+00
   3.892331e+01   1.885296e+01
  -3.360407e+01   3.283300e+01
  -9.578065e+01   1.904599e+01
