
 $NMID
 id='ANONYMOUS ', fmtdat='(2E16.6)'
 volume=1.0
 tramp=1.0
 $END
   4.078193e+03   1.623351e+02
   2.522208e+03   2.100957e+03
  -4.889886e+02   2.435889e+03
  -1.879677e+03   9.075785e+02
  -9.628464e+02  -5.769160e+02
   4.912175e+02  -5.555550e+02
   9.146870e+02   3.331250e+02
   9.965986e+01   9.834773e+02
  -7.422665e+02   6.427509e+02
  -8.009505e+02  -2.004823e+02
  -4.125491e+02  -8.687280e+02
   3.090217e+02  -7.677647e+02
   5.600972e+02  -5.527851e+01
   3.863176e+02   6.612484e+02
  -1.453833e+02   6.747694e+02
  -5.176465e+02  -2.412151e+01
  -2.656057e+02  -6.019643e+02
   3.143359e+02  -5.864611e+02
   5.708811e+02  -1.329533e+02
   3.412256e+02   3.298639e+02
   2.172776e+01   4.511728e+02
  -2.041603e+02   3.193123e+02
  -2.072254e+02   6.399477e+01
   4.730882e+01  -7.765199e+01
   3.955016e+02   2.256754e+01
   2.363918e+02   3.330692e+02
  -3.497949e+02   4.267849e+02
  -7.692050e+02   5.226749e+01
  -4.568166e+02  -4.542802e+02
   2.949799e+02  -4.741599e+02
   6.649740e+02  -5.539646e+01
   3.574690e+02   3.744667e+02
  -1.873542e+02   4.688872e+02
  -4.833537e+02   2.174217e+02
  -3.936192e+02  -1.731966e+02
  -9.724494e+01  -4.124703e+02
   1.768664e+02  -2.714325e+02
   1.825242e+02   1.890632e+02
  -1.180669e+02   4.182464e+02
  -3.971533e+02   1.739398e+01
  -2.567289e+02  -5.976226e+02
   2.541190e+02  -6.638389e+02
   5.432545e+02  -3.849028e+01
   2.491444e+02   4.946318e+02
  -2.594798e+02   3.130926e+02
  -3.549580e+02  -2.614313e+02
   4.406473e+01  -4.985707e+02
   4.890215e+02  -1.559115e+02
   5.453588e+02   3.318940e+02
   1.712890e+02   5.093508e+02
  -3.252460e+02   3.304457e+02
  -5.642597e+02  -2.975758e+01
  -3.506872e+02  -3.314499e+02
   1.203879e+02  -3.433113e+02
   3.938247e+02  -7.141386e+01
   2.209023e+02   1.820009e+02
  -1.141079e+02   1.126598e+02
  -1.468473e+02  -1.509858e+02
   1.458966e+02  -2.059211e+02
   3.313863e+02   4.899548e+01
   1.390970e+02   2.863641e+02
  -1.907031e+02   2.458380e+02
  -2.981363e+02   5.156141e+01
  -1.562166e+02  -8.627408e+01
   3.169543e+01  -1.757476e+02
   1.683700e+02  -2.620946e+02
   2.621498e+02  -2.062548e+02
   2.573141e+02   8.164235e+01
   1.008645e+02   3.716954e+02
  -8.670694e+01   3.629804e+02
  -1.282304e+02   1.171769e+02
  -4.585906e+01  -2.842442e+01
  -2.846779e+01   4.726829e+01
  -1.423794e+02   1.141833e+02
  -2.370946e+02  -1.850445e+01
  -1.629880e+02  -2.143657e+02
   3.433844e+01  -2.317604e+02
   1.972532e+02  -3.924907e+01
   2.003108e+02   1.803149e+02
   2.282389e+01   2.523550e+02
  -2.209902e+02   1.292222e+02
  -3.272959e+02  -1.125464e+02
  -1.843158e+02  -2.966056e+02
   7.658549e+01  -2.747714e+02
   2.026615e+02  -1.094174e+02
   1.329100e+02   2.918627e+00
   7.299798e+01  -2.813228e+01
   1.845654e+02  -6.997718e+01
   3.399002e+02   2.141555e+01
   2.939002e+02   2.260579e+02
   2.003007e+01   3.754756e+02
  -2.804404e+02   3.656676e+02
  -4.024928e+02   1.970005e+02
  -2.961158e+02  -5.535843e+01
  -7.420267e+01  -2.489354e+02
   9.249897e+01  -2.359906e+02
   7.422128e+01  -4.146520e+01
  -8.787570e+01   9.898476e+01
  -1.804547e+02   6.038325e+00
  -5.969003e+01  -1.783235e+02
   1.443243e+02  -1.728193e+02
   1.813834e+02   4.197534e+01
   3.675245e+00   1.804224e+02
  -1.751991e+02   4.675547e+01
  -1.603179e+02  -2.077318e+02
   1.378324e+01  -3.056221e+02
   1.928197e+02  -1.715433e+02
   2.769666e+02   4.598370e+01
   2.417295e+02   1.912624e+02
   9.487413e+01   2.151004e+02
  -8.532694e+01   1.404882e+02
  -1.527662e+02   2.896690e+01
  -5.620735e+01  -2.491289e+01
   6.181968e+01   2.668440e+01
   3.462476e+01   1.061991e+02
  -1.021037e+02   9.728187e+01
  -1.596542e+02   2.260147e+00
  -5.888285e+01  -6.202576e+01
   6.538533e+01  -2.611463e+01
   5.119230e+01   5.129719e+01
  -9.620733e+01   7.544680e+01
  -2.312313e+02   1.562247e+01
  -2.246520e+02  -9.850550e+01
  -6.635397e+01  -2.077042e+02
   1.367166e+02  -2.327463e+02
   2.337230e+02  -1.275837e+02
   1.529216e+02   3.421795e+01
  -1.134683e+01   9.995697e+01
  -7.912642e+01   1.578600e+01
   1.940248e+01  -8.994662e+01
   1.643643e+02  -6.382391e+01
   1.899931e+02   7.729648e+01
   7.143167e+01   1.780369e+02
  -7.237698e+01   1.440029e+02
  -1.230697e+02   3.546182e+01
  -6.710100e+01  -3.049619e+01
   1.698780e+01  -6.812353e+00
   3.395885e+01   6.288045e+01
  -5.064109e+01   9.647807e+01
  -1.619717e+02   3.740501e+01
  -1.701188e+02  -9.163084e+01
  -3.231431e+01  -1.857173e+02
   1.328859e+02  -1.514861e+02
   1.686787e+02  -1.498341e+01
   6.262576e+01   9.789242e+01
  -5.252326e+01   1.011294e+02
  -7.043137e+01   3.191985e+01
  -1.880611e+01  -1.813203e+01
   1.236468e+01  -1.535181e+01
  -1.290498e+01   2.710758e+00
  -5.935929e+01  -1.072788e+01
  -7.333149e+01  -6.587605e+01
  -1.816728e+01  -1.290730e+02
   9.583496e+01  -1.336773e+02
   1.947257e+02  -3.749836e+01
   1.823367e+02   1.141468e+02
   5.083886e+01   2.017510e+02
  -8.538918e+01   1.535247e+02
  -1.177469e+02   2.853675e+01
  -6.306684e+01  -4.832221e+01
  -2.317172e+01  -3.135263e+01
  -4.264519e+01   1.353068e+01
  -6.513654e+01   9.630322e+00
  -3.354926e+01  -3.871426e+01
   3.421422e+01  -7.189655e+01
   8.104845e+01  -4.592333e+01
   6.854884e+01   2.626019e+01
  -7.381141e+00   8.875933e+01
  -1.119797e+02   7.715843e+01
  -1.683885e+02  -2.933969e+01
  -9.955922e+01  -1.602578e+02
   7.323943e+01  -1.992410e+02
   2.205365e+02  -1.003830e+02
   2.256178e+02   5.464567e+01
   1.039820e+02   1.436608e+02
  -2.504726e+01   1.286220e+02
  -7.663456e+01   7.648073e+01
  -6.542534e+01   6.212589e+01
  -5.302397e+01   7.916704e+01
  -7.324282e+01   6.587488e+01
  -1.070016e+02  -1.325020e+01
  -1.051995e+02  -1.241112e+02
  -3.722736e+01  -1.888156e+02
   7.318405e+01  -1.514810e+02
   1.476264e+02  -2.883391e+01
   1.236577e+02   9.446618e+01
   2.715093e+01   1.347976e+02
  -4.927408e+01   8.395295e+01
  -4.859344e+01   6.508117e+00
  -6.834243e+00  -3.308243e+01
   3.637560e+00  -2.854540e+01
  -3.402598e+01  -1.469235e+01
  -6.635557e+01  -1.664632e+01
  -3.660183e+01  -2.902187e+01
   5.109039e+01  -3.129662e+01
   1.287750e+02  -9.133675e+00
   1.214240e+02   3.383727e+01
   2.044298e+01   7.103383e+01
  -9.394402e+01   6.895571e+01
  -1.211440e+02   2.209515e+01
  -4.471265e+01  -2.919033e+01
   4.800437e+01  -3.407495e+01
   6.458114e+01   1.233536e+01
   8.102020e+00   5.826978e+01
  -4.653954e+01   5.248607e+01
  -5.414170e+01   7.718685e-01
  -3.921023e+01  -4.161747e+01
  -3.966117e+01  -3.439096e+01
  -5.360196e+01   6.319085e-02
  -5.484098e+01   1.717356e+00
  -2.870967e+01  -5.554516e+01
   2.379136e+01  -1.228908e+02
   8.930835e+01  -1.218183e+02
   1.319946e+02  -3.360828e+01
   1.054704e+02   7.090662e+01
   1.213557e+01   1.040463e+02
  -6.872774e+01   5.411881e+01
  -5.154092e+01  -1.035566e+01
   4.797591e+01  -1.989977e+01
   1.174798e+02   2.924863e+01
   6.921113e+01   8.569143e+01
  -6.191502e+01   9.792190e+01
  -1.571368e+02   5.336722e+01
  -1.376075e+02  -1.990287e+01
  -3.573538e+01  -7.097894e+01
   4.734723e+01  -6.204049e+01
   4.082340e+01  -8.411166e+00
  -3.166801e+01   2.428204e+01
  -7.821177e+01  -1.583070e+01
  -3.336720e+01  -1.000735e+02
   7.208400e+01  -1.348322e+02
   1.412966e+02  -5.918400e+01
   1.123014e+02   8.076834e+01
   1.633068e+01   1.676178e+02
  -6.630714e+01   1.262319e+02
  -8.768211e+01  -5.562514e-01
  -5.674411e+01  -9.671710e+01
  -5.951105e+00  -9.017860e+01
   3.572055e+01  -1.928377e+01
   4.667231e+01   2.397454e+01
   2.472346e+01   5.558295e+00
   2.235136e+00  -1.882861e+01
   1.615080e+01   1.061677e+01
   5.150273e+01   7.212505e+01
   4.381207e+01   9.124910e+01
  -3.545053e+01   4.084876e+01
  -1.200814e+02  -2.693485e+01
  -1.149486e+02  -5.333774e+01
  -1.592956e+01  -3.995473e+01
   7.599782e+01  -2.204861e+01
   7.444852e+01  -1.086813e+01
   6.732978e+00   5.359376e+00
  -3.324729e+01   2.098688e+01
  -9.259703e+00   1.639695e+01
   2.079205e+01  -2.392384e+00
  -5.107756e+00  -7.247561e+00
  -6.520935e+01   1.372915e+00
  -7.983599e+01  -1.464361e+01
  -9.724419e+00  -6.767211e+01
   9.670189e+01  -1.031097e+02
   1.541824e+02  -5.804972e+01
   1.212015e+02   5.195575e+01
   2.769106e+01   1.369922e+02
  -6.027245e+01   1.298125e+02
  -9.367551e+01   5.300486e+01
  -6.880219e+01  -1.605539e+01
  -2.136576e+01  -2.965447e+01
   4.559804e+00  -7.668752e+00
  -6.530426e+00  -1.986131e+00
  -2.913263e+01  -3.508315e+01
  -2.352697e+01  -7.290540e+01
   2.096142e+01  -6.022024e+01
   6.880560e+01   1.394895e+01
   6.831967e+01   9.029163e+01
   6.163269e+00   9.534421e+01
  -7.022821e+01   2.177443e+01
  -9.024667e+01  -6.207582e+01
  -3.057234e+01  -8.656943e+01
   5.366643e+01  -4.769785e+01
   8.112635e+01   7.729412e+00
   3.273309e+01   3.991895e+01
  -2.611117e+01   4.238760e+01
  -2.342451e+01   2.317444e+01
   3.128366e+01  -2.360424e+00
   5.894263e+01  -8.730787e+00
   1.217294e+01   2.055464e+01
  -6.594597e+01   5.953849e+01
  -9.501033e+01   5.429818e+01
  -5.199415e+01  -8.798655e+00
   1.270309e+01  -7.239131e+01
   4.304854e+01  -6.873851e+01
   3.124144e+01  -3.402424e+00
   2.724092e+00   4.963141e+01
  -2.140062e+01   3.718029e+01
  -3.267796e+01  -1.540920e+01
  -2.461256e+01  -4.465796e+01
   2.267885e+00  -2.635156e+01
   2.891747e+01   6.807320e+00
   3.353344e+01   1.545548e+01
   1.613565e+01  -9.067835e-01
  -1.240315e+00  -1.137611e+01
  -5.298642e+00   4.391963e+00
  -5.498068e+00   3.220523e+01
  -1.530403e+01   3.757922e+01
  -2.891015e+01   4.993527e+00
  -2.626649e+01  -3.984205e+01
   1.938951e+00  -5.337191e+01
   3.824233e+01  -1.921162e+01
   4.898734e+01   3.175144e+01
   1.474776e+01   5.296081e+01
  -4.396833e+01   3.004425e+01
  -7.450373e+01  -1.044247e+01
  -4.219372e+01  -3.524441e+01
   2.417733e+01  -3.421710e+01
   5.507198e+01  -1.869894e+01
   1.938469e+01  -3.695511e+00
  -3.437575e+01  -8.491107e-02
  -3.447879e+01  -1.258723e+01
   2.560108e+01  -2.879394e+01
   7.838927e+01  -2.112955e+01
