
 $NMID
 id='ANONYMOUS ', fmtdat='(2E16.6)'
 volume=1.0
 tramp=1.0
 $END
  -1.895920e+03  -1.127336e+02
  -1.675218e+03  -1.128310e+03
  -3.043385e+02  -1.620678e+03
   4.996171e+02  -1.109818e+03
   8.269064e+02  -2.567823e+02
   2.100636e+02   1.704892e+02
  -3.466194e+02  -2.493294e+01
  -7.823921e+01  -3.570738e+02
   3.712681e+02  -4.259392e+02
   4.641260e+02  -1.664636e+02
   3.723590e+02   2.170650e+02
   1.591170e+02   3.905069e+02
  -2.315323e+02   1.959590e+02
  -2.475041e+02  -2.257402e+02
   3.325925e+01  -3.819021e+02
   2.706724e+02  -9.665302e+01
   2.835270e+02   3.075697e+02
  -6.156941e+01   4.237957e+02
  -2.979015e+02   2.414868e+02
  -3.315108e+02  -5.733394e+01
  -1.390645e+02  -2.955100e+02
   6.489431e+01  -2.013551e+02
   8.432180e+00  -9.540489e+01
  -1.349037e+02  -9.791684e+01
  -1.592943e+02  -1.321249e+02
   5.896798e+01  -1.969894e+02
   3.090766e+02  -1.062027e+02
   3.723128e+02   8.194463e+01
   1.287214e+02   1.676220e+02
  -2.003709e+02   1.078040e+02
  -2.881669e+02  -3.988305e+01
  -8.278632e+01  -1.873877e+02
   1.792719e+02  -2.167987e+02
   2.702633e+02  -9.897759e+01
   1.816500e+02   9.570540e+01
   6.579680e+01   2.110006e+02
   2.701110e+01   1.273043e+02
   4.829905e+01  -3.849004e+01
   9.947637e+01  -8.674831e+01
   8.926679e+01   7.546739e+01
  -1.359077e+01   3.126868e+02
  -1.407647e+02   2.767462e+02
  -1.719014e+02   1.281382e+01
  -7.744037e+01  -1.693889e+02
   7.267948e+01  -8.788071e+01
   8.402200e+01   1.746055e+02
  -9.285638e+01   2.525368e+02
  -2.799730e+02   2.896627e+01
  -2.994217e+02  -2.484432e+02
  -8.543838e+01  -3.181103e+02
   1.892500e+02  -1.579900e+02
   3.159184e+02   5.157253e+01
   2.160548e+02   1.565051e+02
  -1.617087e+01   1.410515e+02
  -1.768195e+02   6.358334e+01
  -1.532273e+02  -4.961432e+00
  -2.098258e+01  -1.859846e+01
   4.312999e+01   1.406989e+01
  -3.603767e+01   3.645529e+01
  -1.389972e+02  -6.337694e+00
  -9.674753e+01  -1.008885e+02
   8.586504e+01  -1.572808e+02
   2.267886e+02  -9.331068e+01
   1.742162e+02   7.227000e+01
  -2.869810e+01   2.160890e+02
  -2.044124e+02   2.208646e+02
  -2.281841e+02   7.757758e+01
  -1.284920e+02  -1.071833e+02
  -2.429228e+01  -2.095807e+02
   1.283568e+01  -1.945115e+02
   1.547380e+01  -1.266062e+02
   4.914955e+01  -8.148604e+01
   1.172637e+02  -5.843589e+01
   1.577911e+02  -3.241760e+00
   1.253017e+02   9.356919e+01
   3.628848e+01   1.551520e+02
  -5.581617e+01   1.041437e+02
  -9.805217e+01  -3.420110e+01
  -6.698021e+01  -1.475962e+02
   2.868769e+01  -1.418630e+02
   1.405071e+02  -2.829348e+01
   1.807472e+02   1.060750e+02
   1.125111e+02   1.765647e+02
  -1.532312e+01   1.646072e+02
  -1.000499e+02   1.089992e+02
  -1.026434e+02   7.029298e+01
  -1.146499e+02   5.120773e+01
  -1.922649e+02   1.037252e+01
  -2.605854e+02  -7.956276e+01
  -1.943788e+02  -2.028628e+02
   2.677876e+01  -2.769770e+02
   2.500567e+02  -2.419341e+02
   2.995640e+02  -1.028873e+02
   1.714118e+02   5.943535e+01
   1.306272e+01   1.439623e+02
  -4.300446e+01   1.160152e+02
   7.568203e+00   3.516207e+01
   6.977069e+01  -4.391693e+00
   6.540783e+01   2.898710e+01
   3.691006e-01   7.354251e+01
  -6.131531e+01   5.123884e+01
  -5.594426e+01  -2.739366e+01
   1.619713e+01  -6.674740e+01
   9.189235e+01   7.755341e+00
   9.359359e+01   1.454224e+02
  -1.375251e+01   2.136259e+02
  -1.610102e+02   1.318498e+02
  -2.336032e+02  -4.240127e+01
  -1.726303e+02  -1.757805e+02
  -2.546386e+01  -1.795825e+02
   8.708767e+01  -8.497066e+01
   8.878275e+01   2.914081e-01
   1.796263e+01   6.453615e+00
  -2.551846e+01  -4.336318e+01
   1.127307e+01  -7.016036e+01
   7.821458e+01  -3.567571e+01
   8.652290e+01   1.868068e+01
   1.763327e+01   2.877215e+01
  -4.666974e+01  -1.566256e+01
  -1.515449e+01  -6.000942e+01
   1.018814e+02  -4.692860e+01
   1.923067e+02   2.763745e+01
   1.548592e+02   1.171943e+02
   5.342500e+00   1.641645e+02
  -1.373370e+02   1.376805e+02
  -1.650506e+02   5.428482e+01
  -7.959168e+01  -2.610301e+01
   1.861960e+01  -4.301352e+01
   3.333227e+01   4.149088e+00
  -3.859014e+01   4.556653e+01
  -1.140336e+02   1.557099e+01
  -1.123756e+02  -6.697303e+01
  -3.156837e+01  -1.162824e+02
   5.450209e+01  -8.106330e+01
   7.266728e+01  -7.426987e+00
   2.211881e+01   1.905250e+01
  -2.770006e+01  -2.551574e+01
  -8.013893e+00  -8.016452e+01
   7.564872e+01  -7.283185e+01
   1.421636e+02   5.060335e+00
   1.137162e+02   9.594290e+01
   9.110314e-01   1.327250e+02
  -1.021777e+02   9.209456e+01
  -1.109879e+02   8.545214e+00
  -3.527956e+01  -5.420625e+01
   3.749075e+01  -5.666770e+01
   4.240818e+01  -1.642901e+01
  -1.978179e+00   1.250861e+01
  -2.525013e+01   8.773132e-01
   8.670217e+00  -1.901788e+01
   6.165762e+01   2.410551e+00
   6.710685e+01   6.881381e+01
  -1.219111e+00   1.215274e+02
  -1.014009e+02   9.561712e+01
  -1.563781e+02  -5.639910e+00
  -1.192209e+02  -1.125184e+02
  -1.908695e+01  -1.491120e+02
   6.716142e+01  -9.961090e+01
   8.557185e+01  -1.752693e+01
   5.080696e+01   2.868370e+01
   2.409785e+01   1.945918e+01
   3.746014e+01  -6.711217e+00
   5.913898e+01  -1.215910e-01
   3.752827e+01   4.226631e+01
  -3.188115e+01   7.204781e+01
  -9.022723e+01   4.255029e+01
  -7.441772e+01  -3.564364e+01
   1.637539e+01  -8.942515e+01
   1.163802e+02  -5.536332e+01
   1.348771e+02   5.047105e+01
   4.683560e+01   1.414814e+02
  -8.854709e+01   1.393603e+02
  -1.748308e+02   4.492345e+01
  -1.529242e+02  -6.248705e+01
  -5.828488e+01  -1.071392e+02
   2.742703e+01  -8.526904e+01
   5.593796e+01  -4.890569e+01
   4.317187e+01  -4.574013e+01
   3.742241e+01  -6.345162e+01
   5.988556e+01  -5.298835e+01
   8.621859e+01   1.231383e+01
   7.556046e+01   1.016205e+02
   1.314955e+01   1.470883e+02
  -6.848321e+01   1.056151e+02
  -1.100268e+02   1.791503e+00
  -7.762217e+01  -8.872289e+01
   5.826906e-01  -1.039458e+02
   5.492083e+01  -4.906177e+01
   4.238954e+01   1.558783e+01
  -6.796803e+00   3.832291e+01
  -2.294971e+01   2.157993e+01
   1.738826e+01   4.437212e+00
   5.922516e+01   1.118163e+01
   3.442744e+01   2.800787e+01
  -5.186118e+01   2.511764e+01
  -1.172927e+02  -6.837168e+00
  -9.088040e+01  -4.689257e+01
   9.351866e+00  -6.450266e+01
   9.385490e+01  -4.414183e+01
   9.408916e+01   1.212339e+00
   2.520615e+01   3.679706e+01
  -4.104082e+01   3.161103e+01
  -5.193090e+01  -1.176853e+01
  -1.442409e+01  -5.225121e+01
   2.889676e+01  -4.736529e+01
   4.690579e+01  -1.389074e+00
   4.093266e+01   3.727372e+01
   3.117666e+01   3.117641e+01
   3.257228e+01  -1.606901e-01
   4.051102e+01  -1.158245e+00
   3.086101e+01   4.845681e+01
  -1.592138e+01   1.025511e+02
  -8.493720e+01   9.582251e+01
  -1.235763e+02   1.856106e+01
  -8.766674e+01  -6.609682e+01
   1.805133e+00  -8.929414e+01
   6.573476e+01  -4.584591e+01
   4.389114e+01   7.517290e+00
  -3.702690e+01   1.429113e+01
  -8.627987e+01  -2.597744e+01
  -4.392590e+01  -6.703183e+01
   5.499513e+01  -6.682219e+01
   1.194936e+02  -2.352845e+01
   9.548524e+01   2.922545e+01
   1.498954e+01   5.295326e+01
  -4.259285e+01   3.403596e+01
  -2.972951e+01  -5.778828e+00
   2.824103e+01  -2.231607e+01
   6.196250e+01   1.294452e+01
   2.749350e+01   7.686664e+01
  -5.030716e+01   1.034613e+02
  -1.025067e+02   4.685725e+01
  -8.254898e+01  -6.058183e+01
  -8.896396e+00  -1.259091e+02
   5.622813e+01  -8.852676e+01
   6.746953e+01   1.315115e+01
   3.035905e+01   8.126653e+01
  -1.547704e+01   6.370998e+01
  -3.576368e+01   3.803174e+00
  -2.597736e+01  -2.340491e+01
  -6.677649e+00  -3.448344e+00
  -3.323612e+00   1.221300e+01
  -2.178072e+01  -1.553784e+01
  -3.812070e+01  -6.033263e+01
  -1.863053e+01  -6.765574e+01
   3.875445e+01  -2.573906e+01
   8.822778e+01   2.509869e+01
   7.813948e+01   4.538315e+01
   1.100602e+01   3.544544e+01
  -5.206565e+01   1.725839e+01
  -5.591180e+01   1.987020e+00
  -1.165819e+01  -1.010605e+01
   2.236646e+01  -1.430253e+01
   1.378935e+01  -5.948572e+00
  -8.460187e+00   4.266968e+00
   2.155644e+00   1.810621e+00
   4.397700e+01  -4.151466e+00
   6.329721e+01   1.341588e+01
   1.789824e+01   5.676533e+01
  -6.888966e+01   8.262180e+01
  -1.256653e+02   4.644124e+01
  -1.034092e+02  -3.875416e+01
  -2.157157e+01  -1.059213e+02
   5.487986e+01  -1.020937e+02
   7.779175e+01  -4.166214e+01
   5.186246e+01   1.469399e+01
   1.618455e+01   2.694209e+01
   1.424207e+00   1.040625e+01
   8.096327e+00   7.292618e+00
   1.667364e+01   3.295090e+01
   8.211159e+00   5.893013e+01
  -2.047316e+01   4.555215e+01
  -5.147249e+01  -1.075922e+01
  -5.374957e+01  -6.710683e+01
  -1.132859e+01  -7.388980e+01
   4.914433e+01  -2.396722e+01
   7.170943e+01   4.061709e+01
   2.820096e+01   6.830788e+01
  -4.263840e+01   4.354864e+01
  -6.945010e+01  -6.409226e+00
  -2.870070e+01  -4.163177e+01
   2.619794e+01  -4.203131e+01
   2.911745e+01  -1.642769e+01
  -1.680139e+01   7.606195e+00
  -4.560385e+01   6.321941e+00
  -1.131375e+01  -2.010432e+01
   5.425002e+01  -4.325062e+01
   8.237167e+01  -3.077207e+01
   4.750805e+01   1.702384e+01
  -1.160492e+01   5.995630e+01
  -4.336035e+01   5.607861e+01
  -3.458855e+01   8.115343e+00
  -7.323844e+00  -3.639846e+01
   1.571845e+01  -3.514907e+01
   2.541555e+01   4.125689e+00
   1.913383e+01   3.553122e+01
  -1.046732e+00   2.776547e+01
  -2.269717e+01  -3.575467e+00
  -2.694126e+01  -1.936287e+01
  -1.133644e+01  -4.493972e+00
   4.294939e+00   1.592773e+01
   3.242480e+00   9.633302e+00
  -6.695928e+00  -2.058723e+01
  -2.883522e+00  -3.893970e+01
   1.872439e+01  -1.892567e+01
   3.201400e+01   2.214929e+01
   1.293324e+01   4.177029e+01
  -2.657466e+01   1.970477e+01
  -4.418213e+01  -2.051081e+01
  -1.463116e+01  -3.942896e+01
   3.810558e+01  -2.352618e+01
   6.201651e+01   7.446857e+00
   3.235884e+01   2.837175e+01
  -2.058585e+01   3.038881e+01
  -4.424944e+01   1.888650e+01
  -1.984230e+01   3.371420e+00
   1.804119e+01  -5.463575e+00
   2.270439e+01   9.806787e-01
  -1.238218e+01   1.611531e+01
  -4.828340e+01   1.584774e+01
