
 $NMID
 id='ANONYMOUS ', fmtdat='(2E16.6)'
 volume=1.0
 tramp=1.0
 $END
   1.765593e+03   1.023161e+02
   1.573059e+03   1.007141e+03
   3.634639e+02   1.515964e+03
  -4.136964e+02   8.479517e+02
  -6.603392e+02   3.196589e+02
  -2.065900e+02   1.722914e+01
   8.583300e+01  -1.008606e+01
   1.114445e+00   2.949539e+02
  -2.889111e+02   3.232775e+02
  -4.498744e+02   1.314215e+02
  -3.238796e+02  -1.943938e+02
  -1.094131e+02  -2.935005e+02
   1.002427e+02  -1.158126e+02
   1.455902e+02   1.942371e+02
  -1.884289e+01   3.415103e+02
  -1.973585e+02   5.349243e+01
  -2.031223e+02  -2.611768e+02
   3.854127e+01  -3.885290e+02
   2.815913e+02  -2.798597e+02
   2.947277e+02   5.013725e+01
   1.379209e+02   2.185081e+02
  -6.867818e-02   1.622007e+02
   2.954858e+01   5.828789e+01
   1.876237e+02   9.648078e+01
   1.763107e+02   1.916572e+02
  -6.988983e+01   2.342969e+02
  -3.230171e+02   8.128421e+01
  -3.409386e+02  -1.157103e+02
  -8.478346e+01  -1.608033e+02
   2.005826e+02  -8.673714e+01
   2.455333e+02   8.509219e+01
   4.608098e+01   1.772509e+02
  -1.716722e+02   1.757895e+02
  -2.297341e+02   5.817720e+01
  -1.428566e+02  -6.992401e+01
  -4.054175e+01  -1.617997e+02
  -3.834200e+01  -8.704777e+01
  -8.479123e+01   3.149577e+01
  -1.161398e+02   3.613805e+01
  -6.440041e+01  -1.079859e+02
   5.734876e+01  -2.770235e+02
   1.581585e+02  -2.280876e+02
   1.659946e+02   1.529704e+00
   4.662702e+01   1.593422e+02
  -8.574927e+01   5.968181e+01
  -7.362629e+01  -1.650230e+02
   1.009781e+02  -2.427748e+02
   2.919978e+02  -3.955033e+01
   3.059459e+02   2.345797e+02
   9.043287e+01   3.097957e+02
  -1.787169e+02   1.667041e+02
  -2.955028e+02  -3.070941e+01
  -1.962025e+02  -1.231352e+02
   2.373766e+00  -1.046122e+02
   1.292959e+02  -5.422341e+01
   1.179074e+02  -2.270123e+01
   3.263617e+01  -9.608733e+00
  -7.858494e+00  -5.736760e+00
   4.272313e+01  -3.806522e+00
   1.101500e+02   2.164613e+01
   7.370912e+01   8.892951e+01
  -8.424907e+01   1.509125e+02
  -2.265651e+02   1.091617e+02
  -1.956643e+02  -6.157697e+01
   5.497105e+00  -2.385678e+02
   2.030066e+02  -2.560604e+02
   2.368981e+02  -8.752902e+01
   1.267558e+02   1.169791e+02
   1.972948e+01   2.013569e+02
   3.399072e+00   1.639766e+02
   2.194545e+01   1.135123e+02
  -1.966256e+01   1.083175e+02
  -1.184918e+02   9.612437e+01
  -1.805063e+02   1.400678e+01
  -1.406037e+02  -1.061220e+02
  -3.063825e+01  -1.602711e+02
   6.987958e+01  -9.155343e+01
   1.051438e+02   5.035484e+01
   6.138040e+01   1.527494e+02
  -4.216287e+01   1.347067e+02
  -1.490347e+02   2.197194e+01
  -1.786997e+02  -1.043541e+02
  -1.017164e+02  -1.707290e+02
   2.130276e+01  -1.542599e+02
   9.111080e+01  -1.058012e+02
   8.809368e+01  -7.363752e+01
   9.822132e+01  -5.996128e+01
   1.851366e+02  -2.718310e+01
   2.678651e+02   6.353817e+01
   2.110572e+02   1.949578e+02
  -1.246535e+01   2.817019e+02
  -2.454489e+02   2.497296e+02
  -3.017827e+02   1.021671e+02
  -1.710469e+02  -6.633676e+01
  -1.968197e+00  -1.406486e+02
   4.833552e+01  -9.851858e+01
  -1.652378e+01  -1.940278e+01
  -8.410100e+01   3.681828e+00
  -6.653562e+01  -4.000296e+01
   7.458187e+00  -7.886493e+01
   6.420575e+01  -4.468377e+01
   4.714755e+01   3.495389e+01
  -2.738621e+01   6.749809e+01
  -9.601369e+01  -9.477593e+00
  -9.442637e+01  -1.470330e+02
   8.066033e+00  -2.186564e+02
   1.566127e+02  -1.437920e+02
   2.389721e+02   3.246420e+01
   1.814960e+02   1.738191e+02
   2.921058e+01   1.820603e+02
  -9.002891e+01   8.568128e+01
  -8.916551e+01  -2.663347e+00
  -1.178332e+01  -6.646586e+00
   3.063842e+01   4.586744e+01
  -1.168123e+01   7.082649e+01
  -8.021164e+01   3.243413e+01
  -8.360954e+01  -2.305749e+01
  -8.858790e+00  -3.008201e+01
   5.617938e+01   2.037648e+01
   1.972748e+01   7.191185e+01
  -1.062911e+02   6.252201e+01
  -2.043844e+02  -1.740924e+01
  -1.669206e+02  -1.199748e+02
  -9.983972e+00  -1.760843e+02
   1.386372e+02  -1.465209e+02
   1.656682e+02  -5.421044e+01
   7.701453e+01   2.858589e+01
  -2.030950e+01   4.033892e+01
  -3.099263e+01  -9.772290e+00
   4.205425e+01  -4.765692e+01
   1.155044e+02  -1.404706e+01
   1.119730e+02   6.704113e+01
   3.153989e+01   1.133954e+02
  -5.376547e+01   7.806209e+01
  -7.153901e+01   4.794099e+00
  -1.826311e+01  -2.293918e+01
   3.568128e+01   2.257049e+01
   1.670489e+01   8.354022e+01
  -7.086477e+01   8.277598e+01
  -1.417868e+02   5.183893e+00
  -1.157872e+02  -9.066923e+01
  -4.294768e+00  -1.312138e+02
   9.688061e+01  -9.095989e+01
   1.047533e+02  -7.679706e+00
   3.159563e+01   5.387664e+01
  -3.789650e+01   5.469563e+01
  -4.098812e+01   1.346211e+01
   4.065885e+00  -1.518314e+01
   2.920617e+01  -2.043539e+00
  -3.820460e+00   2.292863e+01
  -6.176641e+01   5.147175e+00
  -7.460272e+01  -6.277421e+01
  -9.216868e+00  -1.214122e+02
   9.535617e+01  -1.021314e+02
   1.577123e+02  -3.248605e+00
   1.263635e+02   1.051855e+02
   2.804644e+01   1.458185e+02
  -6.070374e+01   1.017027e+02
  -8.244609e+01   2.432594e+01
  -5.161646e+01  -2.225360e+01
  -2.424396e+01  -1.510945e+01
  -3.589202e+01   1.051860e+01
  -5.926571e+01   6.278652e+00
  -4.463081e+01  -3.855320e+01
   2.188247e+01  -7.544417e+01
   8.650834e+01  -5.142319e+01
   7.971165e+01   2.923546e+01
  -9.296690e+00   9.167227e+01
  -1.142050e+02   6.351182e+01
  -1.393897e+02  -4.487225e+01
  -5.295909e+01  -1.429738e+02
   8.550163e+01  -1.441471e+02
   1.732296e+02  -5.026353e+01
   1.544203e+02   5.772701e+01
   6.044708e+01   1.047665e+02
  -2.598744e+01   8.469163e+01
  -5.499801e+01   4.996370e+01
  -4.175185e+01   4.574204e+01
  -3.340380e+01   6.200549e+01
  -5.481429e+01   5.275075e+01
  -8.408896e+01  -1.008185e+01
  -7.816958e+01  -9.798801e+01
  -1.881692e+01  -1.449136e+02
   6.351880e+01  -1.066568e+02
   1.101050e+02  -5.336661e+00
   8.316895e+01   8.530174e+01
   6.121067e+00   1.033802e+02
  -5.288080e+01   5.151065e+01
  -4.640762e+01  -1.373188e+01
   1.784379e+00  -3.999550e+01
   2.286546e+01  -2.462691e+01
  -1.331494e+01  -4.221490e+00
  -5.695844e+01  -7.803320e+00
  -3.595755e+01  -2.692114e+01
   5.035003e+01  -3.033296e+01
   1.193554e+02  -1.323682e+00
   9.569506e+01   4.367295e+01
  -4.218253e+00   6.878790e+01
  -8.984309e+01   5.124972e+01
  -9.259620e+01   3.435700e+00
  -2.818309e+01  -3.549484e+01
   3.567098e+01  -3.260307e+01
   5.038987e+01   8.757797e+00
   1.990738e+01   4.830007e+01
  -2.112872e+01   4.668760e+01
  -4.452327e+01   6.600290e+00
  -4.470828e+01  -2.944099e+01
  -3.530517e+01  -2.607424e+01
  -3.356928e+01   3.594511e-01
  -4.129931e+01   4.399498e-01
  -3.560391e+01  -4.716628e+01
   8.814334e+00  -1.019528e+02
   7.988251e+01  -9.987843e+01
   1.232666e+02  -2.737184e+01
   9.171953e+01   5.869001e+01
   3.615336e+00   8.861845e+01
  -6.111782e+01   5.058971e+01
  -4.193639e+01  -2.683415e+00
   3.595452e+01  -1.325746e+01
   8.399979e+01   2.418356e+01
   4.285084e+01   6.572253e+01
  -5.497318e+01   6.766901e+01
  -1.200456e+02   2.467719e+01
  -9.653424e+01  -2.943136e+01
  -1.494493e+01  -5.503680e+01
   4.516186e+01  -3.644366e+01
   3.395518e+01   5.294018e+00
  -2.429095e+01   2.592037e+01
  -6.144433e+01  -6.094871e+00
  -3.296724e+01  -7.088410e+01
   4.033758e+01  -1.031939e+02
   9.505492e+01  -5.317274e+01
   8.405144e+01   5.252692e+01
   1.739614e+01   1.223994e+02
  -4.997292e+01   9.112565e+01
  -6.900175e+01  -8.585786e+00
  -3.590029e+01  -7.946448e+01
   1.262556e+01  -6.618586e+01
   3.682486e+01  -7.579535e+00
   2.679344e+01   2.200986e+01
   5.726243e+00   4.617472e+00
   3.479028e+00  -1.125643e+01
   2.472754e+01   1.325522e+01
   4.127360e+01   5.543533e+01
   1.996805e+01   6.470355e+01
  -3.754937e+01   2.839751e+01
  -8.570943e+01  -1.814892e+01
  -7.678549e+01  -3.938890e+01
  -1.390961e+01  -3.403902e+01
   4.692714e+01  -1.977843e+01
   5.398798e+01  -5.181295e+00
   1.405544e+01   8.414426e+00
  -2.026514e+01   1.425444e+01
  -1.495154e+01   6.651321e+00
   6.922889e+00  -3.964094e+00
   3.994600e-01  -1.962643e+00
  -3.833312e+01   5.747461e+00
  -6.117940e+01  -8.227084e+00
  -2.365923e+01  -5.031666e+01
   5.822208e+01  -8.143902e+01
   1.178774e+02  -5.380859e+01
   1.037412e+02   2.771831e+01
   2.884833e+01   9.989466e+01
  -4.640781e+01   1.044387e+02
  -7.318554e+01   4.784355e+01
  -5.211855e+01  -1.023582e+01
  -1.916565e+01  -2.539921e+01
  -4.414741e+00  -9.947050e+00
  -1.027829e+01  -6.865889e+00
  -1.881147e+01  -3.286616e+01
  -1.102541e+01  -5.926550e+01
   1.781247e+01  -4.692508e+01
   5.065807e+01   6.439256e+00
   5.668821e+01   6.040342e+01
   1.763119e+01   6.967652e+01
  -4.330500e+01   2.698536e+01
  -7.107317e+01  -3.257833e+01
  -3.310112e+01  -6.324957e+01
   3.742691e+01  -4.602971e+01
   6.935706e+01   3.118899e-01
   3.369679e+01   3.925451e+01
  -2.170296e+01   4.490313e+01
  -2.971809e+01   2.002396e+01
   1.312524e+01  -7.816452e+00
   4.399722e+01  -9.481350e+00
   1.448719e+01   1.841010e+01
  -4.893543e+01   4.586174e+01
  -8.012018e+01   3.685806e+01
  -5.065318e+01  -1.123212e+01
   4.972592e+00  -5.840676e+01
   3.721721e+01  -5.986030e+01
   3.264306e+01  -1.456332e+01
   1.027168e+01   3.187159e+01
  -1.077173e+01   3.521747e+01
  -2.286398e+01  -6.572736e-01
  -2.082483e+01  -3.225391e+01
  -2.009239e+00  -2.737478e+01
   2.181211e+01   1.421431e+00
   2.873336e+01   1.683206e+01
   1.239573e+01   3.938758e+00
  -6.592299e+00  -1.490116e+01
  -5.697288e+00  -1.011390e+01
   8.384316e+00   1.775865e+01
   8.888235e+00   3.628787e+01
  -1.350891e+01   2.092043e+01
  -3.234927e+01  -1.552695e+01
  -1.753124e+01  -3.639235e+01
   2.226946e+01  -2.069066e+01
   4.332422e+01   1.472680e+01
   1.627583e+01   3.562394e+01
  -3.599931e+01   2.590435e+01
  -6.106628e+01  -2.196182e+00
  -3.343594e+01  -2.589023e+01
   1.779292e+01  -3.248866e+01
   4.160578e+01  -2.297998e+01
   2.012293e+01  -5.974669e+00
  -1.470701e+01   5.671253e+00
  -1.998435e+01   1.552243e+00
   1.092741e+01  -1.345504e+01
   4.391663e+01  -1.566452e+01
