
 $NMID
 id='ANONYMOUS ', fmtdat='(2E16.6)'
 volume=1.0
 tramp=1.0
 $END
  -4.166767e+03  -1.291098e+02
  -2.798176e+03  -2.569469e+03
   6.917470e+02  -2.918911e+03
   2.137430e+03  -9.723604e+02
   1.011027e+03   5.587789e+02
  -6.754682e+02   7.676419e+02
  -9.674297e+02  -3.889236e+02
   6.132469e+01  -1.016857e+03
   8.860107e+02  -8.087505e+02
   8.879793e+02   5.387667e+01
   5.217419e+02   8.565964e+02
  -2.283487e+02   8.816241e+02
  -6.159117e+02   1.674108e+02
  -4.231580e+02  -7.148815e+02
   2.374676e+02  -7.852846e+02
   6.574128e+02   3.747867e+01
   3.085568e+02   6.897367e+02
  -3.199488e+02   6.790319e+02
  -6.413993e+02   5.514357e+01
  -3.892342e+02  -3.694327e+02
   2.372753e+01  -4.253651e+02
   2.699889e+02  -2.717914e+02
   2.318610e+02  -5.588614e-01
  -1.417171e+02   9.459177e+01
  -4.240840e+02  -9.399354e+01
  -2.307298e+02  -4.120443e+02
   4.634531e+02  -4.197210e+02
   8.463383e+02   6.246343e+01
   4.461558e+02   5.551085e+02
  -3.635348e+02   5.222431e+02
  -7.531737e+02  -1.749604e+01
  -3.762426e+02  -4.713869e+02
   2.561776e+02  -5.395803e+02
   5.719155e+02  -1.991068e+02
   4.144475e+02   2.535274e+02
   4.502270e+01   4.891449e+02
  -2.384349e+02   2.736201e+02
  -2.018124e+02  -2.374951e+02
   1.710446e+02  -4.746952e+02
   5.044517e+02  -7.872587e+00
   2.810184e+02   7.060989e+02
  -3.482848e+02   7.560743e+02
  -6.825584e+02   2.726851e+01
  -2.848807e+02  -6.058021e+02
   3.393983e+02  -3.648255e+02
   4.258296e+02   3.392175e+02
  -7.611863e+01   5.745416e+02
  -5.891956e+02   1.400380e+02
  -6.037692e+02  -4.383325e+02
  -1.416493e+02  -6.057201e+02
   4.023639e+02  -3.368679e+02
   6.291612e+02   1.031837e+02
   3.601060e+02   4.210862e+02
  -1.829777e+02   3.777146e+02
  -4.796216e+02   2.683689e+01
  -2.504938e+02  -2.501743e+02
   1.528404e+02  -1.291659e+02
   1.841803e+02   1.894055e+02
  -1.694101e+02   2.314400e+02
  -3.854025e+02  -7.919133e+01
  -1.572561e+02  -3.354970e+02
   2.232004e+02  -2.604612e+02
   3.356993e+02  -3.064669e+01
   1.585909e+02   1.096284e+02
  -6.581491e+01   1.891170e+02
  -2.187154e+02   2.705549e+02
  -3.094490e+02   1.978648e+02
  -2.810467e+02  -1.251817e+02
  -8.890064e+01  -4.318835e+02
   1.183081e+02  -3.965825e+02
   1.471919e+02  -1.163867e+02
   4.630153e+01   2.977502e+01
   3.364283e+01  -6.473115e+01
   1.628067e+02  -1.259544e+02
   2.544249e+02   3.786592e+01
   1.600585e+02   2.506248e+02
  -5.126411e+01   2.475178e+02
  -2.099474e+02   1.613545e+01
  -1.994519e+02  -2.279484e+02
  -4.772188e+00  -2.890489e+02
   2.545725e+02  -1.259725e+02
   3.618498e+02   1.608284e+02
   1.844161e+02   3.552965e+02
  -1.135753e+02   3.094208e+02
  -2.467001e+02   1.017179e+02
  -1.567374e+02  -3.016900e+01
  -7.942113e+01   1.066768e+01
  -2.053855e+02   6.112458e+01
  -3.770589e+02  -5.390447e+01
  -3.202238e+02  -2.768157e+02
   2.706128e+00  -4.267456e+02
   3.473889e+02  -3.899038e+02
   4.717260e+02  -1.946916e+02
   3.319713e+02   7.637521e+01
   6.152471e+01   2.789093e+02
  -1.233230e+02   2.543559e+02
  -8.787035e+01   3.276685e+01
   1.074960e+02  -1.178538e+02
   2.092277e+02   8.899218e-01
   6.409572e+01   2.150811e+02
  -1.681399e+02   1.979634e+02
  -1.999943e+02  -5.865470e+01
   4.079547e+00  -2.144022e+02
   1.948435e+02  -5.040118e+01
   1.635860e+02   2.466712e+02
  -3.804856e+01   3.458335e+02
  -2.278852e+02   1.754178e+02
  -3.052545e+02  -7.892701e+01
  -2.507617e+02  -2.357582e+02
  -8.185426e+01  -2.477669e+02
   1.105138e+02  -1.497898e+02
   1.731562e+02  -1.768536e+01
   5.680997e+01   3.681549e+01
  -7.209642e+01  -3.269619e+01
  -3.175491e+01  -1.249788e+02
   1.254792e+02  -1.048893e+02
   1.831579e+02   1.047317e+01
   6.174014e+01   7.645086e+01
  -7.652019e+01   2.204027e+01
  -5.150168e+01  -6.656746e+01
   1.195374e+02  -7.712636e+01
   2.650126e+02   7.863580e+00
   2.435572e+02   1.363208e+02
   5.408500e+01   2.417604e+02
  -1.753294e+02   2.489301e+02
  -2.735318e+02   1.213930e+02
  -1.678887e+02  -5.373180e+01
   2.373089e+01  -1.122273e+02
   9.338393e+01  -7.803131e+00
  -2.909527e+01   1.067874e+02
  -1.940874e+02   6.384985e+01
  -2.128978e+02  -1.030751e+02
  -6.856097e+01  -2.107719e+02
   9.437235e+01  -1.580511e+02
   1.442148e+02  -2.763546e+01
   7.475054e+01   4.153961e+01
  -2.051108e+01   4.323368e+00
  -3.437903e+01  -7.526885e+01
   6.504571e+01  -1.008724e+02
   1.869717e+02  -2.076106e+01
   1.840339e+02   1.238643e+02
   1.749562e+01   2.134252e+02
  -1.686253e+02   1.573140e+02
  -1.974549e+02  -7.142972e-01
  -6.556744e+01  -1.190602e+02
   6.847339e+01  -1.114489e+02
   8.390114e+01  -2.937900e+01
   2.015997e+01   2.523189e+01
  -1.654716e+01   1.795332e+01
   1.277148e+01  -4.718760e+00
   6.466586e+01   1.289116e+01
   7.512389e+01   7.910396e+01
   8.571784e+00   1.466280e+02
  -1.197291e+02   1.408903e+02
  -2.203643e+02   2.198316e+01
  -1.921863e+02  -1.461663e+02
  -3.689774e+01  -2.321843e+02
   1.129709e+02  -1.657027e+02
   1.374712e+02  -2.268202e+01
   6.874789e+01   6.034259e+01
   2.414615e+01   3.958492e+01
   4.959073e+01  -7.555616e+00
   7.440766e+01  -1.174324e+00
   3.359951e+01   4.881730e+01
  -4.698533e+01   7.743507e+01
  -9.558560e+01   4.428223e+01
  -7.391948e+01  -3.439821e+01
   1.526265e+01  -9.846586e+01
   1.286705e+02  -7.580702e+01
   1.808021e+02   4.785022e+01
   9.517322e+01   1.891804e+02
  -1.006366e+02   2.163300e+02
  -2.571432e+02   8.915049e+01
  -2.495390e+02  -8.768045e+01
  -1.057540e+02  -1.764688e+02
   4.140299e+01  -1.452150e+02
   9.636368e+01  -8.007882e+01
   8.213957e+01  -6.378463e+01
   6.927457e+01  -8.269409e+01
   9.077810e+01  -6.532768e+01
   1.203823e+02   2.553273e+01
   1.058990e+02   1.490247e+02
   2.141444e+01   2.159591e+02
  -9.859262e+01   1.641446e+02
  -1.687434e+02   1.797913e+01
  -1.292089e+02  -1.204437e+02
  -1.682626e+01  -1.567000e+02
   6.475909e+01  -8.989365e+01
   5.703252e+01  -1.210447e+00
   6.034471e+00   3.871163e+01
  -6.149258e+00   3.133244e+01
   3.718529e+01   1.984097e+01
   7.388362e+01   2.702479e+01
   3.926481e+01   3.812332e+01
  -6.029848e+01   3.059990e+01
  -1.457275e+02  -2.446671e+00
  -1.330172e+02  -4.835011e+01
  -1.590120e+01  -7.856169e+01
   1.113657e+02  -6.552638e+01
   1.363613e+02  -1.271170e+01
   4.572877e+01   3.531383e+01
  -5.720478e+01   3.215081e+01
  -7.034348e+01  -1.939264e+01
  -3.609428e+00  -6.392542e+01
   5.512396e+01  -5.230622e+01
   5.786317e+01   4.802986e+00
   3.797655e+01   4.935648e+01
   4.070404e+01   4.026450e+01
   6.021056e+01   2.711437e+00
   6.202198e+01   1.413426e+00
   2.802379e+01   6.471424e+01
  -3.656425e+01   1.364894e+02
  -1.106874e+02   1.296172e+02
  -1.519549e+02   2.651003e+01
  -1.130674e+02  -8.877326e+01
  -4.190713e+00  -1.173897e+02
   8.218711e+01  -5.369883e+01
   5.676642e+01   1.637296e+01
  -5.696734e+01   1.687027e+01
  -1.306580e+02  -4.468319e+01
  -7.028386e+01  -1.022744e+02
   7.933882e+01  -1.038183e+02
   1.832811e+02  -4.607608e+01
   1.544370e+02   3.410366e+01
   3.382084e+01   8.399513e+01
  -6.011203e+01   6.825869e+01
  -4.789552e+01   7.783281e+00
   3.739044e+01  -2.470634e+01
   8.654875e+01   2.402161e+01
   2.761741e+01   1.161149e+02
  -9.530939e+01   1.465997e+02
  -1.664627e+02   5.368282e+01
  -1.199479e+02  -1.034178e+02
  -2.589698e+00  -1.923703e+02
   8.718517e+01  -1.366559e+02
   9.917276e+01   9.226202e+00
   5.504165e+01   1.139559e+02
  -1.453569e+00   1.007279e+02
  -4.135782e+01   1.693603e+01
  -4.905241e+01  -3.196620e+01
  -2.563032e+01  -8.239103e+00
  -2.505361e+00   2.231920e+01
  -1.605869e+01  -1.136360e+01
  -5.152056e+01  -8.442017e+01
  -4.217574e+01  -1.066362e+02
   4.275669e+01  -4.347523e+01
   1.331844e+02   4.110031e+01
   1.253526e+02   7.187072e+01
   1.431850e+01   4.840510e+01
  -8.861851e+01   1.904146e+01
  -8.616283e+01   5.193196e+00
  -8.344121e+00  -7.684672e+00
   3.837137e+01  -2.153666e+01
   1.184796e+01  -1.804676e+01
  -2.242649e+01   6.719056e-01
   7.001609e+00   8.606627e+00
   7.419227e+01   4.522611e+00
   8.716557e+01   2.460688e+01
   2.949632e+00   7.830024e+01
  -1.185027e+02   1.080770e+02
  -1.776488e+02   5.078389e+01
  -1.309824e+02  -7.073475e+01
  -1.941689e+01  -1.573907e+02
   7.869416e+01  -1.400904e+02
   1.103625e+02  -5.013624e+01
   7.697029e+01   2.489403e+01
   2.206087e+01   3.546794e+01
  -6.037696e+00   8.431492e+00
   6.859282e+00   3.483164e+00
   2.973026e+01   4.291033e+01
   1.984421e+01   8.508231e+01
  -3.028904e+01   6.649628e+01
  -7.830185e+01  -2.181440e+01
  -7.029642e+01  -1.083172e+02
   1.854498e+00  -1.081448e+02
   8.194273e+01  -1.768297e+01
   9.586151e+01   7.840702e+01
   2.510847e+01   9.923437e+01
  -6.629204e+01   4.694508e+01
  -9.101410e+01  -1.706343e+01
  -3.239888e+01  -4.796888e+01
   3.434866e+01  -4.509292e+01
   2.904543e+01  -2.439208e+01
  -3.502970e+01  -6.331659e-01
  -6.691700e+01   4.425864e+00
  -1.149963e+01  -2.436511e+01
   7.973333e+01  -6.174125e+01
   1.121629e+02  -5.316676e+01
   5.842627e+01   1.554443e+01
  -1.998724e+01   8.265098e+01
  -5.453164e+01   7.549191e+01
  -3.650207e+01   1.389181e+00
  -2.551361e-01  -5.703377e+01
   2.623054e+01  -4.078433e+01
   3.480309e+01   1.996370e+01
   2.311124e+01   5.216108e+01
  -5.380995e+00   2.893840e+01
  -3.227366e+01  -1.101560e+01
  -3.615295e+01  -2.096642e+01
  -1.839883e+01  -1.314524e+00
   2.993980e-01   1.144268e+01
   6.951987e+00  -6.101423e+00
   9.973472e+00  -3.656867e+01
   2.122607e+01  -4.102997e+01
   3.286452e+01  -3.030669e+00
   2.558359e+01   4.684077e+01
  -6.550731e+00   5.918409e+01
  -4.344298e+01   1.740454e+01
  -5.067877e+01  -4.088848e+01
  -1.054879e+01  -6.142151e+01
   5.281071e+01  -2.946653e+01
   8.282948e+01   1.982085e+01
   4.402765e+01   4.461090e+01
  -3.044123e+01   3.656529e+01
  -6.340522e+01   1.535292e+01
  -2.169497e+01   1.446433e+00
   3.919800e+01   3.261729e+00
   3.777735e+01   1.821485e+01
  -3.196934e+01   3.099200e+01
  -9.111847e+01   1.631780e+01
