
 $NMID
 id='ANONYMOUS ', fmtdat='(2E16.6)'
 volume=1.0
 tramp=1.0
 $END
  -4.079974e+03   1.714650e+02
  -2.630568e+03  -2.583825e+03
   6.984444e+02  -2.728089e+03
   1.805209e+03  -1.379100e+03
   1.328460e+03   5.740968e+02
  -3.843637e+02   6.910094e+02
  -9.156530e+02  -2.926654e+02
  -8.920301e+01  -9.464497e+02
   7.055424e+02  -8.124926e+02
   9.407838e+02   1.968995e+01
   6.209270e+02   7.629845e+02
  -1.938919e+02   8.842391e+02
  -5.628436e+02   1.992740e+02
  -4.144884e+02  -6.155083e+02
   2.651520e+02  -6.920623e+02
   6.181161e+02  -7.036415e+01
   2.626789e+02   6.164681e+02
  -2.543812e+02   6.344061e+02
  -5.574280e+02   1.531329e+02
  -4.054471e+02  -3.234326e+02
  -7.349856e+01  -4.287370e+02
   2.686919e+02  -2.558158e+02
   1.897522e+02   1.819019e+01
  -1.434772e+02   4.534688e+01
  -3.660274e+02  -1.773746e+02
  -1.207235e+02  -4.351520e+02
   4.999905e+02  -3.504388e+02
   8.112281e+02   1.541200e+02
   3.537966e+02   5.470205e+02
  -4.133255e+02   4.034556e+02
  -7.112448e+02  -9.394616e+01
  -3.161890e+02  -4.947455e+02
   2.836144e+02  -4.998350e+02
   5.603907e+02  -1.830595e+02
   4.251194e+02   2.249524e+02
   1.112159e+02   4.457286e+02
  -1.548389e+02   2.680260e+02
  -1.292810e+02  -1.926870e+02
   1.629755e+02  -3.683329e+02
   3.991773e+02   4.702061e+01
   2.215051e+02   6.570389e+02
  -2.821855e+02   6.575780e+02
  -5.300843e+02   1.581404e+01
  -2.459546e+02  -4.993887e+02
   2.497489e+02  -2.829545e+02
   3.435396e+02   3.188026e+02
  -6.656463e+01   5.140231e+02
  -5.287101e+02   1.217591e+02
  -5.671212e+02  -3.988384e+02
  -1.621641e+02  -5.692453e+02
   3.671923e+02  -3.247539e+02
   6.153055e+02   7.677216e+01
   3.741538e+02   3.626589e+02
  -1.284617e+02   3.393486e+02
  -4.131925e+02   6.646144e+01
  -2.398939e+02  -1.524112e+02
   8.626150e+01  -8.189835e+01
   1.190175e+02   1.346316e+02
  -1.482684e+02   1.602724e+02
  -3.143835e+02  -6.328812e+01
  -1.365907e+02  -2.667456e+02
   1.853708e+02  -2.525790e+02
   3.315091e+02  -9.114340e+01
   2.204523e+02   9.074807e+01
  -2.003680e+01   2.641145e+02
  -2.521525e+02   3.538961e+02
  -3.692103e+02   2.028673e+02
  -2.902613e+02  -1.647594e+02
  -6.367777e+01  -4.327225e+02
   1.089227e+02  -3.607445e+02
   9.595046e+01  -1.145610e+02
   1.754294e+01  -2.359662e+01
   6.604544e+01  -1.124816e+02
   2.207531e+02  -1.179092e+02
   2.807107e+02   7.990466e+01
   1.414061e+02   2.795177e+02
  -8.436320e+01   2.447935e+02
  -2.224576e+02  -4.718605e+00
  -1.757184e+02  -2.446799e+02
   3.305935e+01  -2.884697e+02
   2.743458e+02  -1.056718e+02
   3.582813e+02   1.746778e+02
   1.822465e+02   3.566809e+02
  -9.679191e+01   3.161860e+02
  -2.213011e+02   1.426722e+02
  -1.491517e+02   2.713239e+01
  -1.120979e+02   4.848361e+01
  -2.581632e+02   6.000706e+01
  -4.226873e+02  -7.216083e+01
  -3.431807e+02  -2.986813e+02
   6.528904e+00  -4.539756e+02
   3.760280e+02  -4.193258e+02
   4.997535e+02  -1.987909e+02
   3.332626e+02   9.896415e+01
   4.674073e+01   2.961832e+02
  -1.305296e+02   2.494490e+02
  -7.626950e+01   2.995903e+01
   1.076781e+02  -1.009293e+02
   1.839497e+02   7.698977e+00
   4.377076e+01   1.831700e+02
  -1.505467e+02   1.565710e+02
  -1.639887e+02  -6.301853e+01
   2.301128e+01  -1.814805e+02
   1.911026e+02  -2.068531e+01
   1.635105e+02   2.519940e+02
  -3.161227e+01   3.517884e+02
  -2.411088e+02   1.958560e+02
  -3.435993e+02  -6.410044e+01
  -2.846514e+02  -2.492727e+02
  -8.615550e+01  -2.746507e+02
   1.217147e+02  -1.629375e+02
   1.754468e+02  -1.948623e+01
   5.441947e+01   2.853068e+01
  -6.543964e+01  -4.477886e+01
  -1.886314e+01  -1.245796e+02
   1.282844e+02  -9.166321e+01
   1.726725e+02   2.057095e+01
   4.734802e+01   7.281647e+01
  -8.887959e+01   9.196522e+00
  -5.694962e+01  -8.316231e+01
   1.301712e+02  -9.399549e+01
   2.931563e+02  -5.910724e-02
   2.700425e+02   1.452605e+02
   5.766352e+01   2.596191e+02
  -1.903264e+02   2.608078e+02
  -2.854758e+02   1.248807e+02
  -1.681765e+02  -4.872039e+01
   2.414862e+01  -1.039328e+02
   8.633666e+01  -6.803714e+00
  -3.795852e+01   9.606394e+01
  -1.985139e+02   5.169113e+01
  -2.134956e+02  -1.074574e+02
  -6.640756e+01  -2.092221e+02
   9.940686e+01  -1.566633e+02
   1.466072e+02  -2.618723e+01
   6.711128e+01   4.249790e+01
  -3.333501e+01  -1.753964e+00
  -3.672997e+01  -9.146567e+01
   8.027228e+01  -1.176068e+02
   2.070008e+02  -2.624267e+01
   1.947108e+02   1.295143e+02
   1.967110e+01   2.223298e+02
  -1.665401e+02   1.659528e+02
  -1.948232e+02   7.444883e+00
  -6.513983e+01  -1.136727e+02
   6.844123e+01  -1.110276e+02
   8.425122e+01  -2.866016e+01
   1.466394e+01   2.869980e+01
  -2.936661e+01   1.774564e+01
   7.180668e+00  -1.496525e+01
   7.835321e+01   3.039582e+00
   9.843690e+01   8.504980e+01
   1.616273e+01   1.680472e+02
  -1.350412e+02   1.577380e+02
  -2.418908e+02   2.111534e+01
  -2.024319e+02  -1.583369e+02
  -3.921642e+01  -2.419664e+02
   1.099914e+02  -1.710446e+02
   1.370109e+02  -2.827977e+01
   7.444900e+01   5.374214e+01
   3.367608e+01   3.566636e+01
   5.727677e+01  -1.121324e+01
   8.394240e+01  -5.355918e+00
   4.724752e+01   5.274181e+01
  -4.098432e+01   9.547319e+01
  -1.092987e+02   6.174382e+01
  -9.384023e+01  -3.508372e+01
   1.221003e+01  -1.145397e+02
   1.497881e+02  -8.712282e+01
   2.038364e+02   5.665354e+01
   9.728661e+01   2.077412e+02
  -1.175997e+02   2.308350e+02
  -2.775515e+02   9.332243e+01
  -2.613044e+02  -8.973851e+01
  -1.087303e+02  -1.794587e+02
   4.162709e+01  -1.487994e+02
   9.552510e+01  -8.606642e+01
   7.795865e+01  -7.147505e+01
   6.562211e+01  -9.415849e+01
   9.315534e+01  -7.880333e+01
   1.317124e+02   1.965977e+01
   1.212463e+02   1.569969e+02
   3.094946e+01   2.327154e+02
  -1.002664e+02   1.764739e+02
  -1.781083e+02   1.927729e+01
  -1.373297e+02  -1.263840e+02
  -1.746476e+01  -1.633138e+02
   7.098119e+01  -9.251430e+01
   6.273329e+01   2.444372e+00
   3.267673e+00   4.696617e+01
  -1.444764e+01   3.693842e+01
   3.555743e+01   1.810847e+01
   8.383802e+01   2.266121e+01
   4.848811e+01   4.078761e+01
  -6.837974e+01   4.045372e+01
  -1.689235e+02   2.882136e+00
  -1.500970e+02  -5.656759e+01
  -1.183822e+01  -9.498492e+01
   1.296811e+02  -7.648959e+01
   1.510015e+02  -1.086152e+01
   4.811501e+01   4.562809e+01
  -6.363119e+01   4.067724e+01
  -7.938031e+01  -1.904454e+01
  -9.913587e+00  -7.132480e+01
   5.595183e+01  -6.170836e+01
   6.633403e+01   8.165407e-01
   4.734097e+01   5.214487e+01
   4.381582e+01   4.448286e+01
   6.083543e+01   2.546181e+00
   6.821518e+01  -8.396855e-02
   3.938993e+01   6.990767e+01
  -3.227895e+01   1.519556e+02
  -1.225498e+02   1.474974e+02
  -1.739563e+02   3.495608e+01
  -1.294379e+02  -9.496292e+01
  -7.081373e+00  -1.322986e+02
   8.831457e+01  -6.605231e+01
   6.127463e+01   1.363205e+01
  -5.999231e+01   2.011434e+01
  -1.396613e+02  -4.534430e+01
  -7.671000e+01  -1.117484e+02
   8.328878e+01  -1.165462e+02
   1.964930e+02  -5.281086e+01
   1.678444e+02   3.608507e+01
   3.910467e+01   8.937590e+01
  -6.221001e+01   7.129070e+01
  -5.031316e+01   7.089840e+00
   3.953814e+01  -2.748920e+01
   9.283701e+01   2.198854e+01
   3.499273e+01   1.195612e+02
  -9.087793e+01   1.573171e+02
  -1.684922e+02   6.594470e+01
  -1.285511e+02  -9.952910e+01
  -1.112004e+01  -1.994594e+02
   8.680151e+01  -1.458430e+02
   1.064194e+02   7.977282e+00
   5.978568e+01   1.208207e+02
  -5.821332e+00   1.077452e+02
  -4.937733e+01   1.937991e+01
  -5.175224e+01  -3.222287e+01
  -2.355655e+01  -9.180559e+00
  -3.497658e+00   1.920250e+01
  -2.291985e+01  -1.782930e+01
  -5.728778e+01  -9.134937e+01
  -3.996813e+01  -1.112238e+02
   5.123191e+01  -4.570260e+01
   1.419880e+02   4.036530e+01
   1.318855e+02   7.378813e+01
   1.849988e+01   5.328541e+01
  -8.812397e+01   2.423980e+01
  -9.040258e+01   7.247108e+00
  -1.358548e+01  -8.757065e+00
   3.775743e+01  -2.274553e+01
   1.578070e+01  -1.762120e+01
  -1.982596e+01   1.749944e+00
   5.573544e+00   8.581108e+00
   7.469008e+01   3.562536e+00
   9.497136e+01   2.467150e+01
   1.277440e+01   8.298991e+01
  -1.189684e+02   1.186338e+02
  -1.923689e+02   6.286230e+01
  -1.499540e+02  -6.594938e+01
  -2.941378e+01  -1.652685e+02
   8.064034e+01  -1.558376e+02
   1.171728e+02  -6.321794e+01
   8.224240e+01   2.018355e+01
   2.593912e+01   3.601267e+01
  -1.085857e+00   9.158191e+00
   1.244014e+01   4.266574e+00
   3.435408e+01   4.699176e+01
   2.288580e+01   9.275960e+01
  -2.973578e+01   7.470647e+01
  -8.245328e+01  -1.679665e+01
  -7.966300e+01  -1.089638e+02
  -6.759507e+00  -1.151372e+02
   8.248075e+01  -2.714989e+01
   1.060963e+02   7.473185e+01
   3.496327e+01   1.066344e+02
  -6.722643e+01   6.003150e+01
  -1.020661e+02  -1.074111e+01
  -4.276520e+01  -5.393476e+01
   3.298372e+01  -5.597704e+01
   3.445608e+01  -2.958224e+01
  -3.163679e+01   1.420744e+00
  -6.967481e+01   7.155362e+00
  -1.640753e+01  -2.639567e+01
   7.990560e+01  -6.721636e+01
   1.192987e+02  -5.831639e+01
   6.799613e+01   1.355288e+01
  -1.413222e+01   8.531841e+01
  -5.445673e+01   8.233290e+01
  -3.971561e+01   8.427125e+00
  -3.198766e+00  -5.511315e+01
   2.536744e+01  -4.471753e+01
   3.697706e+01   1.680402e+01
   2.721663e+01   5.592176e+01
  -2.690030e+00   3.649593e+01
  -3.409041e+01  -7.424824e+00
  -4.110126e+01  -2.348343e+01
  -2.120826e+01  -2.667718e+00
   1.135755e+00   1.620402e+01
   6.639908e+00   5.749982e-01
   3.819895e+00  -3.579689e+01
   1.288138e+01  -4.746786e+01
   3.135934e+01  -1.087016e+01
   3.324088e+01   4.413714e+01
   1.320265e+00   6.205706e+01
  -4.521801e+01   2.192366e+01
  -6.041058e+01  -3.891212e+01
  -1.746327e+01  -6.399635e+01
   5.587575e+01  -3.601711e+01
   9.227316e+01   1.331984e+01
   5.203440e+01   4.385571e+01
  -2.758069e+01   4.314696e+01
  -6.522019e+01   2.428452e+01
  -2.593547e+01   5.843793e+00
   3.521484e+01   1.049526e+00
   3.699839e+01   1.439538e+01
  -2.973473e+01   3.163061e+01
  -9.047067e+01   2.108150e+01
