
 $NMID
 id='ANONYMOUS ', fmtdat='(2E16.6)'
 volume=1.0
 tramp=1.0
 $END
   1.000877e+03  -2.261396e+02
   6.110809e+02   6.244655e+02
   1.513387e+01   6.294468e+02
  -3.114463e+02   5.575164e+02
  -4.477496e+02   2.507053e+01
  -7.237401e+01  -7.560826e+01
   6.669312e+01  -6.789455e+00
   7.030601e+01   1.984426e+02
  -1.304505e+02   1.925242e+02
  -2.343263e+02   1.130232e+02
  -2.043349e+02  -8.529534e+01
  -7.026644e+01  -2.498715e+02
   1.247254e+02  -8.886267e+01
   7.627432e+01   9.212223e+01
  -4.813479e+01   1.488034e+02
  -1.210273e+02   3.648225e+01
  -1.225368e+02  -1.592807e+02
   2.355719e+01  -1.745117e+02
   1.771360e+02  -1.513177e+02
   2.035251e+02   4.922684e+01
   9.759554e+01   1.320954e+02
  -4.036719e+01   6.412694e+01
  -1.838393e+01   3.424434e+00
   8.522087e+01   4.540862e+01
   1.157093e+02   1.337350e+02
  -5.181753e+01   1.577827e+02
  -2.069703e+02   3.075008e+01
  -1.779240e+02  -1.097898e+02
  -3.538714e+01  -1.305851e+02
   1.420337e+02  -3.262144e+01
   1.520684e+02   8.305191e+01
   2.951592e+01   1.725894e+02
  -1.117075e+02   1.300434e+02
  -1.927331e+02   3.999488e+01
  -1.330741e+02  -8.329501e+01
  -5.090879e+01  -1.365241e+02
   3.798531e+00  -5.497500e+01
  -4.054786e+01   4.242148e+01
  -9.490417e+01   3.595519e+01
  -6.039549e+01  -8.163464e+01
   2.925796e+01  -1.981367e+02
   1.113939e+02  -1.568449e+02
   1.174159e+02   1.168966e+01
   3.257660e+01   1.176285e+02
  -5.911662e+01   4.034491e+01
  -5.647527e+01  -1.080815e+02
   5.555860e+01  -1.612425e+02
   1.815961e+02  -9.870331e+00
   1.932446e+02   1.712727e+02
   5.312965e+01   2.179077e+02
  -1.345930e+02   1.014632e+02
  -2.160619e+02  -4.771229e+01
  -1.410697e+02  -1.076041e+02
   1.359667e+01  -8.446297e+01
   1.124025e+02  -3.260236e+01
   9.469702e+01  -3.257511e-01
   2.093301e+01   3.833841e+00
  -7.699838e+00  -5.043071e+00
   3.539771e+01  -7.439177e+00
   8.237484e+01   2.001911e+01
   5.039462e+01   7.407573e+01
  -5.851178e+01   1.093762e+02
  -1.498384e+02   6.889208e+01
  -1.259863e+02  -4.630671e+01
   9.143667e+00  -1.534687e+02
   1.449778e+02  -1.578114e+02
   1.716080e+02  -4.819246e+01
   9.032145e+01   8.704990e+01
  -2.771036e-01   1.482675e+02
  -2.201968e+01   1.213216e+02
   8.353994e-01   7.331166e+01
  -9.259822e+00   6.008738e+01
  -7.432138e+01   5.937751e+01
  -1.315795e+02   1.414173e+01
  -1.129515e+02  -7.586823e+01
  -2.348623e+01  -1.342062e+02
   6.762674e+01  -8.800931e+01
   9.349266e+01   3.440459e+01
   4.385904e+01   1.273074e+02
  -4.393908e+01   1.111804e+02
  -1.154358e+02   5.911485e+00
  -1.207523e+02  -9.473408e+01
  -5.897417e+01  -1.327679e+02
   2.507185e+01  -1.043161e+02
   6.901776e+01  -6.452574e+01
   6.456343e+01  -4.517910e+01
   7.194576e+01  -3.618852e+01
   1.265904e+02  -6.002839e+00
   1.779755e+02   6.007129e+01
   1.319742e+02   1.454898e+02
  -2.586692e+01   1.918117e+02
  -1.855547e+02   1.559168e+02
  -2.208401e+02   5.250488e+01
  -1.165079e+02  -6.023870e+01
   1.144820e+01  -1.046670e+02
   5.324183e+01  -6.862400e+01
  -2.727329e+00  -9.723545e+00
  -6.161950e+01   8.394435e+00
  -5.446535e+01  -2.794062e+01
   5.882957e+00  -5.772438e+01
   5.279569e+01  -3.394720e+01
   3.747632e+01   2.763358e+01
  -2.206695e+01   5.075825e+01
  -6.745983e+01  -9.632740e+00
  -5.287611e+01  -1.076183e+02
   2.421212e+01  -1.497819e+02
   1.151204e+02  -8.537541e+01
   1.539603e+02   4.182061e+01
   1.076658e+02   1.326371e+02
   1.092205e+01   1.262256e+02
  -6.250457e+01   5.289676e+01
  -6.025671e+01  -7.120472e+00
  -1.065757e+01  -5.979780e+00
   1.734929e+01   3.166844e+01
  -1.241770e+01   4.702466e+01
  -6.035049e+01   1.876939e+01
  -6.077129e+01  -1.897116e+01
  -5.160734e+00  -2.094532e+01
   4.231778e+01   1.512307e+01
   1.446781e+01   4.790340e+01
  -7.697165e+01   3.567572e+01
  -1.445291e+02  -2.410294e+01
  -1.122331e+02  -9.298988e+01
   3.253255e+00  -1.236668e+02
   1.079058e+02  -9.433572e+01
   1.221839e+02  -2.677231e+01
   5.484419e+01   2.739128e+01
  -1.611123e+01   2.954802e+01
  -2.340678e+01  -8.260588e+00
   2.853036e+01  -3.197352e+01
   7.873856e+01  -3.567734e+00
   7.383886e+01   5.442851e+01
   1.599780e+01   8.244015e+01
  -4.284557e+01   5.163839e+01
  -5.285872e+01  -1.620361e+00
  -1.373626e+01  -1.879152e+01
   2.415096e+01   1.475459e+01
   9.826882e+00   5.577019e+01
  -5.098506e+01   5.219196e+01
  -9.742175e+01  -2.312948e+00
  -7.449823e+01  -6.585618e+01
   5.439589e+00  -8.902307e+01
   7.288908e+01  -5.698515e+01
   7.227305e+01   1.220688e+00
   1.672837e+01   4.052568e+01
  -3.145793e+01   3.719488e+01
  -2.977664e+01   6.938385e+00
   4.853770e+00  -1.132239e+01
   2.153138e+01  -1.143768e+00
  -4.444950e+00   1.504964e+01
  -4.469840e+01   7.066078e-01
  -4.978112e+01  -4.595357e+01
   7.920114e-01  -8.273898e+01
   7.327478e+01  -6.388196e+01
   1.091730e+02   7.054994e+00
   7.836279e+01   7.865228e+01
   5.823405e+00   1.003534e+02
  -5.023994e+01   6.402705e+01
  -5.717244e+01   9.434107e+00
  -3.071798e+01  -1.950789e+01
  -1.481664e+01  -1.333040e+01
  -2.629579e+01   4.998925e+00
  -4.068607e+01  -1.457386e-01
  -2.457347e+01  -2.929192e+01
   2.399611e+01  -5.098550e+01
   6.244658e+01  -2.928693e+01
   4.965150e+01   2.651728e+01
  -1.347361e+01   6.349525e+01
  -8.006416e+01   3.760984e+01
  -8.990893e+01  -3.900860e+01
  -2.610830e+01  -1.015516e+02
   6.731210e+01  -9.377130e+01
   1.211727e+02  -2.281502e+01
   1.016219e+02   5.174979e+01
   3.337067e+01   7.832246e+01
  -2.360682e+01   5.757063e+01
  -4.021278e+01   3.032270e+01
  -3.054921e+01   2.783941e+01
  -2.783446e+01   4.016201e+01
  -4.365167e+01   3.246998e+01
  -5.839264e+01  -1.296327e+01
  -4.653982e+01  -7.273170e+01
  -2.184035e+00  -1.004512e+02
   5.080689e+01  -6.913009e+01
   7.504074e+01   1.293263e+00
   5.145100e+01   5.978554e+01
  -6.270219e-01   6.859370e+01
  -3.638219e+01   3.297846e+01
  -2.823342e+01  -9.177144e+00
   4.400198e+00  -2.539797e+01
   1.648126e+01  -1.633965e+01
  -8.681532e+00  -5.294981e+00
  -3.699474e+01  -8.519069e+00
  -2.223166e+01  -1.850409e+01
   3.448532e+01  -1.539454e+01
   7.869061e+01   7.866067e+00
   6.100746e+01   3.566447e+01
  -7.070159e+00   4.453658e+01
  -6.429565e+01   2.586566e+01
  -6.383734e+01  -5.890546e+00
  -1.664322e+01  -2.504084e+01
   2.780169e+01  -1.628342e+01
   3.393789e+01   1.153201e+01
   7.795137e+00   3.243335e+01
  -2.063771e+01   2.649311e+01
  -3.100306e+01  -5.417481e-01
  -2.562575e+01  -2.230930e+01
  -1.979848e+01  -1.934275e+01
  -2.315244e+01  -2.953763e+00
  -2.910878e+01  -4.143710e+00
  -1.994968e+01  -3.427199e+01
   1.528084e+01  -6.678475e+01
   6.229724e+01  -6.068966e+01
   8.456322e+01  -9.326636e+00
   5.616385e+01   4.652163e+01
  -4.831836e+00   6.053429e+01
  -4.529474e+01   2.975864e+01
  -2.788952e+01  -5.808569e+00
   2.630957e+01  -7.111347e+00
   5.696422e+01   2.295305e+01
   2.593423e+01   4.944181e+01
  -4.267931e+01   4.440148e+01
  -8.613309e+01   1.069234e+01
  -6.763046e+01  -2.557991e+01
  -9.565470e+00  -3.939739e+01
   3.146136e+01  -2.508583e+01
   2.241345e+01   1.392809e+00
  -1.715900e+01   1.197799e+01
  -3.917148e+01  -1.020500e+01
  -1.499934e+01  -4.992844e+01
   3.656258e+01  -6.566423e+01
   6.905656e+01  -2.814160e+01
   5.340663e+01   4.139333e+01
   3.614415e+00   8.362545e+01
  -3.949021e+01   5.847427e+01
  -4.602136e+01  -9.267473e+00
  -1.987152e+01  -5.536059e+01
   1.175763e+01  -4.426967e+01
   2.544369e+01  -3.386289e+00
   1.830818e+01   1.673863e+01
   5.110350e+00   4.333995e+00
   2.628914e+00  -6.896844e+00
   1.342006e+01   1.058084e+01
   2.180431e+01   4.053310e+01
   8.351448e+00   4.555942e+01
  -2.691917e+01   1.607096e+01
  -5.632984e+01  -2.030196e+01
  -4.888986e+01  -3.426116e+01
  -6.331180e+00  -2.493128e+01
   3.437270e+01  -9.690960e+00
   3.769349e+01   6.519176e-01
   9.021870e+00   6.610056e+00
  -1.476124e+01   8.443834e+00
  -1.066880e+01   4.176657e+00
   4.569728e+00  -2.201734e+00
   2.469811e-01  -3.350676e+00
  -2.505210e+01  -2.500220e+00
  -3.702750e+01  -1.252034e+01
  -7.375367e+00  -3.463804e+01
   4.896899e+01  -4.565707e+01
   8.417840e+01  -2.087805e+01
   6.605191e+01   3.167106e+01
   9.095104e+00   7.153001e+01
  -4.233758e+01   6.626112e+01
  -5.596880e+01   2.541314e+01
  -3.668078e+01  -1.145583e+01
  -1.176566e+01  -1.849264e+01
  -1.925298e+00  -6.907679e+00
  -6.553672e+00  -5.407359e+00
  -1.133803e+01  -2.405404e+01
  -4.337264e+00  -4.173637e+01
   1.507292e+01  -3.166132e+01
   3.400560e+01   7.028846e+00
   3.364777e+01   4.452406e+01
   5.955910e+00   4.813825e+01
  -3.163491e+01   1.434877e+01
  -4.460793e+01  -2.799583e+01
  -1.587685e+01  -4.557573e+01
   3.003928e+01  -2.850222e+01
   4.723410e+01   5.211310e+00
   1.988033e+01   2.926984e+01
  -1.768212e+01   3.000073e+01
  -2.135723e+01   1.312109e+01
   8.938039e+00  -3.419550e+00
   2.980725e+01  -3.517478e+00
   8.642726e+00   1.290153e+01
  -3.535132e+01   2.787769e+01
  -5.569674e+01   2.041634e+01
  -3.394627e+01  -1.003646e+01
   5.380713e+00  -3.813227e+01
   2.693805e+01  -3.676356e+01
   2.139869e+01  -6.706748e+00
   3.781334e+00   2.158515e+01
  -1.038096e+01   2.085642e+01
  -1.569855e+01  -4.431259e+00
  -1.136004e+01  -2.476715e+01
   1.649049e+00  -1.918036e+01
   1.583604e+01   2.125752e+00
   1.936258e+01   1.360024e+01
   9.221703e+00   4.956003e+00
  -2.697260e+00  -8.245930e+00
  -3.542261e+00  -5.700063e+00
   2.619248e+00   1.218451e+01
   1.810091e+00   2.360045e+01
  -1.044447e+01   1.202321e+01
  -1.897147e+01  -1.289092e+01
  -7.958483e+00  -2.493206e+01
   1.615362e+01  -1.100789e+01
   2.694263e+01   1.467799e+01
   7.443757e+00   2.651109e+01
  -2.686837e+01   1.475138e+01
  -4.219565e+01  -7.589451e+00
  -2.195481e+01  -2.209729e+01
   1.389720e+01  -2.208795e+01
   3.010208e+01  -1.269051e+01
   1.471865e+01  -2.269814e+00
  -9.661237e+00   2.526386e+00
  -1.275307e+01  -1.575989e+00
   9.664023e+00  -9.265569e+00
   3.187623e+01  -7.178704e+00
