
 $NMID
 id='ANONYMOUS ', fmtdat='(2E16.6)'
 volume=1.0
 tramp=1.0
 $END
  -3.216342e+03   3.891627e+02
  -1.545926e+03  -1.763256e+03
   2.920266e+02  -1.624173e+03
   1.065527e+03  -8.768279e+02
   9.543243e+02   1.212958e+02
  -1.000803e+02   2.200497e+02
  -4.391798e+02  -1.247162e+02
  -1.014759e+02  -4.977744e+02
   4.132288e+02  -5.084326e+02
   5.291883e+02  -6.034027e+01
   4.196112e+02   4.775784e+02
   4.268153e+01   5.969258e+02
  -3.399616e+02   1.613297e+02
  -1.664912e+02  -3.581553e+02
   1.858231e+02  -4.757924e+02
   4.087865e+02  -3.657002e+01
   2.530881e+02   3.815819e+02
  -1.469454e+02   5.614091e+02
  -4.055749e+02   2.299138e+02
  -3.992186e+02  -1.141831e+02
  -1.362807e+02  -2.939076e+02
   1.123377e+02  -2.351432e+02
   7.398156e+01  -7.700816e+01
  -1.515686e+02  -8.180083e+01
  -2.917496e+02  -2.308381e+02
  -1.068848e+01  -3.739398e+02
   4.378641e+02  -1.752223e+02
   5.771985e+02   1.911315e+02
   1.776180e+02   3.377336e+02
  -3.100445e+02   1.676172e+02
  -4.765866e+02  -1.517468e+02
  -1.687150e+02  -3.626835e+02
   2.580036e+02  -3.244364e+02
   4.065868e+02  -1.102488e+02
   3.111695e+02   1.553421e+02
   7.731047e+01   2.738266e+02
  -1.851782e+01   1.666482e+02
   3.358003e+01  -6.709581e+01
   1.481404e+02  -1.272522e+02
   1.586352e+02   1.216243e+02
   8.268402e+00   4.261076e+02
  -2.108056e+02   3.872076e+02
  -2.666502e+02   1.255368e+01
  -9.945962e+01  -2.677707e+02
   1.215851e+02  -1.199170e+02
   1.421763e+02   2.441026e+02
  -1.078373e+02   3.400244e+02
  -3.860876e+02   6.353846e+01
  -4.306203e+02  -3.218226e+02
  -1.491198e+02  -4.372134e+02
   2.514727e+02  -2.464188e+02
   4.517643e+02   5.214804e+01
   2.996763e+02   2.207279e+02
  -4.422975e+01   1.962731e+02
  -2.549896e+02   6.381817e+01
  -1.848666e+02  -3.328964e+01
  -3.911818e+00  -1.694573e+01
   3.405749e+01   4.894210e+01
  -1.015036e+02   4.873324e+01
  -2.045277e+02  -5.019137e+01
  -1.026347e+02  -1.727648e+02
   1.378526e+02  -2.188891e+02
   3.009710e+02  -1.326694e+02
   2.423925e+02   7.044799e+01
   9.138782e-01   2.835376e+02
  -2.526325e+02   3.391840e+02
  -3.414580e+02   1.524328e+02
  -2.226837e+02  -1.511954e+02
  -2.928261e+01  -3.271406e+02
   6.229486e+01  -2.732017e+02
   2.732034e+01  -1.312539e+02
   4.672192e+00  -8.547362e+01
   9.669877e+01  -1.191402e+02
   2.254199e+02  -7.121225e+01
   2.378868e+02   1.070635e+02
   9.347768e+01   2.521686e+02
  -9.780113e+01   1.915323e+02
  -1.891524e+02  -3.988343e+01
  -1.237896e+02  -2.394646e+02
   5.689894e+01  -2.393605e+02
   2.309965e+02  -5.728495e+01
   2.695901e+02   1.627868e+02
   1.408521e+02   2.649923e+02
  -4.186397e+01   2.301077e+02
  -1.312604e+02   1.347699e+02
  -1.188432e+02   7.649668e+01
  -1.339119e+02   6.786505e+01
  -2.524814e+02   3.144501e+01
  -3.631729e+02  -8.810758e+01
  -2.825321e+02  -2.672551e+02
   2.021207e+01  -3.860466e+02
   3.400217e+02  -3.472871e+02
   4.333163e+02  -1.455900e+02
   2.638996e+02   9.731370e+01
   1.117180e+01   2.281458e+02
  -1.031633e+02   1.714424e+02
  -2.248223e+01   2.675136e+01
   1.082371e+02  -3.137673e+01
   1.208087e+02   4.035642e+01
  -2.171810e+00   1.247380e+02
  -1.156681e+02   7.756217e+01
  -9.409019e+01  -5.959141e+01
   3.931582e+01  -1.139832e+02
   1.483080e+02   1.064875e+01
   1.247516e+02   2.100104e+02
  -2.833398e+01   2.952228e+02
  -2.153121e+02   1.785821e+02
  -3.129627e+02  -5.342432e+01
  -2.456080e+02  -2.328610e+02
  -5.337095e+01  -2.494331e+02
   1.155387e+02  -1.288131e+02
   1.359246e+02  -4.692624e+00
   3.030000e+01   1.432356e+01
  -4.578123e+01  -5.646964e+01
   6.678172e+00  -1.030701e+02
   1.162468e+02  -5.581553e+01
   1.329686e+02   3.116201e+01
   2.430150e+01   5.382435e+01
  -8.036103e+01  -1.157284e+01
  -3.972895e+01  -8.624388e+01
   1.328194e+02  -8.030391e+01
   2.745888e+02   2.120064e+01
   2.337562e+02   1.580314e+02
   2.138840e+01   2.412367e+02
  -1.952211e+02   2.104731e+02
  -2.481720e+02   8.190629e+01
  -1.244459e+02  -4.576646e+01
   2.897958e+01  -6.977000e+01
   5.673845e+01   6.656365e+00
  -5.172081e+01   6.989918e+01
  -1.679227e+02   2.263242e+01
  -1.655474e+02  -9.973466e+01
  -4.422757e+01  -1.701591e+02
   8.513639e+01  -1.196072e+02
   1.155082e+02  -1.134765e+01
   4.144797e+01   3.769341e+01
  -4.065987e+01  -1.478098e+01
  -2.754265e+01  -9.806428e+01
   8.602139e+01  -1.089966e+02
   1.894591e+02  -1.366880e+01
   1.627549e+02   1.205427e+02
   8.910575e+00   1.867106e+02
  -1.386288e+02   1.330808e+02
  -1.533836e+02   8.600446e+00
  -4.696330e+01  -8.438816e+01
   5.692822e+01  -8.339561e+01
   6.429451e+01  -2.032217e+01
   1.124006e+00   2.547744e+01
  -3.711125e+01   1.210353e+01
   1.913089e+00  -2.197023e+01
   7.557440e+01  -5.475644e+00
   9.494122e+01   7.642023e+01
   1.155946e+01   1.548180e+02
  -1.275241e+02   1.359677e+02
  -2.127047e+02   7.068430e+00
  -1.682451e+02  -1.438453e+02
  -3.005580e+01  -2.032477e+02
   9.072959e+01  -1.398741e+02
   1.131667e+02  -2.585279e+01
   6.446321e+01   3.815555e+01
   3.070832e+01   2.349376e+01
   5.020176e+01  -1.363870e+01
   7.956317e+01  -7.076693e+00
   5.179792e+01   5.145420e+01
  -3.357724e+01   9.585072e+01
  -1.085018e+02   6.185078e+01
  -9.549136e+01  -3.983944e+01
   1.662676e+01  -1.168152e+02
   1.489966e+02  -7.924471e+01
   1.848526e+02   6.400592e+01
   7.285876e+01   1.951216e+02
  -1.167062e+02   1.983304e+02
  -2.413235e+02   6.800807e+01
  -2.162241e+02  -8.617128e+01
  -8.624804e+01  -1.526678e+02
   3.701533e+01  -1.224510e+02
   7.962264e+01  -6.999203e+01
   6.407524e+01  -6.171913e+01
   5.435419e+01  -8.401904e+01
   8.200561e+01  -6.993210e+01
   1.165766e+02   1.796801e+01
   1.039802e+02   1.384668e+02
   2.146555e+01   2.005222e+02
  -9.028416e+01   1.460786e+02
  -1.508205e+02   8.077270e+00
  -1.115490e+02  -1.135068e+02
  -7.143937e+00  -1.385603e+02
   6.943068e+01  -7.215093e+01
   5.888007e+01   1.146874e+01
  -1.935998e+00   4.786344e+01
  -2.537723e+01   3.417085e+01
   2.231629e+01   1.303723e+01
   7.550682e+01   1.699846e+01
   4.614878e+01   3.641944e+01
  -6.589459e+01   3.622054e+01
  -1.580575e+02  -2.646679e+00
  -1.309910e+02  -5.995089e+01
   1.730165e+00  -9.070105e+01
   1.229452e+02  -6.594079e+01
   1.315448e+02  -2.550124e+00
   3.966957e+01   4.668366e+01
  -5.330207e+01   3.918354e+01
  -6.923847e+01  -1.659057e+01
  -1.710705e+01  -6.555473e+01
   4.064791e+01  -5.823811e+01
   6.127903e+01  -2.320391e+00
   5.199965e+01   4.515147e+01
   4.255488e+01   3.973968e+01
   4.852549e+01   3.776462e+00
   5.744711e+01   1.890115e+00
   3.921011e+01   6.340069e+01
  -2.543788e+01   1.338316e+02
  -1.138174e+02   1.283957e+02
  -1.611075e+02   2.964807e+01
  -1.144141e+02  -8.436585e+01
   2.017916e-01  -1.185505e+02
   8.281345e+01  -6.182924e+01
   5.435044e+01   9.909624e+00
  -5.274463e+01   1.795134e+01
  -1.191348e+02  -3.851450e+01
  -6.191051e+01  -9.644901e+01
   7.571238e+01  -9.731373e+01
   1.696418e+02  -3.799245e+01
   1.402986e+02   3.754122e+01
   2.739626e+01   7.586342e+01
  -5.672282e+01   5.403785e+01
  -4.245922e+01  -3.444233e-01
   3.587584e+01  -2.632062e+01
   8.111450e+01   1.785775e+01
   3.401624e+01   1.023007e+02
  -6.990785e+01   1.379394e+02
  -1.383577e+02   6.266171e+01
  -1.119836e+02  -8.064410e+01
  -1.573423e+01  -1.704672e+02
   7.230110e+01  -1.249649e+02
   9.386282e+01   9.713737e+00
   5.067977e+01   1.067831e+02
  -1.152550e+01   9.244923e+01
  -4.707699e+01   1.532014e+01
  -4.165934e+01  -2.697218e+01
  -1.604603e+01  -7.027812e+00
  -6.340593e+00   1.341942e+01
  -2.734164e+01  -2.059784e+01
  -4.977954e+01  -8.021887e+01
  -2.621663e+01  -9.265114e+01
   4.993995e+01  -3.734057e+01
   1.184508e+02   3.308297e+01
   1.075825e+02   6.208410e+01
   1.779601e+01   4.765017e+01
  -6.900490e+01   2.267110e+01
  -7.634703e+01   4.648598e+00
  -1.687251e+01  -9.390231e+00
   2.996394e+01  -1.724028e+01
   1.861835e+01  -1.043516e+01
  -1.229197e+01   3.477743e+00
   4.108472e-01   6.030845e+00
   5.505030e+01   1.893236e+00
   7.946793e+01   2.075825e+01
   1.828883e+01   6.903731e+01
  -9.514541e+01   9.888866e+01
  -1.665815e+02   5.473947e+01
  -1.343936e+02  -5.188038e+01
  -2.669434e+01  -1.389924e+02
   7.288348e+01  -1.364308e+02
   1.035561e+02  -5.885515e+01
   7.091125e+01   1.615100e+01
   2.386403e+01   3.346051e+01
   3.559557e+00   1.159329e+01
   1.313661e+01   7.369802e+00
   2.664642e+01   4.373812e+01
   1.559281e+01   8.123420e+01
  -2.496065e+01   6.433488e+01
  -6.780311e+01  -1.194818e+01
  -7.011835e+01  -8.827256e+01
  -1.344605e+01  -9.653117e+01
   6.478399e+01  -2.857458e+01
   9.274247e+01   5.685304e+01
   3.545542e+01   9.177354e+01
  -5.667617e+01   5.886742e+01
  -9.301454e+01  -5.704643e+00
  -4.206041e+01  -5.229453e+01
   2.959989e+01  -5.661950e+01
   3.659182e+01  -2.704284e+01
  -2.141427e+01   5.608130e+00
  -6.029972e+01   9.072548e+00
  -1.838829e+01  -2.310008e+01
   6.667408e+01  -5.771009e+01
   1.060268e+02  -4.847830e+01
   6.449611e+01   1.166188e+01
  -9.190970e+00   7.213015e+01
  -4.861394e+01   7.293041e+01
  -3.798352e+01   1.377183e+01
  -5.683932e+00  -4.348135e+01
   2.059749e+01  -4.172562e+01
   3.241024e+01   8.988461e+00
   2.606419e+01   4.854244e+01
   5.725876e-01   3.737246e+01
  -2.949190e+01  -2.762615e+00
  -3.870130e+01  -2.244097e+01
  -2.029502e+01  -4.900907e+00
   2.785760e+00   1.777298e+01
   6.280097e+00   8.680202e+00
  -3.738912e+00  -2.684828e+01
  -3.196706e-01  -4.668767e+01
   2.235761e+01  -2.102782e+01
   3.612071e+01   2.855017e+01
   1.241395e+01   5.142068e+01
  -3.463008e+01   2.305049e+01
  -5.534681e+01  -2.803351e+01
  -1.771149e+01  -5.298447e+01
   5.037830e+01  -3.282450e+01
   8.336770e+01   8.757020e+00
   4.673615e+01   3.780130e+01
  -2.328232e+01   4.126433e+01
  -5.679279e+01   2.654054e+01
  -2.661612e+01   7.640568e+00
   2.283404e+01  -2.015256e+00
   2.811129e+01   5.766073e+00
  -2.020035e+01   2.166386e+01
  -6.796802e+01   1.753425e+01
