
 $NMID
 id='ANONYMOUS ', fmtdat='(2E16.6)'
 volume=1.0
 tramp=1.0
 $END
  -2.551879e+03   3.990311e+01
  -1.496338e+03  -1.120319e+03
  -1.223573e+02  -1.545936e+03
   1.158088e+03  -1.142567e+03
   7.197584e+02  -1.744841e+02
   4.977836e+01   1.644397e+02
  -2.303470e+02  -5.763690e+01
   8.554288e+01  -3.602988e+02
   2.523702e+02  -3.562242e+02
   4.256310e+02  -7.768665e+01
   2.855911e+02   4.497392e+02
   1.201451e+02   5.331224e+02
  -1.819279e+02   2.561586e+02
  -1.011853e+02  -3.422229e+02
   1.127640e+02  -4.134495e+02
   3.320365e+02  -9.045930e+01
   2.571858e+02   3.654299e+02
  -7.126881e+01   5.760253e+02
  -3.898952e+02   3.033736e+02
  -4.422696e+02  -1.003468e+02
  -1.605724e+02  -2.810184e+02
   6.894046e+01  -1.762266e+02
   4.454770e+01  -7.446444e+01
  -1.710802e+02  -1.408637e+02
  -1.798538e+02  -2.824217e+02
   7.404931e+01  -3.037318e+02
   4.230337e+02  -7.309648e+01
   4.798429e+02   2.198796e+02
   1.165114e+02   3.131550e+02
  -3.057354e+02   1.267684e+02
  -3.837344e+02  -1.548394e+02
  -1.146533e+02  -3.134912e+02
   2.260959e+02  -2.472926e+02
   3.713109e+02  -8.115513e+01
   2.595857e+02   1.055240e+02
   7.603038e+01   2.171941e+02
   2.998667e+01   1.432000e+02
   8.864607e+01  -3.907336e+01
   1.821405e+02  -5.238846e+01
   1.289512e+02   1.944434e+02
  -6.256138e+01   4.376104e+02
  -2.439679e+02   3.450946e+02
  -2.594216e+02  -1.815451e+01
  -8.647879e+01  -2.491004e+02
   9.300710e+01  -8.710711e+01
   8.743977e+01   2.384592e+02
  -1.385446e+02   3.147175e+02
  -3.890570e+02   1.626201e+01
  -4.042427e+02  -3.570331e+02
  -1.190135e+02  -4.439490e+02
   2.661243e+02  -2.169505e+02
   4.307154e+02   6.567450e+01
   2.818394e+02   1.954356e+02
  -2.978536e+01   1.608419e+02
  -2.182338e+02   7.055436e+01
  -1.801299e+02   1.143936e+01
  -3.799639e+01   8.384110e-01
   9.340712e+00   1.497696e+01
  -8.241194e+01   1.325337e+01
  -1.724597e+02  -4.237488e+01
  -9.897717e+01  -1.476199e+02
   1.302426e+02  -2.200337e+02
   3.165484e+02  -1.483041e+02
   2.644295e+02   8.217036e+01
  -1.306784e+01   3.202239e+02
  -2.896683e+02   3.573848e+02
  -3.483521e+02   1.389407e+02
  -1.942751e+02  -1.605674e+02
  -2.045515e+01  -3.122381e+02
   2.682348e+01  -2.629659e+02
  -7.055693e+00  -1.536530e+02
   1.705811e+01  -1.150133e+02
   1.354841e+02  -1.156600e+02
   2.420231e+02  -3.726786e+01
   2.178789e+02   1.293419e+02
   6.832884e+01   2.413332e+02
  -1.017224e+02   1.667007e+02
  -1.735354e+02  -5.746210e+01
  -1.058125e+02  -2.366251e+02
   6.425753e+01  -2.230851e+02
   2.250891e+02  -3.749543e+01
   2.603556e+02   1.681647e+02
   1.410349e+02   2.571578e+02
  -3.120592e+01   2.222673e+02
  -1.212892e+02   1.443855e+02
  -1.234775e+02   9.941539e+01
  -1.514126e+02   7.951645e+01
  -2.735671e+02   2.964651e+01
  -3.768362e+02  -9.988839e+01
  -2.858889e+02  -2.752829e+02
   2.844173e+01  -3.962141e+02
   3.526293e+02  -3.588633e+02
   4.365915e+02  -1.526696e+02
   2.517458e+02   9.495286e+01
   7.584432e+00   2.187731e+02
  -7.818485e+01   1.660041e+02
   1.198678e+01   3.917295e+01
   1.125866e+02  -1.404519e+01
   9.542808e+01   4.738043e+01
  -1.509560e+01   1.146154e+02
  -1.018428e+02   7.038656e+01
  -8.137802e+01  -5.094222e+01
   3.227771e+01  -1.059007e+02
   1.409055e+02   8.391250e+00
   1.379945e+02   2.107862e+02
  -1.164001e+01   3.104807e+02
  -2.245129e+02   1.958690e+02
  -3.408595e+02  -5.501146e+01
  -2.599838e+02  -2.474213e+02
  -4.538288e+01  -2.549460e+02
   1.254928e+02  -1.213855e+02
   1.298600e+02  -9.862095e-01
   2.135576e+01   4.131979e+00
  -4.218815e+01  -6.843428e+01
   1.807783e+01  -1.045082e+02
   1.199483e+02  -4.962133e+01
   1.283581e+02   3.287402e+01
   2.019191e+01   4.963910e+01
  -7.856341e+01  -1.739878e+01
  -3.186316e+01  -8.978645e+01
   1.451935e+02  -8.011439e+01
   2.848428e+02   2.757000e+01
   2.325946e+02   1.671330e+02
   9.505132e+00   2.446482e+02
  -2.030498e+02   2.054578e+02
  -2.409636e+02   7.778218e+01
  -1.109608e+02  -3.946427e+01
   3.137199e+01  -5.863428e+01
   4.559582e+01   1.157157e+01
  -6.414595e+01   6.600681e+01
  -1.718287e+02   1.701499e+01
  -1.634199e+02  -1.017367e+02
  -4.233614e+01  -1.692887e+02
   8.366224e+01  -1.170371e+02
   1.097390e+02  -8.726587e+00
   3.359993e+01   3.386839e+01
  -4.421408e+01  -2.855211e+01
  -2.010479e+01  -1.131971e+02
   1.010069e+02  -1.104064e+02
   1.997016e+02   2.298351e-01
   1.613389e+02   1.354041e+02
   9.879436e-01   1.904187e+02
  -1.439859e+02   1.296337e+02
  -1.542512e+02   7.261198e+00
  -4.683260e+01  -8.156668e+01
   5.488283e+01  -8.062822e+01
   5.930240e+01  -1.941653e+01
  -5.928211e+00   2.408906e+01
  -4.117681e+01   6.099498e+00
   6.094916e+00  -3.056936e+01
   8.730334e+01  -8.265019e+00
   1.033051e+02   8.656298e+01
   8.445468e+00   1.696810e+02
  -1.399119e+02   1.424017e+02
  -2.237032e+02   7.544231e-02
  -1.722597e+02  -1.542346e+02
  -2.835997e+01  -2.074527e+02
   9.332597e+01  -1.394024e+02
   1.163456e+02  -2.793978e+01
   6.684251e+01   3.476827e+01
   3.206014e+01   2.224001e+01
   5.338272e+01  -1.456111e+01
   8.568553e+01  -6.074440e+00
   5.887646e+01   5.684022e+01
  -3.593407e+01   1.053407e+02
  -1.226694e+02   6.798452e+01
  -1.074544e+02  -4.546052e+01
   2.054923e+01  -1.286565e+02
   1.641990e+02  -8.377716e+01
   1.945860e+02   7.063145e+01
   6.853328e+01   2.060343e+02
  -1.285522e+02   2.027090e+02
  -2.502937e+02   6.598082e+01
  -2.193495e+02  -8.948662e+01
  -8.353634e+01  -1.552908e+02
   4.033822e+01  -1.234750e+02
   8.111634e+01  -7.065315e+01
   6.207948e+01  -6.258975e+01
   5.160369e+01  -8.699903e+01
   8.223474e+01  -7.297547e+01
   1.207042e+02   1.810964e+01
   1.076095e+02   1.443126e+02
   1.999408e+01   2.076979e+02
  -9.544769e+01   1.479225e+02
  -1.546907e+02   2.341691e+00
  -1.100356e+02  -1.218559e+02
  -1.276550e+00  -1.420849e+02
   7.514773e+01  -6.795456e+01
   5.967441e+01   2.073330e+01
  -7.388005e+00   5.517330e+01
  -3.186320e+01   3.507415e+01
   2.117083e+01   9.451340e+00
   8.017440e+01   1.448446e+01
   4.840966e+01   3.765460e+01
  -7.226954e+01   3.869140e+01
  -1.685198e+02  -3.099124e+00
  -1.350858e+02  -6.420664e+01
   7.193973e+00  -9.601473e+01
   1.311783e+02  -6.901321e+01
   1.356275e+02  -1.513451e+00
   3.931853e+01   5.143378e+01
  -5.589939e+01   4.396937e+01
  -7.392430e+01  -1.628359e+01
  -2.268016e+01  -7.075731e+01
   3.894416e+01  -6.476232e+01
   6.629659e+01  -4.734021e+00
   5.947884e+01   4.672765e+01
   4.580378e+01   4.074643e+01
   4.790040e+01   2.243920e+00
   5.906525e+01   2.052298e+00
   4.494413e+01   6.933131e+01
  -2.244682e+01   1.437412e+02
  -1.204246e+02   1.356615e+02
  -1.739652e+02   3.002470e+01
  -1.234397e+02  -8.958810e+01
   8.803045e-01  -1.256650e+02
   8.876343e+01  -6.656999e+01
   5.862380e+01   8.914565e+00
  -5.324315e+01   1.993211e+01
  -1.214082e+02  -3.731771e+01
  -6.236735e+01  -9.751902e+01
   7.792797e+01  -9.827771e+01
   1.716875e+02  -3.534882e+01
   1.396787e+02   4.168583e+01
   2.442161e+01   7.683787e+01
  -6.009855e+01   5.058361e+01
  -4.351684e+01  -5.567993e+00
   3.797481e+01  -2.967829e+01
   8.573384e+01   1.806901e+01
   3.893672e+01   1.060589e+02
  -6.833373e+01   1.440409e+02
  -1.412578e+02   6.743665e+01
  -1.164796e+02  -8.118315e+01
  -1.717216e+01  -1.749910e+02
   7.497769e+01  -1.274020e+02
   9.588348e+01   1.315361e+01
   4.793816e+01   1.121713e+02
  -1.707512e+01   9.371836e+01
  -4.946928e+01   1.231384e+01
  -3.868713e+01  -2.934890e+01
  -1.280271e+01  -6.269415e+00
  -8.491465e+00   1.407338e+01
  -3.347916e+01  -2.313567e+01
  -5.324218e+01  -8.426504e+01
  -2.342097e+01  -9.522606e+01
   5.630590e+01  -3.793149e+01
   1.235069e+02   3.345669e+01
   1.096264e+02   6.361461e+01
   1.801946e+01   5.086842e+01
  -7.028991e+01   2.568466e+01
  -7.925379e+01   4.666092e+00
  -2.020266e+01  -1.181416e+01
   2.906019e+01  -1.890451e+01
   2.052010e+01  -9.976530e+00
  -1.006643e+01   3.545114e+00
   1.810425e+00   2.856556e+00
   5.789347e+01  -3.395559e+00
   8.630645e+01   1.880417e+01
   2.624286e+01   7.465124e+01
  -9.281490e+01   1.108196e+02
  -1.727697e+02   6.629375e+01
  -1.441353e+02  -4.802983e+01
  -3.242384e+01  -1.440318e+02
   7.330317e+01  -1.447777e+02
   1.065330e+02  -6.354877e+01
   7.247298e+01   1.728109e+01
   2.433948e+01   3.713194e+01
   4.297151e+00   1.425469e+01
   1.370399e+01   8.676876e+00
   2.590031e+01   4.465402e+01
   1.440496e+01   8.252788e+01
  -2.578905e+01   6.573226e+01
  -6.997570e+01  -1.099710e+01
  -7.533817e+01  -8.886834e+01
  -1.889510e+01  -1.002187e+02
   6.479433e+01  -3.420235e+01
   9.924899e+01   5.362837e+01
   4.213609e+01   9.408037e+01
  -5.693581e+01   6.375156e+01
  -9.886098e+01  -4.306251e+00
  -4.584771e+01  -5.625666e+01
   3.165259e+01  -6.104300e+01
   4.076682e+01  -2.736674e+01
  -2.038102e+01   7.831033e+00
  -6.212068e+01   9.353246e+00
  -1.849095e+01  -2.597922e+01
   7.128915e+01  -6.023295e+01
   1.127264e+02  -4.693026e+01
   6.817984e+01   1.704635e+01
  -1.090094e+01   7.857294e+01
  -5.431629e+01   7.808225e+01
  -4.375673e+01   1.524391e+01
  -9.152093e+00  -4.644884e+01
   2.006728e+01  -4.691674e+01
   3.369961e+01   5.870368e+00
   2.785672e+01   4.987823e+01
   1.281900e+00   4.029456e+01
  -3.064678e+01  -2.696142e+00
  -4.043800e+01  -2.528179e+01
  -2.012652e+01  -6.234667e+00
   5.036415e+00   2.085328e+01
   6.453943e+00   1.291048e+01
  -8.183105e+00  -2.713496e+01
  -6.161850e+00  -5.179236e+01
   2.218975e+01  -2.637243e+01
   4.281086e+01   2.742996e+01
   1.896748e+01   5.398514e+01
  -3.525009e+01   2.643504e+01
  -6.125455e+01  -2.630327e+01
  -2.132076e+01  -5.309275e+01
   5.216062e+01  -3.421339e+01
   8.684073e+01   7.261041e+00
   4.727200e+01   3.768400e+01
  -2.541293e+01   4.314523e+01
  -5.917782e+01   2.883642e+01
  -2.834690e+01   7.390580e+00
   2.187319e+01  -5.637969e+00
   2.888846e+01   1.665626e+00
  -1.718217e+01   2.118473e+01
  -6.552420e+01   2.076582e+01
