
 $NMID
 id='ANONYMOUS ', fmtdat='(2E16.6)'
 volume=1.0
 tramp=1.0
 $END
  -3.429614e+03   1.542934e+02
  -1.972502e+03  -1.666219e+03
  -9.056788e+01  -1.855913e+03
   1.242945e+03  -1.406098e+03
   9.625362e+02  -8.833390e+01
   3.003685e+01   2.168964e+02
  -3.132768e+02  -1.840628e+02
   2.292242e+01  -4.329937e+02
   2.220367e+02  -5.512379e+02
   5.790375e+02  -3.756413e+01
   4.456647e+02   5.294557e+02
   6.834391e+01   5.857325e+02
  -2.474238e+02   2.057166e+02
  -1.997024e+02  -4.091003e+02
   1.297387e+02  -4.941453e+02
   3.881262e+02  -6.335202e+01
   2.571471e+02   4.414418e+02
  -1.677169e+02   5.563396e+02
  -4.502699e+02   3.086338e+02
  -3.894190e+02  -1.798218e+02
  -1.233441e+02  -3.472770e+02
   1.803401e+02  -2.425760e+02
   8.349596e+01  -2.275939e+01
  -2.299894e+02  -9.873549e+01
  -2.584566e+02  -2.964483e+02
   6.617776e+01  -3.639577e+02
   5.008693e+02  -1.382920e+02
   5.835429e+02   2.401101e+02
   1.779338e+02   3.791750e+02
  -3.515670e+02   1.799642e+02
  -5.038850e+02  -1.850851e+02
  -1.641980e+02  -3.972504e+02
   3.007549e+02  -3.447726e+02
   4.735927e+02  -8.288595e+01
   3.131790e+02   1.937609e+02
   6.318203e+01   2.987188e+02
  -4.667011e+01   1.424154e+02
   6.819912e+01  -9.436381e+01
   2.055323e+02  -1.192813e+02
   1.976262e+02   1.763088e+02
  -3.436282e+01   4.879010e+02
  -2.695476e+02   3.855275e+02
  -3.178270e+02  -3.743023e+01
  -1.194692e+02  -3.158025e+02
   1.641011e+02  -1.321015e+02
   1.842976e+02   2.666041e+02
  -1.034977e+02   3.853287e+02
  -4.432602e+02   5.067357e+01
  -4.866445e+02  -3.809561e+02
  -1.444847e+02  -5.035282e+02
   3.174180e+02  -2.640807e+02
   5.186603e+02   7.829563e+01
   3.268748e+02   2.628573e+02
  -5.298159e+01   2.194942e+02
  -2.720301e+02   7.059575e+01
  -1.985166e+02  -2.822098e+01
  -1.017387e+01  -1.599310e+01
   3.562437e+01   4.928284e+01
  -1.020210e+02   5.218866e+01
  -2.155754e+02  -5.009939e+01
  -1.158163e+02  -1.880323e+02
   1.511475e+02  -2.407140e+02
   3.448919e+02  -1.347980e+02
   2.738556e+02   1.026675e+02
  -2.258973e+01   3.299000e+02
  -3.135823e+02   3.663102e+02
  -3.845268e+02   1.464019e+02
  -2.279436e+02  -1.765466e+02
  -2.591632e+01  -3.543015e+02
   4.985588e+01  -2.985268e+02
   1.660713e+01  -1.591799e+02
   2.046508e+01  -1.096725e+02
   1.332704e+02  -1.257156e+02
   2.555533e+02  -5.282518e+01
   2.421012e+02   1.364627e+02
   7.824533e+01   2.719949e+02
  -1.145016e+02   1.921550e+02
  -1.987818e+02  -5.872890e+01
  -1.240470e+02  -2.605674e+02
   6.604724e+01  -2.493142e+02
   2.484993e+02  -4.816644e+01
   2.876284e+02   1.817348e+02
   1.485053e+02   2.942278e+02
  -5.638466e+01   2.516019e+02
  -1.601429e+02   1.486519e+02
  -1.405237e+02   7.675144e+01
  -1.480105e+02   6.566650e+01
  -2.826391e+02   2.930948e+01
  -4.067398e+02  -1.070490e+02
  -3.117735e+02  -3.070662e+02
   3.244481e+01  -4.416170e+02
   3.906946e+02  -3.895165e+02
   4.843063e+02  -1.558647e+02
   2.815995e+02   1.170271e+02
   3.420897e+00   2.491833e+02
  -1.043340e+02   1.775033e+02
  -7.861886e+00   2.038229e+01
   1.280749e+02  -3.776027e+01
   1.314597e+02   4.970770e+01
  -6.631152e-01   1.435721e+02
  -1.244145e+02   9.545154e+01
  -1.080601e+02  -6.215398e+01
   3.227018e+01  -1.320548e+02
   1.621508e+02   1.562794e+00
   1.512494e+02   2.330794e+02
  -2.308068e+01   3.350143e+02
  -2.479937e+02   2.013466e+02
  -3.620851e+02  -6.691459e+01
  -2.730802e+02  -2.703776e+02
  -4.416100e+01  -2.787471e+02
   1.421084e+02  -1.359846e+02
   1.485620e+02   2.855444e+00
   2.531005e+01   1.789689e+01
  -5.315729e+01  -6.550881e+01
   1.216101e+01  -1.187875e+02
   1.319266e+02  -6.353895e+01
   1.455247e+02   3.726430e+01
   2.328363e+01   6.433410e+01
  -8.917061e+01  -1.286950e+01
  -3.918124e+01  -1.017311e+02
   1.536580e+02  -9.400531e+01
   3.065959e+02   2.794332e+01
   2.539937e+02   1.859490e+02
   1.458880e+01   2.730543e+02
  -2.230327e+02   2.277294e+02
  -2.755462e+02   7.988413e+01
  -1.341724e+02  -5.762338e+01
   3.598048e+01  -7.834159e+01
   6.524733e+01   9.246353e+00
  -5.696186e+01   7.849586e+01
  -1.867952e+02   2.438692e+01
  -1.834454e+02  -1.120033e+02
  -4.679518e+01  -1.886865e+02
   9.718172e+01  -1.292165e+02
   1.276307e+02  -7.587501e+00
   4.166011e+01   4.228857e+01
  -4.948813e+01  -2.206017e+01
  -2.993491e+01  -1.149411e+02
   1.002427e+02  -1.199589e+02
   2.138120e+02  -7.366049e+00
   1.790166e+02   1.410128e+02
   3.910753e+00   2.079333e+02
  -1.598887e+02   1.431278e+02
  -1.725076e+02   3.929535e+00
  -5.081842e+01  -9.657177e+01
   6.484263e+01  -9.230560e+01
   7.116617e+01  -1.920820e+01
  -4.527614e-01   2.936734e+01
  -4.173825e+01   9.576029e+00
   5.253689e+00  -3.111404e+01
   8.839711e+01  -8.069616e+00
   1.069497e+02   9.022417e+01
   1.205549e+01   1.776671e+02
  -1.431853e+02   1.521734e+02
  -2.364277e+02   3.250643e+00
  -1.850883e+02  -1.635598e+02
  -2.931835e+01  -2.250584e+02
   1.039721e+02  -1.514021e+02
   1.259757e+02  -2.629396e+01
   7.000748e+01   4.354044e+01
   3.271964e+01   2.725020e+01
   5.686916e+01  -1.410846e+01
   8.980707e+01  -6.263721e+00
   5.830823e+01   5.768440e+01
  -4.008988e+01   1.079157e+02
  -1.241879e+02   6.900142e+01
  -1.084070e+02  -4.453830e+01
   1.876923e+01  -1.297192e+02
   1.665598e+02  -8.502946e+01
   2.027135e+02   7.252528e+01
   7.439487e+01   2.162295e+02
  -1.357442e+02   2.171667e+02
  -2.704479e+02   7.007346e+01
  -2.381968e+02  -1.001304e+02
  -8.983411e+01  -1.734004e+02
   4.496514e+01  -1.363816e+02
   9.007406e+01  -7.471645e+01
   7.137138e+01  -6.374157e+01
   6.073836e+01  -9.027070e+01
   9.128862e+01  -7.753958e+01
   1.287791e+02   1.934261e+01
   1.126253e+02   1.559034e+02
   1.955216e+01   2.263920e+02
  -1.035363e+02   1.633741e+02
  -1.685959e+02   5.492931e+00
  -1.222555e+02  -1.311442e+02
  -5.556801e+00  -1.553614e+02
   7.737026e+01  -7.675574e+01
   6.311349e+01   1.766502e+01
  -5.210526e+00   5.486188e+01
  -2.992791e+01   3.535409e+01
   2.418364e+01   1.100562e+01
   8.338429e+01   1.794644e+01
   5.046954e+01   4.137542e+01
  -7.357322e+01   3.985129e+01
  -1.743113e+02  -5.734009e+00
  -1.425382e+02  -6.926722e+01
   4.968351e+00  -1.005280e+02
   1.376118e+02  -6.987837e+01
   1.449704e+02   1.277065e+00
   4.240541e+01   5.404221e+01
  -6.000729e+01   4.277731e+01
  -7.680328e+01  -2.027027e+01
  -1.871748e+01  -7.349663e+01
   4.563903e+01  -6.388354e+01
   6.882032e+01  -9.334638e-01
   5.821065e+01   5.136625e+01
   4.673458e+01   4.496557e+01
   5.282608e+01   5.200539e+00
   6.319806e+01   4.453037e+00
   4.304333e+01   7.311275e+01
  -3.037550e+01   1.506174e+02
  -1.305486e+02   1.420891e+02
  -1.835298e+02   2.934113e+01
  -1.287061e+02  -9.854169e+01
   2.228948e+00  -1.348224e+02
   9.451403e+01  -6.830220e+01
   6.125977e+01   1.266061e+01
  -5.851281e+01   2.039830e+01
  -1.311783e+02  -4.524356e+01
  -6.601096e+01  -1.095390e+02
   8.704936e+01  -1.066956e+02
   1.894219e+02  -3.625602e+01
   1.537752e+02   4.774457e+01
   2.653871e+01   8.606254e+01
  -6.707259e+01   5.755493e+01
  -4.957349e+01  -3.323930e+00
   3.965893e+01  -2.984779e+01
   9.091172e+01   2.058579e+01
   3.721839e+01   1.133551e+02
  -8.025875e+01   1.509538e+02
  -1.558251e+02   6.618702e+01
  -1.224804e+02  -9.299976e+01
  -1.162897e+01  -1.907944e+02
   8.594538e+01  -1.367321e+02
   1.050039e+02   1.628472e+01
   5.196597e+01   1.241620e+02
  -1.796751e+01   1.037145e+02
  -5.452228e+01   1.283797e+01
  -4.510498e+01  -3.509598e+01
  -1.607858e+01  -9.394491e+00
  -6.915672e+00   1.674050e+01
  -3.111395e+01  -2.131420e+01
  -5.502566e+01  -8.995703e+01
  -2.717191e+01  -1.050167e+02
   5.782062e+01  -4.198050e+01
   1.324581e+02   3.874261e+01
   1.183390e+02   7.150255e+01
   1.758306e+01   5.419053e+01
  -7.831721e+01   2.415141e+01
  -8.544814e+01   2.877786e+00
  -1.868053e+01  -1.207032e+01
   3.402729e+01  -1.911762e+01
   2.160661e+01  -1.089859e+01
  -1.306529e+01   3.190088e+00
   8.715865e-01   3.901713e+00
   6.213182e+01  -1.002459e+00
   9.058491e+01   2.254112e+01
   2.327272e+01   7.975578e+01
  -1.039326e+02   1.144872e+02
  -1.855302e+02   6.341454e+01
  -1.509583e+02  -5.853574e+01
  -3.013373e+01  -1.569438e+02
   8.223416e+01  -1.525889e+02
   1.167246e+02  -6.352026e+01
   7.913088e+01   2.099602e+01
   2.573675e+01   3.928933e+01
   3.264014e+00   1.350756e+01
   1.443299e+01   8.725869e+00
   2.878649e+01   4.966928e+01
   1.530719e+01   9.097728e+01
  -3.036196e+01   7.054257e+01
  -7.720734e+01  -1.576938e+01
  -7.816611e+01  -1.003068e+02
  -1.392988e+01  -1.080237e+02
   7.325847e+01  -3.126078e+01
   1.038752e+02   6.362555e+01
   3.948100e+01   1.013993e+02
  -6.365879e+01   6.339947e+01
  -1.037415e+02  -8.757660e+00
  -4.576176e+01  -5.936220e+01
   3.514158e+01  -6.180774e+01
   4.238164e+01  -2.808456e+01
  -2.373096e+01   6.500849e+00
  -6.741829e+01   7.884794e+00
  -1.893230e+01  -2.825713e+01
   7.841933e+01  -6.406975e+01
   1.221978e+02  -5.010232e+01
   7.253221e+01   1.868193e+01
  -1.339992e+01   8.486684e+01
  -5.886103e+01   8.316675e+01
  -4.542810e+01   1.452989e+01
  -7.343684e+00  -5.023579e+01
   2.283030e+01  -4.787836e+01
   3.525685e+01   9.590225e+00
   2.733047e+01   5.379095e+01
  -9.489190e-01   4.073576e+01
  -3.374000e+01  -4.636783e+00
  -4.291999e+01  -2.626209e+01
  -2.152872e+01  -5.828226e+00
   4.097872e+00   1.964895e+01
   6.785340e+00   9.123169e+00
  -5.200551e+00  -3.133835e+01
  -1.183644e+00  -5.317815e+01
   2.561482e+01  -2.382042e+01
   4.168532e+01   3.227385e+01
   1.462240e+01   5.779052e+01
  -3.894167e+01   2.543192e+01
  -6.147381e+01  -3.237966e+01
  -1.822793e+01  -5.970426e+01
   5.756937e+01  -3.570563e+01
   9.235790e+01   1.218197e+01
   4.941867e+01   4.443472e+01
  -2.864063e+01   4.639055e+01
  -6.415961e+01   2.803908e+01
  -2.915281e+01   6.558118e+00
   2.583217e+01  -3.557450e+00
   3.105890e+01   5.659433e+00
  -2.272838e+01   2.350422e+01
  -7.522833e+01   1.900617e+01
