
 $NMID
 id='ANONYMOUS ', fmtdat='(2E16.6)'
 volume=1.0
 tramp=1.0
 $END
   1.788808e+03  -1.996200e+02
   9.285573e+02   7.227911e+02
   8.284511e+01   8.055327e+02
  -7.835752e+02   9.159317e+02
  -4.476500e+02   2.600826e+02
  -1.891541e+02  -1.554542e+01
   4.408237e+01  -3.163174e+01
  -8.624955e+01   1.184427e+02
  -5.488945e+01   2.357484e+02
  -1.804803e+02   9.856764e+01
  -1.732653e+02  -2.030451e+02
   1.232769e+01  -3.452177e+02
   3.560039e+01  -8.730536e+01
   9.044031e+01   1.781356e+02
   5.202545e+01   2.667486e+02
  -2.016766e+02   1.111398e+02
  -1.900745e+02  -2.108068e+02
   3.919065e+01  -3.077438e+02
   2.987961e+02  -1.696561e+02
   2.752025e+02   6.932235e+01
   9.826289e+01   1.734726e+02
  -3.603409e+01   1.311516e+02
  -6.186901e+01   2.981289e+01
   1.059274e+02   9.805558e+01
   1.521308e+02   2.175078e+02
  -1.287191e+01   2.088808e+02
  -2.578230e+02   4.661931e+01
  -2.801371e+02  -1.617088e+02
  -9.893402e+01  -2.212564e+02
   1.539632e+02  -6.732148e+01
   2.445451e+02   1.290769e+02
   8.900596e+01   1.948279e+02
  -1.500353e+02   1.797904e+02
  -2.397136e+02   5.958404e+01
  -1.865219e+02  -7.417232e+01
  -5.709837e+01  -1.247318e+02
   7.251065e+00  -6.490254e+01
  -5.243213e+01   4.559977e+01
  -1.048416e+02   5.513198e+01
  -8.256557e+01  -1.054098e+02
   2.038800e+01  -2.460389e+02
   1.053738e+02  -1.842133e+02
   1.466518e+02   2.482191e+00
   5.015562e+01   1.347058e+02
  -7.165029e+01   3.887390e+01
  -6.732883e+01  -1.522450e+02
   6.870427e+01  -1.942573e+02
   2.433947e+02  -1.126656e+01
   2.681880e+02   2.118671e+02
   9.294252e+01   2.759286e+02
  -1.764487e+02   1.525037e+02
  -3.026375e+02  -2.943540e+01
  -1.978139e+02  -1.289380e+02
   8.428315e+00  -1.203916e+02
   1.389987e+02  -6.302363e+01
   1.184833e+02  -1.809004e+01
   2.582344e+01  -6.668267e+00
  -1.015762e+01  -1.790255e+01
   4.781510e+01  -1.653713e+01
   1.113135e+02   2.438093e+01
   6.895605e+01   9.743369e+01
  -7.951206e+01   1.415614e+02
  -2.018337e+02   8.638068e+01
  -1.664842e+02  -6.743642e+01
   1.233161e+01  -2.120210e+02
   1.847993e+02  -2.185134e+02
   2.192296e+02  -7.119893e+01
   1.262803e+02   1.105224e+02
   2.187484e+01   1.963327e+02
  -1.237351e+01   1.688479e+02
  -3.963378e+00   1.098898e+02
  -2.947039e+01   8.314595e+01
  -1.022277e+02   6.751012e+01
  -1.562915e+02   8.879669e+00
  -1.276087e+02  -8.803656e+01
  -2.843510e+01  -1.440643e+02
   6.679606e+01  -9.239054e+01
   1.019573e+02   3.779221e+01
   5.959490e+01   1.409063e+02
  -4.184903e+01   1.322338e+02
  -1.371103e+02   2.048395e+01
  -1.583598e+02  -1.026305e+02
  -8.284362e+01  -1.612746e+02
   2.648165e+01  -1.428368e+02
   8.792112e+01  -9.527649e+01
   8.899221e+01  -6.202764e+01
   9.479146e+01  -4.385865e+01
   1.703385e+02  -9.593996e+00
   2.406899e+02   7.179027e+01
   1.817710e+02   1.812956e+02
  -2.391756e+01   2.543825e+02
  -2.334004e+02   2.190890e+02
  -2.826905e+02   8.635031e+01
  -1.534253e+02  -6.439076e+01
   3.955865e+00  -1.356036e+02
   4.580303e+01  -9.770787e+01
  -1.531579e+01  -1.745002e+01
  -7.651096e+01   8.708959e+00
  -5.976298e+01  -3.258625e+01
   1.176225e+01  -7.688687e+01
   6.093531e+01  -5.210955e+01
   4.584010e+01   2.719845e+01
  -1.914956e+01   6.130137e+01
  -8.127772e+01  -9.744814e+00
  -7.800481e+01  -1.357795e+02
   1.457489e+01  -1.932185e+02
   1.434450e+02  -1.177826e+02
   2.147635e+02   4.298228e+01
   1.612034e+02   1.622451e+02
   2.401698e+01   1.603675e+02
  -8.208225e+01   7.332073e+01
  -8.185172e+01  -2.154148e+00
  -1.323925e+01  -3.028978e+00
   2.592445e+01   4.290309e+01
  -1.103938e+01   6.564262e+01
  -7.217762e+01   3.084184e+01
  -7.431257e+01  -2.139763e+01
  -7.185243e+00  -2.886507e+01
   4.947226e+01   1.814320e+01
   1.334966e+01   6.610675e+01
  -1.017122e+02   5.507421e+01
  -1.875962e+02  -2.270159e+01
  -1.483406e+02  -1.169823e+02
  -1.577288e+00  -1.621239e+02
   1.344151e+02  -1.282485e+02
   1.556152e+02  -4.273289e+01
   6.976686e+01   2.892641e+01
  -2.208104e+01   3.595262e+01
  -3.083469e+01  -9.541714e+00
   3.900957e+01  -4.173479e+01
   1.069883e+02  -9.282984e+00
   1.019274e+02   6.530601e+01
   2.632422e+01   1.060491e+02
  -5.265397e+01   7.085417e+01
  -6.858777e+01   1.536526e+00
  -1.905493e+01  -2.386588e+01
   3.168890e+01   1.960540e+01
   1.539163e+01   7.693448e+01
  -6.547044e+01   7.559668e+01
  -1.313143e+02   2.782795e+00
  -1.062921e+02  -8.599451e+01
  -9.926144e-01  -1.222927e+02
   9.256180e+01  -8.263445e+01
   9.614423e+01  -3.782835e+00
   2.519529e+01   5.196652e+01
  -3.857086e+01   5.004808e+01
  -3.738498e+01   1.009631e+01
   6.325362e+00  -1.594804e+01
   2.785934e+01  -2.229177e+00
  -4.941548e+00   2.133352e+01
  -5.932038e+01   4.534127e+00
  -6.882623e+01  -5.757284e+01
  -6.295543e+00  -1.095023e+02
   8.934062e+01  -9.085538e+01
   1.426584e+02  -6.242957e-01
   1.101605e+02   9.517843e+01
   1.808764e+01   1.297552e+02
  -5.922585e+01   8.965720e+01
  -7.350390e+01   1.933531e+01
  -4.356574e+01  -2.279426e+01
  -2.058373e+01  -1.477297e+01
  -3.339248e+01   9.568515e+00
  -5.533364e+01   5.869160e+00
  -3.890284e+01  -3.600085e+01
   2.169163e+01  -7.167311e+01
   7.805835e+01  -4.787769e+01
   7.170537e+01   2.605714e+01
  -8.294654e+00   8.147839e+01
  -1.005047e+02   5.424288e+01
  -1.212142e+02  -4.266111e+01
  -4.278099e+01  -1.296423e+02
   8.228435e+01  -1.269757e+02
   1.589722e+02  -4.007027e+01
   1.381548e+02   5.748061e+01
   5.200696e+01   9.916203e+01
  -2.531586e+01   7.886058e+01
  -5.060232e+01   4.533119e+01
  -3.891813e+01   3.959489e+01
  -3.240941e+01   5.540452e+01
  -5.289562e+01   4.707867e+01
  -7.858660e+01  -1.140597e+01
  -7.027532e+01  -9.146688e+01
  -1.343913e+01  -1.324369e+02
   6.138959e+01  -9.552320e+01
   1.000658e+02  -3.480312e+00
   7.194758e+01   7.641734e+01
   2.199576e+00   9.081003e+01
  -4.735129e+01   4.449584e+01
  -3.821163e+01  -1.216237e+01
   4.366761e+00  -3.466325e+01
   2.052910e+01  -2.180262e+01
  -1.270675e+01  -5.307631e+00
  -4.995622e+01  -8.885864e+00
  -2.995367e+01  -2.431498e+01
   4.569763e+01  -2.492465e+01
   1.057780e+02   2.485544e+00
   8.454778e+01   4.152723e+01
  -4.141004e+00   6.079097e+01
  -8.129021e+01   4.289294e+01
  -8.436222e+01   8.929087e-01
  -2.526898e+01  -3.136566e+01
   3.324301e+01  -2.661323e+01
   4.448171e+01   9.970747e+00
   1.323054e+01   4.299570e+01
  -2.431277e+01   3.946987e+01
  -4.144637e+01   2.228194e+00
  -3.784680e+01  -3.014870e+01
  -2.959098e+01  -2.684449e+01
  -3.086523e+01  -2.905170e+00
  -3.738530e+01  -2.933334e+00
  -2.776948e+01  -4.522362e+01
   1.528363e+01  -9.188327e+01
   7.715636e+01  -8.679435e+01
   1.110973e+02  -1.983098e+01
   7.969235e+01   5.665598e+01
   1.104780e+00   8.031468e+01
  -5.513590e+01   4.354362e+01
  -3.691264e+01  -4.412892e+00
   3.308742e+01  -1.177140e+01
   7.520571e+01   2.437351e+01
   3.758826e+01   6.221421e+01
  -5.055289e+01   6.154941e+01
  -1.087765e+02   2.047780e+01
  -8.721094e+01  -2.852287e+01
  -1.385205e+01  -4.973074e+01
   3.925150e+01  -3.180710e+01
   2.814157e+01   4.009539e+00
  -2.399427e+01   1.891982e+01
  -5.429267e+01  -1.088197e+01
  -2.435957e+01  -6.595720e+01
   4.332847e+01  -9.035954e+01
   8.921058e+01  -4.345667e+01
   7.370476e+01   4.990862e+01
   1.140682e+01   1.102750e+02
  -4.698835e+01   8.172910e+01
  -6.084954e+01  -7.490268e+00
  -3.035946e+01  -7.153037e+01
   1.180550e+01  -5.994614e+01
   3.313961e+01  -6.932964e+00
   2.535479e+01   2.082053e+01
   6.766097e+00   5.899407e+00
   2.835895e+00  -8.629509e+00
   1.952301e+01   1.352296e+01
   3.391131e+01   5.182554e+01
   1.571738e+01   5.938396e+01
  -3.525299e+01   2.416979e+01
  -7.816059e+01  -1.997097e+01
  -6.909176e+01  -3.918290e+01
  -1.114355e+01  -3.241992e+01
   4.362864e+01  -1.757042e+01
   4.876098e+01  -4.149032e+00
   1.243190e+01   7.401689e+00
  -1.713262e+01   1.261309e+01
  -1.127740e+01   6.492285e+00
   7.307894e+00  -2.653394e+00
  -5.657840e-01  -1.783588e+00
  -3.572759e+01   3.301837e+00
  -5.425416e+01  -9.825067e+00
  -1.829586e+01  -4.557799e+01
   5.563750e+01  -6.986420e+01
   1.075344e+02  -4.277099e+01
   9.237158e+01   2.926746e+01
   2.305555e+01   9.060662e+01
  -4.552556e+01   9.196890e+01
  -6.881279e+01   4.130958e+01
  -4.809959e+01  -9.540125e+00
  -1.682685e+01  -2.277880e+01
  -3.379091e+00  -9.318811e+00
  -9.374505e+00  -6.474390e+00
  -1.711394e+01  -2.946195e+01
  -9.304046e+00  -5.306988e+01
   1.648676e+01  -4.219367e+01
   4.413122e+01   6.111949e+00
   4.725786e+01   5.492743e+01
   1.221313e+01   6.218929e+01
  -3.957411e+01   2.156061e+01
  -6.112204e+01  -3.299203e+01
  -2.589641e+01  -5.849843e+01
   3.556587e+01  -4.018211e+01
   6.211505e+01   2.026896e+00
   2.936941e+01   3.549888e+01
  -1.969509e+01   3.953140e+01
  -2.614969e+01   1.823141e+01
   1.218324e+01  -5.178910e+00
   3.953704e+01  -6.440204e+00
   1.296123e+01   1.713570e+01
  -4.426781e+01   4.039243e+01
  -7.279699e+01   3.202150e+01
  -4.651989e+01  -1.026985e+01
   3.657154e+00  -5.116730e+01
   3.295664e+01  -5.152534e+01
   2.836455e+01  -1.152260e+01
   6.911247e+00   2.777077e+01
  -1.204334e+01   2.871708e+01
  -2.095627e+01  -4.061649e+00
  -1.698926e+01  -3.140857e+01
   1.181719e-01  -2.585700e+01
   2.043705e+01   9.803361e-01
   2.618058e+01   1.569036e+01
   1.299346e+01   5.323289e+00
  -3.306833e+00  -1.098458e+01
  -4.972003e+00  -7.546721e+00
   4.378189e+00   1.557367e+01
   4.172250e+00   3.063386e+01
  -1.272667e+01   1.649759e+01
  -2.596862e+01  -1.563707e+01
  -1.215763e+01  -3.236644e+01
   2.104261e+01  -1.629422e+01
   3.753713e+01   1.608800e+01
   1.313203e+01   3.338691e+01
  -3.309949e+01   2.181000e+01
  -5.537312e+01  -5.052021e+00
  -3.048442e+01  -2.519222e+01
   1.615393e+01  -2.861198e+01
   3.826958e+01  -1.869325e+01
   1.888825e+01  -4.439901e+00
  -1.310262e+01   4.193936e+00
  -1.785795e+01  -3.421810e-01
   1.098660e+01  -1.269785e+01
   4.091579e+01  -1.286410e+01
