
 $NMID
 id='ANONYMOUS ', fmtdat='(2E16.6)'
 volume=1.0
 tramp=1.0
 $END
   2.846288e+03  -6.974605e+01
   1.526227e+03   1.268329e+03
   1.077607e+02   1.567050e+03
  -8.940207e+02   1.176035e+03
  -8.209243e+02   4.079729e+02
  -2.489908e+02  -2.162642e+02
   3.063461e+02   3.700172e+01
   2.176860e+02   2.841825e+02
  -1.299549e+02   4.436386e+02
  -4.150838e+02   2.058076e+02
  -3.444992e+02  -3.121861e+02
  -4.761785e+01  -4.280873e+02
   1.397025e+02  -1.804622e+02
   1.364357e+02   2.663988e+02
  -1.016653e+02   3.373404e+02
  -2.623342e+02   1.443368e+02
  -2.287046e+02  -2.515882e+02
   2.856926e+01  -4.915297e+02
   2.562698e+02  -2.683109e+02
   3.160677e+02   1.006214e+02
   1.358821e+02   2.440764e+02
  -4.330937e+01   2.144526e+02
  -4.403225e+01   8.343653e+01
   1.167436e+02   1.427709e+02
   1.483083e+02   2.538219e+02
  -4.161120e+01   2.532130e+02
  -3.230817e+02   5.586473e+01
  -3.825743e+02  -1.954178e+02
  -1.516543e+02  -2.404197e+02
   2.045547e+02  -9.753863e+01
   3.139848e+02   1.122792e+02
   1.418395e+02   2.338951e+02
  -1.484294e+02   2.252122e+02
  -3.199528e+02   8.336145e+01
  -2.357795e+02  -8.184098e+01
  -8.027765e+01  -1.684500e+02
  -5.931618e-01  -1.011528e+02
  -5.658891e+01   3.266425e+01
  -1.448081e+02   6.321061e+01
  -1.127697e+02  -1.173777e+02
   1.464892e+01  -2.913604e+02
   1.375361e+02  -2.559094e+02
   1.645817e+02  -3.542743e+01
   6.857234e+01   1.370489e+02
  -6.328280e+01   4.369069e+01
  -7.565704e+01  -1.576985e+02
   7.899675e+01  -2.158652e+02
   2.789787e+02  -3.501434e+01
   3.210052e+02   2.221937e+02
   1.273278e+02   3.176541e+02
  -1.665413e+02   1.875279e+02
  -3.262536e+02  -8.649096e+00
  -2.370484e+02  -1.261483e+02
  -4.667022e+00  -1.269025e+02
   1.586360e+02  -7.414958e+01
   1.456401e+02  -2.333249e+01
   3.401213e+01  -6.358750e-01
  -1.760567e+01  -3.805053e+00
   4.646532e+01  -6.090237e+00
   1.219033e+02   2.895016e+01
   7.621317e+01   1.041087e+02
  -9.070136e+01   1.537787e+02
  -2.297581e+02   9.523705e+01
  -1.910055e+02  -7.203669e+01
   1.346556e+01  -2.330014e+02
   2.144770e+02  -2.504898e+02
   2.581576e+02  -9.670549e+01
   1.535186e+02   1.142640e+02
   3.409698e+01   2.313193e+02
  -6.339253e+00   2.113006e+02
   4.249922e-01   1.358022e+02
  -2.923223e+01   9.656752e+01
  -1.135342e+02   8.487952e+01
  -1.823231e+02   2.711429e+01
  -1.615364e+02  -8.976254e+01
  -5.234767e+01  -1.713570e+02
   7.126240e+01  -1.227786e+02
   1.263099e+02   3.602868e+01
   7.478961e+01   1.687763e+02
  -5.132160e+01   1.651231e+02
  -1.694872e+02   2.983582e+01
  -1.932104e+02  -1.259132e+02
  -1.047015e+02  -1.941170e+02
   2.528250e+01  -1.684470e+02
   9.379684e+01  -1.118797e+02
   9.787579e+01  -7.206257e+01
   1.135716e+02  -5.343549e+01
   2.029276e+02  -1.345326e+01
   2.797867e+02   7.756030e+01
   2.112774e+02   2.000365e+02
  -2.340226e+01   2.870234e+02
  -2.652025e+02   2.606105e+02
  -3.237417e+02   1.150942e+02
  -1.845704e+02  -6.920765e+01
  -4.804679e+00  -1.638907e+02
   5.746465e+01  -1.256064e+02
  -4.244763e+00  -2.880669e+01
  -7.889915e+01   1.396049e+01
  -7.112048e+01  -3.337346e+01
   5.451729e+00  -8.385056e+01
   6.875975e+01  -5.391519e+01
   5.697070e+01   3.528464e+01
  -2.040378e+01   7.322881e+01
  -9.855069e+01  -1.348659e+01
  -9.343161e+01  -1.594582e+02
   1.766575e+01  -2.261915e+02
   1.706683e+02  -1.386477e+02
   2.514247e+02   4.475230e+01
   1.885394e+02   1.856144e+02
   3.379285e+01   1.929458e+02
  -8.942242e+01   9.698926e+01
  -9.554419e+01   6.403957e+00
  -2.084128e+01  -3.460282e+00
   2.582483e+01   4.446443e+01
  -1.415783e+01   7.156576e+01
  -8.544382e+01   3.607795e+01
  -9.141264e+01  -2.154157e+01
  -1.461385e+01  -3.349063e+01
   5.637463e+01   1.363274e+01
   2.232207e+01   6.552249e+01
  -1.061547e+02   5.599187e+01
  -2.068120e+02  -2.570592e+01
  -1.675693e+02  -1.283022e+02
  -3.238195e+00  -1.799311e+02
   1.527383e+02  -1.449353e+02
   1.806447e+02  -5.043016e+01
   8.520878e+01   3.239685e+01
  -2.089958e+01   4.375905e+01
  -3.443566e+01  -5.627528e+00
   4.232888e+01  -4.370646e+01
   1.203800e+02  -9.627838e+00
   1.164842e+02   7.402989e+01
   3.136225e+01   1.216180e+02
  -5.978124e+01   8.448033e+01
  -8.072969e+01   6.914639e+00
  -2.680082e+01  -2.367882e+01
   2.982161e+01   2.095190e+01
   1.363837e+01   8.071408e+01
  -7.404015e+01   7.827897e+01
  -1.456718e+02  -9.135029e-01
  -1.172969e+02  -9.759864e+01
  -6.764985e-01  -1.384161e+02
   1.047892e+02  -9.659765e+01
   1.121919e+02  -8.445020e+00
   3.468193e+01   5.802760e+01
  -3.911885e+01   6.062608e+01
  -4.302575e+01   1.748398e+01
   3.287899e+00  -1.498189e+01
   2.868111e+01  -4.931943e+00
  -4.931028e+00   1.925084e+01
  -6.316949e+01   2.841300e+00
  -7.382217e+01  -6.296912e+01
  -4.864358e+00  -1.200415e+02
   1.019276e+02  -9.969785e+01
   1.611341e+02   1.429020e+00
   1.228149e+02   1.113147e+02
   1.885783e+01   1.507388e+02
  -6.820001e+01   1.012414e+02
  -8.514272e+01   1.885902e+01
  -5.002429e+01  -2.782204e+01
  -2.421209e+01  -1.692425e+01
  -3.924149e+01   1.228540e+01
  -6.198058e+01   5.602026e+00
  -4.188386e+01  -4.136500e+01
   2.780885e+01  -7.768087e+01
   8.971923e+01  -4.877845e+01
   7.764871e+01   3.498092e+01
  -1.790427e+01   9.340673e+01
  -1.224298e+02   5.961476e+01
  -1.433496e+02  -5.218705e+01
  -4.943785e+01  -1.503366e+02
   9.579984e+01  -1.492403e+02
   1.839637e+02  -5.020531e+01
   1.613776e+02   6.424334e+01
   6.267948e+01   1.141516e+02
  -2.856500e+01   9.218917e+01
  -5.933326e+01   5.346607e+01
  -4.589248e+01   4.704239e+01
  -3.861719e+01   6.432598e+01
  -6.033302e+01   5.411002e+01
  -8.797582e+01  -1.332713e+01
  -7.853639e+01  -1.059330e+02
  -1.572453e+01  -1.519076e+02
   6.745460e+01  -1.078079e+02
   1.114527e+02  -1.990937e+00
   8.065180e+01   8.780961e+01
   2.310481e+00   1.023889e+02
  -5.330093e+01   4.958812e+01
  -4.233961e+01  -1.387359e+01
   6.079993e+00  -3.911339e+01
   2.336926e+01  -2.567717e+01
  -1.605783e+01  -8.107317e+00
  -5.900568e+01  -1.155084e+01
  -3.490624e+01  -2.675032e+01
   5.445054e+01  -2.527946e+01
   1.247723e+02   5.734157e+00
   9.885095e+01   4.866909e+01
  -7.322538e+00   6.990828e+01
  -9.917823e+01   4.944146e+01
  -1.020412e+02   3.892676e-01
  -3.007442e+01  -3.790220e+01
   4.100505e+01  -3.209768e+01
   5.415852e+01   1.244702e+01
   1.582836e+01   5.224959e+01
  -3.014331e+01   4.679603e+01
  -5.030227e+01   1.136724e+00
  -4.457904e+01  -3.713837e+01
  -3.393415e+01  -3.222231e+01
  -3.499770e+01  -2.722211e+00
  -4.278444e+01  -1.692431e+00
  -3.160969e+01  -5.102030e+01
   1.802268e+01  -1.057127e+02
   8.961032e+01  -9.974036e+01
   1.285743e+02  -2.274937e+01
   9.147706e+01   6.527041e+01
  -2.566865e-01   9.237624e+01
  -6.539420e+01   5.008741e+01
  -4.328655e+01  -4.872807e+00
   3.959241e+01  -1.303264e+01
   9.017942e+01   2.883294e+01
   4.592306e+01   7.280681e+01
  -5.892941e+01   7.320914e+01
  -1.290822e+02   2.644752e+01
  -1.051400e+02  -3.116788e+01
  -1.915390e+01  -5.764169e+01
   4.396851e+01  -3.820918e+01
   3.158446e+01   3.489395e+00
  -2.870837e+01   2.116558e+01
  -6.334651e+01  -1.443959e+01
  -2.789359e+01  -7.979915e+01
   5.154211e+01  -1.080737e+02
   1.053295e+02  -5.090734e+01
   8.695396e+01   5.995540e+01
   1.387016e+01   1.303267e+02
  -5.461625e+01   9.570623e+01
  -7.145253e+01  -8.693924e+00
  -3.658687e+01  -8.269350e+01
   1.241030e+01  -6.997526e+01
   3.801488e+01  -1.010499e+01
   3.012619e+01   2.124111e+01
   9.361070e+00   5.379035e+00
   4.601182e+00  -8.806262e+00
   2.344201e+01   1.820892e+01
   3.946337e+01   6.204159e+01
   1.790494e+01   6.917007e+01
  -4.164661e+01   2.702670e+01
  -9.164854e+01  -2.493940e+01
  -8.114462e+01  -4.686022e+01
  -1.292731e+01  -3.776539e+01
   5.191737e+01  -1.912714e+01
   5.787462e+01  -3.429440e+00
   1.429787e+01   8.910493e+00
  -2.156400e+01   1.368270e+01
  -1.493817e+01   6.506145e+00
   7.668902e+00  -3.685061e+00
  -7.299528e-01  -3.335106e+00
  -4.205373e+01   1.090868e+00
  -6.333524e+01  -1.496948e+01
  -1.916071e+01  -5.534288e+01
   6.984367e+01  -8.131706e+01
   1.307668e+02  -4.837832e+01
   1.102002e+02   3.584558e+01
   2.579012e+01   1.076176e+02
  -5.512713e+01   1.096501e+02
  -8.109964e+01   5.008548e+01
  -5.595052e+01  -1.087192e+01
  -1.961656e+01  -2.740455e+01
  -4.327158e+00  -1.128498e+01
  -1.076067e+01  -7.103300e+00
  -1.916698e+01  -3.390869e+01
  -1.057314e+01  -6.225542e+01
   1.874354e+01  -4.986773e+01
   5.116545e+01   7.672793e+00
   5.552460e+01   6.615022e+01
   1.422573e+01   7.448026e+01
  -4.753532e+01   2.506872e+01
  -7.333095e+01  -4.056545e+01
  -3.085810e+01  -7.094512e+01
   4.314071e+01  -4.845052e+01
   7.496534e+01   2.948360e+00
   3.558794e+01   4.299761e+01
  -2.306302e+01   4.761965e+01
  -3.143004e+01   2.233474e+01
   1.327628e+01  -5.347681e+00
   4.521568e+01  -7.443831e+00
   1.406883e+01   1.859150e+01
  -5.237665e+01   4.452071e+01
  -8.408379e+01   3.473349e+01
  -5.182228e+01  -1.286409e+01
   7.367841e+00  -5.847769e+01
   4.081195e+01  -5.796103e+01
   3.375421e+01  -1.122309e+01
   7.224378e+00   3.461033e+01
  -1.539359e+01   3.516437e+01
  -2.566556e+01  -4.006910e+00
  -2.109141e+01  -3.696423e+01
  -1.165908e+00  -3.026179e+01
   2.254545e+01   1.731453e+00
   2.963171e+01   1.873779e+01
   1.482866e+01   4.798852e+00
  -3.686048e+00  -1.580203e+01
  -4.583173e+00  -1.042342e+01
   6.593364e+00   1.948578e+01
   5.182398e+00   3.868228e+01
  -1.595704e+01   2.044698e+01
  -3.191875e+01  -1.982798e+01
  -1.480284e+01  -4.031950e+01
   2.596868e+01  -1.995517e+01
   4.622259e+01   1.996828e+01
   1.684630e+01   4.048410e+01
  -3.896837e+01   2.640099e+01
  -6.620225e+01  -5.064897e+00
  -3.701949e+01  -2.834215e+01
   1.821862e+01  -3.270716e+01
   4.437934e+01  -2.219757e+01
   2.157183e+01  -6.170729e+00
  -1.612555e+01   3.615416e+00
  -2.149909e+01  -1.873019e+00
   1.324299e+01  -1.620448e+01
   4.971032e+01  -1.575606e+01
