
 $NMID
 id='ANONYMOUS ', fmtdat='(2E16.6)'
 volume=1.0
 tramp=1.0
 $END
   1.999601e+03   1.949593e+02
   1.393907e+03   7.091661e+02
   2.755579e+02   1.260984e+03
  -8.416668e+02   8.459651e+02
  -5.817709e+02   2.103795e+02
  -1.048879e+02  -1.029567e+02
   9.272233e+01   6.570536e+01
   1.989721e+01   2.150532e+02
  -2.319257e+02   2.692356e+02
  -2.531297e+02   9.497662e+01
  -2.195488e+02  -3.319141e+02
  -1.380933e+02  -4.033359e+02
   9.148581e+01  -1.420474e+02
   5.441908e+01   2.204302e+02
  -4.191257e+01   3.255392e+02
  -2.265273e+02   8.753446e+01
  -1.415548e+02  -2.907856e+02
   1.460122e+02  -3.833770e+02
   2.913357e+02  -2.187133e+02
   2.538373e+02   1.178642e+02
   8.879853e+01   2.065696e+02
  -6.871082e+01   1.735219e+02
  -8.412731e+00   8.064915e+01
   1.347291e+02   1.224561e+02
   1.223217e+02   2.167677e+02
  -5.950894e+01   1.863635e+02
  -2.889277e+02   1.086002e+01
  -2.999929e+02  -1.569089e+02
  -9.709500e+01  -2.062518e+02
   1.856699e+02  -7.009543e+01
   2.621811e+02   1.013191e+02
   1.048436e+02   2.078432e+02
  -1.598024e+02   1.841961e+02
  -2.859170e+02   7.372726e+01
  -1.794558e+02  -7.931647e+01
  -4.518209e+01  -1.458629e+02
  -1.727997e+00  -1.030707e+02
  -8.991984e+01   2.208172e+01
  -1.294723e+02   2.278558e+01
  -7.422645e+01  -1.256513e+02
   7.695121e+01  -2.646518e+02
   1.713671e+02  -2.202402e+02
   1.584177e+02  -8.133610e+00
   5.243987e+01   1.431738e+02
  -6.649936e+01   5.837159e+01
  -5.724141e+01  -1.276551e+02
   9.298215e+01  -1.885933e+02
   2.520351e+02  -1.523671e+01
   2.642080e+02   2.157395e+02
   8.649430e+01   2.892062e+02
  -1.716755e+02   1.650373e+02
  -2.952576e+02  -2.646677e+01
  -2.047679e+02  -1.316634e+02
   6.883413e+00  -1.220311e+02
   1.441784e+02  -5.715466e+01
   1.250442e+02  -6.420613e+00
   2.594092e+01  -2.050029e+00
  -1.082348e+01  -2.077044e+01
   5.634896e+01  -1.923333e+01
   1.246141e+02   3.070809e+01
   7.328878e+01   1.104579e+02
  -8.813709e+01   1.541511e+02
  -2.147906e+02   9.325039e+01
  -1.741567e+02  -6.278762e+01
   1.157491e+01  -2.095844e+02
   1.905491e+02  -2.244098e+02
   2.292744e+02  -8.283391e+01
   1.330679e+02   1.073901e+02
   2.069873e+01   2.095050e+02
  -2.096629e+01   1.874983e+02
  -1.411615e+01   1.155432e+02
  -3.234827e+01   7.413123e+01
  -9.571579e+01   5.984036e+01
  -1.478963e+02   1.322939e+01
  -1.301081e+02  -7.950549e+01
  -4.692212e+01  -1.451398e+02
   5.414905e+01  -1.034234e+02
   1.069370e+02   3.160992e+01
   7.575022e+01   1.504912e+02
  -3.404423e+01   1.495950e+02
  -1.485258e+02   3.064991e+01
  -1.769480e+02  -1.073305e+02
  -9.817613e+01  -1.707880e+02
   2.328299e+01  -1.456158e+02
   8.761080e+01  -9.627663e+01
   8.813323e+01  -6.200682e+01
   1.036158e+02  -4.730983e+01
   1.840466e+02  -7.558076e+00
   2.502509e+02   8.297779e+01
   1.803817e+02   1.946118e+02
  -3.738089e+01   2.642170e+02
  -2.503858e+02   2.295479e+02
  -2.991580e+02   9.418787e+01
  -1.669271e+02  -6.566137e+01
  -4.555751e+00  -1.461735e+02
   5.049484e+01  -1.135813e+02
  -8.724144e+00  -2.951670e+01
  -7.455007e+01   5.888147e+00
  -6.559812e+01  -3.725186e+01
   9.191272e+00  -8.019619e+01
   7.182003e+01  -5.025520e+01
   6.535810e+01   3.821571e+01
  -1.177994e+01   7.603202e+01
  -9.287728e+01  -1.944425e-01
  -9.765458e+01  -1.394996e+02
   2.288686e+00  -2.066733e+02
   1.481593e+02  -1.276526e+02
   2.268514e+02   4.174750e+01
   1.710626e+02   1.692005e+02
   2.728969e+01   1.690874e+02
  -8.506023e+01   7.750350e+01
  -8.755516e+01  -7.680080e-01
  -1.629855e+01  -1.546461e+00
   2.609226e+01   4.587703e+01
  -1.185682e+01   6.878527e+01
  -7.906554e+01   3.254941e+01
  -8.455327e+01  -2.081404e+01
  -1.408618e+01  -3.073321e+01
   4.877861e+01   1.440172e+01
   1.510806e+01   6.089693e+01
  -1.029743e+02   5.007562e+01
  -1.916511e+02  -2.743791e+01
  -1.514315e+02  -1.222375e+02
   4.905759e-01  -1.690085e+02
   1.424370e+02  -1.344299e+02
   1.657213e+02  -4.420217e+01
   7.574049e+01   3.296791e+01
  -2.219251e+01   4.096474e+01
  -3.327845e+01  -8.330071e+00
   4.107117e+01  -4.359311e+01
   1.139651e+02  -8.707788e+00
   1.080341e+02   7.039903e+01
   2.591753e+01   1.132315e+02
  -5.797150e+01   7.688671e+01
  -7.416866e+01   5.849969e+00
  -2.276977e+01  -1.965030e+01
   2.698401e+01   2.221256e+01
   8.756877e+00   7.528353e+01
  -7.223572e+01   6.831296e+01
  -1.352134e+02  -7.243868e+00
  -1.059963e+02  -9.502776e+01
   2.544842e+00  -1.274198e+02
   9.895099e+01  -8.413068e+01
   1.040385e+02  -2.827204e+00
   3.117620e+01   5.429940e+01
  -3.688461e+01   5.282497e+01
  -4.041910e+01   1.228819e+01
   2.232216e+00  -1.504188e+01
   2.557434e+01  -3.965535e+00
  -5.718806e+00   1.865997e+01
  -5.720384e+01   1.436014e+00
  -6.431939e+01  -6.120140e+01
   1.106109e+00  -1.125550e+02
   9.849711e+01  -9.051135e+01
   1.500183e+02   5.512310e+00
   1.117707e+02   1.064429e+02
   1.364278e+01   1.398112e+02
  -6.550442e+01   9.281083e+01
  -7.792449e+01   1.735178e+01
  -4.306677e+01  -2.467105e+01
  -2.032359e+01  -1.496696e+01
  -3.549803e+01   1.006912e+01
  -5.721819e+01   2.841449e+00
  -3.771646e+01  -3.839721e+01
   2.671502e+01  -6.878795e+01
   8.307213e+01  -3.962431e+01
   6.913141e+01   3.439233e+01
  -1.852238e+01   8.521676e+01
  -1.116859e+02   5.030660e+01
  -1.270777e+02  -5.189827e+01
  -3.984739e+01  -1.374392e+02
   8.977653e+01  -1.312385e+02
   1.660796e+02  -3.743213e+01
   1.427842e+02   6.430185e+01
   5.277238e+01   1.041768e+02
  -2.777920e+01   8.090461e+01
  -5.443441e+01   4.634940e+01
  -4.276531e+01   4.312653e+01
  -3.705389e+01   5.960996e+01
  -5.849526e+01   4.764126e+01
  -8.299715e+01  -1.659871e+01
  -7.011889e+01  -1.008758e+02
  -7.383503e+00  -1.395542e+02
   6.942064e+01  -9.547225e+01
   1.036551e+02   3.228683e+00
   6.869467e+01   8.456437e+01
  -3.975233e+00   9.466846e+01
  -5.064833e+01   4.294005e+01
  -3.699913e+01  -1.541575e+01
   7.179622e+00  -3.588955e+01
   2.112927e+01  -2.110580e+01
  -1.536509e+01  -5.567078e+00
  -5.364437e+01  -1.090060e+01
  -3.131828e+01  -2.568907e+01
   4.893077e+01  -2.322394e+01
   1.115948e+02   6.321725e+00
   8.760234e+01   4.490510e+01
  -7.880986e+00   6.213302e+01
  -8.953154e+01   4.244015e+01
  -9.030093e+01  -1.153852e+00
  -2.422056e+01  -3.419855e+01
   3.884212e+01  -2.810276e+01
   4.849035e+01   1.225822e+01
   1.251085e+01   4.828067e+01
  -2.842431e+01   4.267736e+01
  -4.468650e+01   8.894977e-01
  -3.861502e+01  -3.372571e+01
  -2.985889e+01  -2.803743e+01
  -3.318594e+01  -8.939378e-01
  -4.151581e+01  -2.182689e+00
  -2.991480e+01  -4.959090e+01
   1.839965e+01  -9.946435e+01
   8.507549e+01  -9.063523e+01
   1.192443e+02  -1.659224e+01
   8.207507e+01   6.377909e+01
  -3.154985e+00   8.471552e+01
  -6.137822e+01   4.227675e+01
  -3.917698e+01  -7.834485e+00
   3.727625e+01  -1.247363e+01
   8.288939e+01   2.729513e+01
   4.215104e+01   6.677978e+01
  -5.338159e+01   6.553633e+01
  -1.167800e+02   2.299206e+01
  -9.439228e+01  -2.795375e+01
  -1.564329e+01  -5.087344e+01
   4.108753e+01  -3.355974e+01
   2.823132e+01   3.331361e+00
  -2.777863e+01   1.842483e+01
  -5.864024e+01  -1.401104e+01
  -2.391723e+01  -7.280374e+01
   5.012460e+01  -9.663364e+01
   9.801395e+01  -4.350432e+01
   7.791936e+01   5.698595e+01
   8.772474e+00   1.189973e+02
  -5.248863e+01   8.551833e+01
  -6.415270e+01  -9.378419e+00
  -3.041825e+01  -7.499639e+01
   1.219970e+01  -6.147858e+01
   3.202389e+01  -6.869231e+00
   2.412492e+01   1.948718e+01
   7.967303e+00   2.760008e+00
   6.240754e+00  -1.056374e+01
   2.280090e+01   1.619015e+01
   3.497261e+01   5.829787e+01
   1.425323e+01   6.467773e+01
  -3.855204e+01   2.389799e+01
  -8.229282e+01  -2.530970e+01
  -7.179526e+01  -4.445940e+01
  -1.003435e+01  -3.336099e+01
   4.819428e+01  -1.466975e+01
   5.245258e+01  -8.952243e-01
   1.147255e+01   8.512420e+00
  -2.109456e+01   1.200725e+01
  -1.347980e+01   5.880572e+00
   8.340378e+00  -2.443191e+00
  -5.889756e-01  -1.356930e+00
  -4.047617e+01   2.447112e+00
  -6.043807e+01  -1.337504e+01
  -1.840953e+01  -5.144617e+01
   6.412142e+01  -7.506688e+01
   1.187251e+02  -4.359263e+01
   9.787063e+01   3.406726e+01
   2.044075e+01   9.799449e+01
  -5.165283e+01   9.702879e+01
  -7.330866e+01   4.136149e+01
  -4.965754e+01  -1.262538e+01
  -1.691477e+01  -2.526767e+01
  -2.936114e+00  -9.982674e+00
  -8.426004e+00  -7.270775e+00
  -1.555141e+01  -3.207333e+01
  -7.551962e+00  -5.657171e+01
   1.868296e+01  -4.310213e+01
   4.691234e+01   1.001679e+01
   4.924229e+01   6.204942e+01
   1.080514e+01   6.797658e+01
  -4.477425e+01   2.192557e+01
  -6.669510e+01  -3.765104e+01
  -2.739838e+01  -6.402138e+01
   3.891987e+01  -4.268037e+01
   6.603218e+01   3.204156e+00
   2.995204e+01   3.734683e+01
  -2.201257e+01   3.989411e+01
  -2.732283e+01   1.811534e+01
   1.430680e+01  -4.032699e+00
   4.217362e+01  -4.663755e+00
   1.162482e+01   1.710823e+01
  -4.979645e+01   3.749714e+01
  -7.712198e+01   2.798484e+01
  -4.490874e+01  -1.312984e+01
   1.068224e+01  -5.189532e+01
   3.968525e+01  -5.057944e+01
   3.042292e+01  -8.795102e+00
   4.836045e+00   3.147690e+01
  -1.477918e+01   3.118504e+01
  -2.264187e+01  -4.411931e+00
  -1.785259e+01  -3.319561e+01
  -3.373742e-01  -2.622698e+01
   2.033473e+01   2.681618e+00
   2.684744e+01   1.723531e+01
   1.363278e+01   3.890066e+00
  -2.905443e+00  -1.367014e+01
  -4.218062e+00  -7.550951e+00
   4.502811e+00   1.925455e+01
   2.416792e+00   3.499415e+01
  -1.659247e+01   1.687126e+01
  -2.915908e+01  -1.971158e+01
  -1.163641e+01  -3.723452e+01
   2.489582e+01  -1.747994e+01
   4.112809e+01   1.875333e+01
   1.298427e+01   3.607367e+01
  -3.631130e+01   2.178040e+01
  -5.831334e+01  -6.966498e+00
  -3.036446e+01  -2.619945e+01
   1.894500e+01  -2.769636e+01
   4.069041e+01  -1.742700e+01
   1.854980e+01  -4.300572e+00
  -1.586915e+01   3.001272e+00
  -2.011369e+01  -1.701128e+00
   1.174874e+01  -1.343315e+01
   4.433991e+01  -1.262490e+01
