
 $NMID
 id='ANONYMOUS ', fmtdat='(2E16.6)'
 volume=1.0
 tramp=1.0
 $END
  -1.672869e+03  -4.982409e+01
  -1.107283e+03  -5.754572e+02
  -1.795943e+02  -8.747049e+02
   7.421888e+02  -6.348845e+02
   6.451666e+02  -1.780170e+02
   1.029308e+02  -1.709436e+01
  -9.941716e+01   7.279718e+00
  -6.489454e+01  -1.596725e+02
   1.528428e+02  -1.557034e+02
   1.757300e+02  -1.435248e+01
   1.694061e+02   2.975490e+02
   8.926276e+01   3.412257e+02
  -8.656821e+01   1.170002e+02
  -1.039881e+02  -1.239734e+02
  -3.294619e+01  -3.018262e+02
   1.765346e+02  -8.735114e+01
   1.011223e+02   2.640581e+02
  -5.655127e+01   3.200847e+02
  -2.883791e+02   1.834170e+02
  -2.613667e+02  -7.901573e+01
  -6.733679e+01  -1.854900e+02
   5.970605e+01  -1.352651e+02
   2.033698e+01  -4.999038e+01
  -1.027670e+02  -8.480912e+01
  -1.358184e+02  -1.520853e+02
   5.199617e+01  -1.740979e+02
   2.267246e+02  -5.662597e+01
   2.420212e+02   1.220689e+02
   8.647378e+01   1.713581e+02
  -1.532845e+02   8.142810e+01
  -1.908311e+02  -5.318428e+01
  -8.451376e+01  -1.425658e+02
   1.151840e+02  -1.636293e+02
   2.111390e+02  -7.359950e+01
   1.302634e+02   3.282960e+01
   3.588599e+01   1.046611e+02
   5.320774e+00   7.318221e+01
   6.350479e+01   1.428046e+00
   1.140918e+02  -1.395708e+01
   6.171604e+01   7.441615e+01
  -3.295683e+01   1.756016e+02
  -1.177124e+02   1.432002e+02
  -1.082242e+02   8.965564e+00
  -2.431898e+01  -9.089439e+01
   5.271011e+01  -3.027010e+01
   4.063698e+01   1.072615e+02
  -6.037671e+01   1.554607e+02
  -1.923330e+02   2.364488e+01
  -2.004164e+02  -1.558106e+02
  -7.230136e+01  -2.193514e+02
   1.204265e+02  -1.335027e+02
   2.271244e+02   1.742318e+01
   1.665466e+02   9.996459e+01
   2.090321e+00   9.752845e+01
  -1.155840e+02   5.535978e+01
  -1.062892e+02   1.700825e+01
  -2.397052e+01   3.551606e+00
   1.451607e+01   7.444368e+00
  -3.359699e+01   1.004916e+01
  -9.382114e+01  -1.770309e+01
  -6.681881e+01  -7.745181e+01
   5.358631e+01  -1.209742e+02
   1.606253e+02  -8.287499e+01
   1.432337e+02   4.288245e+01
   5.075974e+00   1.724928e+02
  -1.390485e+02   1.940757e+02
  -1.803535e+02   8.041088e+01
  -1.189805e+02  -8.014722e+01
  -3.891579e+01  -1.698529e+02
  -2.494693e+00  -1.532696e+02
   3.224406e+00  -9.322426e+01
   2.347594e+01  -5.951022e+01
   7.142833e+01  -4.955976e+01
   1.125776e+02  -1.668118e+01
   1.049366e+02   5.296132e+01
   4.337413e+01   1.055741e+02
  -3.917105e+01   7.934363e+01
  -8.772406e+01  -1.611551e+01
  -6.664244e+01  -1.079622e+02
   2.206445e+01  -1.133621e+02
   1.135302e+02  -2.723575e+01
   1.413342e+02   7.628372e+01
   7.606463e+01   1.334869e+02
  -2.085355e+01   1.218065e+02
  -7.085140e+01   7.952233e+01
  -6.772238e+01   4.669171e+01
  -7.402041e+01   3.279263e+01
  -1.355590e+02   1.100113e+01
  -1.942069e+02  -4.401228e+01
  -1.506466e+02  -1.343715e+02
   8.464186e+00  -2.005730e+02
   1.757980e+02  -1.859605e+02
   2.206852e+02  -8.621102e+01
   1.305037e+02   4.233850e+01
   1.338614e+01   1.072409e+02
  -2.969859e+01   8.569917e+01
   6.369978e+00   2.023259e+01
   5.430342e+01  -8.316495e+00
   4.911683e+01   2.413456e+01
  -1.627458e+00   6.063154e+01
  -4.774364e+01   4.511119e+01
  -4.414543e+01  -1.726480e+01
   8.941139e+00  -5.193755e+01
   6.858906e+01  -2.169853e+00
   7.408087e+01   9.650602e+01
  -1.643773e+00   1.548283e+02
  -1.135634e+02   1.065383e+02
  -1.761528e+02  -1.610496e+01
  -1.345103e+02  -1.174048e+02
  -2.424528e+01  -1.294040e+02
   6.247740e+01  -6.788330e+01
   6.437439e+01  -5.423672e+00
   9.563925e+00   1.276143e+00
  -2.384845e+01  -3.112855e+01
   4.436554e+00  -5.009962e+01
   5.777425e+01  -2.736592e+01
   6.632542e+01   1.166726e+01
   1.523326e+01   2.189173e+01
  -3.574539e+01  -7.292684e+00
  -1.670961e+01  -4.164299e+01
   6.958322e+01  -3.961334e+01
   1.406623e+02   1.047190e+01
   1.175091e+02   8.028756e+01
   7.097670e+00   1.224395e+02
  -9.999582e+01   1.064212e+02
  -1.202786e+02   4.192168e+01
  -5.570533e+01  -2.106765e+01
   1.750843e+01  -3.380109e+01
   2.717432e+01   3.365447e+00
  -2.794885e+01   3.706521e+01
  -8.632460e+01   1.768207e+01
  -8.767484e+01  -4.351742e+01
  -2.883071e+01  -8.403923e+01
   3.768528e+01  -6.418479e+01
   5.511166e+01  -1.188824e+01
   1.845904e+01   1.248260e+01
  -2.137136e+01  -1.541033e+01
  -1.016605e+01  -5.700697e+01
   5.190225e+01  -5.714753e+01
   1.038062e+02  -3.636766e+00
   8.611064e+01   6.530797e+01
   5.777339e+00   9.721345e+01
  -6.945134e+01   7.025583e+01
  -7.813995e+01   9.643000e+00
  -2.692513e+01  -3.781248e+01
   2.455377e+01  -4.211153e+01
   2.965232e+01  -1.254355e+01
  -3.612647e-01   1.129540e+01
  -1.864745e+01   5.303074e+00
   2.493708e+00  -1.215682e+01
   4.161149e+01  -2.875604e+00
   5.057059e+01   4.233021e+01
   5.453577e+00   8.481053e+01
  -6.815731e+01   7.373933e+01
  -1.134225e+02   4.854765e+00
  -9.113741e+01  -7.373863e+01
  -1.929726e+01  -1.056644e+02
   4.384898e+01  -7.455972e+01
   5.876810e+01  -1.833212e+01
   3.470583e+01   1.620735e+01
   1.656074e+01   9.783237e+00
   2.822364e+01  -9.656932e+00
   4.536058e+01  -4.361587e+00
   3.183064e+01   2.836347e+01
  -1.811955e+01   5.407570e+01
  -6.228511e+01   3.438976e+01
  -5.417272e+01  -2.459226e+01
   1.092100e+01  -6.664775e+01
   8.482274e+01  -4.419093e+01
   1.011247e+02   3.472167e+01
   3.871454e+01   1.044384e+02
  -6.123358e+01   1.056863e+02
  -1.257108e+02   3.878861e+01
  -1.135860e+02  -4.056859e+01
  -4.585540e+01  -7.759115e+01
   1.753612e+01  -6.395904e+01
   3.921579e+01  -3.902019e+01
   2.976970e+01  -3.406450e+01
   2.413215e+01  -4.550113e+01
   4.219350e+01  -3.985775e+01
   6.511581e+01   5.654003e+00
   6.015655e+01   7.116078e+01
   1.442825e+01   1.069808e+02
  -4.755901e+01   7.956168e+01
  -8.083453e+01   5.444300e+00
  -5.938927e+01  -6.063233e+01
  -3.233867e+00  -7.383034e+01
   3.723408e+01  -3.659301e+01
   3.038129e+01   9.699532e+00
  -3.201377e+00   2.804716e+01
  -1.575428e+01   1.728106e+01
   1.067893e+01   3.363894e+00
   4.025251e+01   5.968680e+00
   2.449605e+01   1.882374e+01
  -3.582302e+01   2.064596e+01
  -8.409494e+01   4.305703e-01
  -6.795264e+01  -3.094479e+01
   2.352324e+00  -4.885624e+01
   6.433580e+01  -3.683592e+01
   6.797296e+01  -1.934473e+00
   2.095219e+01   2.739145e+01
  -2.706001e+01   2.499757e+01
  -3.801205e+01  -7.444154e+00
  -1.379066e+01  -3.809133e+01
   1.784195e+01  -3.533394e+01
   3.350493e+01  -2.732032e+00
   3.105295e+01   2.523555e+01
   2.386362e+01   2.086617e+01
   2.459707e+01  -1.244854e+00
   3.038487e+01  -1.745161e+00
   2.452556e+01   3.458153e+01
  -9.134384e+00   7.495110e+01
  -5.992040e+01   7.194772e+01
  -8.956393e+01   1.747438e+01
  -6.566155e+01  -4.509738e+01
  -1.919106e+00  -6.488512e+01
   4.527181e+01  -3.589213e+01
   3.137002e+01   3.359544e+00
  -2.591848e+01   1.095885e+01
  -6.239562e+01  -1.688838e+01
  -3.394573e+01  -4.822948e+01
   3.709440e+01  -5.102814e+01
   8.495593e+01  -2.084941e+01
   6.998784e+01   1.831667e+01
   1.294170e+01   3.757742e+01
  -2.910248e+01   2.473051e+01
  -2.042162e+01  -4.524932e+00
   2.078468e+01  -1.712003e+01
   4.534920e+01   8.325224e+00
   2.191815e+01   5.528114e+01
  -3.294507e+01   7.642566e+01
  -7.189516e+01   3.754461e+01
  -6.176902e+01  -3.963692e+01
  -1.231015e+01  -8.958294e+01
   3.554041e+01  -6.701474e+01
   4.847432e+01   3.885326e+00
   2.598698e+01   5.445422e+01
  -6.463621e+00   4.599871e+01
  -2.320960e+01   6.073386e+00
  -1.784287e+01  -1.367542e+01
  -4.837104e+00  -1.191819e+00
  -3.547651e+00   9.141655e+00
  -1.819555e+01  -1.012991e+01
  -3.010137e+01  -4.177885e+01
  -1.480986e+01  -4.829015e+01
   2.777553e+01  -2.073959e+01
   6.394196e+01   1.434937e+01
   5.695052e+01   3.023175e+01
   9.330228e+00   2.584587e+01
  -3.564351e+01   1.456116e+01
  -3.939921e+01   3.672055e+00
  -9.246165e+00  -6.301281e+00
   1.462211e+01  -1.036941e+01
   9.158741e+00  -4.574156e+00
  -6.417077e+00   3.084535e+00
   5.221165e-01   1.281891e+00
   2.962031e+01  -4.276432e+00
   4.474269e+01   6.313946e+00
   1.547361e+01   3.724129e+01
  -4.429815e+01   5.925282e+01
  -8.628632e+01   3.777824e+01
  -7.479695e+01  -2.200428e+01
  -2.014891e+01  -7.358638e+01
   3.457011e+01  -7.566832e+01
   5.429385e+01  -3.440170e+01
   3.908403e+01   7.586595e+00
   1.432269e+01   1.893267e+01
   2.630648e+00   8.176767e+00
   6.592295e+00   5.493562e+00
   1.329411e+01   2.344449e+01
   8.288159e+00   4.230634e+01
  -1.233311e+01   3.395208e+01
  -3.635973e+01  -4.455927e+00
  -4.066462e+01  -4.414420e+01
  -1.170025e+01  -5.091457e+01
   3.286208e+01  -1.865796e+01
   5.207534e+01   2.555640e+01
   2.298174e+01   4.729768e+01
  -2.873567e+01   3.348384e+01
  -5.112580e+01  -4.298717e-01
  -2.418224e+01  -2.783942e+01
   1.570976e+01  -3.173683e+01
   2.056889e+01  -1.482596e+01
  -1.048885e+01   4.146671e+00
  -3.184821e+01   5.552624e+00
  -9.549260e+00  -1.334888e+01
   3.619024e+01  -3.217614e+01
   5.760333e+01  -2.538322e+01
   3.527537e+01   8.818468e+00
  -4.843891e+00   4.155704e+01
  -2.752386e+01   4.129152e+01
  -2.343790e+01   7.810131e+00
  -6.053671e+00  -2.474949e+01
   9.963751e+00  -2.514132e+01
   1.827206e+01   2.160392e+00
   1.556063e+01   2.518285e+01
   1.138443e+00   2.087261e+01
  -1.604845e+01  -6.187606e-01
  -2.101781e+01  -1.213584e+01
  -1.008964e+01  -2.746986e+00
   2.581627e+00   1.080392e+01
   2.474787e+00   6.407713e+00
  -5.557348e+00  -1.466366e+01
  -3.717568e+00  -2.774466e+01
   1.236749e+01  -1.506290e+01
   2.395693e+01   1.330227e+01
   1.108087e+01   2.840752e+01
  -1.816057e+01   1.474008e+01
  -3.210518e+01  -1.267987e+01
  -1.105204e+01  -2.732251e+01
   2.758081e+01  -1.833326e+01
   4.534621e+01   3.070564e+00
   2.421350e+01   1.953674e+01
  -1.370902e+01   2.338349e+01
  -3.090348e+01   1.583129e+01
  -1.452193e+01   3.383488e+00
   1.149458e+01  -4.657622e+00
   1.556535e+01  -3.013454e-01
  -7.598286e+00   1.184693e+01
  -3.273030e+01   1.305387e+01
