
 $NMID
 id='ANONYMOUS ', fmtdat='(2E16.6)'
 volume=1.0
 tramp=1.0
 $END
  -2.321591e+03   1.101232e+02
  -9.741516e+02  -9.162701e+02
  -2.035831e+02  -1.113688e+03
   7.051443e+02  -9.270198e+02
   4.841239e+02  -2.369231e+02
   2.213677e+02   1.826235e+02
  -2.381440e+02   2.930631e+01
  -5.565168e+01  -2.173871e+02
   1.593297e+02  -2.252387e+02
   2.289223e+02  -7.627346e+01
   2.066559e+02   1.851118e+02
   9.799341e+01   3.253675e+02
  -1.172645e+02   1.766937e+02
  -1.678668e+02  -1.374962e+02
   3.720782e+01  -2.008257e+02
   1.576124e+02  -1.152304e+02
   1.793511e+02   2.204854e+02
   1.626026e+01   3.261404e+02
  -2.053710e+02   1.719132e+02
  -2.520735e+02  -5.635486e+01
  -1.386309e+02  -1.967822e+02
   7.019436e+00  -1.594900e+02
   3.383336e+01  -8.792603e+01
  -6.241407e+01  -7.384113e+01
  -9.787060e+01  -1.559319e+02
   2.811029e+01  -1.620276e+02
   2.103210e+02  -6.465299e+01
   2.585832e+02   1.027545e+02
   1.061047e+02   1.733135e+02
  -1.347570e+02   7.978741e+01
  -2.107928e+02  -6.828318e+01
  -1.129587e+02  -1.644922e+02
   9.046460e+01  -1.449419e+02
   2.078012e+02  -5.783924e+01
   1.509317e+02   4.365284e+01
   6.905456e+01   1.090394e+02
   9.546782e+00   7.305126e+01
   4.681029e+01   1.573237e+00
   6.957624e+01  -2.436188e+01
   5.778914e+01   6.493775e+01
  -2.634663e+00   1.661743e+02
  -8.270688e+01   1.688915e+02
  -1.052553e+02   2.304453e+01
  -3.901240e+01  -7.368118e+01
   4.052917e+01  -2.228038e+01
   4.985051e+01   1.014345e+02
  -4.310331e+01   1.367460e+02
  -1.857722e+02   2.413332e+01
  -2.173623e+02  -1.331945e+02
  -9.327065e+01  -2.057523e+02
   9.958477e+01  -1.290613e+02
   2.138331e+02  -6.429707e+00
   1.700056e+02   7.136731e+01
   2.104227e+01   8.452476e+01
  -9.801574e+01   6.032061e+01
  -1.048394e+02   2.950131e+01
  -3.674235e+01   7.773141e+00
   4.060621e+00  -3.274510e-01
  -3.073718e+01  -1.315264e+00
  -8.357771e+01  -1.914754e+01
  -6.231863e+01  -7.052020e+01
   4.860864e+01  -1.182899e+02
   1.548272e+02  -9.162387e+01
   1.468279e+02   2.842586e+01
   1.869491e+01   1.624988e+02
  -1.239285e+02   1.935511e+02
  -1.726938e+02   8.744475e+01
  -1.201903e+02  -6.912426e+01
  -4.360443e+01  -1.581815e+02
  -6.734822e+00  -1.452992e+02
  -2.021604e+00  -9.323110e+01
   1.889812e+01  -6.825870e+01
   6.903663e+01  -6.333061e+01
   1.132353e+02  -2.834107e+01
   1.075176e+02   4.815917e+01
   4.588523e+01   1.064086e+02
  -3.592073e+01   8.213791e+01
  -8.409448e+01  -1.548135e+01
  -6.246944e+01  -1.044929e+02
   1.755179e+01  -1.149257e+02
   1.086434e+02  -3.785367e+01
   1.418170e+02   5.964418e+01
   8.871015e+01   1.177238e+02
  -2.436212e+00   1.204152e+02
  -6.149142e+01   9.074027e+01
  -6.813876e+01   5.945943e+01
  -7.721092e+01   3.700039e+01
  -1.333901e+02   1.105433e+01
  -1.925309e+02  -4.618558e+01
  -1.544951e+02  -1.309340e+02
  -1.378389e-01  -1.998700e+02
   1.709963e+02  -1.901684e+02
   2.246218e+02  -8.963846e+01
   1.366134e+02   4.198648e+01
   1.316493e+01   1.116532e+02
  -3.642826e+01   8.930235e+01
   1.397713e+00   2.228430e+01
   4.919751e+01  -8.750578e+00
   4.541015e+01   2.106744e+01
  -1.342641e+00   5.290337e+01
  -4.160835e+01   3.553197e+01
  -3.549651e+01  -2.376037e+01
   1.283476e+01  -4.936330e+01
   6.610864e+01   4.707202e+00
   6.953391e+01   1.033843e+02
   2.733043e-01   1.559525e+02
  -1.095207e+02   1.042423e+02
  -1.742553e+02  -1.945875e+01
  -1.379536e+02  -1.199943e+02
  -2.965651e+01  -1.315379e+02
   6.030334e+01  -7.045155e+01
   6.740564e+01  -5.991800e+00
   1.403109e+01   4.455715e+00
  -2.245520e+01  -2.784731e+01
   3.123115e+00  -4.997269e+01
   5.483928e+01  -3.069326e+01
   6.477977e+01   9.087371e+00
   1.466109e+01   2.271572e+01
  -3.751494e+01  -5.748749e+00
  -2.023896e+01  -4.416268e+01
   6.858214e+01  -4.593003e+01
   1.455155e+02   5.820455e+00
   1.259182e+02   8.075830e+01
   1.379005e+01   1.275405e+02
  -9.993429e+01   1.125269e+02
  -1.265100e+02   4.713126e+01
  -6.472807e+01  -1.839199e+01
   9.852775e+00  -3.520353e+01
   2.398892e+01  -2.447083e+00
  -2.584447e+01   2.948984e+01
  -8.092581e+01   1.243650e+01
  -8.343960e+01  -4.330787e+01
  -2.829364e+01  -8.056258e+01
   3.622417e+01  -6.092504e+01
   5.491434e+01  -9.961673e+00
   1.933533e+01   1.368627e+01
  -2.311910e+01  -1.331608e+01
  -1.580728e+01  -5.548712e+01
   4.492546e+01  -5.891726e+01
   9.971574e+01  -9.124881e+00
   8.706982e+01   5.809518e+01
   9.793322e+00   9.243712e+01
  -6.481381e+01   7.042109e+01
  -7.539421e+01   1.148821e+01
  -2.576038e+01  -3.757755e+01
   2.556454e+01  -4.309941e+01
   3.032432e+01  -1.255574e+01
  -1.288166e+00   1.332390e+01
  -2.165803e+01   7.026084e+00
  -6.212462e-01  -1.422135e+01
   4.146071e+01  -7.877540e+00
   5.448809e+01   3.801704e+01
   1.082082e+01   8.240879e+01
  -6.404424e+01   7.438307e+01
  -1.108642e+02   7.339279e+00
  -9.049523e+01  -6.987266e+01
  -2.142199e+01  -1.013110e+02
   4.050587e+01  -7.267080e+01
   5.649500e+01  -1.883906e+01
   3.527910e+01   1.478441e+01
   1.802212e+01   9.856360e+00
   2.620301e+01  -9.776271e+00
   4.186583e+01  -6.340881e+00
   3.217442e+01   2.585074e+01
  -1.318973e+01   5.435434e+01
  -5.782608e+01   3.753281e+01
  -5.614549e+01  -1.955652e+01
   5.296442e+00  -6.522206e+01
   8.071426e+01  -4.749876e+01
   1.036681e+02   2.946452e+01
   4.327344e+01   1.016337e+02
  -5.731593e+01   1.068051e+02
  -1.239004e+02   4.315892e+01
  -1.140607e+02  -3.589293e+01
  -4.894822e+01  -7.470279e+01
   1.448646e+01  -6.282983e+01
   3.762591e+01  -3.835241e+01
   2.823987e+01  -3.422488e+01
   2.247139e+01  -4.675271e+01
   3.843473e+01  -4.239659e+01
   6.158641e+01   2.157645e+00
   6.086967e+01   6.726568e+01
   2.038700e+01   1.044364e+02
  -3.959197e+01   7.993986e+01
  -7.607049e+01   8.927508e+00
  -6.026916e+01  -5.571699e+01
  -7.266991e+00  -7.053395e+01
   3.450657e+01  -3.619199e+01
   3.062623e+01   8.673839e+00
  -2.500386e+00   2.816726e+01
  -1.683691e+01   1.877293e+01
   9.225541e+00   3.988452e+00
   4.101733e+01   4.509846e+00
   2.725974e+01   1.662579e+01
  -3.409683e+01   2.046904e+01
  -8.549323e+01   2.704187e+00
  -7.094619e+01  -2.794940e+01
   7.234319e-01  -4.737945e+01
   6.497877e+01  -3.768911e+01
   6.939798e+01  -4.806432e+00
   2.211040e+01   2.448253e+01
  -2.632539e+01   2.430021e+01
  -3.753474e+01  -5.222161e+00
  -1.407700e+01  -3.472837e+01
   1.708867e+01  -3.386223e+01
   3.350453e+01  -3.787946e+00
   3.244485e+01   2.319934e+01
   2.550205e+01   2.087531e+01
   2.431749e+01   5.120931e-02
   2.893671e+01  -1.323257e+00
   2.386188e+01   3.358591e+01
  -7.183182e+00   7.439268e+01
  -5.659621e+01   7.411667e+01
  -8.778293e+01   2.183148e+01
  -6.704766e+01  -4.167141e+01
  -5.127743e+00  -6.511247e+01
   4.286320e+01  -3.786418e+01
   3.117803e+01   2.142713e+00
  -2.531806e+01   1.196971e+01
  -6.298608e+01  -1.498710e+01
  -3.599524e+01  -4.779313e+01
   3.581759e+01  -5.263719e+01
   8.663979e+01  -2.352508e+01
   7.345741e+01   1.663773e+01
   1.522113e+01   3.802182e+01
  -2.948351e+01   2.754458e+01
  -2.287127e+01  -1.254783e+00
   1.829613e+01  -1.619132e+01
   4.481447e+01   6.016266e+00
   2.396316e+01   5.231656e+01
  -2.938219e+01   7.610680e+01
  -6.997210e+01   4.067578e+01
  -6.373836e+01  -3.612779e+01
  -1.709783e+01  -8.878551e+01
   3.251911e+01  -6.892486e+01
   4.988304e+01   1.918826e+00
   2.958126e+01   5.451603e+01
  -5.289940e+00   4.779771e+01
  -2.606846e+01   7.394810e+00
  -2.154644e+01  -1.452023e+01
  -5.911395e+00  -3.917907e+00
  -1.787698e+00   6.526429e+00
  -1.595228e+01  -1.047245e+01
  -2.910530e+01  -3.986758e+01
  -1.483102e+01  -4.645210e+01
   2.708324e+01  -2.103648e+01
   6.284142e+01   1.219896e+01
   5.655478e+01   2.820515e+01
   1.059031e+01   2.561578e+01
  -3.352971e+01   1.565877e+01
  -3.867589e+01   4.586743e+00
  -1.029271e+01  -6.130020e+00
   1.382857e+01  -1.055226e+01
   1.036181e+01  -4.963552e+00
  -4.438730e+00   2.989057e+00
   4.353036e-01   1.801671e+00
   2.769054e+01  -3.310329e+00
   4.368072e+01   6.946764e+00
   1.695860e+01   3.691713e+01
  -4.193066e+01   5.883428e+01
  -8.613653e+01   3.902887e+01
  -7.763440e+01  -1.961771e+01
  -2.368020e+01  -7.243177e+01
   3.254038e+01  -7.746556e+01
   5.423192e+01  -3.788314e+01
   4.010476e+01   4.848476e+00
   1.558419e+01   1.762277e+01
   3.974724e+00   7.528514e+00
   8.221396e+00   4.747381e+00
   1.554994e+01   2.317939e+01
   1.091151e+01   4.316632e+01
  -1.039907e+01   3.613203e+01
  -3.616518e+01  -1.620297e+00
  -4.223895e+01  -4.147175e+01
  -1.407855e+01  -5.001320e+01
   3.120585e+01  -2.013791e+01
   5.230080e+01   2.344054e+01
   2.455000e+01   4.718576e+01
  -2.748479e+01   3.601576e+01
  -5.174292e+01   2.037579e+00
  -2.655620e+01  -2.811308e+01
   1.376690e+01  -3.414335e+01
   2.088651e+01  -1.632301e+01
  -8.895280e+00   5.333360e+00
  -3.143051e+01   7.808517e+00
  -1.193082e+01  -1.261782e+01
   3.277209e+01  -3.417064e+01
   5.658597e+01  -2.896277e+01
   3.795388e+01   5.297979e+00
  -5.818265e-01   4.003345e+01
  -2.443766e+01   4.254557e+01
  -2.257009e+01   1.098264e+01
  -6.604701e+00  -2.184363e+01
   9.227802e+00  -2.447656e+01
   1.801734e+01   1.373378e+00
   1.590382e+01   2.466618e+01
   1.420465e+00   2.171682e+01
  -1.603299e+01   8.341656e-01
  -2.159021e+01  -1.108143e+01
  -1.033476e+01  -2.477848e+00
   3.121486e+00   1.130191e+01
   2.578948e+00   7.925594e+00
  -7.520695e+00  -1.298826e+01
  -7.474267e+00  -2.763911e+01
   9.311061e+00  -1.694855e+01
   2.369734e+01   1.044649e+01
   1.359052e+01   2.657547e+01
  -1.590508e+01   1.539605e+01
  -3.252790e+01  -1.090559e+01
  -1.335189e+01  -2.705858e+01
   2.592878e+01  -2.052387e+01
   4.612009e+01   2.732175e-01
   2.701255e+01   1.878642e+01
  -1.101439e+01   2.512023e+01
  -3.000911e+01   1.854248e+01
  -1.599675e+01   4.916844e+00
   9.079690e+00  -4.800923e+00
   1.395045e+01  -1.206921e+00
  -7.420519e+00   1.127561e+01
  -3.150691e+01   1.315359e+01
