
 $NMID
 id='ANONYMOUS ', fmtdat='(2E16.6)'
 volume=1.0
 tramp=1.0
 $END
   2.475753e+03   2.351238e+02
   1.702358e+03   1.064273e+03
   1.294496e+02   1.343171e+03
  -1.104401e+03   1.198191e+03
  -6.966716e+02   6.560053e+02
  -5.658045e+01  -6.216748e+00
   1.286333e+02  -1.127779e+02
   8.713565e+01   2.554202e+02
  -2.081676e+02   4.602755e+02
  -4.102393e+02   1.370183e+02
  -3.367173e+02  -3.717512e+02
  -3.178418e+01  -4.781750e+02
   6.533071e+01  -2.563331e+02
   1.417887e+02   2.422922e+02
  -5.526498e+01   3.665450e+02
  -2.414945e+02   8.270834e+01
  -2.671508e+02  -3.758044e+02
   2.266321e+00  -5.493562e+02
   3.127494e+02  -2.918771e+02
   3.872670e+02   1.059413e+02
   1.346045e+02   2.341099e+02
  -7.438000e+01   1.401145e+02
  -2.057412e+01   8.215378e+01
   1.292122e+02   1.602443e+02
   1.641579e+02   3.118428e+02
  -7.055391e+01   2.436922e+02
  -3.880169e+02   3.042926e+01
  -4.179474e+02  -1.977768e+02
  -1.467063e+02  -2.329149e+02
   2.376826e+02  -7.805904e+01
   3.245352e+02   1.243378e+02
   1.265690e+02   2.277744e+02
  -2.057798e+02   2.215882e+02
  -3.488325e+02   9.003990e+01
  -2.472524e+02  -8.049501e+01
  -9.116591e+01  -1.902529e+02
  -2.124566e+01  -1.311424e+02
  -7.790516e+01   1.549712e+01
  -1.342056e+02   5.090216e+01
  -9.725480e+01  -1.399207e+02
   4.184064e+01  -3.170408e+02
   1.724318e+02  -2.662112e+02
   1.707720e+02   4.940673e+00
   4.983018e+01   1.792598e+02
  -7.799902e+01   5.877605e+01
  -9.063224e+01  -1.855271e+02
   8.883661e+01  -2.489371e+02
   3.179193e+02  -2.797513e+01
   3.651259e+02   2.685431e+02
   1.344583e+02   3.647719e+02
  -2.089219e+02   2.071299e+02
  -3.877688e+02  -2.242364e+01
  -2.728725e+02  -1.547824e+02
  -1.716695e-01  -1.445763e+02
   1.806910e+02  -7.861848e+01
   1.582926e+02  -2.679559e+01
   3.648310e+01  -1.202845e+01
  -8.124515e+00  -2.221349e+01
   7.316022e+01  -2.035178e+01
   1.577392e+02   3.661785e+01
   9.699235e+01   1.413000e+02
  -1.056448e+02   2.072778e+02
  -2.742124e+02   1.322431e+02
  -2.317723e+02  -8.053751e+01
   9.247133e+00  -2.817394e+02
   2.479377e+02  -2.991531e+02
   2.980967e+02  -1.086649e+02
   1.702269e+02   1.367999e+02
   2.904737e+01   2.606811e+02
  -8.557573e+00   2.291707e+02
   1.185062e+01   1.489756e+02
  -2.233087e+01   1.156177e+02
  -1.300235e+02   1.031650e+02
  -2.160837e+02   2.567393e+01
  -1.880304e+02  -1.177598e+02
  -5.514651e+01  -2.097460e+02
   8.869423e+01  -1.448997e+02
   1.532091e+02   4.654382e+01
   9.556702e+01   2.022644e+02
  -4.990812e+01   1.938378e+02
  -1.936319e+02   3.373801e+01
  -2.293096e+02  -1.453263e+02
  -1.279954e+02  -2.248886e+02
   2.631972e+01  -1.934286e+02
   1.089421e+02  -1.248239e+02
   1.107421e+02  -8.343317e+01
   1.326260e+02  -6.823032e+01
   2.350926e+02  -2.451290e+01
   3.314814e+02   8.803456e+01
   2.487848e+02   2.427950e+02
  -2.942880e+01   3.510147e+02
  -3.132146e+02   3.113478e+02
  -3.808708e+02   1.277023e+02
  -2.122683e+02  -8.962282e+01
  -1.296586e+00  -1.882135e+02
   6.507750e+01  -1.355564e+02
  -1.331520e+01  -2.332477e+01
  -9.854081e+01   1.299472e+01
  -8.205786e+01  -4.641633e+01
   1.114653e+01  -9.935248e+01
   8.388778e+01  -5.812283e+01
   6.577499e+01   4.714924e+01
  -2.840357e+01   8.859483e+01
  -1.207357e+02  -1.036985e+01
  -1.158757e+02  -1.827145e+02
   1.375143e+01  -2.674724e+02
   1.967093e+02  -1.668055e+02
   2.930047e+02   5.145004e+01
   2.190964e+02   2.180458e+02
   3.440917e+01   2.211556e+02
  -1.086458e+02   1.017227e+02
  -1.097713e+02  -2.615844e+00
  -1.701392e+01  -2.822365e+00
   3.625817e+01   6.167657e+01
  -1.651336e+01   8.951731e+01
  -1.042169e+02   3.997285e+01
  -1.101653e+02  -3.009157e+01
  -1.472296e+01  -4.075886e+01
   7.053205e+01   1.933470e+01
   2.699649e+01   8.320273e+01
  -1.308760e+02   7.413600e+01
  -2.537611e+02  -2.398408e+01
  -2.058049e+02  -1.518135e+02
  -7.080962e+00  -2.204960e+02
   1.810456e+02  -1.802674e+02
   2.130237e+02  -6.263883e+01
   9.766118e+01   4.038454e+01
  -2.761399e+01   5.284496e+01
  -4.083150e+01  -9.948260e+00
   5.293375e+01  -5.587237e+01
   1.449402e+02  -1.291053e+01
   1.382830e+02   8.750445e+01
   3.600595e+01   1.431592e+02
  -7.094762e+01   9.842611e+01
  -9.300384e+01   7.534786e+00
  -2.678596e+01  -2.775033e+01
   4.051302e+01   2.634552e+01
   1.852294e+01   9.970137e+01
  -8.857446e+01   9.811706e+01
  -1.750932e+02   2.752056e+00
  -1.407421e+02  -1.153490e+02
  -9.082106e-01  -1.648734e+02
   1.237107e+02  -1.123711e+02
   1.312321e+02  -5.749311e+00
   3.827171e+01   7.133463e+01
  -4.782540e+01   6.961718e+01
  -5.044903e+01   1.578297e+01
   5.689520e+00  -2.059181e+01
   3.488062e+01  -3.493748e+00
  -7.373373e+00   2.778224e+01
  -7.777713e+01   6.646986e+00
  -9.107953e+01  -7.662079e+01
  -6.680457e+00  -1.471717e+02
   1.220991e+02  -1.220804e+02
   1.933728e+02   6.735448e-01
   1.475479e+02   1.320676e+02
   2.273754e+01   1.778703e+02
  -8.097269e+01   1.194560e+02
  -9.990535e+01   2.360487e+01
  -5.743702e+01  -3.190675e+01
  -2.671631e+01  -1.949190e+01
  -4.426751e+01   1.378360e+01
  -7.242856e+01   7.272042e+00
  -5.085628e+01  -4.752771e+01
   3.085280e+01  -9.209997e+01
   1.059485e+02  -5.997427e+01
   9.435585e+01   3.926888e+01
  -1.669380e+01   1.133677e+02
  -1.405408e+02   7.548862e+01
  -1.673356e+02  -5.854645e+01
  -5.812065e+01  -1.754302e+02
   1.101601e+02  -1.731463e+02
   2.130357e+02  -5.666646e+01
   1.860599e+02   7.718894e+01
   7.143093e+01   1.335727e+02
  -3.370738e+01   1.059839e+02
  -6.828400e+01   6.047440e+01
  -5.169099e+01   5.412579e+01
  -4.347531e+01   7.546115e+01
  -7.163822e+01   6.488373e+01
  -1.068671e+02  -1.380828e+01
  -9.480012e+01  -1.239141e+02
  -1.706297e+01  -1.800367e+02
   8.370287e+01  -1.286120e+02
   1.335276e+02  -1.902049e+00
   9.379104e+01   1.059819e+02
   3.417928e-01   1.230263e+02
  -6.418529e+01   5.806696e+01
  -5.064117e+01  -1.897543e+01
   5.745177e+00  -4.815624e+01
   2.646984e+01  -3.019200e+01
  -1.790230e+01  -8.059349e+00
  -6.700665e+01  -1.267024e+01
  -4.013400e+01  -3.280973e+01
   6.160149e+01  -3.313922e+01
   1.427785e+02   3.123796e+00
   1.147796e+02   5.511013e+01
  -5.506611e+00   8.160952e+01
  -1.105665e+02   5.847707e+01
  -1.151414e+02   1.188753e+00
  -3.446691e+01  -4.360615e+01
   4.585884e+01  -3.710026e+01
   6.135349e+01   1.421215e+01
   1.864221e+01   6.058285e+01
  -3.320353e+01   5.465845e+01
  -5.658437e+01   2.116317e+00
  -5.057234e+01  -4.217906e+01
  -3.933874e+01  -3.612960e+01
  -4.138519e+01  -1.515388e+00
  -5.098826e+01  -1.345337e+00
  -3.783049e+01  -5.986922e+01
   2.105093e+01  -1.242983e+02
   1.051610e+02  -1.169403e+02
   1.497800e+02  -2.543610e+01
   1.056210e+02   7.751076e+01
  -2.040849e-01   1.083984e+02
  -7.518836e+01   5.745459e+01
  -4.965884e+01  -7.316974e+00
   4.511557e+01  -1.676252e+01
   1.034900e+02   3.328574e+01
   5.377030e+01   8.533301e+01
  -6.687604e+01   8.543604e+01
  -1.487101e+02   2.960438e+01
  -1.219761e+02  -3.773549e+01
  -2.148549e+01  -6.740107e+01
   5.309190e+01  -4.303536e+01
   3.881609e+01   5.982812e+00
  -3.289205e+01   2.585350e+01
  -7.508726e+01  -1.586801e+01
  -3.417027e+01  -9.127827e+01
   5.886180e+01  -1.239251e+02
   1.215435e+02  -5.888364e+01
   9.973122e+01   6.830340e+01
   1.465272e+01   1.499344e+02
  -6.369987e+01   1.103066e+02
  -8.134290e+01  -1.039273e+01
  -4.048475e+01  -9.654442e+01
   1.509505e+01  -8.109657e+01
   4.281725e+01  -1.012420e+01
   3.300793e+01   2.698600e+01
   9.884710e+00   7.276576e+00
   5.606782e+00  -1.135947e+01
   2.773266e+01   1.912410e+01
   4.598327e+01   7.098831e+01
   2.053056e+01   8.105154e+01
  -4.884602e+01   3.298398e+01
  -1.070481e+02  -2.812130e+01
  -9.470108e+01  -5.473580e+01
  -1.502596e+01  -4.467615e+01
   6.070744e+01  -2.290502e+01
   6.779272e+01  -4.115643e+00
   1.721835e+01   1.031085e+01
  -2.432813e+01   1.589430e+01
  -1.633088e+01   7.878807e+00
   9.522779e+00  -3.295287e+00
  -9.884373e-01  -1.600014e+00
  -4.884398e+01   4.554039e+00
  -7.329802e+01  -1.401620e+01
  -2.329992e+01  -6.205920e+01
   7.686045e+01  -9.425410e+01
   1.455222e+02  -5.798001e+01
   1.235596e+02   3.862407e+01
   3.046237e+01   1.217338e+02
  -5.998461e+01   1.249171e+02
  -9.044866e+01   5.744025e+01
  -6.347449e+01  -1.168491e+01
  -2.292023e+01  -3.002163e+01
  -5.419009e+00  -1.189378e+01
  -1.329808e+01  -8.112740e+00
  -2.338791e+01  -3.953623e+01
  -1.278985e+01  -7.194022e+01
   2.235461e+01  -5.670986e+01
   6.010074e+01   9.773219e+00
   6.410025e+01   7.644998e+01
   1.570328e+01   8.563337e+01
  -5.549516e+01   2.895022e+01
  -8.511708e+01  -4.567592e+01
  -3.707526e+01  -8.039633e+01
   4.736112e+01  -5.563691e+01
   8.428492e+01   1.626044e+00
   4.084095e+01   4.667037e+01
  -2.528472e+01   5.248242e+01
  -3.461451e+01   2.500925e+01
   1.643576e+01  -5.852954e+00
   5.284848e+01  -8.355421e+00
   1.730525e+01   2.138108e+01
  -5.921753e+01   5.149712e+01
  -9.650955e+01   4.138659e+01
  -6.053529e+01  -1.311772e+01
   6.979332e+00  -6.636172e+01
   4.589957e+01  -6.712086e+01
   3.841287e+01  -1.424542e+01
   8.653812e+00   3.818309e+01
  -1.731516e+01   3.917404e+01
  -2.919302e+01  -4.879839e+00
  -2.388696e+01  -4.155707e+01
  -7.351077e-01  -3.386720e+01
   2.630619e+01   1.792013e+00
   3.481679e+01   2.085157e+01
   1.770051e+01   5.340209e+00
  -3.657541e+00  -1.709458e+01
  -5.366955e+00  -1.043496e+01
   6.651840e+00   2.277486e+01
   5.145180e+00   4.377958e+01
  -1.838097e+01   2.302026e+01
  -3.595130e+01  -2.194391e+01
  -1.631846e+01  -4.497189e+01
   2.939341e+01  -2.220575e+01
   5.148879e+01   2.243731e+01
   1.760717e+01   4.546721e+01
  -4.556421e+01   2.941743e+01
  -7.548352e+01  -6.300583e+00
  -4.121665e+01  -3.287583e+01
   2.214396e+01  -3.755794e+01
   5.137975e+01  -2.532130e+01
   2.434075e+01  -6.830814e+00
  -1.914860e+01   4.536721e+00
  -2.477829e+01  -1.649248e+00
   1.526926e+01  -1.823861e+01
   5.661821e+01  -1.806234e+01
