
 $NMID
 id='ANONYMOUS ', fmtdat='(2E16.6)'
 volume=1.0
 tramp=1.0
 $END
   1.319812e+03   5.813559e+01
   6.947592e+02   3.968231e+02
   1.283174e+02   5.538617e+02
  -5.003069e+02   5.379608e+02
  -3.561646e+02   3.177986e+02
  -2.045970e+02  -1.652438e+01
   6.187578e+01  -2.157952e-01
   1.075847e+02   1.408516e+02
  -1.514301e+01   2.457454e+02
  -2.489648e+02   2.965859e+01
  -1.658254e+02  -2.175353e+02
  -1.601795e+01  -2.347878e+02
   7.271652e+01  -1.187359e+02
   9.489939e+01   9.247477e+01
  -5.898814e+01   1.957320e+02
  -8.469658e+01   4.896721e+01
  -9.205784e+01  -1.421613e+02
   8.618005e+01  -2.517544e+02
   1.863249e+02  -8.357408e+01
   1.249762e+02   7.225706e+01
   1.920421e+01   7.663432e+01
  -5.921515e+01   8.751192e+01
  -1.364050e+01   4.156517e+01
   7.962718e+01   7.420889e+01
   5.504128e+01   1.572651e+02
  -4.490582e+01   1.072008e+02
  -1.623665e+02  -3.182910e+01
  -1.623736e+02  -1.303523e+02
  -5.730608e+01  -1.094995e+02
   9.356918e+01  -7.514766e+00
   1.522539e+02   7.562642e+01
   5.508011e+01   8.882355e+01
  -9.343746e+01   8.468204e+01
  -1.468840e+02   3.539566e+01
  -9.639603e+01  -3.250671e+01
  -9.563478e+00  -8.114434e+01
   6.847959e+00  -6.343023e+01
  -5.015163e+01   1.769581e+00
  -7.376777e+01   1.231191e+01
  -2.731027e+01  -5.377300e+01
   5.691505e+01  -1.151953e+02
   9.205437e+01  -1.066129e+02
   6.983451e+01  -7.188238e+00
   2.212507e+01   9.227142e+01
  -2.255365e+01   3.714661e+01
  -1.762210e+01  -6.795182e+01
   4.040647e+01  -8.445860e+01
   1.082028e+02   6.974107e+00
   1.276475e+02   1.225024e+02
   4.005057e+01   1.483987e+02
  -8.189202e+01   7.045453e+01
  -1.461582e+02  -3.019209e+01
  -9.560460e+01  -7.687483e+01
   1.548216e+01  -5.605629e+01
   8.025998e+01  -1.269182e+01
   6.228824e+01   1.116641e+01
   1.127941e+01   7.077487e+00
  -1.735941e+00  -9.609057e+00
   3.235034e+01  -9.445454e+00
   5.895588e+01   2.174922e+01
   2.717890e+01   6.487343e+01
  -5.234961e+01   7.744104e+01
  -1.107095e+02   3.452576e+01
  -8.328956e+01  -4.438045e+01
   2.070506e+01  -1.048423e+02
   1.168475e+02  -9.877798e+01
   1.260127e+02  -2.535257e+01
   5.888666e+01   6.406561e+01
  -5.308924e+00   1.097779e+02
  -1.715084e+01   9.775807e+01
  -5.723013e+00   6.544354e+01
  -2.300618e+01   4.784117e+01
  -6.866716e+01   3.437230e+01
  -9.461850e+01  -7.219305e+00
  -6.693274e+01  -6.756012e+01
  -5.491882e+00  -9.378356e+01
   4.666392e+01  -5.068536e+01
   5.841676e+01   3.364557e+01
   2.359705e+01   8.958770e+01
  -3.223441e+01   7.105621e+01
  -7.933174e+01  -2.379357e-01
  -8.027918e+01  -7.229315e+01
  -3.564140e+01  -9.546408e+01
   1.913645e+01  -7.648751e+01
   4.738207e+01  -4.842911e+01
   5.219690e+01  -2.602697e+01
   6.324665e+01  -1.628988e+01
   1.021688e+02   6.755279e+00
   1.302811e+02   6.033755e+01
   8.273157e+01   1.175168e+02
  -4.086186e+01   1.425025e+02
  -1.537518e+02   1.064389e+02
  -1.672311e+02   2.560562e+01
  -8.035272e+01  -5.350872e+01
   1.689370e+01  -8.172104e+01
   4.183205e+01  -5.181572e+01
   2.439967e+00  -6.546103e+00
  -3.977797e+01   5.253747e+00
  -3.579983e+01  -1.826925e+01
   3.827790e+00  -3.801565e+01
   3.494930e+01  -1.834583e+01
   2.579450e+01   2.590866e+01
  -1.678803e+01   3.795202e+01
  -5.239267e+01  -1.058920e+01
  -4.157509e+01  -8.554859e+01
   1.926310e+01  -1.129925e+02
   9.184880e+01  -5.809648e+01
   1.204340e+02   4.082490e+01
   7.573480e+01   1.080689e+02
  -3.865116e+00   9.734808e+01
  -5.505342e+01   3.561767e+01
  -4.770521e+01  -1.154417e+01
  -8.476538e+00  -8.496829e+00
   1.006588e+01   2.271759e+01
  -1.168694e+01   3.416845e+01
  -4.322602e+01   1.134818e+01
  -4.093444e+01  -1.772901e+01
  -2.160344e+00  -1.806552e+01
   2.814718e+01   1.130011e+01
   6.628490e+00   3.568122e+01
  -5.670385e+01   2.334140e+01
  -1.022755e+02  -2.470081e+01
  -7.701092e+01  -7.531494e+01
   8.811359e+00  -9.155943e+01
   8.645530e+01  -6.246248e+01
   9.491930e+01  -1.071076e+01
   4.006852e+01   2.486446e+01
  -1.614725e+01   2.150965e+01
  -1.983929e+01  -6.590757e+00
   2.288981e+01  -2.006920e+01
   6.027046e+01   3.743705e+00
   5.119827e+01   4.487651e+01
   3.983358e+00   6.099482e+01
  -3.775339e+01   3.476905e+01
  -3.972839e+01  -4.541879e+00
  -8.250427e+00  -1.487140e+01
   1.684699e+01   1.114692e+01
   3.029080e+00   3.979657e+01
  -4.081849e+01   3.377427e+01
  -7.024986e+01  -8.552824e+00
  -4.877310e+01  -5.342944e+01
   1.106042e+01  -6.501670e+01
   5.732819e+01  -3.592903e+01
   5.293253e+01   8.221926e+00
   9.715909e+00   3.304352e+01
  -2.546578e+01   2.423461e+01
  -2.271299e+01   6.840769e-01
   3.021947e+00  -8.994428e+00
   1.478708e+01   2.499721e+00
  -4.130972e+00   1.408183e+01
  -3.190043e+01  -1.326239e+00
  -3.186110e+01  -3.843154e+01
   7.360565e+00  -6.104968e+01
   5.780166e+01  -4.081800e+01
   7.706135e+01   1.451658e+01
   4.897575e+01   6.447474e+01
  -4.031183e+00   7.455781e+01
  -4.125359e+01   4.366079e+01
  -4.179796e+01   2.328549e+00
  -2.179823e+01  -1.767400e+01
  -9.905703e+00  -1.052292e+01
  -1.885772e+01   1.641641e+00
  -3.036119e+01  -2.624149e+00
  -1.814364e+01  -2.334601e+01
   1.856165e+01  -3.553447e+01
   4.779971e+01  -1.654600e+01
   3.656898e+01   2.214885e+01
  -1.327020e+01   4.323040e+01
  -6.094543e+01   1.821741e+01
  -6.326794e+01  -3.700872e+01
  -1.091126e+01  -7.474463e+01
   5.980078e+01  -6.064983e+01
   9.236105e+01  -5.168373e+00
   7.017584e+01   4.604483e+01
   1.847600e+01   5.979689e+01
  -2.278664e+01   4.088925e+01
  -3.305055e+01   1.881015e+01
  -2.522553e+01   1.718516e+01
  -2.301383e+01   2.655378e+01
  -3.318726e+01   2.172581e+01
  -4.138107e+01  -1.169387e+01
  -2.898852e+01  -5.641313e+01
   5.350931e+00  -7.480879e+01
   4.146767e+01  -4.693767e+01
   5.314199e+01   8.565631e+00
   3.056056e+01   4.960749e+01
  -7.853702e+00   4.907734e+01
  -2.958242e+01   1.781737e+01
  -1.893210e+01  -1.154927e+01
   6.148705e+00  -1.842401e+01
   1.363871e+01  -9.718929e+00
  -5.726407e+00  -4.694922e+00
  -2.564245e+01  -1.041234e+01
  -1.379695e+01  -1.550827e+01
   2.724577e+01  -6.735766e+00
   5.733699e+01   1.437458e+01
   4.164306e+01   3.202859e+01
  -9.930092e+00   3.204424e+01
  -5.107301e+01   1.373820e+01
  -4.751654e+01  -9.392399e+00
  -9.924397e+00  -2.024093e+01
   2.266366e+01  -1.037977e+01
   2.445066e+01   1.182784e+01
   2.436333e+00   2.645956e+01
  -1.882402e+01   1.950283e+01
  -2.435865e+01  -3.436314e+00
  -1.838677e+01  -2.046065e+01
  -1.423510e+01  -1.736175e+01
  -1.766612e+01  -4.635649e+00
  -2.125226e+01  -6.061411e+00
  -1.016177e+01  -2.870416e+01
   1.969211e+01  -4.899709e+01
   5.265450e+01  -3.842580e+01
   6.241160e+01   2.107915e+00
   3.550330e+01   4.019437e+01
  -9.761171e+00   4.404630e+01
  -3.537840e+01   1.672858e+01
  -1.942730e+01  -7.773104e+00
   2.015118e+01  -3.464933e+00
   4.035290e+01   2.209256e+01
   1.592988e+01   3.946973e+01
  -3.424923e+01   2.971793e+01
  -6.450446e+01   6.926473e-01
  -4.804908e+01  -2.434535e+01
  -3.363073e+00  -2.875674e+01
   2.585388e+01  -1.372184e+01
   1.528365e+01   4.497855e+00
  -1.686567e+01   7.029632e+00
  -3.030831e+01  -1.266147e+01
  -5.801845e+00  -3.995719e+01
   3.542930e+01  -4.583961e+01
   5.443440e+01  -1.434891e+01
   3.391157e+01   3.576157e+01
  -6.847610e+00   6.204346e+01
  -3.393442e+01   3.905732e+01
  -3.101957e+01  -1.181813e+01
  -8.305780e+00  -4.318030e+01
   1.283043e+01  -3.167626e+01
   1.933000e+01  -1.269182e-01
   1.323636e+01   1.441730e+01
   4.639725e+00   4.673470e+00
   2.690430e+00  -3.157338e+00
   8.265761e+00   1.081194e+01
   1.203955e+01   3.309831e+01
   1.831724e+00   3.475329e+01
  -2.192870e+01   9.260857e+00
  -4.067207e+01  -2.031785e+01
  -3.372198e+01  -2.988171e+01
  -2.617098e+00  -1.860922e+01
   2.576783e+01  -3.002959e+00
   2.681853e+01   5.062216e+00
   5.267301e+00   5.684630e+00
  -1.169861e+01   3.517808e+00
  -7.789871e+00   9.155668e-01
   3.478654e+00  -9.125348e-01
  -8.427105e-01  -1.158365e+00
  -2.017620e+01  -3.662658e+00
  -2.779777e+01  -1.382204e+01
  -2.795563e+00  -2.807014e+01
   4.090372e+01  -3.068979e+01
   6.545134e+01  -9.319429e+00
   4.763302e+01   2.716683e+01
   1.505195e+00   5.193725e+01
  -3.627755e+01   4.556050e+01
  -4.278850e+01   1.603450e+01
  -2.472936e+01  -9.674607e+00
  -5.601497e+00  -1.411675e+01
  -2.574489e-02  -5.235421e+00
  -4.724958e+00  -3.920798e+00
  -7.234316e+00  -1.741417e+01
  -3.982208e-01  -3.039316e+01
   1.333344e+01  -2.197703e+01
   2.398274e+01   8.593332e+00
   2.015984e+01   3.678713e+01
  -6.735502e-01   3.655593e+01
  -2.508599e+01   6.924121e+00
  -3.054374e+01  -2.630414e+01
  -7.855841e+00  -3.604289e+01
   2.414518e+01  -1.837259e+01
   3.386031e+01   8.027915e+00
   1.227148e+01   2.246817e+01
  -1.465219e+01   1.916377e+01
  -1.567084e+01   7.155618e+00
   7.704312e+00  -1.402810e+00
   2.275142e+01   2.118909e-01
   6.047876e+00   9.510574e+00
  -2.711103e+01   1.618044e+01
  -4.152459e+01   1.018218e+01
  -2.292741e+01  -8.139856e+00
   8.233759e+00  -2.411735e+01
   2.344260e+01  -2.210637e+01
   1.546513e+01  -2.570834e+00
  -1.448900e+00   1.534985e+01
  -1.163370e+01   1.358930e+01
  -1.169662e+01  -4.884659e+00
  -5.418212e+00  -1.896192e+01
   3.153681e+00  -1.392453e+01
   1.028065e+01   2.609214e+00
   1.192984e+01   1.077253e+01
   7.775299e+00   2.715947e+00
   2.088894e+00  -7.531397e+00
   1.472540e-01  -3.899937e+00
   4.035242e-01   1.171445e+01
  -3.034170e+00   2.014911e+01
  -1.024783e+01   8.321673e+00
  -1.236164e+01  -1.274363e+01
  -2.200257e+00  -2.075349e+01
   1.378278e+01  -6.495506e+00
   1.850566e+01   1.456009e+01
   2.786189e+00   2.104600e+01
  -2.134103e+01   8.450536e+00
  -3.063411e+01  -9.399204e+00
  -1.441654e+01  -1.747032e+01
   1.201878e+01  -1.382586e+01
   2.315220e+01  -5.968230e+00
   1.068825e+01  -6.882162e-01
  -8.019429e+00  -7.187083e-02
  -9.775376e+00  -3.148971e+00
   7.936849e+00  -6.113838e+00
   2.481746e+01  -1.880528e+00
