
 $NMID
 id='ANONYMOUS ', fmtdat='(2E16.6)'
 volume=1.0
 tramp=1.0
 $END
   5.110597e+07   2.664827e+06
   2.903257e+07   3.253155e+07
  -8.139193e+06   3.378691e+07
  -2.515945e+07   1.248706e+07
  -1.453984e+07  -6.338354e+06
   3.099969e+06  -8.188837e+06
   8.737887e+06   1.076398e+06
   2.439530e+06   8.726664e+06
  -5.586777e+06   8.481392e+06
  -8.727517e+06   1.737487e+06
  -6.244517e+06  -5.951656e+06
  -4.810190e+05  -8.054916e+06
   3.865542e+06  -2.334811e+06
   2.420811e+06   5.305655e+06
  -3.501981e+06   6.101450e+06
  -7.101721e+06  -1.350260e+06
  -3.772418e+06  -9.430096e+06
   3.804283e+06  -1.063934e+07
   9.456849e+06  -4.971513e+06
   9.769469e+06   2.440490e+06
   5.541310e+06   7.206217e+06
   2.789982e+04   7.769346e+06
  -2.843166e+06   5.067427e+06
  -1.329720e+06   2.235249e+06
   1.417718e+06   2.268341e+06
   1.275856e+05   4.254710e+06
  -5.495777e+06   4.047665e+06
  -9.294466e+06   3.181224e+04
  -6.415102e+06  -4.244752e+06
   2.080614e+05  -4.821139e+06
   3.897197e+06  -2.213938e+06
   2.459925e+06   3.727246e+05
  -8.128674e+05   1.272805e+06
  -2.578481e+06   5.320394e+05
  -2.258638e+06  -1.682625e+06
  -4.226147e+05  -4.014675e+06
   1.971326e+06  -3.478281e+06
   2.908701e+06   5.147266e+05
   1.187470e+06   3.525038e+06
  -9.505939e+05   1.476773e+06
  -2.247326e+05  -2.634546e+06
   2.376656e+06  -2.214889e+06
   2.169474e+06   2.933420e+06
  -2.275134e+06   5.401479e+06
  -6.115782e+06   5.802265e+05
  -4.257996e+06  -6.452194e+06
   2.039124e+06  -7.578198e+06
   6.871246e+06  -1.894039e+06
   6.376661e+06   4.280420e+06
   1.704915e+06   5.632702e+06
  -3.242429e+06   2.546096e+06
  -4.943563e+06  -1.390595e+06
  -2.307595e+06  -3.200471e+06
   2.190079e+06  -1.953959e+06
   4.114234e+06   9.312900e+05
   1.733124e+06   2.496425e+06
  -1.606166e+06   1.195003e+06
  -1.651137e+06  -9.558282e+05
   1.061240e+06  -8.427079e+05
   2.118133e+06   1.455244e+06
  -5.425256e+05   2.845760e+06
  -4.056539e+06   1.501923e+06
  -4.691130e+06  -1.285133e+06
  -2.003769e+06  -3.618667e+06
   1.896325e+06  -4.864209e+06
   4.986800e+06  -4.431246e+06
   5.956985e+06  -1.384329e+06
   4.149117e+06   3.231622e+06
   6.502482e+05   5.882770e+06
  -1.772147e+06   4.447780e+06
  -1.511649e+06   1.230520e+06
  -1.449189e+05   1.790238e+04
  -2.337356e+05   1.143148e+06
  -1.871213e+06   1.673664e+06
  -2.892213e+06  -1.147822e+04
  -1.954655e+06  -2.135797e+06
   1.066036e+05  -2.250204e+06
   1.678734e+06  -2.124326e+05
   1.710307e+06   2.127556e+06
  -7.344962e+04   2.919030e+06
  -2.781092e+06   1.485969e+06
  -4.242598e+06  -1.373235e+06
  -2.848511e+06  -3.708827e+06
   2.529132e+05  -3.912856e+06
   2.209081e+06  -2.374895e+06
   2.041722e+06  -9.686233e+05
   1.683677e+06  -6.562647e+05
   2.816811e+06  -4.767141e+05
   4.195611e+06   7.585287e+05
   3.361404e+06   2.717729e+06
   8.919075e+04   4.039339e+06
  -3.214226e+06   3.796447e+06
  -4.191248e+06   1.997537e+06
  -2.627991e+06  -5.385417e+05
  -1.677029e+05  -2.273514e+06
   1.194600e+06  -1.881973e+06
   5.600788e+05   7.881973e+04
  -1.120977e+06   1.273254e+06
  -1.865842e+06   3.445565e+05
  -8.418860e+05  -1.205028e+06
   5.515119e+05  -1.106351e+06
   4.635956e+05   3.541680e+05
  -9.353971e+05   7.112650e+05
  -1.710594e+06  -1.104358e+06
  -6.850763e+05  -3.220466e+06
   1.345645e+06  -3.294472e+06
   2.908706e+06  -1.219711e+06
   3.263567e+06   1.279976e+06
   2.345660e+06   2.696018e+06
   4.892011e+05   2.616663e+06
  -1.258684e+06   1.450258e+06
  -1.584894e+06   1.974949e+05
  -4.857857e+05  -5.122953e+04
   3.455757e+05   7.443902e+05
  -4.178685e+05   1.288700e+06
  -1.854779e+06   5.237168e+05
  -1.959302e+06  -8.788150e+05
  -3.635711e+05  -1.367973e+06
   1.150678e+06  -5.547865e+05
   8.989008e+05   4.419568e+05
  -7.976043e+05   5.391355e+05
  -2.155247e+06  -2.613753e+05
  -1.776423e+06  -1.316672e+06
   2.045887e+05  -1.969341e+06
   2.284231e+06  -1.648645e+06
   2.743970e+06  -2.534757e+05
   1.173054e+06   1.250955e+06
  -9.308639e+05   1.438668e+06
  -1.516738e+06   1.420348e+05
  -1.579198e+05  -1.064530e+06
   1.506196e+06  -6.996425e+05
   1.682343e+06   7.779987e+05
   3.373478e+05   1.617133e+06
  -1.052203e+06   9.644136e+05
  -1.225948e+06  -2.867899e+05
  -2.495932e+05  -7.502135e+05
   7.708437e+05  -3.978705e+04
   7.075799e+05   1.051644e+06
  -5.965690e+05   1.403243e+06
  -2.002178e+06   5.060413e+05
  -1.999886e+06  -1.071325e+06
  -3.512625e+05  -2.052909e+06
   1.434744e+06  -1.599917e+06
   1.698334e+06  -1.933135e+05
   4.917118e+05   8.532009e+05
  -6.520531e+05   7.894689e+05
  -6.442765e+05   7.557510e+04
   9.101563e+04  -3.751591e+05
   4.923568e+05  -2.440967e+05
   1.704468e+05   4.413962e+04
  -3.935787e+05  -5.739830e+04
  -4.969607e+05  -6.298681e+05
   1.989484e+05  -1.151171e+06
   1.364830e+06  -8.707158e+05
   2.051691e+06   4.289843e+05
   1.424978e+06   1.938842e+06
  -2.380913e+05   2.399499e+06
  -1.604124e+06   1.401593e+06
  -1.679617e+06  -1.146615e+05
  -8.808058e+05  -8.939057e+05
  -3.471144e+05  -6.869563e+05
  -4.652983e+05  -2.663031e+05
  -5.814774e+05  -3.252865e+05
  -6.540965e+04  -7.406263e+05
   8.628955e+05  -8.806411e+05
   1.430664e+06  -3.259219e+05
   1.055668e+06   7.152512e+05
  -2.320317e+05   1.455584e+06
  -1.705720e+06   1.062591e+06
  -2.226301e+06  -4.905392e+05
  -1.110283e+06  -2.076891e+06
   1.005092e+06  -2.314394e+06
   2.501056e+06  -9.971002e+05
   2.314090e+06   6.477093e+05
   9.629777e+05   1.311722e+06
  -1.772041e+05   9.490877e+05
  -3.921966e+05   5.403141e+05
  -1.235543e+05   7.669678e+05
  -1.497344e+05   1.283097e+06
  -6.834197e+05   1.247409e+06
  -1.276986e+06   2.881465e+05
  -1.309633e+06  -1.090174e+06
  -5.294871e+05  -1.885903e+06
   6.344894e+05  -1.419312e+06
   1.272492e+06   9.957841e+03
   7.893800e+05   1.265045e+06
  -3.862646e+05   1.364346e+06
  -1.121830e+06   3.948244e+05
  -7.711428e+05  -6.702725e+05
   1.247518e+05  -1.031259e+06
   5.104382e+05  -7.531223e+05
   7.028193e+04  -4.137717e+05
  -4.251158e+05  -3.459187e+05
  -5.433617e+04  -3.846702e+05
   1.127713e+06  -1.929066e+05
   2.022877e+06   3.541010e+05
   1.584021e+06   1.034726e+06
  -4.578832e+04   1.397157e+06
  -1.571478e+06   1.093909e+06
  -1.801516e+06   2.619121e+05
  -8.103048e+05  -4.731661e+05
   2.635280e+05  -5.447901e+05
   4.949014e+05  -3.233712e+04
   1.061210e+04   4.097281e+05
  -4.501324e+05   2.530321e+05
  -4.715746e+05  -3.456039e+05
  -2.335555e+05  -7.343415e+05
  -7.824767e+04  -4.877207e+05
  -1.301249e+05   1.035192e+05
  -2.800232e+05   3.083670e+05
  -2.724248e+05  -2.284936e+05
   1.513158e+05  -9.866002e+05
   9.024920e+05  -1.045527e+06
   1.344187e+06  -1.390928e+05
   8.218640e+05   9.285037e+05
  -4.328509e+05   1.113874e+06
  -1.252733e+06   3.032853e+05
  -7.241946e+05  -5.803156e+05
   6.965177e+05  -6.352831e+05
   1.571794e+06   9.849187e+04
   1.000902e+06   8.463067e+05
  -4.681591e+05   9.734163e+05
  -1.476512e+06   4.791693e+05
  -1.221883e+06  -1.821150e+05
  -1.365821e+05  -5.075207e+05
   6.400155e+05  -2.644032e+05
   3.718679e+05   2.962494e+05
  -5.952586e+05   5.152261e+05
  -1.182593e+06  -9.697696e+04
  -6.553617e+05  -1.192291e+06
   6.109161e+05  -1.697518e+06
   1.492674e+06  -8.711263e+05
   1.247463e+06   7.647911e+05
   1.909685e+05   1.785817e+06
  -7.389429e+05   1.285193e+06
  -9.122021e+05  -1.762009e+05
  -4.227780e+05  -1.179742e+06
   2.154159e+05  -9.543077e+05
   5.540808e+05  -7.831466e+04
   4.653714e+05   3.718857e+05
   1.671644e+05   1.305550e+05
   4.549567e+04  -9.200326e+04
   2.669486e+05   3.058728e+05
   4.965402e+05   9.683290e+05
   1.869125e+05   1.064317e+06
  -7.086407e+05   3.767432e+05
  -1.464600e+06  -4.704974e+05
  -1.269628e+06  -8.309408e+05
  -1.777590e+05  -6.944077e+05
   8.532375e+05  -4.203686e+05
   9.772460e+05  -1.788069e+05
   3.530633e+05   6.174872e+04
  -1.472011e+05   2.269293e+05
  -3.165339e+04   1.937331e+05
   2.688036e+05   8.440365e+04
   5.091680e+04   1.371013e+05
  -6.631786e+05   2.440904e+05
  -1.046252e+06  -1.693942e+04
  -4.286914e+05  -7.076914e+05
   8.482943e+05  -1.181444e+06
   1.706118e+06  -7.411277e+05
   1.413740e+06   4.471805e+05
   2.720002e+05   1.406187e+06
  -7.738540e+05   1.366333e+06
  -1.055500e+06   5.349195e+05
  -6.583037e+05  -2.302449e+05
  -1.336701e+05  -3.625552e+05
   7.364729e+04  -7.759414e+04
  -7.485362e+04   1.043185e+04
  -2.932084e+05  -3.638414e+05
  -2.419448e+05  -8.024638e+05
   1.822039e+05  -6.800137e+05
   6.854303e+05   1.167354e+05
   7.452426e+05   9.532396e+05
   1.185239e+05   1.041187e+06
  -7.579161e+05   2.580813e+05
  -1.042540e+06  -7.178577e+05
  -3.496652e+05  -1.094213e+06
   7.186546e+05  -6.812935e+05
   1.121712e+06   7.902423e+04
   5.260677e+05   6.217538e+05
  -2.968973e+05   6.812935e+05
  -3.865065e+05   3.594889e+05
   2.441611e+05  -2.270123e+03
   6.477657e+05  -4.200024e+04
   1.462525e+05   3.117993e+05
  -8.230504e+05   6.749655e+05
  -1.255257e+06   5.240253e+05
  -7.591078e+05  -1.924272e+05
   1.002880e+05  -8.704361e+05
   5.614023e+05  -8.478784e+05
   4.382376e+05  -1.567611e+05
   6.088469e+04   4.800530e+05
  -2.425054e+05   4.398867e+05
  -3.591188e+05  -1.398601e+05
  -2.547775e+05  -5.771200e+05
   5.848344e+04  -4.346406e+05
   3.941044e+05   4.194905e+04
   4.710028e+05   2.877695e+05
   2.367149e+05   1.005974e+05
  -3.115419e+04  -1.594238e+05
  -6.904907e+04  -5.454727e+04
   2.711503e+04   3.598739e+05
  -4.487809e+04   5.732992e+05
  -3.289730e+05   2.366270e+05
  -4.772091e+05  -3.806634e+05
  -1.713920e+05  -6.600584e+05
   4.074921e+05  -3.223823e+05
   6.741819e+05   2.787252e+05
   2.614669e+05   5.733612e+05
  -5.097411e+05   3.640446e+05
  -8.896468e+05  -7.578103e+04
  -4.812696e+05  -3.787551e+05
   2.991357e+05  -4.059652e+05
   6.476624e+05  -2.336445e+05
   2.577289e+05  -1.328997e+04
  -3.433178e+05   8.474352e+04
  -4.129045e+05  -4.998620e+04
   1.541603e+05  -2.930332e+05
   7.294636e+05  -2.851736e+05
