
 $NMID
 id='ANONYMOUS ', fmtdat='(2E16.6)'
 volume=1.0
 tramp=1.0
 $END
  -3.709702e+07   3.392206e+05
  -2.355390e+07  -2.028226e+07
   2.531061e+06  -2.437977e+07
   1.705268e+07  -1.244530e+07
   1.199070e+07   1.723475e+06
  -7.599952e+05   6.369382e+06
  -6.902222e+06   1.142835e+06
  -3.623592e+06  -6.150646e+06
   2.912956e+06  -8.005536e+06
   6.576931e+06  -2.862094e+06
   5.312420e+06   4.352425e+06
   7.339562e+05   6.634429e+06
  -3.060835e+06   1.772507e+06
  -2.342475e+06  -4.859509e+06
   2.249457e+06  -5.838188e+06
   5.658104e+06   8.966003e+04
   3.788205e+06   6.945465e+06
  -2.023646e+06   8.480075e+06
  -6.826812e+06   4.211524e+06
  -7.213825e+06  -1.644504e+06
  -3.839632e+06  -5.050881e+06
  -3.370038e+04  -4.997540e+06
   1.125045e+06  -3.181167e+06
  -5.905810e+05  -2.182794e+06
  -2.010832e+06  -3.137157e+06
   2.633334e+05  -4.404887e+06
   5.333700e+06  -3.313212e+06
   8.087838e+06   3.385666e+05
   5.111518e+06   3.589665e+06
  -8.086896e+05   3.723145e+06
  -3.849386e+06   1.242961e+06
  -1.891942e+06  -1.216169e+06
   1.856911e+06  -1.747471e+06
   3.429371e+06  -1.688433e+05
   2.091966e+06   2.423782e+06
  -2.935806e+05   3.935345e+06
  -1.804246e+06   2.509649e+06
  -1.630320e+06  -9.175825e+05
  -2.641142e+05  -2.550509e+06
   6.340370e+05  -2.397914e+05
  -3.044597e+05   2.946220e+06
  -2.120199e+06   2.258552e+06
  -2.092740e+06  -1.986196e+06
   7.597803e+05  -4.236656e+06
   3.756278e+06  -1.047307e+06
   3.325317e+06   4.181563e+06
  -7.750396e+05   5.541672e+06
  -5.012564e+06   1.764035e+06
  -5.656441e+06  -3.054298e+06
  -2.176043e+06  -4.701866e+06
   2.535834e+06  -2.702785e+06
   4.667686e+06   5.491752e+05
   2.656449e+06   2.458909e+06
  -1.334120e+06   1.894777e+06
  -3.348118e+06  -2.493391e+05
  -1.723352e+06  -1.715577e+06
   1.109791e+06  -1.057720e+06
   1.651203e+06   6.598758e+05
  -3.650556e+05   1.143280e+06
  -1.885280e+06  -2.198260e+05
  -6.043264e+05  -1.726336e+06
   2.252703e+06  -1.619180e+06
   3.621040e+06   1.358611e+05
   1.991861e+06   2.420327e+06
  -1.479763e+06   4.019401e+06
  -4.415810e+06   3.765930e+06
  -5.049268e+06   1.072719e+06
  -3.250274e+06  -2.773704e+06
  -5.568442e+05  -4.972575e+06
   1.052793e+06  -4.059666e+06
   9.981805e+05  -1.726991e+06
   5.458457e+05  -6.612918e+05
   1.080595e+06  -1.129325e+06
   2.318310e+06  -1.064740e+06
   2.753402e+06   6.544234e+05
   1.560789e+06   2.506381e+06
  -5.264370e+05   2.343787e+06
  -2.013483e+06   7.503853e+04
  -1.797173e+06  -2.314009e+06
   1.602776e+05  -2.846290e+06
   2.598464e+06  -1.180246e+06
   3.588838e+06   1.388690e+06
   2.236744e+06   3.069117e+06
  -1.835659e+05   2.982592e+06
  -1.539694e+06   1.814306e+06
  -1.384173e+06   9.533172e+05
  -1.334784e+06   8.878122e+05
  -2.590409e+06   7.505887e+05
  -3.980051e+06  -4.253025e+05
  -3.313405e+06  -2.394075e+06
  -2.486405e+05  -3.872425e+06
   3.042239e+06  -3.725043e+06
   4.082660e+06  -1.845449e+06
   2.449283e+06   7.045451e+05
  -7.927304e+04   2.233788e+06
  -1.303945e+06   1.687051e+06
  -4.989729e+05  -1.534420e+05
   1.120536e+06  -1.197542e+06
   1.710497e+06  -3.584839e+05
   7.154897e+05   1.069969e+06
  -5.916378e+05   1.079987e+06
  -6.317948e+05  -3.155276e+05
   6.420704e+05  -1.015833e+06
   1.750189e+06   3.895348e+05
   1.351728e+06   2.720583e+06
  -4.950410e+05   3.576188e+06
  -2.587696e+06   1.999967e+06
  -3.577652e+06  -7.492158e+05
  -2.779366e+06  -2.674262e+06
  -6.581013e+05  -2.752877e+06
   1.265732e+06  -1.461164e+06
   1.582469e+06  -1.670908e+05
   4.742211e+05   3.668743e+04
  -3.653498e+05  -7.042671e+05
   2.877889e+05  -1.196054e+06
   1.641766e+06  -5.724331e+05
   1.874941e+06   6.559006e+05
   4.738424e+05   1.222063e+06
  -1.064284e+06   6.183982e+05
  -9.896614e+05  -3.955844e+05
   7.010025e+05  -7.287561e+05
   2.271563e+06  -1.078589e+04
   2.033547e+06   1.248970e+06
  -2.172023e+04   2.115065e+06
  -2.211805e+06   1.813156e+06
  -2.692857e+06   3.735577e+05
  -1.172653e+06  -1.111644e+06
   7.964788e+05  -1.328003e+06
   1.342149e+06  -1.755190e+05
   1.303828e+05   9.523565e+05
  -1.408495e+06   7.045488e+05
  -1.674169e+06  -6.422061e+05
  -4.921256e+05  -1.557182e+06
   9.098826e+05  -1.094048e+06
   1.248951e+06   1.038318e+05
   3.750890e+05   6.849379e+05
  -6.801138e+05   9.280587e+04
  -6.899328e+05  -9.733641e+05
   5.626489e+05  -1.351821e+06
   1.930177e+06  -5.078100e+05
   1.946158e+06   9.958571e+05
   4.047393e+05   1.960076e+06
  -1.297481e+06   1.600284e+06
  -1.628871e+06   2.893729e+05
  -5.554560e+05  -7.921121e+05
   5.839590e+05  -8.207976e+05
   6.858807e+05  -8.122428e+04
  -3.573440e+04   4.872838e+05
  -5.767717e+05   3.598325e+05
  -3.492938e+05  -9.195531e+04
   3.086455e+05  -1.298983e+05
   5.759407e+05   4.724422e+05
  -5.983037e+04   1.114026e+06
  -1.266757e+06   9.200410e+05
  -2.008285e+06  -3.338259e+05
  -1.439293e+06  -1.831670e+06
   1.633263e+05  -2.368329e+06
   1.545480e+06  -1.500309e+06
   1.737227e+06   2.748525e+03
   1.009533e+06   9.416988e+05
   3.775400e+05   8.637152e+05
   3.429233e+05   3.561743e+05
   4.572152e+05   2.381104e+05
   7.814972e+04   6.360323e+05
  -7.765016e+05   9.135569e+05
  -1.418787e+06   4.270254e+05
  -1.142541e+06  -7.001923e+05
   1.334015e+05  -1.540724e+06
   1.652643e+06  -1.164573e+06
   2.233382e+06   3.934640e+05
   1.212556e+06   1.977935e+06
  -8.103595e+05   2.292682e+06
  -2.343402e+06   1.129433e+06
  -2.339833e+06  -4.597943e+05
  -1.128442e+06  -1.262651e+06
   7.887805e+04  -1.066752e+06
   4.688972e+05  -6.442899e+05
   2.573967e+05  -7.178028e+05
   1.751216e+05  -1.146507e+06
   5.923895e+05  -1.165239e+06
   1.182586e+06  -3.003641e+05
   1.283828e+06   1.032902e+06
   5.571215e+05   1.829782e+06
  -5.928728e+05   1.401801e+06
  -1.255234e+06   4.741008e+04
  -8.423967e+05  -1.166450e+06
   2.571100e+05  -1.344379e+06
   1.003534e+06  -5.227926e+05
   7.787560e+05   4.868645e+05
   1.754154e+04   9.420280e+05
  -3.527418e+05   7.824643e+05
  -1.138275e+04   4.628790e+05
   3.980233e+05   3.507198e+05
   4.700717e+04   3.838620e+05
  -1.053471e+06   2.427678e+05
  -1.926234e+06  -2.535003e+05
  -1.579986e+06  -9.201227e+05
  -8.023525e+04  -1.314899e+06
   1.407138e+06  -1.097733e+06
   1.724209e+06  -3.691281e+05
   8.459588e+05   3.378210e+05
  -1.943610e+05   4.958532e+05
  -4.595056e+05   9.164931e+04
   2.498526e+03  -3.339821e+05
   4.641383e+05  -2.367894e+05
   4.571356e+05   3.254682e+05
   1.678114e+05   7.237197e+05
   1.641095e+04   4.705608e+05
   1.398315e+05  -1.568162e+05
   3.326924e+05  -3.672780e+05
   2.879171e+05   2.093542e+05
  -1.631779e+05   9.895885e+05
  -8.479255e+05   1.030602e+06
  -1.211780e+06   1.307317e+05
  -7.356441e+05  -8.771130e+05
   3.849291e+05  -1.026496e+06
   1.154134e+06  -2.602390e+05
   7.072864e+05   5.719599e+05
  -6.456247e+05   6.581952e+05
  -1.580308e+06  -1.388603e+04
  -1.109179e+06  -7.929599e+05
   3.630267e+05  -1.040260e+06
   1.467496e+06  -6.174662e+05
   1.279918e+06   9.578366e+04
   1.859919e+05   5.171477e+05
  -6.148439e+05   3.152206e+05
  -3.495140e+05  -2.522002e+05
   6.016917e+05  -4.761860e+05
   1.144730e+06   1.240996e+05
   5.943623e+05   1.173124e+06
  -6.398253e+05   1.635564e+06
  -1.476915e+06   8.282538e+05
  -1.232696e+06  -7.525671e+05
  -2.132268e+05  -1.767020e+06
   7.048519e+05  -1.321876e+06
   9.225621e+05   1.052236e+05
   4.958395e+05   1.151184e+06
  -1.290464e+05   9.904832e+05
  -5.273813e+05   1.205904e+05
  -5.133990e+05  -3.732434e+05
  -2.187879e+05  -1.490664e+05
  -2.422803e+04   1.111728e+05
  -1.973863e+05  -2.477368e+05
  -4.835345e+05  -9.221883e+05
  -2.715037e+05  -1.064582e+06
   6.162395e+05  -4.088627e+05
   1.463317e+06   4.345464e+05
   1.330298e+06   7.985894e+05
   1.995102e+05   6.678013e+05
  -8.841284e+05   4.183809e+05
  -9.813567e+05   2.147407e+05
  -3.076833e+05  -1.492367e+04
   1.605119e+05  -2.177360e+05
  -3.216619e+04  -2.318897e+05
  -3.286974e+05  -1.238760e+05
  -2.519622e+04  -1.343765e+05
   7.166510e+05  -2.151150e+05
   1.015838e+06   1.938736e+04
   3.336056e+05   6.630104e+05
  -8.733412e+05   1.122541e+06
  -1.610036e+06   7.087201e+05
  -1.304120e+06  -4.453754e+05
  -2.584769e+05  -1.383644e+06
   7.184173e+05  -1.330863e+06
   1.019964e+06  -4.933341e+05
   6.532758e+05   2.558021e+05
   1.069227e+05   3.485069e+05
  -1.240488e+05   2.940053e+04
   5.765996e+04  -5.977578e+04
   3.266415e+05   3.364953e+05
   2.753965e+05   7.865465e+05
  -1.812746e+05   6.526227e+05
  -6.801964e+05  -1.525766e+05
  -6.964908e+05  -9.638199e+05
  -5.675401e+04  -1.001839e+06
   7.706953e+05  -1.935132e+05
   1.000637e+06   7.473407e+05
   3.127835e+05   1.058976e+06
  -7.006706e+05   6.262254e+05
  -1.065357e+06  -7.950431e+04
  -4.912808e+05  -5.544868e+05
   2.711410e+05  -6.127218e+05
   3.200404e+05  -3.495099e+05
  -2.941287e+05  -2.524417e+04
  -6.481877e+05   3.667656e+04
  -1.280480e+05  -2.899315e+05
   7.997802e+05  -6.785833e+05
   1.179888e+06  -5.779670e+05
   6.939007e+05   1.265614e+05
  -9.085319e+04   8.298311e+05
  -4.866653e+05   8.195294e+05
  -3.640266e+05   1.237635e+05
  -3.050713e+04  -4.894891e+05
   2.399493e+05  -4.001902e+05
   3.495265e+05   1.857318e+05
   2.465622e+05   5.636195e+05
  -6.088226e+04   3.766143e+05
  -3.809719e+05  -5.998882e+04
  -4.504776e+05  -2.383390e+05
  -2.365691e+05  -6.345764e+04
   1.099914e+04   1.112580e+05
   7.850658e+04  -3.232030e+04
   4.738686e+04  -3.762089e+05
   1.345090e+05  -4.904301e+05
   3.404869e+05  -1.343977e+05
   3.924010e+05   4.219167e+05
   7.892387e+04   6.407382e+05
  -4.196281e+05   2.892579e+05
  -6.222845e+05  -2.979015e+05
  -2.305213e+05  -5.768832e+05
   4.791720e+05  -3.546383e+05
   8.368127e+05   8.688982e+04
   4.580381e+05   3.661992e+05
  -2.843985e+05   3.599325e+05
  -6.113683e+05   1.868132e+05
  -2.095453e+05   1.197956e+04
   3.878220e+05  -3.512930e+04
   4.195067e+05   1.081189e+05
  -2.009948e+05   3.170238e+05
  -7.897780e+05   2.718823e+05
