
 $NMID
 id='ANONYMOUS ', fmtdat='(2E16.6)'
 volume=1.0
 tramp=1.0
 $END
   1.408756e+07  -2.956214e+05
   1.028125e+07   5.749439e+06
   1.005411e+06   9.003250e+06
  -6.029554e+06   7.110435e+06
  -5.918082e+06   1.473562e+06
  -8.109397e+05  -2.837629e+06
   3.280698e+06  -1.945662e+06
   2.870887e+06   2.392848e+06
  -4.591839e+05   4.729534e+06
  -2.927961e+06   2.294074e+06
  -2.540822e+06  -2.004830e+06
  -2.629875e+05  -3.352163e+06
   1.527145e+06  -5.738202e+05
   1.185040e+06   2.984843e+06
  -9.133963e+05   3.486068e+06
  -2.648566e+06   5.176487e+05
  -2.071431e+06  -2.958398e+06
   5.369182e+05  -3.845262e+06
   2.795512e+06  -1.788619e+06
   2.752436e+06   9.170075e+05
   9.818933e+05   1.949390e+06
  -2.499788e+05   1.258173e+06
   3.247327e+05   6.649342e+05
   1.618138e+06   1.436393e+06
   1.521904e+06   2.782813e+06
  -7.197724e+05   2.941625e+06
  -3.534976e+06   1.303060e+06
  -4.363313e+06  -9.604502e+05
  -2.181531e+06  -2.161599e+06
   1.166210e+06  -1.586654e+06
   2.534798e+06   1.120361e+05
   7.433385e+05   1.500098e+06
  -2.064962e+06   1.349803e+06
  -2.840527e+06  -3.733955e+05
  -1.072741e+06  -2.236442e+06
   9.560114e+05  -2.472756e+06
   1.201054e+06  -8.210322e+05
   8.294282e+04   9.761405e+05
  -6.336867e+05   9.662517e+05
  -1.827280e+05  -7.647140e+05
   7.610362e+05  -2.109124e+06
   1.330342e+06  -1.367291e+06
   1.195623e+06   7.416157e+05
   3.527207e+05   1.891650e+06
  -8.157278e+05   8.192534e+05
  -1.268267e+06  -1.272962e+06
  -9.827445e+04  -2.103268e+06
   2.022318e+06  -7.717831e+05
   2.983359e+06   1.434855e+06
   1.474436e+06   2.522013e+06
  -1.309163e+06   1.723355e+06
  -2.812195e+06  -3.549740e+04
  -1.832764e+06  -1.240081e+06
   3.736955e+05  -1.127472e+06
   1.625608e+06  -1.331100e+05
   1.020564e+06   6.683771e+05
  -4.298526e+05   5.341576e+05
  -1.039164e+06  -3.201761e+05
  -1.873746e+05  -9.517018e+05
   1.065436e+06  -6.315444e+05
   1.129239e+06   3.757520e+05
  -2.675186e+05   1.024318e+06
  -1.589381e+06   5.263873e+05
  -1.149839e+06  -8.336300e+05
   8.991252e+05  -1.910964e+06
   2.677881e+06  -1.694793e+06
   2.684213e+06  -1.704845e+05
   1.296969e+06   1.659793e+06
  -2.490269e+03   2.608099e+06
  -4.171551e+05   2.301453e+06
  -3.984933e+05   1.417723e+06
  -6.925835e+05   8.432101e+05
  -1.372738e+06   6.401142e+05
  -1.875965e+06   1.080158e+05
  -1.637187e+06  -1.048216e+06
  -5.748297e+05  -1.982191e+06
   7.861711e+05  -1.554220e+06
   1.552463e+06   1.743345e+05
   1.088150e+06   1.747401e+06
  -3.391337e+05   1.786919e+06
  -1.625205e+06   3.912080e+05
  -1.774669e+06  -1.124865e+06
  -8.300989e+05  -1.663438e+06
   2.432131e+05  -1.256918e+06
   6.241404e+05  -6.858163e+05
   4.842954e+05  -5.271372e+05
   6.717437e+05  -6.626419e+05
   1.564984e+06  -5.274794e+05
   2.401915e+06   2.775063e+05
   1.970023e+06   1.522804e+06
   4.113126e+04   2.408448e+06
  -2.075336e+06   2.179434e+06
  -2.681533e+06   8.384732e+05
  -1.417834e+06  -7.241367e+05
   3.636462e+05  -1.413915e+06
   1.028040e+06  -8.755902e+05
   2.739358e+05   1.826822e+05
  -7.982015e+05   6.572078e+05
  -1.023973e+06   1.426715e+05
  -3.127840e+05  -6.414903e+05
   4.800118e+05  -6.504183e+05
   5.163295e+05   2.153535e+05
  -2.691111e+05   8.452895e+05
  -1.148982e+06   1.573694e+05
  -1.195650e+06  -1.496101e+06
  -6.646794e+04  -2.503907e+06
   1.580633e+06  -1.702811e+06
   2.505799e+06   3.307739e+05
   1.949162e+06   1.897078e+06
   3.769654e+05   1.925793e+06
  -9.165068e+05   8.764582e+05
  -1.035864e+06  -1.186938e+04
  -2.976514e+05  -4.344634e+04
   2.102665e+05   4.503143e+05
  -1.631876e+05   6.949221e+05
  -9.482819e+05   3.113559e+05
  -1.122327e+06  -3.779331e+05
  -3.178435e+05  -7.211304e+05
   6.662101e+05  -3.880248e+05
   6.868286e+05   2.811943e+05
  -4.275640e+05   5.670915e+05
  -1.558051e+06   6.439119e+04
  -1.427998e+06  -8.869741e+05
   1.267903e+04  -1.477003e+06
   1.495205e+06  -1.160230e+06
   1.735607e+06  -1.640866e+05
   6.954820e+05   6.946379e+05
  -5.005203e+05   7.372014e+05
  -7.588427e+05   5.871889e+04
  -1.012936e+04  -5.463684e+05
   8.867173e+05  -3.778732e+05
   1.044505e+06   4.207558e+05
   3.375588e+05   1.001061e+06
  -5.571464e+05   7.520700e+05
  -8.257497e+05  -1.083897e+04
  -2.963975e+05  -4.232472e+05
   3.799607e+05  -6.183278e+04
   3.771975e+05   6.128246e+05
  -4.193364e+05   8.038456e+05
  -1.228374e+06   2.140198e+05
  -1.162925e+06  -7.089007e+05
  -1.825500e+05  -1.230076e+06
   8.415778e+05  -9.613524e+05
   1.027991e+06  -1.575438e+05
   3.609029e+05   5.070891e+05
  -3.801526e+05   5.232720e+05
  -4.823675e+05   1.638588e+04
   1.080098e+04  -3.952042e+05
   4.556281e+05  -2.822413e+05
   3.492637e+05   1.149648e+05
  -1.465937e+05   1.996932e+05
  -4.006017e+05  -2.283545e+05
   7.051351e+03  -6.912126e+05
   8.064215e+05  -5.539851e+05
   1.250074e+06   2.703575e+05
   8.316561e+05   1.198253e+06
  -1.978169e+05   1.504363e+06
  -1.054482e+06   9.503537e+05
  -1.170245e+06  -2.941732e+04
  -6.888793e+05  -7.111795e+05
  -2.103223e+05  -7.135390e+05
  -1.092765e+05  -3.163371e+05
  -1.909447e+05  -1.174307e+05
  -1.997404e+04  -3.398648e+05
   4.978606e+05  -5.665428e+05
   9.363788e+05  -2.605142e+05
   7.575412e+05   5.144036e+05
  -1.119496e+05   1.051358e+06
  -1.104463e+06   7.258879e+05
  -1.428634e+06  -3.223890e+05
  -7.401103e+05  -1.285713e+06
   5.238987e+05  -1.423145e+06
   1.476026e+06  -6.865517e+05
   1.510765e+06   3.060188e+05
   7.756114e+05   8.552191e+05
  -4.660509e+04   7.740669e+05
  -4.009994e+05   4.636154e+05
  -3.083858e+05   4.122900e+05
  -2.017143e+05   6.332903e+05
  -3.892717e+05   6.606122e+05
  -7.170390e+05   1.318442e+05
  -7.508943e+05  -7.071363e+05
  -2.694881e+05  -1.180691e+06
   4.403558e+05  -8.608073e+05
   8.053709e+05   3.962566e+03
   5.145357e+05   7.367766e+05
  -1.550293e+05   8.430400e+05
  -5.979487e+05   3.722671e+05
  -4.823361e+05  -2.295045e+05
  -5.834989e+04  -5.480580e+05
   1.615080e+05  -5.089424e+05
  -6.630302e+03  -3.366593e+05
  -2.155508e+05  -2.557526e+05
  -4.367941e+02  -2.507778e+05
   6.439140e+05  -1.286091e+05
   1.162540e+06   2.093464e+05
   9.657197e+05   6.101591e+05
   6.482342e+04   7.983852e+05
  -8.595532e+05   6.295150e+05
  -1.086109e+06   2.125105e+05
  -5.559251e+05  -1.722616e+05
   1.055807e+05  -2.740682e+05
   2.781368e+05  -7.460661e+04
  -3.238628e+04   1.604455e+05
  -3.269428e+05   1.117842e+05
  -2.655785e+05  -2.254462e+05
  -1.462354e+04  -4.717343e+05
   6.427902e+04  -2.932562e+05
  -1.081320e+05   1.315246e+05
  -2.770766e+05   2.600569e+05
  -1.837415e+05  -1.388800e+05
   1.766702e+05  -6.321517e+05
   5.725415e+05  -6.042095e+05
   6.949166e+05  -4.618536e+03
   3.589594e+05   5.754077e+05
  -2.771927e+05   5.774092e+05
  -6.914608e+05   6.567312e+04
  -4.105050e+05  -4.090954e+05
   4.229081e+05  -4.039247e+05
   1.031481e+06   4.579320e+04
   7.500394e+05   5.455002e+05
  -2.239141e+05   7.021735e+05
  -9.851432e+05   4.108471e+05
  -8.677781e+05  -7.871406e+04
  -1.248607e+05  -3.546463e+05
   4.003322e+05  -2.043963e+05
   1.953039e+05   1.521583e+05
  -4.238451e+05   2.426234e+05
  -7.065213e+05  -1.710847e+05
  -2.676938e+05  -7.832172e+05
   5.380229e+05  -9.752213e+05
   9.981677e+05  -4.134939e+05
   7.420055e+05   5.564398e+05
   4.433110e+04   1.146237e+06
  -5.150969e+05   8.409476e+05
  -6.001235e+05  -7.341554e+04
  -3.042171e+05  -7.570342e+05
   8.139610e+04  -6.619358e+05
   3.297776e+05  -7.711022e+04
   3.453391e+05   2.752299e+05
   1.709816e+05   1.242707e+05
   7.204194e+03  -8.522266e+04
   6.167114e+04   1.291461e+05
   2.472193e+05   5.942198e+05
   1.726722e+05   7.089195e+05
  -3.571782e+05   2.516573e+05
  -9.218438e+05  -3.467357e+05
  -8.584851e+05  -5.778790e+05
  -1.038770e+05  -4.260555e+05
   6.227683e+05  -2.142499e+05
   6.534313e+05  -1.045697e+05
   1.653456e+05  -6.158137e+03
  -1.277230e+05   1.245432e+05
   5.304084e+04   1.814280e+05
   2.493428e+05   1.303566e+05
  -1.098294e+04   8.601636e+04
  -5.174806e+05   7.276704e+04
  -6.351485e+05  -7.728081e+04
  -1.049813e+05  -4.168855e+05
   6.547725e+05  -6.300014e+05
   1.017366e+06  -3.361406e+05
   7.369215e+05   3.682139e+05
   7.130086e+04   8.969519e+05
  -5.076442e+05   7.924757e+05
  -6.653892e+05   2.257591e+05
  -4.036574e+05  -2.253180e+05
  -2.805196e+04  -2.217509e+05
   1.190750e+05   2.490179e+04
  -2.877393e+04   7.188749e+04
  -2.159410e+05  -2.185216e+05
  -1.548611e+05  -5.157894e+05
   1.570302e+05  -3.919924e+05
   4.276159e+05   1.675859e+05
   3.557925e+05   6.761168e+05
  -7.106038e+04   6.240116e+05
  -5.211800e+05   2.951584e+04
  -5.713017e+05  -5.689931e+05
  -1.096601e+05  -6.801767e+05
   4.798840e+05  -3.217131e+05
   6.442386e+05   1.179504e+05
   2.588388e+05   3.399072e+05
  -1.941746e+05   3.297237e+05
  -1.796889e+05   2.001219e+05
   2.261839e+05   5.593752e+04
   4.229493e+05   2.078024e+04
   5.151567e+04   1.796965e+05
  -5.440975e+05   3.932556e+05
  -7.462173e+05   3.420850e+05
  -3.945428e+05  -7.604039e+04
   1.034473e+05  -5.028010e+05
   3.112691e+05  -4.809365e+05
   1.884811e+05  -3.360190e+04
  -3.353734e+04   3.262504e+05
  -1.784693e+05   2.150841e+05
  -2.075882e+05  -1.764178e+05
  -1.187344e+05  -3.709860e+05
   6.431833e+04  -1.974215e+05
   2.335863e+05   7.598584e+04
   2.626667e+05   1.459121e+05
   1.497497e+05   2.844424e+04
   1.429470e+04  -3.687677e+04
  -6.076552e+04   8.049961e+04
  -1.096995e+05   2.526399e+05
  -1.837844e+05   2.475203e+05
  -2.370517e+05  -1.011254e+04
  -1.649068e+05  -3.282363e+05
   5.739211e+04  -4.055093e+05
   2.990605e+05  -1.366815e+05
   3.463302e+05   2.459661e+05
   9.045618e+04   3.909476e+05
  -3.102095e+05   1.933727e+05
  -4.981286e+05  -1.164102e+05
  -2.572019e+05  -2.566716e+05
   1.956652e+05  -1.818009e+05
   3.811146e+05  -4.861171e+04
   1.010283e+05   5.993371e+03
  -2.865242e+05  -3.848762e+04
  -2.700111e+05  -1.395737e+05
   1.851574e+05  -2.106870e+05
   5.741871e+05  -1.167612e+05
