
 $NMID
 id='ANONYMOUS ', fmtdat='(2E16.6)'
 volume=1.0
 tramp=1.0
 $END
   4.397479e+07  -1.540449e+06
   2.801938e+07   2.481765e+07
  -3.487454e+06   2.950174e+07
  -2.052167e+07   1.376567e+07
  -1.371202e+07  -3.348732e+06
   1.512485e+06  -7.496650e+06
   7.959792e+06  -4.457355e+05
   3.475576e+06   7.391346e+06
  -3.917391e+06   8.549220e+06
  -7.618663e+06   2.714858e+06
  -6.030097e+06  -4.835394e+06
  -9.594834e+05  -7.275925e+06
   3.309521e+06  -2.216291e+06
   2.549116e+06   4.949323e+06
  -2.645847e+06   6.115238e+06
  -6.461209e+06  -3.827287e+05
  -4.227869e+06  -7.995220e+06
   2.390827e+06  -9.724885e+06
   7.849450e+06  -5.044951e+06
   8.544024e+06   1.517877e+06
   5.037613e+06   5.757700e+06
   4.960730e+05   6.317733e+06
  -1.653813e+06   4.314373e+06
  -2.989633e+05   2.392554e+06
   1.683611e+06   2.684527e+06
   4.205407e+04   4.244601e+06
  -5.175084e+06   3.813152e+06
  -8.564367e+06   2.224359e+05
  -5.882547e+06  -3.575247e+06
   2.651681e+05  -4.180021e+06
   3.680860e+06  -1.828284e+06
   2.089666e+06   6.633198e+05
  -1.323814e+06   1.425399e+06
  -2.923947e+06   3.469080e+05
  -2.136834e+06  -1.951966e+06
  -1.875838e+05  -3.859514e+06
   1.683649e+06  -3.035378e+06
   2.227285e+06   5.122244e+05
   9.062784e+05   2.890995e+06
  -6.333908e+05   9.050631e+05
  -9.598461e+03  -2.707246e+06
   2.164941e+06  -2.303252e+06
   2.276046e+06   2.364593e+06
  -1.244576e+06   4.965159e+06
  -4.908213e+06   1.186425e+06
  -4.134712e+06  -5.056605e+06
   9.974790e+05  -6.658617e+06
   5.813036e+06  -2.168685e+06
   6.181573e+06   3.382402e+06
   2.162287e+06   5.104264e+06
  -2.798370e+06   2.751389e+06
  -4.867420e+06  -7.931369e+05
  -2.613249e+06  -2.763794e+06
   1.680547e+06  -2.042404e+06
   3.777665e+06   3.978037e+05
   1.851178e+06   2.032463e+06
  -1.296060e+06   1.204275e+06
  -1.687170e+06  -7.511394e+05
   7.067475e+05  -1.073416e+06
   2.129807e+06   7.472359e+05
   2.101394e+05   2.377013e+06
  -3.088501e+06   1.817458e+06
  -4.249708e+06  -4.753966e+05
  -2.185057e+06  -2.929500e+06
   1.457502e+06  -4.485968e+06
   4.466928e+06  -4.248324e+06
   5.378288e+06  -1.465731e+06
   3.793707e+06   2.773408e+06
   8.460898e+05   5.343704e+06
  -1.235842e+06   4.322954e+06
  -1.250437e+06   1.551801e+06
  -3.983430e+05   3.049212e+05
  -6.161462e+05   1.056061e+06
  -1.970192e+06   1.368769e+06
  -2.735968e+06  -2.336697e+05
  -1.768177e+06  -2.204579e+06
   2.554398e+05  -2.238317e+06
   1.807213e+06  -1.619421e+05
   1.779847e+06   2.154312e+06
  -2.462292e+04   2.846030e+06
  -2.591208e+06   1.415268e+06
  -3.912437e+06  -1.186870e+06
  -2.678578e+06  -3.218077e+06
   2.231640e+04  -3.425219e+06
   1.738136e+06  -2.194698e+06
   1.666549e+06  -1.066665e+06
   1.494946e+06  -8.421337e+05
   2.684838e+06  -7.070904e+05
   4.094717e+06   4.469890e+05
   3.407730e+06   2.428178e+06
   2.974590e+05   3.924579e+06
  -2.979501e+06   3.827288e+06
  -4.021826e+06   2.030869e+06
  -2.512434e+06  -5.231001e+05
  -1.130389e+05  -2.202768e+06
   1.164158e+06  -1.790719e+06
   5.195753e+05   9.262030e+04
  -1.064881e+06   1.254258e+06
  -1.759803e+06   4.155222e+05
  -8.171671e+05  -1.089571e+06
   5.303137e+05  -1.093997e+06
   5.547382e+05   3.318299e+05
  -7.860417e+05   9.058763e+05
  -1.804925e+06  -6.938535e+05
  -1.142724e+06  -2.977233e+06
   8.408126e+05  -3.510829e+06
   2.751788e+06  -1.703317e+06
   3.466872e+06   9.378887e+05
   2.614213e+06   2.626768e+06
   6.306315e+05   2.656438e+06
  -1.208087e+06   1.475690e+06
  -1.558508e+06   2.263508e+05
  -4.777701e+05  -2.845008e+04
   3.764361e+05   7.080453e+05
  -3.037660e+05   1.252020e+06
  -1.718290e+06   6.140765e+05
  -1.940956e+06  -6.949308e+05
  -4.665662e+05  -1.279587e+06
   1.084301e+06  -6.206438e+05
   9.500697e+05   3.958077e+05
  -7.423560e+05   6.574443e+05
  -2.220187e+06  -7.290498e+04
  -1.927509e+06  -1.240383e+06
   6.829235e+04  -2.041567e+06
   2.190657e+06  -1.783915e+06
   2.692301e+06  -3.935491e+05
   1.208580e+06   1.134667e+06
  -8.030797e+05   1.407034e+06
  -1.412860e+06   2.162504e+05
  -1.832443e+05  -9.903374e+05
   1.421614e+06  -7.463136e+05
   1.694199e+06   6.531494e+05
   4.621378e+05   1.573543e+06
  -9.536009e+05   1.060704e+06
  -1.247905e+06  -1.596174e+05
  -3.362952e+05  -7.129455e+05
   7.205285e+05  -9.516731e+04
   7.275334e+05   9.796223e+05
  -5.289271e+05   1.382240e+06
  -1.930521e+06   5.647574e+05
  -1.988906e+06  -9.604778e+05
  -4.409433e+05  -1.979391e+06
   1.305394e+06  -1.636103e+06
   1.648545e+06  -2.939173e+05
   5.480974e+05   8.048025e+05
  -5.908804e+05   8.210006e+05
  -6.557948e+05   9.286649e+04
   6.172651e+04  -4.332185e+05
   5.314251e+05  -3.049395e+05
   2.535384e+05   7.787086e+04
  -3.655887e+05   5.389498e+04
  -5.621874e+05  -5.384212e+05
   9.227546e+04  -1.138317e+06
   1.281270e+06  -9.331398e+05
   2.028686e+06   3.149894e+05
   1.481523e+06   1.825524e+06
  -1.269863e+05   2.371710e+06
  -1.526118e+06   1.486571e+06
  -1.703103e+06  -1.477900e+04
  -9.568053e+05  -8.937426e+05
  -3.632247e+05  -7.596654e+05
  -3.999260e+05  -2.841433e+05
  -5.306720e+05  -2.516990e+05
  -1.009739e+05  -6.806162e+05
   7.890247e+05  -9.196984e+05
   1.409194e+06  -4.140040e+05
   1.109031e+06   6.778639e+05
  -1.467885e+05   1.497298e+06
  -1.639816e+06   1.154780e+06
  -2.228320e+06  -3.743230e+05
  -1.216800e+06  -1.982606e+06
   8.299089e+05  -2.324195e+06
   2.379016e+06  -1.137001e+06
   2.336636e+06   4.836217e+05
   1.076269e+06   1.259800e+06
  -1.095178e+05   1.010441e+06
  -4.192197e+05   5.905626e+05
  -1.620415e+05   7.266457e+05
  -1.120734e+05   1.204151e+06
  -5.882707e+05   1.220966e+06
  -1.209469e+06   3.358631e+05
  -1.319076e+06  -1.010368e+06
  -5.964515e+05  -1.825083e+06
   5.647860e+05  -1.417211e+06
   1.255387e+06  -5.653599e+04
   8.517572e+05   1.184604e+06
  -2.774749e+05   1.361927e+06
  -1.050916e+06   4.959912e+05
  -8.014154e+05  -5.511352e+05
   1.605558e+04  -9.918330e+05
   4.080096e+05  -7.874841e+05
   3.264814e+04  -4.405725e+05
  -4.168155e+05  -3.302445e+05
  -6.119476e+04  -3.781368e+05
   1.077874e+06  -2.540540e+05
   1.972349e+06   2.345977e+05
   1.604469e+06   9.213231e+05
   6.390334e+04   1.353465e+06
  -1.442479e+06   1.143062e+06
  -1.745592e+06   3.704000e+05
  -8.442136e+05  -3.809702e+05
   2.068546e+05  -5.282593e+05
   4.762804e+05  -7.842786e+04
   2.215965e+04   3.667862e+05
  -4.437499e+05   2.542665e+05
  -4.712121e+05  -3.172649e+05
  -2.207085e+05  -7.092030e+05
  -6.242367e+04  -4.666710e+05
  -1.351392e+05   1.316348e+05
  -2.991684e+05   3.376126e+05
  -2.852027e+05  -2.103648e+05
   1.277236e+05  -9.810253e+05
   8.348536e+05  -1.057370e+06
   1.259877e+06  -1.829808e+05
   8.015096e+05   8.625215e+05
  -3.653476e+05   1.075368e+06
  -1.178543e+06   3.230765e+05
  -7.256099e+05  -5.478327e+05
   6.477023e+05  -6.642017e+05
   1.569330e+06   1.120507e+04
   1.072539e+06   7.913709e+05
  -3.889963e+05   1.018407e+06
  -1.454253e+06   5.855152e+05
  -1.249993e+06  -1.073533e+05
  -1.732913e+05  -5.070778e+05
   6.173738e+05  -3.071591e+05
   3.690161e+05   2.587521e+05
  -5.740102e+05   5.069931e+05
  -1.151811e+06  -7.216528e+04
  -6.541965e+05  -1.146209e+06
   5.646593e+05  -1.664137e+06
   1.440450e+06  -8.850696e+05
   1.250052e+06   7.135182e+05
   2.529129e+05   1.754034e+06
  -6.803946e+05   1.313794e+06
  -9.186273e+05  -1.139752e+05
  -4.905984e+05  -1.147070e+06
   1.461294e+05  -9.753339e+05
   5.362693e+05  -1.164101e+05
   4.946389e+05   3.592238e+05
   1.930157e+05   1.377428e+05
   3.343756e+04  -1.035809e+05
   2.434224e+05   2.604775e+05
   5.165721e+05   9.198903e+05
   2.573013e+05   1.054773e+06
  -6.473578e+05   4.166716e+05
  -1.464989e+06  -4.054933e+05
  -1.312713e+06  -7.746915e+05
  -2.087734e+05  -6.706612e+05
   8.472039e+05  -4.369433e+05
   9.667716e+05  -2.224036e+05
   3.326272e+05   2.409186e+04
  -1.448692e+05   2.231533e+05
   2.573857e+03   2.167660e+05
   2.945787e+05   1.002579e+05
   4.178307e+04   1.306852e+05
  -6.731000e+05   2.418044e+05
  -1.020405e+06   1.464470e+04
  -4.013203e+05  -6.579111e+05
   8.127361e+05  -1.162209e+06
   1.616631e+06  -7.743875e+05
   1.357747e+06   3.917730e+05
   3.047806e+05   1.371246e+06
  -6.961036e+05   1.361217e+06
  -1.007961e+06   5.419985e+05
  -6.532919e+05  -2.210895e+05
  -1.306007e+05  -3.456918e+05
   9.148865e+04  -5.090629e+04
  -6.939031e+04   3.822579e+04
  -3.192940e+05  -3.408447e+05
  -2.802539e+05  -7.818699e+05
   1.579376e+05  -6.645528e+05
   6.758958e+05   1.130072e+05
   7.398377e+05   9.227984e+05
   1.200773e+05   1.002182e+06
  -7.433761e+05   2.442854e+05
  -1.029061e+06  -6.912863e+05
  -3.621988e+05  -1.052132e+06
   6.780131e+05  -6.690984e+05
   1.084269e+06   4.149395e+04
   5.267678e+05   5.639808e+05
  -2.557900e+05   6.508978e+05
  -3.384378e+05   3.673373e+05
   2.639173e+05   8.425704e+03
   6.394834e+05  -5.751149e+04
   1.465124e+05   2.920161e+05
  -7.837227e+05   6.952242e+05
  -1.194176e+06   5.874615e+05
  -7.299257e+05  -1.306428e+05
   6.613045e+04  -8.448662e+05
   4.918488e+05  -8.472854e+05
   3.897735e+05  -1.575922e+05
   5.829832e+04   4.753670e+05
  -2.227436e+05   4.228513e+05
  -3.508222e+05  -1.498750e+05
  -2.657569e+05  -5.563435e+05
   4.172764e+04  -4.029127e+05
   3.831623e+05   3.795697e+04
   4.682777e+05   2.450755e+05
   2.401235e+05   7.439302e+04
  -2.946053e+04  -1.314072e+05
  -8.175369e+04  -9.930974e+03
  -8.983904e+02   3.571534e+05
  -6.521504e+04   5.202307e+05
  -3.158799e+05   1.922428e+05
  -4.378865e+05  -3.762013e+05
  -1.445859e+05  -6.309504e+05
   3.971460e+05  -3.133576e+05
   6.478869e+05   2.615369e+05
   2.596338e+05   5.589426e+05
  -4.780232e+05   3.727470e+05
  -8.554268e+05  -5.047733e+04
  -4.766568e+05  -3.527675e+05
   2.731829e+05  -3.887995e+05
   6.122873e+05  -2.297525e+05
   2.307704e+05  -2.393719e+04
  -3.550393e+05   6.558712e+04
  -4.084003e+05  -6.675171e+04
   1.691508e+05  -3.023019e+05
   7.421481e+05  -2.916091e+05
