
 $NMID
 id='ANONYMOUS ', fmtdat='(2E16.6)'
 volume=1.0
 tramp=1.0
 $END
   2.163796e+07  -1.636061e+06
   1.561545e+07   9.727120e+06
   8.493619e+05   1.432651e+07
  -9.394865e+06   9.633233e+06
  -8.251004e+06   8.463601e+05
  -5.784963e+05  -4.109979e+06
   4.550326e+06  -1.921532e+06
   3.376715e+06   3.608043e+06
  -1.093856e+06   6.000445e+06
  -4.129643e+06   2.725605e+06
  -3.596007e+06  -2.607400e+06
  -6.130739e+05  -4.403842e+06
   1.925266e+06  -1.053938e+06
   1.616633e+06   3.548363e+06
  -1.269526e+06   4.359647e+06
  -3.715227e+06   4.937606e+05
  -2.890287e+06  -4.215853e+06
   7.667202e+05  -5.523652e+06
   4.011425e+06  -2.859352e+06
   4.280473e+06   8.876137e+05
   2.109216e+06   2.783421e+06
   9.692589e+04   2.442693e+06
   6.410796e+04   1.603118e+06
   1.362669e+06   1.851671e+06
   1.657753e+06   2.988078e+06
  -5.785755e+05   3.416483e+06
  -4.067464e+06   1.985229e+06
  -5.539702e+06  -6.305996e+05
  -3.184073e+06  -2.470157e+06
   9.466605e+05  -2.194087e+06
   2.862389e+06  -3.208744e+05
   1.033663e+06   1.371618e+06
  -2.055505e+06   1.420930e+06
  -3.042370e+06  -2.462195e+05
  -1.393914e+06  -2.296705e+06
   6.967389e+05  -2.922577e+06
   1.299837e+06  -1.407057e+06
   5.452071e+05   8.397217e+05
  -2.651806e+05   1.385785e+06
  -2.288513e+05  -4.407488e+05
   6.342086e+05  -2.364860e+06
   1.586945e+06  -1.707237e+06
   1.581571e+06   1.102287e+06
   1.336006e+05   2.751999e+06
  -1.759885e+06   1.100623e+06
  -2.109985e+06  -2.097310e+06
  -6.722221e+03  -3.294220e+06
   2.960668e+06  -1.257634e+06
   3.966123e+06   1.870918e+06
   1.819594e+06   3.256661e+06
  -1.688996e+06   2.123333e+06
  -3.490112e+06  -1.315863e+05
  -2.205436e+06  -1.621797e+06
   6.266061e+05  -1.441758e+06
   2.216046e+06  -1.112654e+05
   1.330774e+06   9.603658e+05
  -6.110736e+05   7.366218e+05
  -1.267197e+06  -4.042026e+05
  -1.904332e+04  -1.065250e+06
   1.414872e+06  -4.179680e+05
   1.078035e+06   8.582730e+05
  -8.798979e+05   1.366743e+06
  -2.332639e+06   4.433294e+05
  -1.542215e+06  -1.322337e+06
   1.001243e+06  -2.654784e+06
   3.191467e+06  -2.460683e+06
   3.440621e+06  -5.670688e+05
   1.988230e+06   1.940769e+06
   2.895316e+05   3.373071e+06
  -5.441101e+05   2.952284e+06
  -6.051307e+05   1.602550e+06
  -7.092199e+05   7.972148e+05
  -1.313153e+06   7.524706e+05
  -2.000626e+06   3.776454e+05
  -1.962529e+06  -9.230322e+05
  -8.737756e+05  -2.130760e+06
   7.040803e+05  -1.784744e+06
   1.697074e+06   1.122482e+05
   1.321414e+06   1.935149e+06
  -2.580651e+05   2.129947e+06
  -1.913945e+06   6.751401e+05
  -2.376172e+06  -1.143840e+06
  -1.360144e+06  -2.061874e+06
   1.290927e+05  -1.824827e+06
   8.637865e+05  -1.119320e+06
   7.693787e+05  -7.368993e+05
   9.051167e+05  -7.825670e+05
   1.929506e+06  -6.383487e+05
   2.966475e+06   2.877463e+05
   2.466268e+06   1.793787e+06
   1.450564e+05   2.913700e+06
  -2.382574e+06   2.730994e+06
  -3.135707e+06   1.205475e+06
  -1.748356e+06  -6.934673e+05
   2.622183e+05  -1.668104e+06
   1.092698e+06  -1.142070e+06
   3.332033e+05   1.620893e+05
  -8.933211e+05   8.352408e+05
  -1.239212e+06   2.351124e+05
  -4.568869e+05  -7.605934e+05
   5.005163e+05  -7.852483e+05
   5.513025e+05   2.568257e+05
  -4.069408e+05   9.262273e+05
  -1.403829e+06  -1.168979e+04
  -1.317185e+06  -1.942875e+06
   9.968327e+04  -2.941460e+06
   1.962964e+06  -1.865175e+06
   2.930578e+06   4.593620e+05
   2.266056e+06   2.177792e+06
   4.821142e+05   2.222701e+06
  -1.030079e+06   1.085815e+06
  -1.218072e+06   6.096013e+04
  -3.594486e+05  -3.432017e+04
   2.655855e+05   5.335846e+05
  -1.916824e+05   8.669991e+05
  -1.173148e+06   4.196306e+05
  -1.384720e+06  -4.475381e+05
  -3.852382e+05  -8.806845e+05
   7.950630e+05  -4.666123e+05
   7.847921e+05   3.248967e+05
  -5.396156e+05   6.316424e+05
  -1.828113e+06   4.603289e+04
  -1.649602e+06  -1.023524e+06
   1.551873e+04  -1.711662e+06
   1.741499e+06  -1.401094e+06
   2.064729e+06  -2.574827e+05
   8.728238e+05   8.206799e+05
  -5.782502e+05   9.440438e+05
  -9.469859e+05   1.205593e+05
  -6.020434e+04  -6.717079e+05
   1.054906e+06  -4.977547e+05
   1.266081e+06   4.823271e+05
   4.053347e+05   1.190851e+06
  -6.716985e+05   8.807067e+05
  -9.748394e+05  -3.264244e+04
  -3.276313e+05  -5.091950e+05
   4.824690e+05  -7.125409e+04
   4.849699e+05   7.371571e+05
  -4.676895e+05   9.936815e+05
  -1.468821e+06   3.224879e+05
  -1.438053e+06  -7.955679e+05
  -2.745775e+05  -1.477457e+06
   9.828536e+05  -1.194128e+06
   1.231275e+06  -2.221310e+05
   4.348633e+05   5.954475e+05
  -4.421798e+05   6.253199e+05
  -5.440136e+05   3.741069e+04
   3.260717e+04  -4.283663e+05
   5.093765e+05  -2.998973e+05
   3.465603e+05   1.258036e+05
  -2.211392e+05   1.880346e+05
  -4.810901e+05  -3.168962e+05
   1.602626e+04  -8.517198e+05
   9.663978e+05  -6.949864e+05
   1.520083e+06   2.803343e+05
   1.056849e+06   1.409818e+06
  -1.690236e+05   1.806127e+06
  -1.217782e+06   1.153094e+06
  -1.372942e+06  -1.011294e+04
  -8.066995e+05  -7.904580e+05
  -2.659027e+05  -7.659867e+05
  -1.871445e+05  -3.222389e+05
  -2.908377e+05  -1.505210e+05
  -5.239169e+04  -4.470760e+05
   5.932941e+05  -7.028479e+05
   1.115652e+06  -3.289611e+05
   9.029750e+05   5.832470e+05
  -1.169481e+05   1.234861e+06
  -1.299515e+06   8.920381e+05
  -1.717056e+06  -3.370898e+05
  -9.180117e+05  -1.524380e+06
   6.096627e+05  -1.736733e+06
   1.774304e+06  -8.606421e+05
   1.807954e+06   3.453326e+05
   9.071458e+05   9.968818e+05
  -5.851346e+04   8.811884e+05
  -4.280037e+05   5.244935e+05
  -2.844166e+05   5.099952e+05
  -1.764933e+05   8.075892e+05
  -4.454798e+05   8.420094e+05
  -8.747424e+05   2.021828e+05
  -9.423529e+05  -8.096110e+05
  -3.812495e+05  -1.400798e+06
   4.832630e+05  -1.050602e+06
   9.611497e+05  -2.057638e+04
   6.381472e+05   8.827311e+05
  -1.813481e+05   1.023646e+06
  -7.416463e+05   4.357355e+05
  -5.978275e+05  -3.150093e+05
  -5.421692e+04  -6.921564e+05
   2.258012e+05  -6.131908e+05
  -7.731062e+02  -3.821123e+05
  -2.829246e+05  -2.849426e+05
  -2.022835e+04  -2.981101e+05
   7.889045e+05  -1.795980e+05
   1.436271e+06   2.089148e+05
   1.189013e+06   7.089808e+05
   7.932670e+04   9.826934e+05
  -1.043401e+06   8.069981e+05
  -1.307986e+06   2.802063e+05
  -6.633935e+05  -2.268253e+05
   1.310299e+05  -3.565148e+05
   3.444242e+05  -8.516307e+04
  -1.329420e+04   2.222707e+05
  -3.705184e+05   1.606426e+05
  -3.368088e+05  -2.547524e+05
  -7.601344e+04  -5.544681e+05
   3.069807e+04  -3.508381e+05
  -1.217765e+05   1.414430e+05
  -2.990584e+05   2.949649e+05
  -2.241804e+05  -1.666608e+05
   1.668449e+05  -7.601473e+05
   6.648520e+05  -7.604627e+05
   8.768517e+05  -6.089515e+04
   4.989535e+05   6.726647e+05
  -3.046413e+05   7.393798e+05
  -8.495091e+05   1.471195e+05
  -5.184654e+05  -4.592357e+05
   4.965095e+05  -4.993855e+05
   1.225740e+06   2.408885e+04
   8.818964e+05   6.297514e+05
  -2.692395e+05   8.272796e+05
  -1.155116e+06   4.913316e+05
  -1.014497e+06  -8.061961e+04
  -1.480304e+05  -4.117336e+05
   4.746414e+05  -2.461310e+05
   2.513177e+05   1.843385e+05
  -4.806926e+05   3.265415e+05
  -8.571844e+05  -1.456800e+05
  -3.899944e+05  -9.106073e+05
   5.572302e+05  -1.206752e+06
   1.154560e+06  -5.694183e+05
   9.178848e+05   6.135302e+05
   1.168963e+05   1.360029e+06
  -5.732588e+05   1.013181e+06
  -7.157259e+05  -8.000174e+04
  -3.778646e+05  -8.941999e+05
   9.589485e+04  -7.792703e+05
   4.005330e+05  -9.500235e+04
   4.041650e+05   3.086198e+05
   1.853795e+05   1.336566e+05
   1.312686e+04  -9.466308e+04
   1.142837e+05   1.667369e+05
   3.373049e+05   7.035727e+05
   2.121922e+05   8.325120e+05
  -4.468486e+05   3.136811e+05
  -1.112972e+06  -3.665810e+05
  -1.027135e+06  -6.477161e+05
  -1.428035e+05  -5.102408e+05
   7.088771e+05  -2.902522e+05
   7.667080e+05  -1.486966e+05
   2.183108e+05  -2.238012e+03
  -1.358375e+05   1.571299e+05
   4.495055e+04   2.010350e+05
   2.741530e+05   1.288453e+05
   2.282530e+03   1.022261e+05
  -5.825269e+05   1.248386e+05
  -7.669490e+05  -4.916242e+04
  -1.928817e+05  -4.957945e+05
   7.180503e+05  -8.059347e+05
   1.216889e+06  -4.818309e+05
   9.387891e+05   3.796702e+05
   1.476468e+05   1.062933e+06
  -5.709018e+05   9.873005e+05
  -7.838661e+05   3.277710e+05
  -4.904227e+05  -2.313019e+05
  -5.823840e+04  -2.642821e+05
   1.173936e+05   6.770316e+03
  -4.136544e+04   6.775721e+04
  -2.567551e+05  -2.596065e+05
  -2.009692e+05  -6.090549e+05
   1.598874e+05  -4.827843e+05
   5.133836e+05   1.571628e+05
   4.799308e+05   7.671566e+05
  -1.620170e+04   7.509609e+05
  -6.016404e+05   9.266962e+04
  -7.242000e+05  -6.197910e+05
  -1.903535e+05  -8.074461e+05
   5.492330e+05  -4.343495e+05
   7.916827e+05   9.441767e+04
   3.468799e+05   4.110304e+05
  -2.144617e+05   4.323355e+05
  -2.273282e+05   2.565450e+05
   2.473587e+05   4.405834e+04
   5.005241e+05  -3.981599e+03
   8.184544e+04   2.166481e+05
  -6.277680e+05   4.984085e+05
  -8.957048e+05   4.341435e+05
  -5.034876e+05  -8.670311e+04
   9.100140e+04  -6.173921e+05
   3.661351e+05  -6.056279e+05
   2.487074e+05  -7.205182e+04
  -7.201913e+03   3.806230e+05
  -1.949174e+05   2.821485e+05
  -2.561550e+05  -1.751682e+05
  -1.679099e+05  -4.355505e+05
   5.744337e+04  -2.611371e+05
   2.841024e+05   6.646322e+04
   3.319103e+05   1.746090e+05
   1.820208e+05   3.959561e+04
   2.077421e+03  -6.279006e+04
  -7.053040e+04   6.163344e+04
  -8.417326e+04   2.913655e+05
  -1.564982e+05   3.300526e+05
  -2.662162e+05   4.463403e+04
  -2.468207e+05  -3.521128e+05
   2.009088e+03  -4.820369e+05
   3.365811e+05  -1.928374e+05
   4.443325e+05   2.562804e+05
   1.436555e+05   4.519545e+05
  -3.663903e+05   2.542810e+05
  -6.163978e+05  -9.730482e+04
  -3.302273e+05  -2.901859e+05
   2.215810e+05  -2.470409e+05
   4.573490e+05  -1.038728e+05
   1.394996e+05  -4.580020e+03
  -3.170282e+05  -1.133494e+04
  -3.188344e+05  -1.240917e+05
   1.880208e+05  -2.454441e+05
   6.437071e+05  -1.733959e+05
