
 $NMID
 id='ANONYMOUS ', fmtdat='(2E16.6)'
 volume=1.0
 tramp=1.0
 $END
  -1.268399e+07   2.138856e+06
  -8.406173e+06  -7.919718e+06
   1.564537e+06  -9.401615e+06
   6.550589e+06  -2.976846e+06
   3.593768e+06   2.783083e+06
  -1.302229e+06   2.730172e+06
  -2.507124e+06  -5.574318e+05
  -4.537317e+05  -2.495635e+06
   1.640539e+06  -1.908144e+06
   2.276751e+06  -1.850416e+05
   1.656142e+06   1.370885e+06
   2.337109e+05   1.887399e+06
  -1.037586e+06   8.801341e+05
  -8.682524e+05  -7.410891e+05
   6.239900e+05  -1.074417e+06
   1.599840e+06   3.972933e+05
   8.213381e+05   2.022665e+06
  -8.736416e+05   2.203470e+06
  -2.048350e+06   1.130957e+06
  -2.308325e+06  -2.442502e+05
  -1.797047e+06  -1.512851e+06
  -4.926214e+05  -2.285204e+06
   1.027545e+06  -1.823459e+06
   1.421759e+06  -3.223111e+05
   3.639852e+05   6.042198e+05
  -5.514798e+05  -6.124862e+04
   1.043318e+05  -1.151687e+06
   1.501635e+06  -9.485065e+05
   1.812962e+06   4.033279e+05
   7.905575e+05   1.380310e+06
  -2.944414e+05   1.306554e+06
  -6.906527e+05   7.490381e+05
  -6.809904e+05   1.913020e+05
  -4.446891e+05  -2.886111e+05
   8.664440e+04  -3.302143e+05
   3.825288e+05   3.121989e+05
  -2.034729e+05   8.374889e+05
  -1.074041e+06   2.577819e+05
  -9.479253e+05  -8.618931e+05
   6.921153e+04  -9.967601e+05
   4.746970e+05  -9.908825e+04
  -1.935724e+05   1.847617e+05
  -4.803764e+05  -8.015985e+05
   6.343693e+05  -1.470139e+06
   1.911260e+06  -3.801011e+05
   1.567484e+06   1.461090e+06
  -1.541832e+05   1.976493e+06
  -1.419059e+06   8.172787e+05
  -1.224367e+06  -5.305618e+05
  -2.038316e+05  -8.883912e+05
   6.161900e+05  -3.870884e+05
   7.499529e+05   3.478124e+05
   1.557992e+05   8.290142e+05
  -7.550896e+05   6.446726e+05
  -1.098700e+06  -1.869555e+05
  -4.281520e+05  -8.243921e+05
   4.187601e+05  -4.983576e+05
   2.955814e+05   2.467228e+05
  -5.235361e+05   1.828623e+05
  -6.435718e+05  -7.300668e+05
   3.611403e+05  -1.196230e+06
   1.304990e+06  -5.049817e+05
   1.166381e+06   5.176285e+05
   3.959486e+05   9.055397e+05
  -1.207241e+05   8.271580e+05
  -3.933684e+05   7.933725e+05
  -7.867221e+05   5.585381e+05
  -9.561370e+05  -2.289581e+05
  -3.817671e+05  -9.522035e+05
   4.700114e+05  -7.085163e+05
   5.808815e+05   2.297031e+05
  -1.386548e+05   6.631026e+05
  -7.094652e+05   1.244755e+05
  -4.672642e+05  -5.988414e+05
   1.842122e+05  -6.857009e+05
   5.321849e+05  -2.412147e+05
   4.007517e+05   1.622020e+05
   4.248120e+04   2.424729e+05
  -2.539677e+05   3.381170e+04
  -2.224330e+05  -3.161703e+05
   2.398710e+05  -4.890266e+05
   7.624085e+05  -1.639327e+05
   7.473396e+05   4.868410e+05
   1.415042e+05   8.374200e+05
  -4.260772e+05   5.832416e+05
  -4.824360e+05   1.260999e+05
  -2.748269e+05  -4.401657e+04
  -2.457317e+05   2.026885e+04
  -3.649541e+05  -7.129113e+03
  -3.390020e+05  -1.774009e+05
  -1.446176e+05  -3.293285e+05
   4.373525e+04  -4.158498e+05
   2.027897e+05  -4.228426e+05
   3.517909e+05  -2.166648e+05
   3.217375e+05   1.704667e+05
   3.419656e+04   3.506377e+05
  -1.880842e+05   7.954789e+04
  -2.361455e+04  -2.716718e+05
   2.927192e+05  -1.986631e+05
   2.872812e+05   1.599315e+05
   7.246658e+03   2.541847e+05
  -6.785892e+04   2.786705e+04
   1.491863e+05  -1.554964e+04
   1.963318e+05   3.000011e+05
  -1.472696e+05   4.916213e+05
  -4.679695e+05   1.995328e+05
  -3.741430e+05  -2.367286e+05
  -7.710702e+04  -3.290978e+05
   2.641368e+04  -1.450081e+05
  -2.947247e+04  -5.579982e+04
   1.539928e+04  -1.038727e+05
   1.161911e+05  -7.306038e+04
   5.029656e+04   1.720058e+04
  -9.609700e+04  -4.424970e+04
  -2.713425e+04  -2.090262e+05
   2.349551e+05  -1.927880e+05
   3.402564e+05   4.857142e+04
   1.502639e+05   2.359771e+05
  -7.854491e+04   2.021975e+05
  -1.147718e+05   8.643448e+04
  -3.398200e+04   3.467547e+04
   1.269179e+04   9.382001e+03
   2.160490e+04  -1.590812e+04
   7.185713e+03   3.841752e+04
  -9.036088e+04   1.374903e+05
  -2.217475e+05   8.498162e+04
  -1.844494e+05  -1.458578e+05
   6.594638e+04  -2.746840e+05
   2.575429e+05  -1.022469e+05
   1.498796e+05   1.629902e+05
  -1.148567e+05   1.883528e+05
  -2.107883e+05  -2.159300e+04
  -6.213085e+04  -1.793994e+05
   1.237591e+05  -1.302379e+05
   1.721447e+05   1.701999e+04
   9.056621e+04   1.166595e+05
  -4.161491e+04   1.261842e+05
  -1.417215e+05   4.347207e+04
  -1.128289e+05  -9.581143e+04
   5.584979e+04  -1.588359e+05
   1.925592e+05  -3.667226e+04
   1.164625e+05   1.612217e+05
  -9.908413e+04   2.019502e+05
  -2.033238e+05   3.986408e+04
  -1.070368e+05  -1.297955e+05
   3.197996e+04  -1.539928e+05
   7.745819e+04  -8.829329e+04
   7.590155e+04  -3.317215e+04
   9.466034e+04   1.984797e+04
   8.673294e+04   9.210189e+04
   1.489761e+04   1.223420e+05
  -4.568355e+04   7.796585e+04
  -4.259374e+04   3.773210e+04
  -5.060993e+04   5.210199e+04
  -1.206957e+05   3.637130e+04
  -1.499722e+05  -7.370450e+04
  -4.504055e+04  -1.686600e+05
   9.116511e+04  -1.167730e+05
   9.938022e+04   1.487577e+04
   1.264834e+04   5.541172e+04
  -1.087328e+04  -8.549188e+03
   4.736548e+04  -3.963278e+04
   5.793045e+04   8.717883e+03
  -1.481557e+04   3.768314e+04
  -5.529664e+04  -4.748395e+02
  -7.459354e+03  -2.701418e+04
   3.797385e+04  -6.833279e+02
   2.472936e+04   5.654903e+03
   3.141428e+04  -3.713324e+04
   1.013413e+05  -2.888021e+04
   1.219279e+05   8.663565e+04
  -7.872996e+02   1.868241e+05
  -1.593025e+05   1.346929e+05
  -1.795598e+05  -9.678578e+03
  -6.929119e+04  -7.702171e+04
   1.009691e+04  -3.360189e+04
  -1.740675e+04  -1.567055e+03
  -6.704983e+04  -5.628369e+04
  -4.851331e+04  -1.319075e+05
   2.534003e+04  -1.388947e+05
   9.787223e+04  -7.073260e+04
   1.344991e+05   2.761608e+04
   1.084456e+05   1.107238e+05
   1.195592e+04   1.287158e+05
  -8.950445e+04   5.246882e+04
  -9.553040e+04  -6.370251e+04
  -2.321359e+02  -1.099031e+05
   8.435472e+04  -4.658220e+04
   7.136196e+04   4.876700e+04
   3.321900e+03   8.698027e+04
  -2.742480e+04   6.524558e+04
  -4.565527e+03   3.218927e+04
   1.623028e+04   1.294806e+04
  -5.968908e+03   8.264700e+03
  -6.330526e+04   1.802945e+04
  -1.195175e+05   2.208556e+04
  -1.250959e+05  -1.831871e+04
  -4.777396e+04  -9.445018e+04
   7.130712e+04  -1.282573e+05
   1.294335e+05  -6.979151e+04
   7.763166e+04   2.016321e+04
  -9.792194e+03   4.495231e+04
  -3.120580e+04   1.663421e+03
   1.224753e+04  -2.929689e+04
   4.326278e+04  -6.207075e+03
   3.258123e+04   3.233971e+04
   1.874422e+04   4.406439e+04
   1.886350e+04   3.306462e+04
   5.409196e+03   1.470028e+04
  -2.138691e+04  -7.505364e+03
  -2.070519e+04  -1.498153e+04
   6.768748e+03   1.688272e+04
   2.231925e+03   6.182875e+04
  -4.849803e+04   5.291059e+04
  -6.932050e+04  -1.957782e+04
  -7.385423e+03  -7.443786e+04
   6.782794e+04  -4.528385e+04
   5.217207e+04   2.577866e+04
  -4.246673e+04   4.928461e+04
  -1.018112e+05   7.273207e+03
  -6.044199e+04  -4.306411e+04
   2.983262e+04  -5.823275e+04
   8.334920e+04  -4.271809e+04
   7.095471e+04  -1.021790e+04
   1.772400e+04   2.824056e+04
  -3.428570e+04   4.087088e+04
  -4.285798e+04   1.374997e+03
   7.731028e+03  -5.119647e+04
   7.264220e+04  -3.735694e+04
   7.619401e+04   5.289444e+04
   9.613526e+02   1.239550e+05
  -8.225105e+04   8.564362e+04
  -9.611459e+04  -3.201071e+04
  -4.085270e+04  -1.141351e+05
   2.509339e+04  -9.262687e+04
   5.785041e+04  -6.643567e+03
   5.199869e+04   5.878361e+04
   1.883053e+04   6.088799e+04
  -2.071674e+04   2.347953e+04
  -3.642114e+04  -3.416877e+03
  -1.951481e+04   1.650766e+03
  -4.940073e+03   1.269805e+04
  -2.738009e+04  -6.755771e+03
  -6.073407e+04  -5.085488e+04
  -4.209639e+04  -7.315980e+04
   3.799611e+04  -4.677762e+04
   1.081368e+05   1.118335e+03
   9.789999e+04   3.007646e+04
   2.044092e+04   3.635924e+04
  -4.853624e+04   3.725968e+04
  -5.709427e+04   2.982778e+04
  -2.088187e+04   3.112245e+03
   9.797331e+03  -2.309373e+04
   6.826928e+03  -1.730027e+04
  -1.225992e+04   7.778482e+03
  -8.899629e+03   5.962351e+03
   2.839512e+04  -2.559620e+04
   6.203974e+04  -2.876237e+04
   4.293811e+04   2.963743e+04
  -2.782843e+04   9.431452e+04
  -9.139257e+04   8.480540e+04
  -9.398705e+04   2.515276e+02
  -4.231211e+04  -8.045791e+04
   1.468790e+04  -9.440253e+04
   4.195693e+04  -5.334676e+04
   3.888745e+04  -8.370479e+03
   2.012207e+04   9.231318e+03
   2.416895e+03   3.696294e+03
   3.749352e+03  -2.179930e+03
   2.688766e+04   1.145926e+04
   4.210543e+04   4.035959e+04
   1.386901e+04   5.151602e+04
  -4.572837e+04   1.755001e+04
  -7.500848e+04  -4.057555e+04
  -3.269877e+04  -6.661499e+04
   4.551714e+04  -3.318548e+04
   8.178617e+04   2.665597e+04
   4.218800e+04   6.127878e+04
  -2.978835e+04   5.348333e+04
  -6.597893e+04   2.004548e+04
  -4.497980e+04  -1.776872e+04
  -5.166862e+03  -4.198217e+04
   5.187536e+03  -3.612423e+04
  -1.840680e+04  -5.275369e+03
  -3.568210e+04   1.223447e+04
  -1.192116e+04  -1.507302e+04
   3.874031e+04  -6.126329e+04
   6.880837e+04  -6.418999e+04
   5.257571e+04  -5.388114e+03
   1.172276e+04   5.929794e+04
  -1.654727e+04   6.547720e+04
  -1.989747e+04   1.606383e+04
  -9.210925e+03  -2.932765e+04
   6.436242e+03  -2.798681e+04
   2.264433e+04   5.802670e+03
   2.644890e+04   3.051834e+04
   5.600928e+03   2.582122e+04
  -2.660464e+04   5.237265e+03
  -3.798741e+04  -6.854841e+03
  -1.782800e+04  -2.049243e+03
   6.968764e+03   5.797826e+03
   8.106020e+03  -1.517749e+03
  -6.096260e+03  -2.239161e+04
  -5.500709e+03  -3.346573e+04
   1.696344e+04  -1.657577e+04
   3.389107e+04   1.682194e+04
   1.882053e+04   3.620882e+04
  -1.931020e+04   2.508919e+04
  -4.315542e+04  -4.407336e+03
  -2.524746e+04  -2.820126e+04
   2.196170e+04  -3.165078e+04
   5.418816e+04  -1.445111e+04
   3.838960e+04   1.303423e+04
  -9.454519e+03   3.256795e+04
  -3.768794e+04   2.805504e+04
  -1.709001e+04   3.525585e+03
   2.337168e+04  -1.424270e+04
   3.136046e+04  -2.896847e+03
  -5.007512e+03   2.571445e+04
  -4.549561e+04   3.366292e+04
