
 $NMID
 id='ANONYMOUS ', fmtdat='(2E16.6)'
 volume=1.0
 tramp=1.0
 $END
  -7.024411e+06   2.812348e+05
  -4.837625e+06  -3.185714e+06
  -1.287876e+05  -4.494947e+06
   2.979890e+06  -3.027579e+06
   2.550246e+06  -3.174497e+05
   1.637906e+05   1.276426e+06
  -1.433495e+06   6.462498e+05
  -1.095047e+06  -1.125464e+06
   3.079092e+05  -1.945023e+06
   1.308831e+06  -8.895245e+05
   1.161449e+06   8.799195e+05
   1.781935e+05   1.463350e+06
  -6.721507e+05   3.218080e+05
  -5.720375e+05  -1.206033e+06
   3.795723e+05  -1.448917e+06
   1.183188e+06  -1.678370e+05
   9.235514e+05   1.355657e+06
  -2.559908e+05   1.761675e+06
  -1.306173e+06   8.820607e+05
  -1.375857e+06  -3.481222e+05
  -6.242622e+05  -9.546418e+05
   5.947871e+04  -7.831832e+05
   2.006496e+04  -4.364754e+05
  -5.064142e+05  -5.157262e+05
  -6.490273e+05  -9.691621e+05
   1.466065e+05  -1.186992e+06
   1.388089e+06  -7.150543e+05
   1.898397e+06   2.054659e+05
   1.067538e+06   8.640064e+05
  -3.659408e+05   7.834958e+05
  -1.030837e+06   1.297479e+05
  -4.056287e+05  -4.970873e+05
   6.765990e+05  -5.628718e+05
   1.060546e+06   1.561590e+04
   5.166907e+05   7.756832e+05
  -2.276368e+05   1.017383e+06
  -4.640555e+05   4.583090e+05
  -1.866561e+05  -3.488371e+05
   1.335515e+05  -5.049932e+05
   1.324836e+05   1.754095e+05
  -1.789843e+05   8.373506e+05
  -5.081039e+05   5.870344e+05
  -5.050969e+05  -3.516260e+05
  -4.783652e+04  -8.612206e+05
   5.374279e+05  -3.057271e+05
   6.435715e+05   6.988186e+05
  -1.762362e+04   1.046123e+06
  -9.707222e+05   3.909958e+05
  -1.314874e+06  -5.964806e+05
  -6.267142e+05  -1.050510e+06
   5.375185e+05  -7.132689e+05
   1.150281e+06   6.901462e+03
   7.305962e+05   5.058223e+05
  -2.051883e+05   4.611189e+05
  -7.203804e+05   3.171144e+04
  -4.217876e+05  -3.127717e+05
   2.095209e+05  -2.378730e+05
   4.223048e+05   1.254985e+05
   3.117039e+04   3.411500e+05
  -4.262777e+05   1.587107e+05
  -3.418145e+05  -2.273122e+05
   2.564029e+05  -4.057239e+05
   7.216897e+05  -1.479188e+05
   4.873594e+05   4.126862e+05
  -3.311629e+05   8.764242e+05
  -1.062120e+06   8.345568e+05
  -1.153433e+06   1.924507e+05
  -6.632615e+05  -6.620941e+05
  -9.537827e+04  -1.128888e+06
   1.607566e+05  -9.659763e+05
   1.576433e+05  -5.243680e+05
   1.999641e+05  -2.953522e+05
   4.376043e+05  -3.085512e+05
   7.031041e+05  -1.727559e+05
   7.071380e+05   2.982646e+05
   3.360179e+05   7.374962e+05
  -2.227842e+05   6.384248e+05
  -5.944712e+05  -6.245834e+03
  -4.834937e+05  -6.452432e+05
   6.908389e+04  -7.321787e+05
   6.550041e+05  -2.399043e+05
   8.108114e+05   3.878049e+05
   4.474882e+05   6.978070e+05
  -6.086573e+04   6.005422e+05
  -2.899751e+05   3.501040e+05
  -2.379062e+05   2.289792e+05
  -2.789132e+05   2.654704e+05
  -6.297032e+05   2.384853e+05
  -9.906856e+05  -5.956486e+04
  -8.437209e+05  -5.713438e+05
  -8.322813e+04  -9.774075e+05
   7.705654e+05  -9.497557e+05
   1.052222e+06  -4.413378e+05
   6.080145e+05   2.263435e+05
  -7.372919e+04   5.817523e+05
  -3.712842e+05   4.013037e+05
  -1.212241e+05  -5.991827e+04
   2.992635e+05  -2.972770e+05
   4.214279e+05  -8.686859e+04
   1.571256e+05   2.613383e+05
  -1.698998e+05   2.765157e+05
  -1.980490e+05  -7.650549e+04
   1.112663e+05  -3.182345e+05
   4.534662e+05  -2.976967e+04
   4.625906e+05   6.073882e+05
   2.550841e+04   9.689282e+05
  -6.052137e+05   6.556577e+05
  -9.783596e+05  -9.849220e+04
  -7.977624e+05  -6.917164e+05
  -1.993907e+05  -7.417819e+05
   3.339438e+05  -3.796107e+05
   4.127398e+05  -3.273335e+04
   1.204222e+05   8.833744e+03
  -9.736817e+04  -1.781276e+05
   5.609183e+04  -2.939276e+05
   3.916864e+05  -1.509113e+05
   4.699621e+05   1.384923e+05
   1.375628e+05   2.949494e+05
  -2.660062e+05   1.712109e+05
  -2.775215e+05  -9.690227e+04
   1.617519e+05  -2.261118e+05
   6.109353e+05  -5.370855e+04
   5.766633e+05   3.126427e+05
   2.717139e+04   5.769672e+05
  -5.652948e+05   4.981905e+05
  -6.922176e+05   1.116933e+05
  -2.997436e+05  -2.685371e+05
   1.900027e+05  -3.218129e+05
   3.187881e+05  -4.386200e+04
   2.386646e+04   2.306647e+05
  -3.529099e+05   1.802717e+05
  -4.325740e+05  -1.477881e+05
  -1.515454e+05  -3.954939e+05
   2.137731e+05  -3.054790e+05
   3.290105e+05  -2.592797e+03
   1.185958e+05   1.687392e+05
  -1.624458e+05   3.381952e+04
  -1.768155e+05  -2.410660e+05
   1.421493e+05  -3.435395e+05
   4.913280e+05  -1.296364e+05
   4.951475e+05   2.504221e+05
   1.095372e+05   4.946304e+05
  -3.175671e+05   4.119855e+05
  -4.115102e+05   8.640444e+04
  -1.527117e+05  -1.981349e+05
   1.435732e+05  -2.186518e+05
   1.893420e+05  -1.994767e+04
   2.933303e+03   1.502668e+05
  -1.660559e+05   1.184949e+05
  -1.276282e+05  -3.010165e+04
   5.968678e+04  -6.868013e+04
   1.613983e+05   9.117638e+04
   9.267357e+03   2.800677e+05
  -3.116003e+05   2.455565e+05
  -5.132535e+05  -7.304436e+04
  -3.727241e+05  -4.597965e+05
   3.470565e+04  -6.098146e+05
   3.945705e+05  -4.046686e+05
   4.616814e+05  -1.638210e+04
   2.842339e+05   2.552975e+05
   1.029403e+05   2.585787e+05
   6.582554e+04   1.113846e+05
   9.382878e+04   4.670602e+04
   2.077639e+04   1.439568e+05
  -1.854511e+05   2.404827e+05
  -3.646506e+05   1.285093e+05
  -3.117880e+05  -1.783830e+05
   1.677567e+04  -4.147482e+05
   4.200228e+05  -3.192849e+05
   5.810291e+05   8.784417e+04
   3.306077e+05   4.983302e+05
  -1.793805e+05   5.902100e+05
  -5.823557e+05   3.125786e+05
  -6.118497e+05  -8.991060e+04
  -3.218738e+05  -3.212709e+05
   3.247978e+03  -2.994000e+05
   1.371497e+05  -1.873919e+05
   9.492826e+04  -1.783877e+05
   5.509537e+04  -2.723655e+05
   1.410522e+05  -2.853810e+05
   2.909067e+05  -7.664941e+04
   3.266410e+05   2.617935e+05
   1.454523e+05   4.675753e+05
  -1.505365e+05   3.604398e+05
  -3.240765e+05   2.008855e+04
  -2.263456e+05  -2.868968e+05
   4.577512e+04  -3.449175e+05
   2.392111e+05  -1.575068e+05
   2.018377e+05   9.322637e+04
   2.909557e+04   2.272109e+05
  -6.320105e+04   2.078276e+05
   7.183130e+03   1.297294e+05
   9.705844e+04   9.279369e+04
   9.986809e+03   9.916076e+04
  -2.594660e+05   6.984043e+04
  -4.811159e+05  -5.118879e+04
  -4.079297e+05  -2.211930e+05
  -4.192383e+04  -3.266030e+05
   3.375262e+05  -2.825505e+05
   4.348754e+05  -1.117008e+05
   2.258742e+05   6.413524e+04
  -3.861506e+04   1.186257e+05
  -1.124154e+05   3.404227e+04
   4.611903e+03  -7.138120e+04
   1.238075e+05  -5.632385e+04
   1.144757e+05   8.207923e+04
   2.849017e+04   1.864338e+05
  -9.316208e+03   1.193328e+05
   3.790566e+04  -5.067849e+04
   9.696534e+04  -1.070942e+05
   7.761353e+04   4.993908e+04
  -4.611156e+04   2.569552e+05
  -2.116635e+05   2.636075e+05
  -2.897058e+05   2.994964e+04
  -1.725217e+05  -2.199682e+05
   9.344468e+04  -2.489884e+05
   2.815818e+05  -5.600164e+04
   1.788699e+05   1.490178e+05
  -1.596982e+05   1.734357e+05
  -4.120207e+05   8.421730e+03
  -3.070157e+05  -1.981972e+05
   7.636884e+04  -2.818245e+05
   3.809272e+05  -1.835318e+05
   3.437515e+05   1.114918e+04
   5.668946e+04   1.368095e+05
  -1.561133e+05   9.037118e+04
  -8.625889e+04  -5.822622e+04
   1.591736e+05  -1.151678e+05
   2.905648e+05   4.055872e+04
   1.396775e+05   3.033718e+05
  -1.768735e+05   4.117115e+05
  -3.835301e+05   2.026871e+05
  -3.153654e+05  -1.969727e+05
  -5.463658e+04  -4.563302e+05
   1.802179e+05  -3.488661e+05
   2.415520e+05   1.587725e+04
   1.403172e+05   2.950672e+05
  -1.904064e+04   2.646217e+05
  -1.322911e+05   3.862669e+04
  -1.422698e+05  -9.859071e+04
  -6.694209e+04  -4.307147e+04
  -2.619324e+03   3.252999e+04
  -3.713334e+04  -5.372462e+04
  -1.206718e+05  -2.324687e+05
  -8.408304e+04  -2.779601e+05
   1.434800e+05  -1.108630e+05
   3.791426e+05   1.102531e+05
   3.555967e+05   2.050498e+05
   5.433367e+04   1.688105e+05
  -2.370641e+05   1.058510e+05
  -2.565744e+05   6.020665e+04
  -7.095835e+04   4.476684e+03
   4.522231e+04  -5.430569e+04
  -2.011174e+04  -6.759438e+04
  -9.716748e+04  -4.053935e+04
  -1.554908e+03  -3.447856e+04
   1.973978e+05  -4.856109e+04
   2.584229e+05   8.194069e+03
   6.635259e+04   1.647380e+05
  -2.353936e+05   2.780842e+05
  -4.020243e+05   1.733947e+05
  -3.163632e+05  -1.191890e+05
  -6.071930e+04  -3.560929e+05
   1.794521e+05  -3.372272e+05
   2.595715e+05  -1.176359e+05
   1.684811e+05   7.308239e+04
   2.192935e+04   8.825085e+04
  -4.220504e+04  -1.961698e+03
   1.169651e+04  -2.509148e+04
   9.073804e+04   8.298270e+04
   7.626404e+04   2.024468e+05
  -4.886901e+04   1.642641e+05
  -1.758686e+05  -4.854039e+04
  -1.691258e+05  -2.550322e+05
   3.121358e+02  -2.532728e+05
   2.037080e+05  -3.542611e+04
   2.499383e+05   2.031327e+05
   7.108764e+04   2.693922e+05
  -1.804175e+05   1.500831e+05
  -2.658159e+05  -2.362606e+04
  -1.196092e+05  -1.322925e+05
   6.696815e+04  -1.453249e+05
   7.121320e+04  -8.836875e+04
  -8.602990e+04  -1.292078e+04
  -1.686488e+05   6.776606e+03
  -2.889322e+04  -7.137501e+04
   2.054173e+05  -1.749573e+05
   2.937885e+05  -1.575858e+05
   1.672824e+05   2.200809e+04
  -2.422807e+04   2.076341e+05
  -1.142246e+05   2.061760e+05
  -8.035975e+04   2.467615e+04
  -5.526400e+02  -1.291868e+05
   6.295342e+04  -9.556305e+04
   8.842736e+04   5.828719e+04
   6.093081e+04   1.446073e+05
  -1.736469e+04   8.636829e+04
  -9.638166e+04  -2.026750e+04
  -1.124729e+05  -5.361960e+04
  -6.126457e+04  -9.892167e+03
  -1.364040e+03   1.954355e+04
   2.236855e+04  -2.524970e+04
   2.804661e+04  -1.009739e+05
   5.405010e+04  -1.108970e+05
   9.122962e+04  -1.383129e+04
   8.415682e+04   1.190037e+05
   5.195885e+02   1.630529e+05
  -1.122978e+05   6.753098e+04
  -1.507897e+05  -8.293791e+04
  -5.231939e+04  -1.513312e+05
   1.195555e+05  -8.907809e+04
   2.070524e+05   2.709335e+04
   1.135675e+05   9.410217e+04
  -7.217272e+04   8.379560e+04
  -1.525070e+05   3.756764e+04
  -4.499705e+04   2.136412e+03
   1.099072e+05   1.720718e+03
   1.101851e+05   4.087726e+04
  -6.248192e+04   8.670197e+04
  -2.181653e+05   6.584522e+04
