
 $NMID
 id='ANONYMOUS ', fmtdat='(2E16.6)'
 volume=1.0
 tramp=1.0
 $END
  -5.844049e+07   1.746209e+06
  -3.609921e+07  -3.560817e+07
   6.907541e+06  -3.996395e+07
   2.841003e+07  -1.560663e+07
   1.717987e+07   7.281431e+06
  -3.390756e+06   9.774354e+06
  -1.020238e+07  -1.307816e+06
  -2.883870e+06  -1.013475e+07
   6.379397e+06  -9.583017e+06
   9.939895e+06  -2.102644e+06
   7.322489e+06   6.173820e+06
   1.068878e+06   8.726795e+06
  -3.973186e+06   2.972070e+06
  -2.769148e+06  -5.344909e+06
   3.769757e+06  -6.647315e+06
   8.143097e+06   1.283913e+06
   4.780697e+06   1.042128e+07
  -3.637928e+06   1.224352e+07
  -1.026439e+07   6.395683e+06
  -1.125617e+07  -1.722547e+06
  -7.208004e+06  -7.515821e+06
  -1.096028e+06  -9.066386e+06
   2.946108e+06  -6.539862e+06
   2.169044e+06  -2.824653e+06
  -9.531115e+05  -1.922771e+06
  -4.442697e+05  -4.019059e+06
   5.152293e+06  -4.627209e+06
   9.686450e+06  -9.169552e+05
   7.343406e+06   3.905712e+06
   5.938377e+05   5.154063e+06
  -3.515659e+06   2.842333e+06
  -2.495353e+06   3.087152e+05
   3.644937e+05  -7.653772e+05
   2.006915e+06  -5.729653e+05
   2.182266e+06   1.164592e+06
   9.563309e+05   3.802407e+06
  -1.630752e+06   4.050784e+06
  -3.426145e+06   1.607476e+05
  -2.044387e+06  -3.668765e+06
   6.972855e+05  -2.200137e+06
   5.024532e+05   2.295635e+06
  -2.404987e+06   2.333114e+06
  -2.563279e+06  -3.264471e+06
   2.467529e+06  -6.427146e+06
   7.325951e+06  -1.233128e+06
   5.553114e+06   7.082803e+06
  -1.786570e+06   8.932853e+06
  -7.608469e+06   2.718750e+06
  -7.168995e+06  -4.393943e+06
  -1.929796e+06  -6.096877e+06
   3.499527e+06  -2.764200e+06
   5.313538e+06   1.521176e+06
   2.444494e+06   3.539391e+06
  -2.492052e+06   2.287345e+06
  -4.673944e+06  -8.821505e+05
  -2.037855e+06  -2.783612e+06
   1.746037e+06  -1.451343e+06
   1.753783e+06   1.025115e+06
  -1.441331e+06   9.180556e+05
  -2.608202e+06  -1.902503e+06
   6.827628e+05  -3.705483e+06
   4.880250e+06  -2.083538e+06
   5.540647e+06   1.362408e+06
   2.461227e+06   4.093720e+06
  -1.661691e+06   5.422376e+06
  -4.863368e+06   5.067718e+06
  -6.205627e+06   2.007418e+06
  -4.804834e+06  -3.014809e+06
  -1.172943e+06  -6.221950e+06
   1.827815e+06  -4.863852e+06
   1.841223e+06  -1.175463e+06
   1.256305e+05   4.054898e+05
  -2.351557e+05  -9.106264e+05
   1.394138e+06  -1.904590e+06
   2.750256e+06  -4.591434e+05
   2.110320e+06   1.741139e+06
   1.679924e+05   2.066417e+06
  -1.445712e+06   2.534720e+05
  -1.680830e+06  -1.966195e+06
  -1.069798e+05  -2.901738e+06
   2.697858e+06  -1.782302e+06
   4.571749e+06   1.003319e+06
   3.444967e+06   3.707121e+06
   1.255507e+05   4.363602e+06
  -2.271789e+06   2.900201e+06
  -2.306490e+06   1.227369e+06
  -1.878276e+06   6.957004e+05
  -2.955833e+06   5.067885e+05
  -4.378771e+06  -6.940851e+05
  -3.544368e+06  -2.705494e+06
  -2.125903e+05  -4.118594e+06
   3.097295e+06  -3.962914e+06
   4.079791e+06  -2.245575e+06
   2.663468e+06   2.964228e+05
   3.894213e+05   2.192925e+06
  -9.981760e+05   1.976471e+06
  -5.664668e+05   4.396690e+02
   1.036381e+06  -1.340421e+06
   1.911220e+06  -4.517295e+05
   9.810197e+05   1.189287e+06
  -4.717346e+05   1.118478e+06
  -3.977567e+05  -3.953384e+05
   1.125568e+06  -6.677100e+05
   1.910054e+06   1.392062e+06
   6.093666e+05   3.590773e+06
  -1.701905e+06   3.405849e+06
  -3.204184e+06   1.020831e+06
  -3.269835e+06  -1.489351e+06
  -2.217289e+06  -2.705914e+06
  -4.647276e+05  -2.548271e+06
   1.188494e+06  -1.476896e+06
   1.553475e+06  -2.740013e+05
   4.928966e+05   3.538843e+04
  -3.718833e+05  -7.472145e+05
   4.012593e+05  -1.371635e+06
   1.931755e+06  -6.252787e+05
   2.074815e+06   8.779435e+05
   3.998268e+05   1.439208e+06
  -1.173992e+06   5.851822e+05
  -8.716549e+05  -4.484024e+05
   8.684732e+05  -4.941005e+05
   2.157905e+06   3.434559e+05
   1.698041e+06   1.337512e+06
  -2.568056e+05   1.933004e+06
  -2.275888e+06   1.657851e+06
  -2.762665e+06   3.131734e+05
  -1.248751e+06  -1.259644e+06
   8.993847e+05  -1.551617e+06
   1.590095e+06  -2.326645e+05
   2.432130e+05   1.093590e+06
  -1.510996e+06   7.753436e+05
  -1.735411e+06  -7.678480e+05
  -3.374895e+05  -1.657639e+06
   1.107647e+06  -9.699119e+05
   1.261525e+06   3.313773e+05
   2.322626e+05   7.969452e+05
  -8.185003e+05   6.656590e+04
  -7.688814e+05  -1.046282e+06
   5.391936e+05  -1.444443e+06
   1.996655e+06  -5.961210e+05
   2.066824e+06   1.004628e+06
   4.266893e+05   2.077421e+06
  -1.424359e+06   1.676533e+06
  -1.733268e+06   2.304043e+05
  -5.060228e+05  -8.710134e+05
   6.547362e+05  -8.091390e+05
   6.137684e+05  -8.698331e+04
  -1.339419e+05   3.318790e+05
  -4.663254e+05   1.782654e+05
  -6.663850e+04  -6.239541e+04
   4.862962e+05   1.126878e+05
   5.197476e+05   7.052522e+05
  -2.122294e+05   1.203629e+06
  -1.379406e+06   9.162595e+05
  -2.093906e+06  -3.805959e+05
  -1.507164e+06  -1.920024e+06
   1.703252e+05  -2.419299e+06
   1.587962e+06  -1.416706e+06
   1.668419e+06   1.187152e+05
   8.304322e+05   8.612841e+05
   3.080396e+05   5.868711e+05
   5.076326e+05   1.679635e+05
   6.734260e+05   3.097696e+05
   1.149108e+05   7.869434e+05
  -8.728633e+05   9.123854e+05
  -1.437568e+06   3.299280e+05
  -1.033281e+06  -6.993890e+05
   2.462573e+05  -1.434225e+06
   1.701394e+06  -1.080688e+06
   2.244608e+06   4.495392e+05
   1.154893e+06   2.088284e+06
  -9.952316e+05   2.391915e+06
  -2.549498e+06   1.060817e+06
  -2.352671e+06  -6.504944e+05
  -9.350794e+05  -1.328860e+06
   2.188340e+05  -9.137376e+05
   3.568084e+05  -4.774205e+05
   1.222980e+04  -7.521388e+05
   4.820067e+04  -1.336775e+06
   6.503621e+05  -1.326631e+06
   1.302448e+06  -3.545251e+05
   1.366685e+06   1.048832e+06
   5.990874e+05   1.880372e+06
  -5.879363e+05   1.448885e+06
  -1.282987e+06   1.610073e+04
  -8.303579e+05  -1.283953e+06
   3.877506e+05  -1.409551e+06
   1.187678e+06  -4.023708e+05
   8.344591e+05   7.266900e+05
  -1.302884e+05   1.107862e+06
  -5.621055e+05   7.924560e+05
  -9.557978e+04   4.033627e+05
   4.467143e+05   3.165094e+05
   7.251925e+04   3.774796e+05
  -1.159248e+06   2.297861e+05
  -2.090918e+06  -2.962434e+05
  -1.640323e+06  -1.018139e+06
   3.181633e+04  -1.458502e+06
   1.595127e+06  -1.185603e+06
   1.839276e+06  -2.970984e+05
   8.384447e+05   5.132418e+05
  -2.610597e+05   5.923443e+05
  -5.221047e+05   3.111078e+04
  -5.323012e+04  -4.400420e+05
   4.246375e+05  -2.730670e+05
   4.932989e+05   3.298466e+05
   2.958365e+05   7.059005e+05
   1.321727e+05   4.718921e+05
   1.343822e+05  -7.838414e+04
   2.546094e+05  -2.722262e+05
   2.755066e+05   2.300667e+05
  -1.068357e+05   9.780488e+05
  -8.761288e+05   1.091392e+06
  -1.388806e+06   2.287668e+05
  -9.061817e+05  -8.898440e+05
   3.857812e+05  -1.175609e+06
   1.266046e+06  -3.968092e+05
   7.503609e+05   5.457434e+05
  -6.959958e+05   6.583298e+05
  -1.577951e+06  -8.022808e+04
  -9.840036e+05  -8.538705e+05
   4.955327e+05  -9.764889e+05
   1.483810e+06  -4.654792e+05
   1.210267e+06   1.909015e+05
   1.278462e+05   5.051553e+05
  -6.488024e+05   2.679854e+05
  -4.021854e+05  -2.945295e+05
   5.553364e+05  -5.507895e+05
   1.185733e+06   2.608616e+04
   7.309006e+05   1.147682e+06
  -5.070746e+05   1.727471e+06
  -1.439744e+06   9.466344e+05
  -1.275563e+06  -7.100912e+05
  -2.531577e+05  -1.775442e+06
   7.076277e+05  -1.291795e+06
   9.232940e+05   1.768674e+05
   4.356042e+05   1.184548e+06
  -2.285678e+05   9.573389e+05
  -5.696982e+05   8.486026e+04
  -4.505997e+05  -3.617700e+05
  -1.397130e+05  -1.268339e+05
  -5.696647e+04   8.890960e+04
  -3.262019e+05  -3.029982e+05
  -5.481464e+05  -9.583780e+05
  -1.845984e+05  -1.067975e+06
   7.411094e+05  -4.089565e+05
   1.478214e+06   4.256301e+05
   1.267499e+06   8.046427e+05
   1.992776e+05   6.994690e+05
  -8.121162e+05   4.425739e+05
  -9.676345e+05   1.963083e+05
  -3.869260e+05  -5.880802e+04
   1.275530e+05  -2.315910e+05
   6.558682e+04  -1.908402e+05
  -2.288550e+05  -6.910852e+04
  -6.908808e+04  -1.282738e+05
   6.124907e+05  -2.679475e+05
   1.050628e+06  -3.347814e+04
   5.113570e+05   6.809536e+05
  -7.650818e+05   1.225576e+06
  -1.699045e+06   8.420815e+05
  -1.472242e+06  -3.591907e+05
  -3.371555e+05  -1.388914e+06
   7.308256e+05  -1.415001e+06
   1.030605e+06  -6.008278e+05
   6.562363e+05   1.880659e+05
   1.634026e+05   3.535302e+05
  -3.200301e+04   9.046947e+04
   9.526379e+04   6.937746e+03
   2.948407e+05   3.710688e+05
   2.583111e+05   8.012973e+05
  -1.467939e+05   6.939222e+05
  -6.759703e+05  -6.929409e+04
  -7.966103e+05  -8.958962e+05
  -1.995866e+05  -1.029240e+06
   7.165962e+05  -3.142723e+05
   1.073378e+06   6.437016e+05
   4.168354e+05   1.077262e+06
  -6.791315e+05   7.348580e+05
  -1.141405e+06  -1.919602e+04
  -5.800119e+05  -6.192940e+05
   2.621169e+05  -7.269129e+05
   3.989923e+05  -3.932131e+05
  -2.095270e+05   1.258024e+04
  -6.379616e+05   6.951233e+04
  -1.718569e+05  -3.091041e+05
   8.006510e+05  -7.047310e+05
   1.273615e+06  -5.608103e+05
   8.088312e+05   1.764404e+05
  -5.903803e+04   8.882722e+05
  -5.522858e+05   8.950855e+05
  -4.561469e+05   2.083352e+05
  -9.188557e+04  -4.601257e+05
   2.136700e+05  -4.654856e+05
   3.537835e+05   9.886386e+04
   2.825136e+05   5.658279e+05
  -2.439791e+04   4.609177e+05
  -3.935541e+05  -1.351841e+04
  -5.007294e+05  -2.856164e+05
  -2.480944e+05  -1.088021e+05
   5.977959e+04   1.753612e+05
   8.850869e+04   9.721647e+04
  -7.401424e+04  -3.274170e+05
  -4.472902e+04  -5.872094e+05
   2.837612e+05  -2.953423e+05
   5.189797e+05   3.151242e+05
   2.469498e+05   6.320469e+05
  -3.759339e+05   3.485148e+05
  -6.992133e+05  -2.262222e+05
  -2.958569e+05  -5.473815e+05
   5.030895e+05  -3.930544e+05
   9.070445e+05   2.064857e+04
   5.061476e+05   3.561321e+05
  -2.753742e+05   4.404721e+05
  -6.377024e+05   2.897461e+05
  -2.784046e+05   3.664267e+04
   3.010905e+05  -1.105865e+05
   3.920908e+05   5.767082e+03
  -1.238253e+05   2.717823e+05
  -6.770546e+05   3.018426e+05
