
 $NMID
 id='ANONYMOUS ', fmtdat='(2E16.6)'
 volume=1.0
 tramp=1.0
 $END
  -5.856624e+07  -2.131280e+05
  -3.482497e+07  -3.678271e+07
   8.276767e+06  -3.965903e+07
   2.881915e+07  -1.464322e+07
   1.682049e+07   7.782395e+06
  -3.697601e+06   9.604037e+06
  -1.007518e+07  -1.609559e+06
  -2.551133e+06  -1.014913e+07
   6.600892e+06  -9.340009e+06
   9.946242e+06  -1.799129e+06
   7.148002e+06   6.394844e+06
   8.307314e+05   8.776107e+06
  -4.085704e+06   2.866668e+06
  -2.667918e+06  -5.425709e+06
   3.915622e+06  -6.533110e+06
   8.074883e+06   1.527127e+06
   4.457067e+06   1.055462e+07
  -4.014383e+06   1.212167e+07
  -1.048078e+07   6.071388e+06
  -1.123188e+07  -2.102720e+06
  -6.967003e+06  -7.799047e+06
  -7.513874e+05  -9.132816e+06
   3.205846e+06  -6.401396e+06
   2.229170e+06  -2.664731e+06
  -9.918656e+05  -1.906653e+06
  -3.926751e+05  -4.078284e+06
   5.310302e+06  -4.558326e+06
   9.783494e+06  -6.774741e+05
   7.274386e+06   4.141777e+06
   4.336531e+05   5.237499e+06
  -3.653345e+06   2.798927e+06
  -2.576841e+06   2.279014e+05
   3.451596e+05  -8.418691e+05
   2.056018e+06  -6.060755e+05
   2.230519e+06   1.220992e+06
   8.929349e+05   3.893856e+06
  -1.777832e+06   4.034598e+06
  -3.477391e+06   1.102272e+04
  -1.924360e+06  -3.790246e+06
   8.274827e+05  -2.176610e+06
   4.906101e+05   2.356580e+06
  -2.453170e+06   2.288854e+06
  -2.456150e+06  -3.329319e+06
   2.668508e+06  -6.311488e+06
   7.350256e+06  -9.492632e+05
   5.302717e+06   7.278266e+06
  -2.088689e+06   8.859221e+06
  -7.702916e+06   2.474720e+06
  -7.048217e+06  -4.585905e+06
  -1.774865e+06  -6.127271e+06
   3.551859e+06  -2.672543e+06
   5.257899e+06   1.634473e+06
   2.348170e+06   3.573343e+06
  -2.546316e+06   2.198688e+06
  -4.636223e+06  -1.017398e+06
  -1.948301e+06  -2.832761e+06
   1.788683e+06  -1.395701e+06
   1.726245e+06   1.058867e+06
  -1.440859e+06   8.500010e+05
  -2.501763e+06  -1.970422e+06
   8.263656e+05  -3.629921e+06
   4.930508e+06  -1.884404e+06
   5.464769e+06   1.536946e+06
   2.321121e+06   4.156473e+06
  -1.821077e+06   5.394891e+06
  -5.022223e+06   4.975078e+06
  -6.295888e+06   1.851122e+06
  -4.748929e+06  -3.175775e+06
  -1.011996e+06  -6.283076e+06
   1.944869e+06  -4.809618e+06
   1.834367e+06  -1.115615e+06
   7.372189e+04   3.799088e+05
  -2.195716e+05  -9.814135e+05
   1.477936e+06  -1.925034e+06
   2.820532e+06  -4.065704e+05
   2.121566e+06   1.814706e+06
   1.423353e+05   2.112572e+06
  -1.468935e+06   2.566448e+05
  -1.673265e+06  -1.998443e+06
  -5.562284e+04  -2.926936e+06
   2.764662e+06  -1.735549e+06
   4.582526e+06   1.131206e+06
   3.357091e+06   3.828773e+06
  -1.289735e+04   4.384708e+06
  -2.372493e+06   2.830045e+06
  -2.340101e+06   1.148435e+06
  -1.882851e+06   6.438120e+05
  -2.960455e+06   4.456160e+05
  -4.367835e+06  -7.843270e+05
  -3.497200e+06  -2.781571e+06
  -1.353266e+05  -4.133854e+06
   3.184161e+06  -3.922985e+06
   4.150864e+06  -2.184563e+06
   2.686415e+06   3.543804e+05
   3.532366e+05   2.230174e+06
  -1.050492e+06   1.980062e+06
  -5.755567e+05  -1.299422e+04
   1.069321e+06  -1.331605e+06
   1.928484e+06  -4.126074e+05
   9.578113e+05   1.221116e+06
  -4.942801e+05   1.120890e+06
  -3.913322e+05  -3.910495e+05
   1.119463e+06  -6.323432e+05
   1.845688e+06   1.426532e+06
   5.191116e+05   3.571362e+06
  -1.744535e+06   3.336003e+06
  -3.181195e+06   9.526063e+05
  -3.226222e+06  -1.527031e+06
  -2.185658e+06  -2.725643e+06
  -4.365917e+05  -2.558376e+06
   1.218600e+06  -1.466790e+06
   1.569389e+06  -2.502813e+05
   4.942191e+05   4.444606e+04
  -3.591914e+05  -7.558904e+05
   4.320545e+05  -1.363384e+06
   1.949001e+06  -5.824067e+05
   2.056401e+06   9.220050e+05
   3.689025e+05   1.445600e+06
  -1.184995e+06   5.637778e+05
  -8.662358e+05  -4.577285e+05
   8.669290e+05  -4.757990e+05
   2.144568e+06   3.712165e+05
   1.681592e+06   1.353375e+06
  -2.783262e+05   1.926682e+06
  -2.303505e+06   1.625717e+06
  -2.774954e+06   2.669342e+05
  -1.225664e+06  -1.286973e+06
   9.374776e+05  -1.536277e+06
   1.600507e+06  -1.957754e+05
   2.189643e+05   1.105712e+06
  -1.531615e+06   7.484909e+05
  -1.723210e+06  -8.004847e+05
  -3.088291e+05  -1.661241e+06
   1.119752e+06  -9.476992e+05
   1.250182e+06   3.512809e+05
   2.165770e+05   7.957832e+05
  -8.197953e+05   4.732103e+04
  -7.504612e+05  -1.065509e+06
   5.692137e+05  -1.441160e+06
   2.017336e+06  -5.619312e+05
   2.056830e+06   1.047585e+06
   3.889382e+05   2.092249e+06
  -1.459426e+06   1.653289e+06
  -1.740083e+06   1.989596e+05
  -4.908904e+05  -8.794586e+05
   6.689129e+05  -7.985620e+05
   6.184587e+05  -8.103675e+04
  -1.313590e+05   3.274807e+05
  -4.631266e+05   1.782032e+05
  -6.969145e+04  -5.043284e+04
   4.731736e+05   1.274725e+05
   4.995700e+05   7.117312e+05
  -2.356222e+05   1.196661e+06
  -1.398382e+06   8.919005e+05
  -2.092650e+06  -4.197513e+05
  -1.476882e+06  -1.954261e+06
   2.126122e+05  -2.425086e+06
   1.612729e+06  -1.395255e+06
   1.668162e+06   1.418955e+05
   8.252762e+05   8.704765e+05
   3.135612e+05   5.936117e+05
   5.142175e+05   1.865770e+05
   6.654099e+05   3.315997e+05
   9.482117e+04   7.922074e+05
  -8.902927e+05   8.970075e+05
  -1.443684e+06   3.075594e+05
  -1.026760e+06  -7.138960e+05
   2.645923e+05  -1.431311e+06
   1.721079e+06  -1.055458e+06
   2.243069e+06   4.878234e+05
   1.120677e+06   2.111193e+06
  -1.040796e+06   2.375123e+06
  -2.571243e+06   1.014372e+06
  -2.341998e+06  -6.899141e+05
  -9.158772e+05  -1.339283e+06
   2.258443e+05  -9.084971e+05
   3.590561e+05  -4.804040e+05
   2.847378e+04  -7.662170e+05
   8.036835e+04  -1.345427e+06
   6.815421e+05  -1.316924e+06
   1.314660e+06  -3.285353e+05
   1.353388e+06   1.078838e+06
   5.680981e+05   1.898838e+06
  -6.159563e+05   1.444729e+06
  -1.286391e+06  -5.616480e+03
  -8.072201e+05  -1.300614e+06
   4.139497e+05  -1.401810e+06
   1.191210e+06  -3.770150e+05
   8.138329e+05   7.433724e+05
  -1.552836e+05   1.101312e+06
  -5.755426e+05   7.762351e+05
  -9.878531e+04   3.999414e+05
   4.444372e+05   3.277399e+05
   6.664531e+04   3.814380e+05
  -1.165836e+06   2.068245e+05
  -2.090476e+06  -3.389170e+05
  -1.624793e+06  -1.050626e+06
   6.137846e+04  -1.456749e+06
   1.622856e+06  -1.154383e+06
   1.846616e+06  -2.636397e+05
   8.250225e+05   5.266965e+05
  -2.756825e+05   5.862381e+05
  -5.211157e+05   2.031511e+04
  -4.056989e+04  -4.443117e+05
   4.329684e+05  -2.687919e+05
   4.893320e+05   3.408988e+05
   2.850814e+05   7.198517e+05
   1.238149e+05   4.814521e+05
   1.325063e+05  -7.750512e+04
   2.561901e+05  -2.737508e+05
   2.718090e+05   2.346940e+05
  -1.232846e+05   9.828632e+05
  -8.998959e+05   1.079281e+06
  -1.400764e+06   1.975052e+05
  -8.928614e+05  -9.160913e+05
   4.135585e+05  -1.172333e+06
   1.282877e+06  -3.709984e+05
   7.452495e+05   5.624198e+05
  -7.089323e+05   6.471720e+05
  -1.579654e+06  -1.054235e+05
  -9.722623e+05  -8.665862e+05
   5.089827e+05  -9.665039e+05
   1.489679e+06  -4.438930e+05
   1.207964e+06   2.070109e+05
   1.212979e+05   5.065076e+05
  -6.530214e+05   2.573461e+05
  -3.963854e+05  -3.042632e+05
   5.704528e+05  -5.453641e+05
   1.194184e+06   4.837998e+04
   7.149599e+05   1.170821e+06
  -5.428537e+05   1.731442e+06
  -1.466822e+06   9.275577e+05
  -1.270643e+06  -7.360810e+05
  -2.244991e+05  -1.788335e+06
   7.298964e+05  -1.285500e+06
   9.205376e+05   1.918760e+05
   4.170371e+05   1.192964e+06
  -2.423848e+05   9.528295e+05
  -5.710929e+05   7.423284e+04
  -4.476321e+05  -3.675539e+05
  -1.400610e+05  -1.259667e+05
  -5.721902e+04   8.699527e+04
  -3.185744e+05  -3.151173e+05
  -5.323359e+05  -9.737389e+05
  -1.687268e+05  -1.070889e+06
   7.493613e+05  -3.924964e+05
   1.477348e+06   4.520870e+05
   1.259711e+06   8.252654e+05
   1.871439e+05   7.051013e+05
  -8.243798e+05   4.343381e+05
  -9.738343e+05   1.822001e+05
  -3.845534e+05  -6.871687e+04
   1.328059e+05  -2.319002e+05
   6.598165e+04  -1.862390e+05
  -2.322379e+05  -6.882036e+04
  -6.709631e+04  -1.320403e+05
   6.228149e+05  -2.635153e+05
   1.057430e+06  -1.433976e+04
   4.996195e+05   7.002988e+05
  -7.940174e+05   1.222115e+06
  -1.724867e+06   8.121256e+05
  -1.474601e+06  -3.935005e+05
  -3.148503e+05  -1.403544e+06
   7.605963e+05  -1.407156e+06
   1.049434e+06  -5.847909e+05
   6.589361e+05   2.002782e+05
   1.574655e+05   3.602027e+05
  -3.746861e+04   9.411554e+04
   9.191799e+04   9.660957e+03
   2.885966e+05   3.754013e+05
   2.457689e+05   8.075942e+05
  -1.609384e+05   6.954669e+05
  -6.815111e+05  -8.115030e+04
  -7.874415e+05  -9.178053e+05
  -1.809061e+05  -1.043108e+06
   7.308686e+05  -3.052693e+05
   1.071386e+06   6.681951e+05
   3.990259e+05   1.093070e+06
  -6.991809e+05   7.266225e+05
  -1.147662e+06  -4.210137e+04
  -5.681550e+05  -6.347384e+05
   2.805487e+05  -7.247291e+05
   4.082079e+05  -3.839870e+05
  -2.132592e+05   1.292126e+04
  -6.432617e+05   5.956674e+04
  -1.661263e+05  -3.150283e+05
   8.164604e+05  -6.941697e+05
   1.285889e+06  -5.379629e+05
   8.055417e+05   1.953088e+05
  -7.683018e+04   8.917222e+05
  -5.719571e+05   8.856634e+05
  -4.644637e+05   1.964173e+05
  -8.556414e+04  -4.666813e+05
   2.254933e+05  -4.644299e+05
   3.577148e+05   1.060894e+05
   2.739503e+05   5.743339e+05
  -3.642572e+04   4.632229e+05
  -3.969867e+05  -2.103521e+04
  -4.952489e+05  -2.968023e+05
  -2.449883e+05  -1.133545e+05
   5.356982e+04   1.787148e+05
   8.090914e+04   9.819896e+04
  -7.011740e+04  -3.362582e+05
  -2.887146e+04  -5.979107e+05
   2.980253e+05  -2.929990e+05
   5.197680e+05   3.319845e+05
   2.363605e+05   6.467338e+05
  -3.863686e+05   3.452741e+05
  -7.009405e+05  -2.429104e+05
  -2.888737e+05  -5.577713e+05
   5.130441e+05  -3.848595e+05
   9.127216e+05   3.952635e+04
   5.023332e+05   3.681600e+05
  -2.875766e+05   4.373384e+05
  -6.496008e+05   2.782142e+05
  -2.805918e+05   2.868574e+04
   3.085775e+05  -1.095737e+05
   3.987595e+05   1.185375e+04
  -1.273009e+05   2.750244e+05
  -6.871790e+05   2.971839e+05
