
 $NMID
 id='ANONYMOUS ', fmtdat='(2E16.6)'
 volume=1.0
 tramp=1.0
 $END
  -3.434921e+07  -9.603740e+05
  -2.124478e+07  -1.937952e+07
   2.976812e+06  -2.244249e+07
   1.616880e+07  -1.117478e+07
   1.117567e+07   1.783440e+06
  -8.282600e+05   5.901119e+06
  -6.512976e+06   9.589037e+05
  -3.289131e+06  -5.841035e+06
   2.929245e+06  -7.489455e+06
   6.239931e+06  -2.537879e+06
   4.802776e+06   4.257025e+06
   4.260526e+05   6.243502e+06
  -2.932302e+06   1.500475e+06
  -2.011785e+06  -4.718691e+06
   2.306204e+06  -5.466034e+06
   5.289998e+06   2.208003e+05
   3.334647e+06   6.590824e+06
  -2.130513e+06   7.839998e+06
  -6.467737e+06   3.682026e+06
  -6.606119e+06  -1.794038e+06
  -3.321604e+06  -4.797199e+06
   1.675993e+05  -4.544879e+06
   1.061406e+06  -2.838715e+06
  -6.324392e+05  -2.105879e+06
  -1.839406e+06  -3.152302e+06
   4.696637e+05  -4.211473e+06
   5.226459e+06  -2.880710e+06
   7.616272e+06   7.019452e+05
   4.617604e+06   3.599833e+06
  -9.936529e+05   3.430000e+06
  -3.734716e+06   9.322262e+05
  -1.705984e+06  -1.318460e+06
   1.938945e+06  -1.624642e+06
   3.348856e+06   1.785192e+04
   1.872534e+06   2.454319e+06
  -5.070227e+05   3.722644e+06
  -1.805474e+06   2.233779e+06
  -1.402412e+06  -9.742447e+05
  -6.627233e+04  -2.363935e+06
   5.863004e+05  -1.035146e+05
  -4.605988e+05   2.824923e+06
  -2.098271e+06   2.072871e+06
  -1.906368e+06  -1.911208e+06
   7.855746e+05  -3.930554e+06
   3.449611e+06  -8.873267e+05
   2.935732e+06   3.957044e+06
  -8.665994e+05   5.111418e+06
  -4.718023e+06   1.472338e+06
  -5.225934e+06  -3.059480e+06
  -1.920809e+06  -4.512710e+06
   2.484934e+06  -2.485337e+06
   4.415970e+06   6.596208e+05
   2.453847e+06   2.401918e+06
  -1.297033e+06   1.741898e+06
  -3.127957e+06  -3.331899e+05
  -1.563634e+06  -1.651859e+06
   1.072911e+06  -9.490945e+05
   1.545925e+06   6.811926e+05
  -3.512887e+05   1.100902e+06
  -1.777737e+06  -1.974460e+05
  -5.924735e+05  -1.595097e+06
   2.081294e+06  -1.468868e+06
   3.370328e+06   1.870529e+05
   1.803627e+06   2.298809e+06
  -1.540427e+06   3.709019e+06
  -4.320486e+06   3.359917e+06
  -4.790217e+06   7.923161e+05
  -2.915731e+06  -2.743313e+06
  -3.154882e+05  -4.695234e+06
   1.118689e+06  -3.797924e+06
   9.815192e+05  -1.643048e+06
   5.747996e+05  -6.583991e+05
   1.143831e+06  -1.034338e+06
   2.296962e+06  -8.733687e+05
   2.593410e+06   7.937495e+05
   1.349895e+06   2.492558e+06
  -6.424190e+05   2.222466e+06
  -1.955887e+06  -3.152559e+04
  -1.621818e+06  -2.307115e+06
   2.852979e+05  -2.705709e+06
   2.517773e+06  -9.900936e+05
   3.314590e+06   1.478040e+06
   1.957955e+06   2.969396e+06
  -2.910412e+05   2.763232e+06
  -1.487133e+06   1.624825e+06
  -1.305259e+06   8.550606e+05
  -1.283886e+06   8.137312e+05
  -2.490312e+06   6.329082e+05
  -3.769842e+06  -5.438710e+05
  -3.062354e+06  -2.399201e+06
  -8.749389e+04  -3.698309e+06
   3.049471e+06  -3.427004e+06
   3.968441e+06  -1.577738e+06
   2.293657e+06   7.926652e+05
  -1.925503e+05   2.127293e+06
  -1.327298e+06   1.535967e+06
  -4.638565e+05  -1.786754e+05
   1.125061e+06  -1.090215e+06
   1.639252e+06  -2.665785e+05
   6.252361e+05   1.044121e+06
  -6.201700e+05   1.000937e+06
  -6.055242e+05  -3.320334e+05
   6.391868e+05  -9.718859e+05
   1.667975e+06   3.903155e+05
   1.233427e+06   2.620929e+06
  -5.594664e+05   3.422244e+06
  -2.535503e+06   1.865417e+06
  -3.411759e+06  -8.247738e+05
  -2.574547e+06  -2.671520e+06
  -5.248467e+05  -2.669074e+06
   1.270061e+06  -1.342452e+06
   1.516495e+06  -8.881284e+04
   4.491785e+05   5.413557e+04
  -3.208414e+05  -6.872838e+05
   3.171586e+05  -1.125751e+06
   1.579073e+06  -4.807575e+05
   1.758169e+06   6.928223e+05
   4.061695e+05   1.180699e+06
  -1.042742e+06   5.506684e+05
  -9.397997e+05  -4.216568e+05
   6.952221e+05  -6.878158e+05
   2.185380e+06   6.222901e+04
   1.913561e+06   1.276335e+06
  -9.654880e+04   2.034453e+06
  -2.186120e+06   1.652433e+06
  -2.584642e+06   2.510419e+05
  -1.071402e+06  -1.101827e+06
   8.084482e+05  -1.225575e+06
   1.276080e+06  -1.113254e+05
   8.015025e+04   9.083129e+05
  -1.370429e+06   6.134948e+05
  -1.572579e+06  -6.762484e+05
  -4.141008e+05  -1.506241e+06
   9.086485e+05  -1.016415e+06
   1.193095e+06   1.417559e+05
   3.372129e+05   6.701305e+05
  -6.519568e+05   6.621734e+04
  -6.214981e+05  -9.550969e+05
   5.905519e+05  -1.268032e+06
   1.861390e+06  -4.069201e+05
   1.814845e+06   1.027196e+06
   3.081955e+05   1.883220e+06
  -1.297320e+06   1.473720e+06
  -1.562526e+06   2.127214e+05
  -4.991592e+05  -7.781457e+05
   5.913230e+05  -7.618594e+05
   6.639319e+05  -4.515363e+04
  -5.221982e+04   4.778804e+05
  -5.769586e+05   3.305175e+05
  -3.468869e+05  -1.089173e+05
   2.940141e+05  -1.303040e+05
   5.396973e+05   4.608076e+05
  -8.976000e+04   1.059898e+06
  -1.240063e+06   8.322246e+05
  -1.902431e+06  -3.939873e+05
  -1.300713e+06  -1.801307e+06
   2.498386e+05  -2.252688e+06
   1.536146e+06  -1.374772e+06
   1.663709e+06   6.846832e+04
   9.316518e+05   9.464391e+05
   3.224493e+05   8.534895e+05
   3.011575e+05   3.584014e+05
   4.188898e+05   2.360472e+05
   5.273957e+04   6.007129e+05
  -7.703013e+05   8.439461e+05
  -1.371362e+06   3.596940e+05
  -1.069787e+06  -7.131412e+05
   1.827415e+05  -1.473440e+06
   1.622771e+06  -1.053753e+06
   2.118720e+06   4.605179e+05
   1.085176e+06   1.934355e+06
  -8.549661e+05   2.157959e+06
  -2.275851e+06   9.927570e+05
  -2.220011e+06  -5.243802e+05
  -1.037373e+06  -1.253012e+06
   1.150678e+05  -1.026452e+06
   4.827566e+05  -6.022192e+05
   2.858266e+05  -6.679457e+05
   2.155113e+05  -1.075433e+06
   6.064180e+05  -1.082153e+06
   1.134640e+06  -2.392640e+05
   1.181097e+06   1.035737e+06
   4.575114e+05   1.767117e+06
  -6.224369e+05   1.312837e+06
  -1.201051e+06  -3.473284e+03
  -7.614824e+05  -1.143185e+06
   2.919315e+05  -1.273977e+06
   9.740281e+05  -4.694191e+05
   7.279227e+05   4.832271e+05
  -9.598401e+03   8.963833e+05
  -3.582536e+05   7.385460e+05
  -2.753015e+04   4.465534e+05
   3.626691e+05   3.501628e+05
   2.881297e+04   3.672610e+05
  -1.010264e+06   1.937123e+05
  -1.822672e+06  -3.115947e+05
  -1.472296e+06  -9.357449e+05
  -3.317097e+04  -1.256268e+06
   1.377081e+06  -9.932807e+05
   1.658353e+06  -2.891079e+05
   7.995813e+05   3.491570e+05
  -1.994552e+05   4.629326e+05
  -4.409150e+05   7.393917e+04
   1.502739e+04  -3.110461e+05
   4.523741e+05  -2.037516e+05
   4.209671e+05   3.273973e+05
   1.244893e+05   6.939648e+05
  -8.874363e+03   4.462867e+05
   1.415666e+05  -1.478573e+05
   3.386599e+05  -3.407939e+05
   2.690852e+05   2.092893e+05
  -1.965382e+05   9.372251e+05
  -8.470869e+05   9.496556e+05
  -1.151680e+06   7.836640e+04
  -6.603664e+05  -8.610672e+05
   4.038881e+05  -9.580683e+05
   1.102765e+06  -1.993745e+05
   6.492672e+05   5.741047e+05
  -6.401649e+05   6.035865e+05
  -1.509626e+06  -7.361919e+04
  -1.034662e+06  -8.018496e+05
   3.834924e+05  -9.850545e+05
   1.429212e+06  -5.383357e+05
   1.224379e+06   1.402118e+05
   1.591850e+05   5.035867e+05
  -6.000583e+05   2.794632e+05
  -3.228179e+05  -2.518293e+05
   5.938461e+05  -4.261805e+05
   1.083687e+06   1.678360e+05
   5.132989e+05   1.141266e+06
  -6.801843e+05   1.527360e+06
  -1.441276e+06   7.243306e+05
  -1.142826e+06  -7.686920e+05
  -1.307345e+05  -1.693536e+06
   7.267325e+05  -1.235010e+06
   8.787980e+05   1.340105e+05
   4.312810e+05   1.119457e+06
  -1.593561e+05   9.457584e+05
  -5.079087e+05   9.742556e+04
  -4.781851e+05  -3.796047e+05
  -2.061236e+05  -1.550104e+05
  -2.698432e+04   1.070407e+05
  -1.744321e+05  -2.379806e+05
  -4.225772e+05  -8.965106e+05
  -2.201145e+05  -1.030181e+06
   5.992333e+05  -3.694299e+05
   1.378478e+06   4.739088e+05
   1.240939e+06   8.176481e+05
   1.648456e+05   6.439225e+05
  -8.632319e+05   3.603589e+05
  -9.467375e+05   1.660322e+05
  -2.908270e+05  -2.190823e+04
   1.633102e+05  -1.994476e+05
  -2.457627e+04  -2.273304e+05
  -3.121705e+05  -1.370529e+05
  -1.693168e+04  -1.284328e+05
   6.960107e+05  -1.711211e+05
   9.661230e+05   6.063913e+04
   2.842721e+05   6.399983e+05
  -8.808730e+05   1.028313e+06
  -1.557318e+06   6.084448e+05
  -1.216491e+06  -4.761671e+05
  -1.877286e+05  -1.328496e+06
   7.358703e+05  -1.238460e+06
   9.897215e+05  -4.258376e+05
   6.115665e+05   2.733658e+05
   8.598269e+04   3.352619e+05
  -1.219415e+05   1.751557e+04
   5.781465e+04  -5.912997e+04
   3.011448e+05   3.338666e+05
   2.327027e+05   7.623406e+05
  -1.999275e+05   6.131702e+05
  -6.412582e+05  -1.771868e+05
  -6.194059e+05  -9.485906e+05
  -7.853821e+03  -9.530394e+05
   7.423091e+05  -1.461938e+05
   9.184047e+05   7.563412e+05
   2.517515e+05   1.019328e+06
  -6.915130e+05   5.639821e+05
  -1.008549e+06  -1.189155e+05
  -4.450759e+05  -5.433011e+05
   2.800752e+05  -5.688783e+05
   3.148220e+05  -3.217206e+05
  -2.821132e+05  -4.045158e+04
  -6.196291e+05   7.286818e+03
  -1.092349e+05  -2.795084e+05
   7.900509e+05  -6.144427e+05
   1.146056e+06  -5.080833e+05
   6.536368e+05   1.427639e+05
  -1.198479e+05   7.848175e+05
  -4.921134e+05   7.614370e+05
  -3.453967e+05   1.026858e+05
  -5.634213e+03  -4.677869e+05
   2.441334e+05  -3.685352e+05
   3.230990e+05   1.951814e+05
   2.111460e+05   5.467072e+05
  -7.218753e+04   3.520114e+05
  -3.592158e+05  -7.442015e+04
  -4.196811e+05  -2.419437e+05
  -2.241779e+05  -6.762133e+04
   5.908687e+03   1.021862e+05
   8.004054e+04  -3.398797e+04
   6.763986e+04  -3.555668e+05
   1.533261e+05  -4.524143e+05
   3.277894e+05  -1.052154e+05
   3.482105e+05   4.193990e+05
   4.150665e+04   6.097302e+05
  -4.122764e+05   2.551165e+05
  -5.762268e+05  -3.101447e+05
  -1.929951e+05  -5.592353e+05
   4.693323e+05  -3.183910e+05
   7.900717e+05   1.173544e+05
   4.200190e+05   3.669975e+05
  -2.838954e+05   3.281481e+05
  -5.866575e+05   1.496828e+05
  -1.963838e+05   4.020720e+03
   3.734050e+05  -1.145161e+04
   3.940499e+05   1.259576e+05
  -2.098881e+05   2.941664e+05
  -7.692956e+05   2.225668e+05
