
 $NMID
 id='ANONYMOUS ', fmtdat='(2E16.6)'
 volume=1.0
 tramp=1.0
 $END
  -5.939645e+07  -1.209405e+06
  -3.462272e+07  -3.798594e+07
   9.165239e+06  -4.008681e+07
   2.948624e+07  -1.424061e+07
   1.684605e+07   8.279491e+06
  -3.968326e+06   9.651117e+06
  -1.015072e+07  -1.877303e+06
  -2.339590e+06  -1.032675e+07
   6.877537e+06  -9.271795e+06
   1.009005e+07  -1.596848e+06
   7.116332e+06   6.586119e+06
   6.987937e+05   8.872215e+06
  -4.174670e+06   2.844694e+06
  -2.605440e+06  -5.488800e+06
   4.071716e+06  -6.495653e+06
   8.135364e+06   1.710431e+06
   4.311967e+06   1.075944e+07
  -4.283484e+06   1.219225e+07
  -1.071948e+07   5.972184e+06
  -1.135624e+07  -2.306334e+06
  -6.959136e+06  -8.027765e+06
  -6.182429e+05  -9.309429e+06
   3.401092e+06  -6.461870e+06
   2.374160e+06  -2.625327e+06
  -9.440669e+05  -1.863698e+06
  -3.689915e+05  -4.081170e+06
   5.384796e+06  -4.540363e+06
   9.872771e+06  -5.722716e+05
   7.300203e+06   4.281656e+06
   3.958301e+05   5.315937e+06
  -3.701649e+06   2.813156e+06
  -2.622284e+06   2.408401e+05
   2.905440e+05  -8.204709e+05
   2.018534e+06  -6.111912e+05
   2.233978e+06   1.206177e+06
   8.884552e+05   3.917744e+06
  -1.845067e+06   4.070942e+06
  -3.557596e+06  -1.845791e+04
  -1.925365e+06  -3.880985e+06
   8.837039e+05  -2.237514e+06
   4.967671e+05   2.350962e+06
  -2.496449e+06   2.256782e+06
  -2.414083e+06  -3.416763e+06
   2.844364e+06  -6.338763e+06
   7.500315e+06  -8.141937e+05
   5.254265e+06   7.487605e+06
  -2.287297e+06   8.948675e+06
  -7.847644e+06   2.376226e+06
  -7.030337e+06  -4.750813e+06
  -1.667874e+06  -6.202826e+06
   3.626022e+06  -2.616755e+06
   5.250855e+06   1.749632e+06
   2.280033e+06   3.643625e+06
  -2.625206e+06   2.165243e+06
  -4.665964e+06  -1.120291e+06
  -1.908996e+06  -2.903592e+06
   1.837152e+06  -1.378743e+06
   1.712057e+06   1.097535e+06
  -1.490230e+06   8.095590e+05
  -2.482536e+06  -2.075934e+06
   9.473956e+05  -3.677796e+06
   5.060689e+06  -1.804207e+06
   5.502356e+06   1.679402e+06
   2.263435e+06   4.256804e+06
  -1.917810e+06   5.422740e+06
  -5.123655e+06   4.953091e+06
  -6.377997e+06   1.788140e+06
  -4.763075e+06  -3.268999e+06
  -9.355261e+05  -6.353361e+06
   2.048578e+06  -4.805860e+06
   1.873876e+06  -1.060831e+06
   3.947860e+04   4.147991e+05
  -2.575332e+05  -9.937289e+05
   1.481633e+06  -1.948917e+06
   2.841777e+06  -4.096553e+05
   2.128003e+06   1.823448e+06
   1.424421e+05   2.114299e+06
  -1.455050e+06   2.502655e+05
  -1.647440e+06  -2.008371e+06
  -2.521143e+04  -2.934849e+06
   2.800796e+06  -1.720144e+06
   4.610729e+06   1.191350e+06
   3.344031e+06   3.914007e+06
  -7.720925e+04   4.441182e+06
  -2.451575e+06   2.830600e+06
  -2.393588e+06   1.116607e+06
  -1.909956e+06   6.055151e+05
  -2.978690e+06   3.931453e+05
  -4.371497e+06  -8.576684e+05
  -3.466919e+06  -2.844144e+06
  -7.584774e+04  -4.146936e+06
   3.243554e+06  -3.891120e+06
   4.187529e+06  -2.145063e+06
   2.696149e+06   3.785424e+05
   3.410378e+05   2.240700e+06
  -1.070232e+06   1.981281e+06
  -5.800197e+05  -1.632148e+04
   1.086830e+06  -1.324387e+06
   1.943880e+06  -3.876140e+05
   9.500422e+05   1.242556e+06
  -5.061495e+05   1.117616e+06
  -3.769646e+05  -3.970280e+05
   1.142337e+06  -5.993558e+05
   1.821733e+06   1.490716e+06
   4.340578e+05   3.603282e+06
  -1.832263e+06   3.293773e+06
  -3.206430e+06   8.674603e+05
  -3.187411e+06  -1.594191e+06
  -2.129607e+06  -2.750738e+06
  -3.981490e+05  -2.555997e+06
   1.236246e+06  -1.452930e+06
   1.573854e+06  -2.336205e+05
   4.945302e+05   5.127725e+04
  -3.490162e+05  -7.629876e+05
   4.570436e+05  -1.363648e+06
   1.969508e+06  -5.549671e+05
   2.049981e+06   9.610274e+05
   3.441131e+05   1.458788e+06
  -1.197375e+06   5.456907e+05
  -8.559959e+05  -4.704688e+05
   8.771831e+05  -4.543369e+05
   2.132814e+06   4.114453e+05
   1.651492e+06   1.375914e+06
  -3.105939e+05   1.914850e+06
  -2.327247e+06   1.589566e+06
  -2.782097e+06   2.268349e+05
  -1.210019e+06  -1.310615e+06
   9.653186e+05  -1.531529e+06
   1.613914e+06  -1.733057e+05
   2.065110e+05   1.116047e+06
  -1.547431e+06   7.297566e+05
  -1.714336e+06  -8.295759e+05
  -2.797393e+05  -1.668334e+06
   1.139110e+06  -9.262817e+05
   1.244066e+06   3.769870e+05
   1.993000e+05   8.018556e+05
  -8.260861e+05   3.385290e+04
  -7.390361e+05  -1.080046e+06
   5.890417e+05  -1.438487e+06
   2.029797e+06  -5.379631e+05
   2.048583e+06   1.077539e+06
   3.605663e+05   2.103404e+06
  -1.488105e+06   1.636005e+06
  -1.746885e+06   1.721873e+05
  -4.764214e+05  -8.890379e+05
   6.827582e+05  -7.888063e+05
   6.175240e+05  -7.364003e+04
  -1.375937e+05   3.194167e+05
  -4.598101e+05   1.670467e+05
  -5.935488e+04  -4.696289e+04
   4.752320e+05   1.446100e+05
   4.856539e+05   7.264564e+05
  -2.581762e+05   1.195716e+06
  -1.415158e+06   8.724576e+05
  -2.091020e+06  -4.505870e+05
  -1.453230e+06  -1.979248e+06
   2.460146e+05  -2.425525e+06
   1.632965e+06  -1.370939e+06
   1.663335e+06   1.677302e+05
   8.084150e+05   8.768967e+05
   3.064667e+05   5.870895e+05
   5.202966e+05   1.885115e+05
   6.685404e+05   3.457403e+05
   8.404520e+04   7.997997e+05
  -9.060921e+05   8.845446e+05
  -1.448096e+06   2.849794e+05
  -1.013989e+06  -7.264480e+05
   2.865031e+05  -1.423427e+06
   1.736923e+06  -1.029698e+06
   2.237779e+06   5.201301e+05
   1.089870e+06   2.130916e+06
  -1.081131e+06   2.364304e+06
  -2.593229e+06   9.757501e+05
  -2.332501e+06  -7.288422e+05
  -8.906548e+05  -1.352580e+06
   2.414880e+05  -8.988247e+05
   3.596329e+05  -4.711101e+05
   3.014580e+04  -7.704302e+05
   9.598808e+04  -1.353618e+06
   7.035954e+05  -1.313851e+06
   1.324913e+06  -3.117489e+05
   1.342682e+06   1.099173e+06
   5.440165e+05   1.910009e+06
  -6.360711e+05   1.439206e+06
  -1.287849e+06  -2.431831e+04
  -7.885792e+05  -1.316441e+06
   4.385036e+05  -1.398066e+06
   1.202404e+06  -3.548057e+05
   8.037348e+05   7.641436e+05
  -1.774054e+05   1.104338e+06
  -5.940930e+05   7.670476e+05
  -1.066469e+05   3.957185e+05
   4.425037e+05   3.330914e+05
   6.265832e+04   3.825560e+05
  -1.172998e+06   1.897593e+05
  -2.092817e+06  -3.703842e+05
  -1.612920e+06  -1.077263e+06
   8.661270e+04  -1.460932e+06
   1.647230e+06  -1.134563e+06
   1.854733e+06  -2.351272e+05
   8.162488e+05   5.444633e+05
  -2.872062e+05   5.857095e+05
  -5.233071e+05   1.045618e+04
  -3.555211e+04  -4.495602e+05
   4.356855e+05  -2.648820e+05
   4.862894e+05   3.481703e+05
   2.805385e+05   7.247989e+05
   1.216849e+05   4.847200e+05
   1.324857e+05  -7.297396e+04
   2.560564e+05  -2.679673e+05
   2.682630e+05   2.389722e+05
  -1.341321e+05   9.820203e+05
  -9.165171e+05   1.069973e+06
  -1.411911e+06   1.806735e+05
  -8.873653e+05  -9.309182e+05
   4.311294e+05  -1.173030e+06
   1.294222e+06  -3.578948e+05
   7.400428e+05   5.722025e+05
  -7.198370e+05   6.375058e+05
  -1.578319e+06  -1.290026e+05
  -9.559726e+05  -8.809003e+05
   5.263278e+05  -9.564290e+05
   1.495386e+06  -4.184911e+05
   1.202316e+06   2.259840e+05
   1.125965e+05   5.073523e+05
  -6.576232e+05   2.466571e+05
  -3.940635e+05  -3.119304e+05
   5.772292e+05  -5.413783e+05
   1.196900e+06   6.121155e+04
   7.050657e+05   1.181676e+06
  -5.624565e+05   1.730072e+06
  -1.480021e+06   9.132540e+05
  -1.263578e+06  -7.524085e+05
  -2.020987e+05  -1.793125e+06
   7.472728e+05  -1.275365e+06
   9.177689e+05   2.069273e+05
   3.987839e+05   1.199832e+06
  -2.585629e+05   9.478993e+05
  -5.736279e+05   6.490332e+04
  -4.408374e+05  -3.726545e+05
  -1.358106e+05  -1.262573e+05
  -5.939427e+04   8.508795e+04
  -3.187112e+05  -3.230253e+05
  -5.216168e+05  -9.835075e+05
  -1.512411e+05  -1.072982e+06
   7.596807e+05  -3.813456e+05
   1.472828e+06   4.719565e+05
   1.247047e+06   8.421327e+05
   1.774942e+05   7.091750e+05
  -8.282686e+05   4.252526e+05
  -9.761430e+05   1.687699e+05
  -3.863040e+05  -7.636999e+04
   1.349383e+05  -2.311132e+05
   7.166737e+04  -1.828573e+05
  -2.284112e+05  -6.884313e+04
  -6.709650e+04  -1.332912e+05
   6.234495e+05  -2.584629e+05
   1.060146e+06  -1.789194e+03
   4.969254e+05   7.100089e+05
  -8.079779e+05   1.217215e+06
  -1.741501e+06   7.934969e+05
  -1.477358e+06  -4.120952e+05
  -2.991308e+05  -1.409638e+06
   7.812150e+05  -1.400822e+06
   1.059450e+06  -5.750028e+05
   6.575406e+05   2.067273e+05
   1.548024e+05   3.633478e+05
  -3.602388e+04   9.694503e+04
   9.249943e+04   1.375914e+04
   2.822216e+05   3.804158e+05
   2.343424e+05   8.117579e+05
  -1.695370e+05   6.956641e+05
  -6.816259e+05  -8.720448e+04
  -7.800826e+05  -9.275055e+05
  -1.720171e+05  -1.048731e+06
   7.347180e+05  -3.007095e+05
   1.066899e+06   6.798978e+05
   3.882901e+05   1.100862e+06
  -7.096935e+05   7.219561e+05
  -1.151258e+06  -5.605701e+04
  -5.626060e+05  -6.460726e+05
   2.913032e+05  -7.257540e+05
   4.169955e+05  -3.795421e+05
  -2.108228e+05   1.239353e+04
  -6.444174e+05   5.234268e+04
  -1.634266e+05  -3.186111e+05
   8.265511e+05  -6.846236e+05
   1.297131e+06  -5.194387e+05
   8.071056e+05   2.092879e+05
  -8.826968e+04   8.937280e+05
  -5.873808e+05   8.806188e+05
  -4.716765e+05   1.924505e+05
  -8.196077e+04  -4.676801e+05
   2.315664e+05  -4.643885e+05
   3.576056e+05   1.077704e+05
   2.677411e+05   5.788098e+05
  -4.220818e+04   4.665190e+05
  -3.979134e+05  -2.478343e+04
  -4.929157e+05  -3.058977e+05
  -2.435464e+05  -1.184939e+05
   5.231881e+04   1.824389e+05
   7.860726e+04   1.042276e+05
  -7.066838e+04  -3.369182e+05
  -2.645144e+04  -6.041678e+05
   3.017737e+05  -2.957357e+05
   5.214635e+05   3.365681e+05
   2.341485e+05   6.517807e+05
  -3.902425e+05   3.429780e+05
  -7.017312e+05  -2.506095e+05
  -2.843305e+05  -5.615872e+05
   5.197920e+05  -3.793965e+05
   9.160559e+05   5.006736e+04
   4.995980e+05   3.752514e+05
  -2.941458e+05   4.368233e+05
  -6.558021e+05   2.731946e+05
  -2.839381e+05   2.510634e+04
   3.078631e+05  -1.092278e+05
   3.989388e+05   1.313578e+04
  -1.277306e+05   2.726590e+05
  -6.877401e+05   2.904948e+05
