
 $NMID
 id='ANONYMOUS ', fmtdat='(2E16.6)'
 volume=1.0
 tramp=1.0
 $END
   2.604769e+07   2.593161e+05
   1.698511e+07   1.293316e+07
  -6.799767e+05   1.659903e+07
  -1.149837e+07   1.024304e+07
  -9.143801e+06   4.497518e+05
  -2.528476e+05  -4.595918e+06
   5.173707e+06  -1.915957e+06
   3.586551e+06   4.230714e+06
  -1.473934e+06   6.782442e+06
  -4.834394e+06   2.879178e+06
  -4.083113e+06  -3.341930e+06
  -4.870308e+05  -5.290261e+06
   2.458537e+06  -1.133323e+06
   1.913265e+06   4.312600e+06
  -1.571036e+06   5.057966e+06
  -4.289238e+06   3.411140e+05
  -3.090607e+06  -5.099440e+06
   1.270495e+06  -6.379994e+06
   4.969412e+06  -3.037836e+06
   5.077218e+06   1.474865e+06
   2.248797e+06   3.678105e+06
  -3.407741e+05   3.031969e+06
  -3.124804e+05   1.680285e+06
   1.571439e+06   1.828541e+06
   2.181288e+06   3.388949e+06
  -5.777321e+05   4.175416e+06
  -4.990119e+06   2.469922e+06
  -6.794578e+06  -8.701989e+05
  -3.798556e+06  -3.207244e+06
   1.308340e+06  -2.830650e+06
   3.649826e+06  -4.608249e+05
   1.454966e+06   1.712990e+06
  -2.317215e+06   1.911818e+06
  -3.674397e+06  -7.695038e+04
  -1.821223e+06  -2.713094e+06
   7.928600e+05  -3.614349e+06
   1.710266e+06  -1.689869e+06
   7.733744e+05   1.225964e+06
  -4.426442e+05   1.881665e+06
  -5.181969e+05  -5.231350e+05
   6.390426e+05  -2.927404e+06
   1.867565e+06  -2.025120e+06
   1.739687e+06   1.362435e+06
  -7.472975e+04   3.098722e+06
  -2.126254e+06   9.184368e+05
  -2.226126e+06  -2.757248e+06
   3.367640e+05  -3.839601e+06
   3.639113e+06  -1.252817e+06
   4.620003e+06   2.352243e+06
   2.056603e+06   3.832704e+06
  -2.006329e+06   2.439576e+06
  -4.055954e+06  -1.958448e+05
  -2.498670e+06  -1.889101e+06
   8.168523e+05  -1.585305e+06
   2.583450e+06   1.953103e+04
   1.450844e+06   1.190189e+06
  -7.935449e+05   8.140251e+05
  -1.470351e+06  -4.928850e+05
  -3.875558e+04  -1.147517e+06
   1.492409e+06  -4.110018e+05
   1.047443e+06   8.839926e+05
  -1.101494e+06   1.340458e+06
  -2.629770e+06   3.287924e+05
  -1.657902e+06  -1.610601e+06
   1.306620e+06  -3.149721e+06
   3.900775e+06  -2.923842e+06
   4.193529e+06  -5.961180e+05
   2.369356e+06   2.462154e+06
   2.398877e+05   4.085913e+06
  -7.117057e+05   3.421877e+06
  -6.280678e+05   1.793514e+06
  -6.817409e+05   9.935672e+05
  -1.503877e+06   1.082450e+06
  -2.477453e+06   6.142940e+05
  -2.500438e+06  -1.059322e+06
  -1.172050e+06  -2.601617e+06
   7.892121e+05  -2.231264e+06
   2.060264e+06   4.579380e+04
   1.648980e+06   2.287525e+06
  -2.907063e+05   2.582862e+06
  -2.352117e+06   8.202957e+05
  -2.896768e+06  -1.447146e+06
  -1.572257e+06  -2.578488e+06
   2.914459e+05  -2.208323e+06
   1.134734e+06  -1.255342e+06
   9.280149e+05  -7.780558e+05
   1.037641e+06  -8.843555e+05
   2.260120e+06  -7.559145e+05
   3.509331e+06   3.326481e+05
   2.932511e+06   2.120727e+06
   1.941445e+05   3.470113e+06
  -2.819900e+06   3.294141e+06
  -3.766399e+06   1.488189e+06
  -2.147648e+06  -8.321442e+05
   2.834013e+05  -2.055272e+06
   1.329738e+06  -1.410455e+06
   4.242016e+05   2.092769e+05
  -1.078537e+06   1.027078e+06
  -1.499322e+06   2.686476e+05
  -5.407219e+05  -9.438941e+05
   6.077895e+05  -9.605413e+05
   6.649560e+05   2.813976e+05
  -4.370708e+05   1.067005e+06
  -1.571459e+06  -6.253251e+03
  -1.503204e+06  -2.210969e+06
   5.813259e+04  -3.369016e+06
   2.197030e+06  -2.182302e+06
   3.406437e+06   4.650951e+05
   2.725207e+06   2.493547e+06
   6.341455e+05   2.618210e+06
  -1.209295e+06   1.316807e+06
  -1.461483e+06   9.016389e+04
  -4.263741e+05  -4.000412e+04
   3.234448e+05   6.379625e+05
  -2.377708e+05   1.032871e+06
  -1.409038e+06   4.871538e+05
  -1.641946e+06  -5.463095e+05
  -4.447640e+05  -1.052528e+06
   9.526159e+05  -5.652670e+05
   9.509984e+05   3.669173e+05
  -6.004063e+05   7.570641e+05
  -2.142873e+06   1.096539e+05
  -1.980918e+06  -1.152270e+06
  -3.364471e+04  -2.018409e+06
   2.037823e+06  -1.694449e+06
   2.452959e+06  -3.284256e+05
   1.033494e+06   9.806242e+05
  -7.086332e+05   1.125168e+06
  -1.140186e+06   1.235719e+05
  -6.418061e+04  -8.224417e+05
   1.266216e+06  -6.016054e+05
   1.508239e+06   5.676858e+05
   4.870097e+05   1.404001e+06
  -7.833868e+05   1.040515e+06
  -1.146467e+06  -3.233591e+04
  -3.867191e+05  -5.996858e+05
   5.811985e+05  -8.871556e+04
   5.965900e+05   8.787644e+05
  -5.423947e+05   1.203933e+06
  -1.755963e+06   4.109384e+05
  -1.730839e+06  -9.358476e+05
  -3.386937e+05  -1.762228e+06
   1.165385e+06  -1.425050e+06
   1.460548e+06  -2.650287e+05
   5.149958e+05   7.082919e+05
  -5.257055e+05   7.499303e+05
  -6.586855e+05   5.660144e+04
   9.563974e+03  -5.121239e+05
   5.848898e+05  -3.892600e+05
   4.274211e+05   1.097488e+05
  -2.253265e+05   2.144099e+05
  -5.525549e+05  -3.539612e+05
   7.809066e+03  -9.941256e+05
   1.133487e+06  -8.348823e+05
   1.810953e+06   3.128969e+05
   1.275476e+06   1.667168e+06
  -1.782468e+05   2.153417e+06
  -1.426236e+06   1.387473e+06
  -1.622668e+06   1.463056e+04
  -9.763551e+05  -9.116016e+05
  -3.516638e+05  -9.004941e+05
  -2.439164e+05  -3.948629e+05
  -3.404376e+05  -1.903200e+05
  -5.725689e+04  -5.271452e+05
   6.863980e+05  -8.334742e+05
   1.303832e+06  -4.140822e+05
   1.082926e+06   6.583840e+05
  -1.012697e+05   1.456631e+06
  -1.517015e+06   1.083026e+06
  -2.044678e+06  -3.688399e+05
  -1.112311e+06  -1.795155e+06
   7.048766e+05  -2.065070e+06
   2.094478e+06  -1.036822e+06
   2.143367e+06   3.844349e+05
   1.091456e+06   1.157071e+06
  -4.062528e+04   1.039449e+06
  -4.858547e+05   6.433624e+05
  -3.354456e+05   6.350613e+05
  -2.174243e+05   9.756063e+05
  -5.335640e+05   1.003655e+06
  -1.044221e+06   2.432244e+05
  -1.134706e+06  -9.578934e+05
  -4.722725e+05  -1.668386e+06
   5.647798e+05  -1.261559e+06
   1.144906e+06  -3.789280e+04
   7.660861e+05   1.040713e+06
  -2.046626e+05   1.211619e+06
  -8.656570e+05   5.167335e+05
  -6.967053e+05  -3.677654e+05
  -6.335966e+04  -8.098190e+05
   2.579233e+05  -7.178283e+05
  -1.139615e+04  -4.493351e+05
  -3.418924e+05  -3.369339e+05
  -2.949500e+04  -3.538384e+05
   9.316426e+05  -2.182599e+05
   1.706966e+06   2.358332e+05
   1.420348e+06   8.283921e+05
   1.016850e+05   1.161258e+06
  -1.235763e+06   9.638560e+05
  -1.548896e+06   3.449919e+05
  -7.811681e+05  -2.586764e+05
   1.569714e+05  -4.198576e+05
   4.022899e+05  -1.027363e+05
  -2.226071e+04   2.645954e+05
  -4.406981e+05   1.958013e+05
  -4.014091e+05  -3.011196e+05
  -9.708972e+04  -6.671049e+05
   3.362295e+04  -4.268672e+05
  -1.346949e+05   1.709599e+05
  -3.427686e+05   3.657611e+05
  -2.689464e+05  -1.878010e+05
   1.819412e+05  -9.089836e+05
   7.794515e+05  -9.157256e+05
   1.047148e+06  -7.632706e+04
   6.028412e+05   8.037915e+05
  -3.608107e+05   8.834007e+05
  -1.016603e+06   1.784173e+05
  -6.246071e+05  -5.419572e+05
   5.826792e+05  -5.970138e+05
   1.453045e+06   9.747926e+03
   1.055369e+06   7.248166e+05
  -3.007486e+05   9.779981e+05
  -1.354934e+06   6.031649e+05
  -1.202837e+06  -7.312583e+04
  -1.843883e+05  -4.839351e+05
   5.587396e+05  -2.992885e+05
   3.001915e+05   2.195521e+05
  -5.732378e+05   4.005072e+05
  -1.030929e+06  -1.636946e+05
  -4.790126e+05  -1.089033e+06
   6.541958e+05  -1.453614e+06
   1.375220e+06  -6.952811e+05
   1.103362e+06   7.209571e+05
   1.574972e+05   1.619502e+06
  -6.648590e+05   1.214602e+06
  -8.480930e+05  -8.287565e+04
  -4.630125e+05  -1.053947e+06
   9.728846e+04  -9.242038e+05
   4.724415e+05  -1.186363e+05
   4.889597e+05   3.565918e+05
   2.267136e+05   1.516192e+05
   1.293893e+04  -1.108375e+05
   1.334916e+05   2.049684e+05
   4.090507e+05   8.375496e+05
   2.657972e+05   9.833052e+05
  -5.261177e+05   3.718068e+05
  -1.331154e+06  -4.215725e+05
  -1.233024e+06  -7.514058e+05
  -1.757458e+05  -6.040158e+05
   8.419388e+05  -3.602141e+05
   9.093478e+05  -1.899617e+05
   2.552896e+05  -1.503882e+03
  -1.617995e+05   1.908726e+05
   6.021818e+04   2.317712e+05
   3.345037e+05   1.421540e+05
   5.614948e+03   1.245413e+05
  -6.964031e+05   1.646062e+05
  -9.177278e+05  -4.938790e+04
  -2.335675e+05  -5.993379e+05
   8.520147e+05  -9.764614e+05
   1.449606e+06  -5.838175e+05
   1.126292e+06   4.505932e+05
   1.902723e+05   1.268163e+06
  -6.692660e+05   1.182146e+06
  -9.347627e+05   4.009655e+05
  -5.928170e+05  -2.680748e+05
  -7.345213e+04  -3.176080e+05
   1.451797e+05   4.297332e+02
  -4.287379e+04   7.993095e+04
  -3.084461e+05  -3.022303e+05
  -2.488652e+05  -7.216036e+05
   1.865665e+05  -5.804557e+05
   6.207606e+05   1.800143e+05
   5.869026e+05   9.150709e+05
  -1.253934e+04   9.044425e+05
  -7.245927e+05   1.208221e+05
  -8.773328e+05  -7.341401e+05
  -2.357228e+05  -9.651268e+05
   6.547488e+05  -5.250429e+05
   9.468308e+05   1.059615e+05
   4.143286e+05   4.885747e+05
  -2.556433e+05   5.174307e+05
  -2.685228e+05   3.042314e+05
   2.982447e+05   4.431052e+04
   5.977166e+05  -1.277955e+04
   9.863158e+04   2.589275e+05
  -7.419345e+05   6.024097e+05
  -1.057668e+06   5.244328e+05
  -5.955411e+05  -1.027460e+05
   1.038939e+05  -7.377853e+05
   4.308658e+05  -7.209060e+05
   2.987765e+05  -8.203116e+04
  -2.081951e+03   4.575835e+05
  -2.322807e+05   3.393321e+05
  -3.129882e+05  -2.063727e+05
  -2.057352e+05  -5.183040e+05
   7.062209e+04  -3.127656e+05
   3.423048e+05   7.663377e+04
   3.939431e+05   2.057413e+05
   2.139262e+05   4.451886e+04
   6.353139e+03  -7.710040e+04
  -7.435835e+04   7.588550e+04
  -9.469815e+04   3.571733e+05
  -1.909707e+05   4.055843e+05
  -3.279747e+05   5.794981e+04
  -3.039480e+05  -4.258587e+05
  -2.529432e+03  -5.851048e+05
   4.023169e+05  -2.365088e+05
   5.362515e+05   3.044746e+05
   1.789540e+05   5.405394e+05
  -4.343121e+05   3.061880e+05
  -7.387100e+05  -1.121346e+05
  -3.975542e+05  -3.440182e+05
   2.658996e+05  -2.968691e+05
   5.497569e+05  -1.267719e+05
   1.662895e+05  -2.079784e+03
  -3.847914e+05  -4.275360e+03
  -3.890347e+05  -1.434048e+05
   2.188682e+05  -3.012969e+05
   7.681824e+05  -2.229567e+05
