
 $NMID
 id='ANONYMOUS ', fmtdat='(2E16.6)'
 volume=1.0
 tramp=1.0
 $END
   2.840698e+07   2.122253e+06
   1.730558e+07   1.493185e+07
  -1.855198e+06   1.765845e+07
  -1.275756e+07   1.043472e+07
  -9.661811e+06   2.644059e+05
  -1.181022e+05  -4.842779e+06
   5.504912e+06  -1.975293e+06
   3.733422e+06   4.556195e+06
  -1.679082e+06   7.278987e+06
  -5.255504e+06   2.977822e+06
  -4.343401e+06  -3.852175e+06
  -3.421282e+05  -5.880812e+06
   2.815300e+06  -1.147563e+06
   2.058186e+06   4.850518e+06
  -1.801069e+06   5.507393e+06
  -4.623840e+06   2.095161e+05
  -3.121054e+06  -5.679158e+06
   1.701990e+06  -6.872352e+06
   5.628907e+06  -3.017839e+06
   5.512717e+06   1.996019e+06
   2.173319e+06   4.290932e+06
  -7.441082e+05   3.311135e+06
  -5.355898e+05   1.622837e+06
   1.797346e+06   1.849954e+06
   2.526575e+06   3.791845e+06
  -6.927346e+05   4.729826e+06
  -5.707477e+06   2.672713e+06
  -7.621403e+06  -1.200864e+06
  -4.117689e+06  -3.768000e+06
   1.636009e+06  -3.200634e+06
   4.208331e+06  -4.495680e+05
   1.695761e+06   2.027413e+06
  -2.600392e+06   2.259699e+06
  -4.198502e+06  -4.080662e+04
  -2.099232e+06  -3.120853e+06
   9.662968e+05  -4.143469e+06
   2.055232e+06  -1.831997e+06
   8.672352e+05   1.550148e+06
  -6.590087e+05   2.185232e+06
  -7.094520e+05  -6.726046e+05
   7.321764e+05  -3.352686e+06
   2.108559e+06  -2.223176e+06
   1.829447e+06   1.526177e+06
  -1.983495e+05   3.259694e+06
  -2.258782e+06   7.476584e+05
  -2.169077e+06  -3.146757e+06
   6.156395e+05  -4.082545e+06
   4.048249e+06  -1.141005e+06
   4.989097e+06   2.733697e+06
   2.172788e+06   4.239178e+06
  -2.235967e+06   2.643242e+06
  -4.446002e+06  -2.655782e+05
  -2.717530e+06  -2.086617e+06
   9.055686e+05  -1.678390e+06
   2.797106e+06   1.094820e+05
   1.533926e+06   1.327232e+06
  -8.936267e+05   8.475111e+05
  -1.615241e+06  -5.572773e+05
  -9.618397e+04  -1.221322e+06
   1.529111e+06  -4.657476e+05
   1.081799e+06   8.284452e+05
  -1.172305e+06   1.285136e+06
  -2.786794e+06   2.530289e+05
  -1.702408e+06  -1.789158e+06
   1.594063e+06  -3.444472e+06
   4.479771e+06  -3.146615e+06
   4.724699e+06  -5.007402e+05
   2.548132e+06   2.885183e+06
   1.129559e+05   4.575203e+06
  -8.603962e+05   3.742705e+06
  -6.558776e+05   1.967958e+06
  -7.230761e+05   1.175874e+06
  -1.734723e+06   1.291724e+06
  -2.872306e+06   6.890455e+05
  -2.862776e+06  -1.255600e+06
  -1.318027e+06  -2.991212e+06
   9.106603e+05  -2.549974e+06
   2.339252e+06   3.585426e+04
   1.853514e+06   2.580547e+06
  -3.639561e+05   2.905843e+06
  -2.679856e+06   8.650182e+05
  -3.217609e+06  -1.735571e+06
  -1.640937e+06  -2.966579e+06
   4.612181e+05  -2.439199e+06
   1.335286e+06  -1.298738e+06
   1.033697e+06  -7.834033e+05
   1.137384e+06  -9.461767e+05
   2.505692e+06  -8.035870e+05
   3.888671e+06   4.304332e+05
   3.227860e+06   2.411414e+06
   1.635413e+05   3.873594e+06
  -3.207273e+06   3.641992e+06
  -4.261425e+06   1.609956e+06
  -2.416953e+06  -9.835925e+05
   3.530476e+05  -2.331997e+06
   1.535115e+06  -1.578445e+06
   4.822593e+05   2.456369e+05
  -1.228562e+06   1.139076e+06
  -1.678626e+06   2.711178e+05
  -5.792358e+05  -1.074462e+06
   6.937196e+05  -1.079105e+06
   7.443322e+05   2.973418e+05
  -4.527654e+05   1.167597e+06
  -1.677160e+06   6.094667e+03
  -1.625694e+06  -2.402829e+06
   3.997048e+04  -3.692266e+06
   2.388685e+06  -2.414300e+06
   3.769658e+06   5.077290e+05
   3.045535e+06   2.781197e+06
   7.037899e+05   2.932648e+06
  -1.373592e+06   1.466220e+06
  -1.647546e+06   8.378915e+04
  -4.774159e+05  -5.075246e+04
   3.522132e+05   7.147311e+05
  -2.830852e+05   1.137221e+06
  -1.572394e+06   5.090097e+05
  -1.808685e+06  -6.305286e+05
  -4.779880e+05  -1.166179e+06
   1.060692e+06  -6.171625e+05
   1.059227e+06   4.060782e+05
  -6.552284e+05   8.340805e+05
  -2.375821e+06   1.201822e+05
  -2.210002e+06  -1.282801e+06
  -3.842701e+04  -2.248698e+06
   2.284935e+06  -1.876238e+06
   2.742847e+06  -3.398520e+05
   1.134925e+06   1.107644e+06
  -8.152368e+05   1.236931e+06
  -1.272014e+06   1.086293e+05
  -5.061928e+04  -9.223244e+05
   1.422739e+06  -6.506260e+05
   1.670904e+06   6.489173e+05
   5.314594e+05   1.560867e+06
  -8.686108e+05   1.148726e+06
  -1.265615e+06  -3.687977e+04
  -4.266636e+05  -6.575561e+05
   6.397593e+05  -8.348584e+04
   6.465404e+05   9.904893e+05
  -6.282522e+05   1.336179e+06
  -1.972090e+06   4.305072e+05
  -1.920604e+06  -1.074633e+06
  -3.511093e+05  -1.972715e+06
   1.319652e+06  -1.571409e+06
   1.630456e+06  -2.779756e+05
   5.681851e+05   7.902020e+05
  -5.898062e+05   8.300111e+05
  -7.401313e+05   6.425284e+04
  -2.372818e+02  -5.688358e+05
   6.475226e+05  -4.429655e+05
   4.883870e+05   1.070448e+05
  -2.302562e+05   2.314857e+05
  -5.982414e+05  -3.908966e+05
   2.236603e+04  -1.097701e+06
   1.274083e+06  -9.123285e+05
   2.016122e+06   3.757156e+05
   1.399406e+06   1.882043e+06
  -2.265682e+05   2.406802e+06
  -1.603852e+06   1.539138e+06
  -1.812063e+06   8.956341e+03
  -1.098298e+06  -1.022235e+06
  -4.086852e+05  -1.019882e+06
  -2.761346e+05  -4.663656e+05
  -3.636318e+05  -2.316041e+05
  -4.321226e+04  -5.884879e+05
   7.761682e+05  -9.176194e+05
   1.457391e+06  -4.488109e+05
   1.208463e+06   7.436802e+05
  -1.191105e+05   1.625600e+06
  -1.703079e+06   1.193444e+06
  -2.279682e+06  -4.353185e+05
  -1.218792e+06  -2.012276e+06
   8.112874e+05  -2.284747e+06
   2.341627e+06  -1.124923e+06
   2.380359e+06   4.459912e+05
   1.213085e+06   1.289159e+06
  -3.875839e+04   1.158914e+06
  -5.429513e+05   7.307479e+05
  -3.956049e+05   7.250433e+05
  -2.740255e+05   1.092136e+06
  -6.182182e+05   1.106954e+06
  -1.170826e+06   2.495074e+05
  -1.255253e+06  -1.090380e+06
  -5.051156e+05  -1.873857e+06
   6.493665e+05  -1.404655e+06
   1.277995e+06  -2.963414e+04
   8.374473e+05   1.167001e+06
  -2.416380e+05   1.341047e+06
  -9.569802e+05   5.597178e+05
  -7.542394e+05  -4.134845e+05
  -5.514862e+04  -8.882509e+05
   2.880734e+05  -7.833170e+05
  -1.675969e+04  -4.992098e+05
  -3.797772e+05  -3.873671e+05
  -2.787456e+04  -3.994903e+05
   1.040529e+06  -2.255318e+05
   1.897959e+06   2.953376e+05
   1.570280e+06   9.437283e+05
   9.445045e+04   1.285073e+06
  -1.392668e+06   1.046256e+06
  -1.726946e+06   3.638468e+05
  -8.579121e+05  -2.892619e+05
   1.855033e+05  -4.587466e+05
   4.440933e+05  -1.079482e+05
  -3.947395e+04   2.968864e+05
  -5.014565e+05   2.167001e+05
  -4.449474e+05  -3.448993e+05
  -9.723142e+04  -7.603324e+05
   4.741070e+04  -4.874494e+05
  -1.470805e+05   1.936683e+05
  -3.834791e+05   4.155015e+05
  -2.966484e+05  -2.124437e+05
   2.168967e+05  -1.020957e+06
   8.872005e+05  -1.010459e+06
   1.173130e+06  -5.367740e+04
   6.569600e+05   9.205725e+05
  -4.264207e+05   9.782928e+05
  -1.147111e+06   1.729547e+05
  -6.940440e+05  -6.188705e+05
   6.571761e+05  -6.583444e+05
   1.622404e+06   2.377865e+04
   1.174630e+06   8.107007e+05
  -3.368102e+05   1.084174e+06
  -1.511018e+06   6.659792e+05
  -1.341385e+06  -8.518798e+04
  -2.048167e+05  -5.396285e+05
   6.231230e+05  -3.284445e+05
   3.276012e+05   2.511671e+05
  -6.543701e+05   4.423715e+05
  -1.158687e+06  -2.023422e+05
  -5.205308e+05  -1.237255e+06
   7.620916e+05  -1.628034e+06
   1.559644e+06  -7.618270e+05
   1.229964e+06   8.250941e+05
   1.563507e+05   1.818921e+06
  -7.553627e+05   1.354348e+06
  -9.428179e+05  -9.904228e+04
  -5.067225e+05  -1.178721e+06
   1.117300e+05  -1.026569e+06
   5.250980e+05  -1.253742e+05
   5.471739e+05   3.997614e+05
   2.575523e+05   1.662443e+05
   1.218348e+04  -1.224065e+05
   1.366262e+05   2.393030e+05
   4.431598e+05   9.460804e+05
   2.910143e+05   1.096470e+06
  -5.874581e+05   4.001830e+05
  -1.486525e+06  -4.881372e+05
  -1.375233e+06  -8.493987e+05
  -1.873807e+05  -6.771045e+05
   9.524453e+05  -3.993639e+05
   1.019624e+06  -2.048009e+05
   2.786376e+05   5.983703e+03
  -1.858141e+05   2.144512e+05
   7.283136e+04   2.540922e+05
   3.818914e+05   1.569178e+05
   3.066503e+03   1.433026e+05
  -7.909376e+05   1.829693e+05
  -1.029938e+06  -7.068118e+04
  -2.454072e+05  -6.880348e+05
   9.784134e+05  -1.088969e+06
   1.637199e+06  -6.245500e+05
   1.256349e+06   5.352666e+05
   1.951985e+05   1.428985e+06
  -7.692588e+05   1.311606e+06
  -1.059899e+06   4.327082e+05
  -6.662739e+05  -3.101155e+05
  -7.553838e+04  -3.608381e+05
   1.719409e+05  -2.838913e+03
  -4.151391e+04   8.880429e+04
  -3.404681e+05  -3.375059e+05
  -2.703222e+05  -8.083781e+05
   2.200347e+05  -6.488470e+05
   7.002154e+05   2.116029e+05
   6.486434e+05   1.042505e+06
  -3.244784e+04   1.023704e+06
  -8.255629e+05   1.267672e+05
  -9.803171e+05  -8.426124e+05
  -2.472477e+05  -1.091638e+06
   7.493862e+05  -5.778007e+05
   1.060900e+06   1.383572e+05
   4.488686e+05   5.562922e+05
  -3.022155e+05   5.719885e+05
  -3.039303e+05   3.287988e+05
   3.409460e+05   4.737394e+04
   6.729141e+05  -7.018877e+03
   1.039588e+05   2.940587e+05
  -8.396664e+05   6.654242e+05
  -1.184476e+06   5.687029e+05
  -6.564468e+05  -1.290822e+05
   1.307171e+05  -8.253144e+05
   4.938980e+05  -7.937129e+05
   3.386606e+05  -7.680405e+04
  -7.596289e+03   5.191719e+05
  -2.707531e+05   3.767967e+05
  -3.556290e+05  -2.389388e+05
  -2.229464e+05  -5.857507e+05
   9.140942e+04  -3.488284e+05
   3.859652e+05   9.267816e+04
   4.326756e+05   2.367931e+05
   2.347621e+05   5.112649e+04
   1.570060e+04  -8.747684e+04
  -7.252980e+04   8.924693e+04
  -1.112420e+05   4.116373e+05
  -2.347239e+05   4.632066e+05
  -3.844035e+05   5.895514e+04
  -3.392761e+05  -4.960010e+05
   1.043316e+04  -6.702241e+05
   4.603000e+05  -2.615524e+05
   5.999243e+05   3.567922e+05
   1.940156e+05   6.143134e+05
  -4.919996e+05   3.343340e+05
  -8.285723e+05  -1.426875e+05
  -4.401953e+05  -3.941611e+05
   3.082693e+05  -3.267441e+05
   6.247273e+05  -1.292117e+05
   1.853959e+05   6.446621e+03
  -4.412060e+05  -4.815788e+03
  -4.442420e+05  -1.669680e+05
   2.478816e+05  -3.437621e+05
   8.704235e+05  -2.498081e+05
