
 $NMID
 id='ANONYMOUS ', fmtdat='(2E16.6)'
 volume=1.0
 tramp=1.0
 $END
  -1.587686e+07  -1.567746e+06
  -1.022978e+07  -7.719918e+06
   3.100810e+05  -9.830876e+06
   7.210668e+06  -6.871460e+06
   6.221841e+06  -1.003635e+06
   5.276196e+05   2.979984e+06
  -3.525818e+06   1.747458e+06
  -2.770301e+06  -2.717916e+06
   8.194211e+05  -4.937067e+06
   3.271651e+06  -2.171597e+06
   2.615014e+06   2.430366e+06
   4.572679e+04   3.716331e+06
  -1.770056e+06   5.266375e+05
  -1.158731e+06  -3.340995e+06
   1.197137e+06  -3.693697e+06
   2.875999e+06  -2.955729e+05
   1.960671e+06   3.427985e+06
  -9.790870e+05   4.153131e+06
  -3.314207e+06   1.687572e+06
  -3.046923e+06  -1.353694e+06
  -9.056726e+05  -2.426957e+06
   5.674057e+05  -1.502344e+06
  -8.760527e+04  -6.653649e+05
  -1.653811e+06  -1.451541e+06
  -1.652230e+06  -3.016636e+06
   8.501692e+05  -3.248577e+06
   4.009140e+06  -1.342532e+06
   4.856778e+06   1.290344e+06
   2.320292e+06   2.593021e+06
  -1.413696e+06   1.801874e+06
  -2.873869e+06  -1.750129e+05
  -8.699418e+05  -1.691777e+06
   2.221626e+06  -1.496558e+06
   3.108287e+06   3.971782e+05
   1.196565e+06   2.464514e+06
  -1.087665e+06   2.755360e+06
  -1.433439e+06   8.988829e+05
  -1.532982e+05  -1.169240e+06
   7.771804e+05  -1.169816e+06
   3.099709e+05   8.204115e+05
  -8.467905e+05   2.333460e+06
  -1.511804e+06   1.441568e+06
  -1.203788e+06  -8.981625e+05
  -1.460377e+05  -1.998990e+06
   9.888863e+05  -6.284616e+05
   1.181345e+06   1.637605e+06
  -2.134622e+05   2.296155e+06
  -2.351653e+06   6.171790e+05
  -3.157859e+06  -1.798194e+06
  -1.436639e+06  -2.818629e+06
   1.507804e+06  -1.778280e+06
   3.021775e+06   1.893402e+05
   1.890476e+06   1.410685e+06
  -4.863226e+05   1.137197e+06
  -1.754253e+06  -9.813807e+03
  -1.022079e+06  -7.936411e+05
   5.242396e+05  -5.250086e+05
   1.100088e+06   3.949611e+05
   1.723784e+05   9.643135e+05
  -1.078601e+06   5.806803e+05
  -1.063866e+06  -3.860864e+05
   4.006752e+05  -9.395088e+05
   1.704823e+06  -3.790273e+05
   1.129151e+06   1.007300e+06
  -1.140681e+06   2.081435e+06
  -3.083203e+06   1.771063e+06
  -3.031302e+06   4.227092e+04
  -1.379470e+06  -1.968472e+06
   1.579895e+05  -2.917510e+06
   5.911090e+05  -2.467052e+06
   4.492205e+05  -1.479133e+06
   7.031473e+05  -9.235388e+05
   1.494702e+06  -7.509338e+05
   2.110780e+06  -1.331421e+05
   1.839463e+06   1.189615e+06
   6.231525e+05   2.218811e+06
  -8.856132e+05   1.717309e+06
  -1.697447e+06  -2.048230e+05
  -1.153628e+06  -1.938061e+06
   4.308957e+05  -1.963820e+06
   1.835276e+06  -3.766729e+05
   1.950030e+06   1.349849e+06
   8.343789e+05   1.939413e+06
  -3.920641e+05   1.412331e+06
  -7.885244e+05   7.027642e+05
  -5.799266e+05   5.090833e+05
  -7.543325e+05   6.681966e+05
  -1.725475e+06   5.005107e+05
  -2.617609e+06  -4.122486e+05
  -2.097057e+06  -1.753832e+06
   4.997037e+04  -2.645691e+06
   2.365191e+06  -2.325897e+06
   2.994852e+06  -8.405905e+05
   1.559668e+06   8.484823e+05
  -4.362505e+05   1.568833e+06
  -1.167948e+06   9.487935e+05
  -3.009762e+05  -2.129135e+05
   9.068535e+05  -6.994330e+05
   1.133790e+06  -1.069074e+05
   3.142416e+05   7.320221e+05
  -5.480199e+05   6.998071e+05
  -5.457736e+05  -2.425370e+05
   3.110318e+05  -8.774430e+05
   1.201695e+06  -1.034931e+05
   1.192386e+06   1.644822e+06
  -1.563801e+04   2.662733e+06
  -1.732317e+06   1.759742e+06
  -2.683589e+06  -4.312904e+05
  -2.066689e+06  -2.103270e+06
  -3.630402e+05  -2.108068e+06
   1.031999e+06  -9.387778e+05
   1.140631e+06   4.140831e+04
   3.246356e+05   5.726208e+04
  -2.114751e+05  -5.027554e+05
   2.180340e+05  -7.510120e+05
   1.058623e+06  -2.887275e+05
   1.202874e+06   4.704429e+05
   3.037859e+05   7.979112e+05
  -7.453342e+05   3.903836e+05
  -7.362039e+05  -3.289396e+05
   4.796451e+05  -5.947270e+05
   1.689623e+06  -2.031115e+04
   1.527142e+06   1.000479e+06
  -5.460937e+04   1.602011e+06
  -1.668929e+06   1.217142e+06
  -1.904705e+06   1.181410e+05
  -7.295108e+05  -7.902955e+05
   5.897272e+05  -7.863553e+05
   8.395672e+05  -2.246562e+04
  -1.722915e+04   6.084506e+05
  -9.919255e+05   3.773997e+05
  -1.122557e+06  -5.028372e+05
  -3.260382e+05  -1.098487e+06
   6.306543e+05  -7.877708e+05
   8.872869e+05   4.620811e+04
   2.965364e+05   4.658182e+05
  -4.232255e+05   4.192240e+04
  -3.905787e+05  -6.961414e+05
   4.950100e+05  -8.746698e+05
   1.364998e+06  -1.922620e+05
   1.255459e+06   8.246889e+05
   1.524893e+05   1.358814e+06
  -9.609691e+05   1.018965e+06
  -1.127609e+06   1.312190e+05
  -3.697457e+05  -5.639483e+05
   4.356893e+05  -5.531471e+05
   5.266163e+05  -4.093473e+03
  -2.024724e+04   4.251183e+05
  -4.984979e+05   2.977774e+05
  -3.770636e+05  -1.210607e+05
   1.567521e+05  -2.007372e+05
   4.190061e+05   2.640419e+05
  -3.722725e+04   7.522388e+05
  -9.054735e+05   5.766900e+05
  -1.363286e+06  -3.430663e+05
  -8.706890e+05  -1.348150e+06
   2.678998e+05  -1.644274e+06
   1.181305e+06  -1.003660e+06
   1.272599e+06   6.650876e+04
   7.345325e+05   7.859816e+05
   2.257812e+05   7.766496e+05
   1.272511e+05   3.563415e+05
   2.079124e+05   1.507574e+05
   4.706115e+03   3.805562e+05
  -5.650310e+05   6.025638e+05
  -1.031766e+06   2.562383e+05
  -8.163522e+05  -5.803486e+05
   1.497579e+05  -1.142599e+06
   1.231657e+06  -7.590745e+05
   1.555631e+06   4.006760e+05
   7.624808e+05   1.434088e+06
  -6.321925e+05   1.535329e+06
  -1.641921e+06   6.904606e+05
  -1.634534e+06  -3.895032e+05
  -8.137513e+05  -9.513577e+05
   6.930876e+04  -8.345159e+05
   4.408439e+05  -4.993166e+05
   3.474926e+05  -4.593697e+05
   2.504640e+05  -7.007683e+05
   4.597024e+05  -7.119807e+05
   7.971074e+05  -1.151375e+05
   8.020129e+05   8.055018e+05
   2.553200e+05   1.307723e+06
  -5.138012e+05   9.312073e+05
  -8.819252e+05  -3.353603e+04
  -5.326404e+05  -8.274089e+05
   2.048199e+05  -9.129213e+05
   6.650580e+05  -3.738109e+05
   5.080298e+05   2.774150e+05
   3.176543e+04   5.982211e+05
  -2.002944e+05   5.399006e+05
  -2.067499e+03   3.618145e+05
   2.328948e+05   2.888235e+05
  -5.166957e+03   2.767840e+05
  -7.127817e+05   1.146949e+05
  -1.271794e+06  -2.774525e+05
  -1.035835e+06  -7.069199e+05
  -3.244664e+04  -8.753893e+05
   9.745350e+05  -6.536289e+05
   1.196274e+06  -1.885702e+05
   5.922417e+05   2.116020e+05
  -1.324514e+05   2.960528e+05
  -3.054960e+05   6.763597e+04
   4.437141e+04  -1.815297e+05
   3.618153e+05  -1.166009e+05
   2.850452e+05   2.569747e+05
   7.167609e+03   5.248307e+05
  -7.603913e+04   3.266767e+05
   1.173427e+05  -1.395700e+05
   3.045751e+05  -2.793289e+05
   1.975558e+05   1.584253e+05
  -2.100613e+05   6.927847e+05
  -6.527189e+05   6.463920e+05
  -7.758279e+05  -2.461583e+04
  -3.809419e+05  -6.541062e+05
   3.317165e+05  -6.298066e+05
   7.727261e+05  -4.811244e+04
   4.406152e+05   4.629501e+05
  -4.774836e+05   4.266521e+05
  -1.125141e+06  -8.371038e+04
  -7.981274e+05  -6.151482e+05
   2.669192e+05  -7.528611e+05
   1.083930e+06  -4.143721e+05
   9.411980e+05   1.120097e+05
   1.246950e+05   3.887815e+05
  -4.437293e+05   2.074600e+05
  -2.081353e+05  -1.783413e+05
   4.763089e+05  -2.581694e+05
   7.772575e+05   2.096733e+05
   2.749278e+05   8.753097e+05
  -6.218940e+05   1.063772e+06
  -1.113270e+06   4.284603e+05
  -8.001421e+05  -6.341676e+05
  -1.391227e+04  -1.260689e+06
   5.890387e+05  -9.049402e+05
   6.514555e+05   1.016132e+05
   3.058825e+05   8.372914e+05
  -1.117116e+05   7.163037e+05
  -3.638497e+05   7.027693e+04
  -3.688330e+05  -3.087278e+05
  -1.821360e+05  -1.362950e+05
  -1.018552e+04   9.013373e+04
  -6.440296e+04  -1.537601e+05
  -2.520486e+05  -6.646487e+05
  -1.635810e+05  -7.771330e+05
   4.037847e+05  -2.566627e+05
   1.000770e+06   4.096213e+05
   9.207324e+05   6.566088e+05
   9.888806e+04   4.715717e+05
  -6.884157e+05   2.210237e+05
  -7.181750e+05   9.456986e+04
  -1.815488e+05  -4.769245e+03
   1.435419e+05  -1.347801e+05
  -5.207503e+04  -1.928358e+05
  -2.697511e+05  -1.429154e+05
   1.282175e+04  -9.711431e+04
   5.697913e+05  -7.214060e+04
   6.987870e+05   1.052538e+05
   1.069906e+05   4.723353e+05
  -7.404883e+05   6.804819e+05
  -1.137424e+06   3.356646e+05
  -8.077518e+05  -4.342279e+05
  -5.269420e+04  -9.908852e+05
   5.871932e+05  -8.555831e+05
   7.442567e+05  -2.299956e+05
   4.403268e+05   2.578780e+05
   2.538294e+04   2.482289e+05
  -1.306853e+05  -2.305972e+04
   3.094781e+04  -7.335350e+04
   2.267708e+05   2.457885e+05
   1.518363e+05   5.702002e+05
  -1.863795e+05   4.283946e+05
  -4.688241e+05  -1.945083e+05
  -3.763121e+05  -7.567066e+05
   9.450034e+04  -6.917273e+05
   5.779773e+05  -2.342750e+04
   6.174805e+05   6.426762e+05
   1.014838e+05   7.563282e+05
  -5.422854e+05   3.429812e+05
  -7.093462e+05  -1.521483e+05
  -2.723465e+05  -3.889367e+05
   2.303375e+05  -3.603217e+05
   2.092306e+05  -2.103063e+05
  -2.455073e+05  -6.145861e+04
  -4.649571e+05  -3.403578e+04
  -5.134012e+04  -2.020388e+05
   6.105392e+05  -4.149666e+05
   8.310637e+05  -3.451676e+05
   4.310135e+05   1.046136e+05
  -1.317277e+05   5.519497e+05
  -3.633024e+05   5.161027e+05
  -2.162394e+05   2.826144e+04
   4.287970e+04  -3.594491e+05
   2.055160e+05  -2.343049e+05
   2.277270e+05   1.970426e+05
   1.197568e+05   4.128185e+05
  -8.068113e+04   2.196997e+05
  -2.570312e+05  -8.983176e+04
  -2.821371e+05  -1.730114e+05
  -1.608425e+05  -3.809511e+04
  -1.919509e+04   4.535750e+04
   6.136181e+04  -8.120266e+04
   1.209282e+05  -2.794531e+05
   2.090361e+05  -2.801843e+05
   2.675983e+05   9.338041e+03
   1.816159e+05   3.691739e+05
  -6.913100e+04   4.530190e+05
  -3.343488e+05   1.454002e+05
  -3.793340e+05  -2.827933e+05
  -9.117743e+04  -4.346456e+05
   3.494749e+05  -2.022697e+05
   5.492171e+05   1.453292e+05
   2.762609e+05   2.921714e+05
  -2.249850e+05   1.964917e+05
  -4.266325e+05   4.321376e+04
  -1.143645e+05  -1.307796e+04
   3.146220e+05   4.333826e+04
   2.969389e+05   1.562742e+05
  -2.041910e+05   2.283239e+05
  -6.310985e+05   1.180223e+05
