
 $NMID
 id='ANONYMOUS ', fmtdat='(2E16.6)'
 volume=1.0
 tramp=1.0
 $END
  -1.453219e+07  -1.779641e+06
  -6.032652e+06  -1.291967e+07
   6.163278e+06  -1.037499e+07
   9.031378e+06   3.905829e+05
   2.592941e+06   6.138880e+06
  -3.193454e+06   2.910976e+06
  -2.624117e+06  -2.276412e+06
   1.066199e+06  -3.202778e+06
   3.062495e+06  -8.436183e+05
   2.625602e+06   1.296620e+06
   1.139982e+06   2.115930e+06
  -5.430965e+05   1.919231e+06
  -1.469816e+06   7.650063e+05
  -6.289661e+05  -4.819891e+05
   1.091660e+06  -2.296637e+05
   1.366107e+06   1.410892e+06
  -3.466084e+05   2.373628e+06
  -2.132388e+06   1.582272e+06
  -2.611133e+06   1.105393e+05
  -2.317983e+06  -1.086113e+06
  -1.636479e+06  -2.273326e+06
   7.165568e+04  -3.092152e+06
   2.305306e+06  -2.135951e+06
   2.879228e+06   3.946394e+05
   1.038942e+06   1.887219e+06
  -8.906620e+05   7.737890e+05
  -6.103450e+05  -1.065235e+06
   1.054827e+06  -1.043251e+06
   1.799359e+06   6.030384e+05
   1.078967e+06   1.822626e+06
  -4.821574e+04   1.859353e+06
  -1.002872e+06   1.369876e+06
  -1.694370e+06   5.826473e+05
  -1.507661e+06  -5.326877e+05
  -2.752938e+05  -1.054114e+06
   5.457486e+05  -2.110734e+05
  -3.170278e+05   8.101200e+05
  -1.631768e+06   2.691543e+05
  -1.281288e+06  -1.271107e+06
   3.243145e+05  -1.684155e+06
   8.713963e+05  -7.282471e+05
   2.015960e+04  -3.421681e+05
  -3.804681e+04  -1.180418e+06
   1.574964e+06  -1.357135e+06
   2.669233e+06   3.517400e+05
   1.359635e+06   2.237403e+06
  -9.506868e+05   2.102480e+06
  -1.664253e+06   3.812166e+05
  -5.408371e+05  -8.086083e+05
   6.089435e+05  -5.948567e+05
   6.956948e+05   2.341328e+05
   8.532909e+04   8.737439e+05
  -6.851580e+05   1.026741e+06
  -1.269938e+06   4.219338e+05
  -1.087474e+06  -7.229070e+05
  -5.231060e+04  -1.248522e+06
   6.585444e+05  -4.702547e+05
   3.963859e+04   4.181643e+05
  -9.168588e+05  -1.375577e+05
  -4.337627e+05  -1.509888e+06
   1.237534e+06  -1.594855e+06
   2.004737e+06   1.448658e+04
   1.040423e+06   1.407902e+06
  -1.553858e+05   1.243570e+06
  -2.927224e+05   4.412331e+05
  -6.732932e+04   2.511790e+05
  -4.433644e+05   3.087936e+05
  -7.757579e+05  -1.890865e+05
  -7.670089e+04  -6.789409e+05
   9.530955e+05  -1.236812e+05
   7.875225e+05   1.032519e+06
  -5.595604e+05   1.305488e+06
  -1.519495e+06   2.940623e+05
  -1.158456e+06  -8.901994e+05
  -1.254754e+05  -1.235661e+06
   5.902704e+05  -8.127553e+05
   7.357784e+05  -1.508686e+05
   4.844984e+05   3.860434e+05
   2.700046e+04   4.904665e+05
  -2.562893e+05   4.515036e+04
   6.649809e+03  -4.405541e+05
   5.275090e+05  -2.551613e+05
   5.483604e+05   4.747453e+05
  -8.749819e+04   8.415808e+05
  -6.668362e+05   4.195504e+05
  -6.207215e+05  -2.151443e+05
  -1.908380e+05  -4.336135e+05
   1.521956e+05  -3.172367e+05
   3.186333e+05  -1.711474e+05
   3.232404e+05   2.978696e+04
   3.556945e+04   2.836010e+05
  -3.890387e+05   2.627577e+05
  -4.096838e+05  -1.223348e+05
   9.931206e+04  -3.709317e+05
   4.751955e+05  -1.245557e+05
   2.100261e+05   2.087050e+05
  -2.402562e+05   1.161674e+05
  -1.934993e+05  -1.716067e+05
   1.828041e+05  -1.309226e+05
   2.633531e+05   1.397109e+05
   5.563820e+04   1.879244e+05
   3.949770e+04   1.020958e+05
   1.345726e+05   3.004280e+05
  -2.065881e+05   5.651956e+05
  -8.487158e+05   2.117425e+05
  -8.898578e+05  -6.820984e+05
  -2.332985e+04  -1.114113e+06
   8.503384e+05  -5.472623e+05
   8.364149e+05   3.045037e+05
   2.066656e+05   5.284993e+05
  -1.902061e+05   2.045326e+05
  -1.347952e+05  -8.037274e+03
  -2.615197e+04   5.222886e+04
  -4.651115e+04   5.202603e+04
  -1.454829e+04  -7.926258e+04
   9.999051e+04  -7.812345e+04
   1.172391e+05   8.928026e+04
   4.662801e+04   1.788659e+05
   4.673458e+04   1.510960e+05
   2.900105e+04   1.939143e+05
  -2.203324e+05   2.658411e+05
  -5.372901e+05   1.031685e+05
  -4.910534e+05  -2.612663e+05
  -6.000461e+04  -4.440195e+05
   2.697481e+05  -2.893969e+05
   2.080093e+05  -9.105138e+04
   2.884146e+04  -8.857363e+04
   5.433690e+04  -1.278142e+05
   1.772328e+05  -1.956793e+04
   1.573098e+05   1.113225e+05
   5.457598e+04   8.583383e+04
   5.445388e+04  -4.204979e+02
   1.088409e+05   2.379022e+04
   6.818269e+04   9.861294e+04
  -8.958268e+03   9.072292e+04
   1.556708e+04   7.070184e+04
   5.803243e+04   1.589838e+05
  -5.687356e+04   2.450277e+05
  -2.549554e+05   1.436894e+05
  -2.950269e+05  -7.314625e+04
  -1.447586e+05  -1.756147e+05
  -4.452878e+03  -1.308238e+05
   1.839948e+04  -9.432372e+04
   3.450126e+03  -1.089455e+05
   1.771069e+03  -8.607711e+04
  -1.748506e+04  -4.836367e+04
  -1.135736e+03  -1.014948e+05
   1.427133e+05  -1.669360e+05
   2.995759e+05  -4.481314e+04
   2.202560e+05   2.101862e+05
  -8.249693e+04   2.772094e+05
  -2.677598e+05   3.809754e+04
  -1.199462e+05  -2.157578e+05
   1.604481e+05  -1.907566e+05
   2.646595e+05   3.414150e+04
   1.626630e+05   2.065861e+05
   1.168107e+04   2.521192e+05
  -1.232444e+05   2.254262e+05
  -2.414294e+05   1.093467e+05
  -2.568483e+05  -9.251665e+04
  -1.206144e+05  -2.104554e+05
   1.165786e+04  -1.198565e+05
  -1.983783e+04   4.729490e+03
  -8.814953e+04  -7.913547e+04
   4.761380e+04  -2.638016e+05
   3.152804e+05  -2.071982e+05
   3.637842e+05   1.336649e+05
   6.478789e+04   3.900979e+05
  -2.845018e+05   2.817249e+05
  -3.566636e+05  -3.507959e+04
  -1.695612e+05  -2.412682e+05
   5.405490e+04  -2.491534e+05
   1.985201e+05  -1.629996e+05
   2.616740e+05  -3.839021e+04
   2.108396e+05   1.141117e+05
   3.737222e+04   2.054696e+05
  -1.275055e+05   1.554553e+05
  -1.384945e+05   4.699470e+04
  -4.282917e+04   2.121113e+04
  -8.520985e+03   5.752562e+04
  -7.262211e+04   1.863827e+04
  -1.080315e+05  -1.096939e+05
  -3.453767e+04  -1.847913e+05
   7.626408e+04  -1.193549e+05
   1.243766e+05   1.342777e+04
   9.388006e+04   1.083903e+05
   1.883151e+04   1.383376e+05
  -6.329081e+04   1.089456e+05
  -1.011528e+05   2.194084e+04
  -6.453777e+04  -7.466201e+04
  -1.089905e+04  -1.012527e+05
  -2.594571e+04  -5.846461e+04
  -7.833491e+04  -3.681366e+04
  -3.799442e+04  -7.286724e+04
   1.217874e+05  -8.639686e+04
   2.469033e+05  -1.243836e+04
   1.939312e+05   9.167459e+04
   1.429505e+04   1.348971e+05
  -1.275382e+05   1.112478e+05
  -1.497883e+05   6.379608e+04
  -8.954524e+04   5.136847e+03
  -7.304429e+03  -5.031168e+04
   5.240162e+04  -4.734809e+04
   4.786690e+04   2.454805e+04
  -1.844705e+04   6.859082e+04
  -6.861957e+04   8.533721e+03
  -4.184308e+04  -7.160093e+04
   4.703045e+03  -3.863932e+04
  -2.552911e+04   6.933293e+04
  -1.072161e+05   7.604537e+04
  -1.113250e+05  -6.966927e+04
   8.976810e+03  -2.031553e+05
   1.457842e+05  -1.661967e+05
   1.749005e+05  -5.977471e+03
   8.793934e+04   1.158973e+05
  -3.765949e+04   1.214665e+05
  -1.205123e+05   4.699081e+04
  -9.848563e+04  -4.682045e+04
   3.980046e+04  -1.038447e+05
   1.926713e+05  -6.614701e+04
   1.964637e+05   6.227523e+04
   1.623203e+04   1.697585e+05
  -1.733731e+05   1.441732e+05
  -1.820514e+05   1.886652e+04
  -3.712198e+04  -6.416009e+04
   6.575742e+04  -3.437527e+04
   1.801370e+04   3.555135e+04
  -9.312448e+04   4.207458e+04
  -1.291611e+05  -3.349271e+04
  -5.809829e+04  -1.323954e+05
   5.624404e+04  -1.776842e+05
   1.414049e+05  -1.131105e+05
   1.504139e+05   4.861414e+04
   6.993669e+04   1.912126e+05
  -5.216149e+04   1.775728e+05
  -1.209932e+05   1.137159e+04
  -8.283276e+04  -1.394354e+05
   1.514436e+04  -1.319893e+05
   7.981871e+04  -1.422250e+04
   6.993173e+04   5.849130e+04
   2.042471e+04   3.106748e+04
  -8.496381e+03  -7.668057e+03
   1.233985e+04   2.361988e+04
   5.388086e+04   8.969674e+04
   4.524329e+04   1.061044e+05
  -5.117684e+04   5.304939e+04
  -1.667428e+05  -1.971965e+04
  -1.750477e+05  -6.619120e+04
  -4.607505e+04  -7.978623e+04
   9.510536e+04  -7.092546e+04
   1.151314e+05  -4.612164e+04
   3.793313e+04  -1.287607e+04
  -5.983491e+03   1.572778e+04
   2.946528e+04   3.057435e+04
   5.467392e+04   3.474505e+04
  -6.373331e+03   3.630941e+04
  -1.001223e+05   3.114305e+04
  -1.186988e+05  -1.158026e+03
  -3.472879e+04  -6.822529e+04
   8.487791e+04  -1.269733e+05
   1.600555e+05  -1.025975e+05
   1.492734e+05   2.292812e+04
   5.587700e+04   1.566266e+05
  -6.511221e+04   1.755924e+05
  -1.266223e+05   6.961524e+04
  -8.734200e+04  -4.135222e+04
  -4.992825e+03  -5.303127e+04
   2.723132e+04   1.898578e+03
  -8.779118e+03   1.585499e+04
  -4.658309e+04  -4.250819e+04
  -2.940697e+04  -9.437719e+04
   2.843793e+04  -6.291860e+04
   7.441877e+04   3.162515e+04
   7.048173e+04   1.041307e+05
   9.484944e+03   9.704050e+04
  -7.664883e+04   2.160040e+04
  -1.159199e+05  -6.685967e+04
  -5.315275e+04  -1.107963e+05
   6.811485e+04  -8.328317e+04
   1.268460e+05  -5.995325e+03
   6.481221e+04   6.369595e+04
  -3.225117e+04   7.767256e+04
  -4.171635e+04   3.665449e+04
   3.551099e+04  -1.272908e+04
   8.210157e+04  -1.862649e+04
   2.450661e+04   3.054536e+04
  -7.761279e+04   8.897722e+04
  -1.194739e+05   8.772962e+04
  -7.624802e+04   6.687173e+03
  -6.377714e+03  -8.766013e+04
   3.387915e+04  -1.023559e+05
   3.571553e+04  -2.515146e+04
   1.370010e+04   5.503765e+04
  -1.882529e+04   5.271010e+04
  -4.382304e+04  -1.466447e+04
  -3.899433e+04  -6.015507e+04
  -1.667334e+03  -4.085995e+04
   3.983469e+04   2.255066e+03
   5.189054e+04   1.475699e+04
   2.977490e+04  -2.485266e+03
  -2.004787e+02  -1.041693e+04
  -1.157571e+04   1.034631e+04
  -6.265416e+03   4.027151e+04
  -8.592902e+03   4.664659e+04
  -2.953302e+04   1.458921e+04
  -4.380120e+04  -3.774973e+04
  -1.663550e+04  -6.679865e+04
   4.335446e+04  -4.026142e+04
   7.634591e+04   2.347169e+04
   3.516440e+04   6.620456e+04
  -5.016112e+04   5.156757e+04
  -9.527969e+04   2.502132e+03
  -5.512924e+04  -3.351466e+04
   2.343026e+04  -3.864088e+04
   5.578528e+04  -2.710536e+04
   1.565959e+04  -1.306914e+04
  -3.965075e+04  -3.498708e+03
  -3.877026e+04  -9.766290e+03
   2.385184e+04  -3.184975e+04
   8.447932e+04  -3.574795e+04
