
 $NMID
 id='ANONYMOUS ', fmtdat='(2E16.6)'
 volume=1.0
 tramp=1.0
 $END
   3.678062e+07   1.773129e+06
   2.179921e+07   2.158861e+07
  -4.210092e+06   2.385862e+07
  -1.742314e+07   1.096696e+07
  -1.135579e+07  -2.566942e+06
   1.238645e+06  -6.096445e+06
   6.650493e+06  -5.865061e+05
   3.027299e+06   6.136725e+06
  -3.257814e+06   7.450799e+06
  -6.490011e+06   2.329936e+06
  -4.980906e+06  -4.508468e+06
  -4.430139e+05  -6.497628e+06
   3.094169e+06  -1.639230e+06
   2.129107e+06   4.747327e+06
  -2.413294e+06   5.476462e+06
  -5.469253e+06  -4.379743e+05
  -3.301283e+06  -6.981897e+06
   2.453595e+06  -8.170107e+06
   6.953618e+06  -3.779643e+06
   7.086285e+06   1.993109e+06
   3.595984e+06   5.270456e+06
  -2.779949e+05   5.082128e+06
  -1.469369e+06   3.092193e+06
   3.128374e+05   1.953253e+06
   1.871281e+06   2.896729e+06
  -2.769529e+05   4.224380e+06
  -5.238427e+06   3.141300e+06
  -7.893330e+06  -5.241764e+05
  -4.917209e+06  -3.701127e+06
   8.617950e+05  -3.716000e+06
   3.788209e+06  -1.223055e+06
   1.917425e+06   1.150934e+06
  -1.657703e+06   1.670097e+06
  -3.221262e+06   2.060106e+05
  -2.033954e+06  -2.291062e+06
   2.820784e+05  -3.826339e+06
   1.867502e+06  -2.460179e+06
   1.714168e+06   9.657679e+05
   2.298989e+05   2.624267e+06
  -7.428172e+05   3.269008e+05
   2.625766e+05  -2.821722e+06
   2.093813e+06  -2.097617e+06
   1.900656e+06   2.047259e+06
  -1.058530e+06   4.047044e+06
  -3.831229e+06   6.982175e+05
  -3.028763e+06  -4.379604e+06
   1.137979e+06  -5.408697e+06
   5.038829e+06  -1.465240e+06
   5.338496e+06   3.213305e+06
   1.873125e+06   4.601661e+06
  -2.539456e+06   2.468360e+06
  -4.420448e+06  -7.222286e+05
  -2.401649e+06  -2.454520e+06
   1.408385e+06  -1.729466e+06
   3.229323e+06   4.326953e+05
   1.558405e+06   1.758911e+06
  -1.145570e+06   9.688367e+05
  -1.545390e+06  -6.934087e+05
   4.213086e+05  -1.000953e+06
   1.728460e+06   3.959239e+05
   3.357812e+05   1.693845e+06
  -2.370154e+06   1.354158e+06
  -3.487521e+06  -4.041553e+05
  -1.768889e+06  -2.482459e+06
   1.600632e+06  -3.877187e+06
   4.407832e+06  -3.549737e+06
   4.973421e+06  -8.968155e+05
   3.120745e+06   2.833396e+06
   3.809939e+05   4.874285e+06
  -1.189715e+06   3.851122e+06
  -1.003564e+06   1.540020e+06
  -4.406415e+05   5.840494e+05
  -9.635167e+05   1.128666e+06
  -2.236468e+06   1.078166e+06
  -2.688345e+06  -6.168021e+05
  -1.520509e+06  -2.417355e+06
   4.929206e+05  -2.256747e+06
   1.902982e+06  -7.730262e+04
   1.683847e+06   2.219617e+06
  -2.008462e+05   2.735787e+06
  -2.551760e+06   1.101396e+06
  -3.481021e+06  -1.443610e+06
  -2.100311e+06  -3.094854e+06
   3.107808e+05  -2.945753e+06
   1.622902e+06  -1.715641e+06
   1.414030e+06  -8.364638e+05
   1.312544e+06  -7.725760e+05
   2.494729e+06  -6.239430e+05
   3.797226e+06   5.318069e+05
   3.106630e+06   2.389334e+06
   1.377242e+05   3.715157e+06
  -3.002186e+06   3.503385e+06
  -3.963592e+06   1.699996e+06
  -2.363677e+06  -7.144373e+05
   9.236657e+04  -2.159938e+06
   1.281979e+06  -1.620861e+06
   4.877332e+05   1.524118e+05
  -1.099613e+06   1.134224e+06
  -1.659228e+06   2.989011e+05
  -6.687923e+05  -1.061449e+06
   5.833520e+05  -1.029500e+06
   5.781307e+05   3.037314e+05
  -6.398221e+05   9.046873e+05
  -1.606760e+06  -4.777706e+05
  -1.132912e+06  -2.628746e+06
   6.077579e+05  -3.315552e+06
   2.485156e+06  -1.757394e+06
   3.333890e+06   8.142684e+05
   2.562586e+06   2.577416e+06
   5.725004e+05   2.617940e+06
  -1.235998e+06   1.374524e+06
  -1.520091e+06   1.342972e+05
  -4.532931e+05  -4.627350e+04
   3.317904e+05   6.831426e+05
  -3.179763e+05   1.139120e+06
  -1.600390e+06   4.964357e+05
  -1.774194e+06  -6.918511e+05
  -4.085669e+05  -1.185131e+06
   1.033543e+06  -5.594793e+05
   9.266633e+05   3.935963e+05
  -6.787416e+05   6.564035e+05
  -2.139229e+06  -5.060167e+04
  -1.890106e+06  -1.218444e+06
   6.697216e+04  -1.993124e+06
   2.143797e+06  -1.671625e+06
   2.579604e+06  -2.919119e+05
   1.091300e+06   1.100076e+06
  -8.092918e+05   1.257991e+06
  -1.303897e+06   1.265236e+05
  -1.020303e+05  -9.280273e+05
   1.370520e+06  -6.408115e+05
   1.580750e+06   6.598284e+05
   4.216671e+05   1.493300e+06
  -8.954277e+05   1.005629e+06
  -1.176587e+06  -1.394574e+05
  -3.284095e+05  -6.593037e+05
   6.576153e+05  -6.407746e+04
   6.383164e+05   9.530759e+05
  -5.701121e+05   1.285859e+06
  -1.863291e+06   4.452074e+05
  -1.843934e+06  -1.000227e+06
  -3.388907e+05  -1.888578e+06
   1.285185e+06  -1.497087e+06
   1.564031e+06  -2.317117e+05
   5.059046e+05   7.697173e+05
  -5.782797e+05   7.664939e+05
  -6.530646e+05   6.839244e+04
   3.958596e+04  -4.490241e+05
   5.397164e+05  -3.282660e+05
   3.170104e+05   7.463569e+04
  -2.917116e+05   9.154297e+04
  -5.212191e+05  -4.731246e+05
   9.543007e+04  -1.057563e+06
   1.235221e+06  -8.441420e+05
   1.912510e+06   3.693684e+05
   1.333950e+06   1.788929e+06
  -2.096376e+05   2.260649e+06
  -1.504500e+06   1.392490e+06
  -1.647295e+06  -4.156040e+04
  -9.389560e+05  -9.042651e+05
  -3.563015e+05  -8.121724e+05
  -3.417750e+05  -3.472019e+05
  -4.393307e+05  -2.553041e+05
  -5.330549e+04  -6.200447e+05
   7.662871e+05  -8.493586e+05
   1.358294e+06  -3.707852e+05
   1.069650e+06   6.854468e+05
  -1.595175e+05   1.454609e+06
  -1.599832e+06   1.068992e+06
  -2.121220e+06  -4.267485e+05
  -1.105672e+06  -1.916843e+06
   8.392559e+05  -2.165897e+06
   2.269007e+06  -1.011718e+06
   2.212984e+06   5.002669e+05
   1.035457e+06   1.220721e+06
  -9.588474e+04   9.989613e+05
  -4.438858e+05   6.030017e+05
  -2.489334e+05   6.980794e+05
  -1.965067e+05   1.110532e+06
  -6.042055e+05   1.105835e+06
  -1.146126e+06   2.572151e+05
  -1.207982e+06  -1.019732e+06
  -4.926231e+05  -1.764729e+06
   5.984524e+05  -1.329228e+06
   1.199233e+06  -1.527044e+04
   7.714979e+05   1.137598e+06
  -2.856578e+05   1.273591e+06
  -9.720718e+05   4.590812e+05
  -7.208898e+05  -4.988262e+05
   2.250148e+04  -8.998236e+05
   3.660441e+05  -7.266321e+05
   2.159087e+04  -4.328634e+05
  -3.776558e+05  -3.445396e+05
  -3.861061e+04  -3.688064e+05
   1.016310e+06  -2.018630e+05
   1.840654e+06   2.959475e+05
   1.486412e+06   9.215097e+05
   3.311979e+04   1.258236e+06
  -1.383394e+06   1.011380e+06
  -1.656236e+06   3.044997e+05
  -7.888347e+05  -3.500302e+05
   2.062251e+05  -4.705810e+05
   4.403510e+05  -7.021469e+04
  -1.326444e+04   3.286194e+05
  -4.483983e+05   2.209253e+05
  -4.314353e+05  -3.231357e+05
  -1.534453e+05  -7.020201e+05
  -1.230403e+04  -4.573762e+05
  -1.313813e+05   1.425769e+05
  -3.146267e+05   3.433157e+05
  -2.683075e+05  -2.062812e+05
   1.727277e+05  -9.444069e+05
   8.369211e+05  -9.678216e+05
   1.176379e+06  -9.334912e+04
   6.929184e+05   8.649318e+05
  -3.990178e+05   9.805850e+05
  -1.122955e+06   2.246539e+05
  -6.675095e+05  -5.624387e+05
   6.333492e+05  -6.115968e+05
   1.504308e+06   5.031539e+04
   1.031222e+06   7.759445e+05
  -3.720976e+05   9.733314e+05
  -1.405356e+06   5.488333e+05
  -1.209951e+06  -1.193684e+05
  -1.641474e+05  -4.932624e+05
   5.926323e+05  -2.831474e+05
   3.287322e+05   2.540432e+05
  -5.867863e+05   4.493673e+05
  -1.099280e+06  -1.396610e+05
  -5.523532e+05  -1.140252e+06
   6.438955e+05  -1.562334e+06
   1.433475e+06  -7.689849e+05
   1.166507e+06   7.450648e+05
   1.680444e+05   1.694998e+06
  -6.991780e+05   1.245509e+06
  -8.740970e+05  -1.241028e+05
  -4.435695e+05  -1.107702e+06
   1.476142e+05  -9.346850e+05
   5.061963e+05  -9.923312e+04
   4.795368e+05   3.624430e+05
   2.027297e+05   1.404850e+05
   2.591298e+04  -1.022501e+05
   1.870394e+05   2.523212e+05
   4.436495e+05   8.971364e+05
   2.316322e+05   1.016864e+06
  -6.042588e+05   3.692846e+05
  -1.389656e+06  -4.463059e+05
  -1.249500e+06  -7.869082e+05
  -1.743227e+05  -6.436991e+05
   8.505777e+05  -3.869533e+05
   9.396601e+05  -1.841951e+05
   2.951572e+05   2.845204e+04
  -1.569091e+05   2.075102e+05
   2.288094e+04   2.133727e+05
   3.091148e+05   1.155184e+05
   2.415185e+04   1.313315e+05
  -6.863536e+05   2.001429e+05
  -9.750897e+05  -3.916690e+04
  -3.135981e+05  -6.528238e+05
   8.582071e+05  -1.066531e+06
   1.566263e+06  -6.446294e+05
   1.251216e+06   4.588982e+05
   2.217859e+05   1.332186e+06
  -7.203211e+05   1.259706e+06
  -9.920105e+05   4.550370e+05
  -6.230197e+05  -2.543348e+05
  -9.767405e+04  -3.390074e+05
   1.177861e+05  -3.498180e+04
  -5.410245e+04   4.957711e+04
  -3.007354e+05  -3.280993e+05
  -2.444802e+05  -7.566150e+05
   1.875649e+05  -6.240290e+05
   6.515381e+05   1.549630e+05
   6.549847e+05   9.377301e+05
   3.946241e+04   9.688275e+05
  -7.448677e+05   1.790024e+05
  -9.507364e+05  -7.336074e+05
  -2.811007e+05  -1.025712e+06
   6.881835e+05  -5.908415e+05
   1.023953e+06   9.991868e+04
   4.582752e+05   5.493538e+05
  -2.787800e+05   5.864977e+05
  -3.203386e+05   3.243553e+05
   2.779802e+05   2.263604e+04
   6.212984e+05  -2.388729e+04
   1.174011e+05   2.835302e+05
  -7.798173e+05   6.325734e+05
  -1.143154e+06   5.199171e+05
  -6.632770e+05  -1.458819e+05
   1.062728e+05  -7.959566e+05
   4.907298e+05  -7.723568e+05
   3.610376e+05  -1.093049e+05
   2.423132e+04   4.704122e+05
  -2.403518e+05   3.825392e+05
  -3.357818e+05  -1.800508e+05
  -2.254689e+05  -5.458997e+05
   6.951707e+04  -3.655689e+05
   3.663058e+05   6.348509e+04
   4.249359e+05   2.430989e+05
   2.222596e+05   6.894499e+04
  -6.756666e+03  -1.133341e+05
  -6.774294e+04   2.113996e+04
  -4.304343e+04   3.634145e+05
  -1.348762e+05   4.827697e+05
  -3.352776e+05   1.340807e+05
  -3.800533e+05  -4.133644e+05
  -7.202859e+04  -6.240328e+05
   4.081984e+05  -2.736149e+05
   5.970421e+05   2.985401e+05
   2.136282e+05   5.583289e+05
  -4.689370e+05   3.291732e+05
  -8.056189e+05  -1.014320e+05
  -4.330863e+05  -3.619312e+05
   2.839323e+05  -3.429204e+05
   5.960167e+05  -1.696680e+05
   2.059205e+05  -3.909849e+03
  -3.710710e+05   3.537895e+04
  -4.034703e+05  -1.044428e+05
   1.912416e+05  -3.009740e+05
   7.554410e+05  -2.520728e+05
