
 $NMID
 id='ANONYMOUS ', fmtdat='(2E16.6)'
 volume=1.0
 tramp=1.0
 $END
   5.976923e+07   2.081737e+04
   3.585354e+07   3.786414e+07
  -8.477991e+06   4.088154e+07
  -2.982704e+07   1.486020e+07
  -1.742996e+07  -8.367096e+06
   3.908689e+06  -9.974716e+06
   1.046136e+07   1.873476e+06
   2.469699e+06   1.058652e+07
  -7.049971e+06   9.472208e+06
  -1.029899e+07   1.669407e+06
  -7.213934e+06  -6.540866e+06
  -7.583785e+05  -8.862513e+06
   4.094923e+06  -2.913524e+06
   2.520812e+06   5.423146e+06
  -4.176828e+06   6.514381e+06
  -8.282655e+06  -1.682495e+06
  -4.452425e+06  -1.083409e+07
   4.205975e+06  -1.235989e+07
   1.070490e+07  -6.175098e+06
   1.143110e+07   2.083277e+06
   7.193514e+06   7.857319e+06
   9.446981e+05   9.355710e+06
  -3.244486e+06   6.752815e+06
  -2.549183e+06   2.913645e+06
   6.330958e+05   1.889127e+06
   2.613057e+05   3.890364e+06
  -5.219293e+06   4.393078e+06
  -9.670289e+06   6.083835e+05
  -7.278108e+06  -4.130573e+06
  -5.590822e+05  -5.168312e+06
   3.466242e+06  -2.764411e+06
   2.439627e+06  -3.766389e+05
  -3.014308e+05   5.336881e+05
  -1.833614e+06   4.046340e+05
  -2.020634e+06  -1.140146e+06
  -8.558121e+05  -3.720363e+06
   1.722650e+06  -4.059926e+06
   3.515471e+06  -1.976466e+05
   2.075606e+06   3.730892e+06
  -6.893230e+05   2.337687e+06
  -4.107086e+05  -2.167240e+06
   2.526077e+06  -2.187826e+06
   2.479668e+06   3.458911e+06
  -2.819805e+06   6.524832e+06
  -7.638647e+06   1.053599e+06
  -5.487823e+06  -7.436098e+06
   2.146387e+06  -9.104510e+06
   7.848278e+06  -2.514426e+06
   7.050638e+06   4.766426e+06
   1.622604e+06   6.270175e+06
  -3.691775e+06   2.598912e+06
  -5.276706e+06  -1.848247e+06
  -2.268336e+06  -3.749161e+06
   2.663521e+06  -2.239481e+06
   4.732356e+06   1.098056e+06
   1.966578e+06   2.942235e+06
  -1.831303e+06   1.419037e+06
  -1.708643e+06  -1.133187e+06
   1.587069e+06  -8.711804e+05
   2.644819e+06   2.139991e+06
  -8.781678e+05   3.892882e+06
  -5.161129e+06   1.994125e+06
  -5.660657e+06  -1.656210e+06
  -2.351299e+06  -4.315054e+06
   1.875998e+06  -5.406735e+06
   5.045290e+06  -4.882230e+06
   6.288523e+06  -1.798396e+06
   4.742136e+06   3.166532e+06
   9.542659e+05   6.288459e+06
  -2.100400e+06   4.828887e+06
  -2.008984e+06   1.058305e+06
  -1.365332e+05  -5.443484e+05
   2.993678e+05   7.955492e+05
  -1.323796e+06   1.819536e+06
  -2.655804e+06   4.157477e+05
  -1.990643e+06  -1.711521e+06
  -1.123495e+05  -1.969574e+06
   1.362374e+06  -1.574214e+05
   1.513618e+06   1.994150e+06
  -1.941651e+04   2.851283e+06
  -2.725457e+06   1.677383e+06
  -4.525832e+06  -1.138729e+06
  -3.354761e+06  -3.835568e+06
   7.627644e+02  -4.432635e+06
   2.411332e+06  -2.890343e+06
   2.424131e+06  -1.165617e+06
   1.959616e+06  -5.920057e+05
   2.991169e+06  -3.280658e+05
   4.329053e+06   9.350484e+05
   3.380946e+06   2.882001e+06
  -9.817068e+03   4.093056e+06
  -3.261939e+06   3.753601e+06
  -4.116473e+06   2.024875e+06
  -2.603014e+06  -3.801671e+05
  -3.102970e+05  -2.144914e+06
   1.039561e+06  -1.905688e+06
   5.558565e+05   4.437306e+03
  -1.072117e+06   1.271191e+06
  -1.918535e+06   3.664791e+05
  -9.385644e+05  -1.217285e+06
   5.043212e+05  -1.074706e+06
   3.475315e+05   4.274326e+05
  -1.212612e+06   5.847990e+05
  -1.875703e+06  -1.571223e+06
  -3.744667e+05  -3.705524e+06
   2.001064e+06  -3.315915e+06
   3.337318e+06  -7.615882e+05
   3.152653e+06   1.747854e+06
   1.977017e+06   2.828113e+06
   2.817902e+05   2.525711e+06
  -1.245320e+06   1.384951e+06
  -1.536979e+06   1.939553e+05
  -4.867990e+05  -6.072104e+04
   3.276974e+05   7.578675e+05
  -4.696894e+05   1.350669e+06
  -1.959609e+06   5.329766e+05
  -2.027437e+06  -9.848297e+05
  -3.239252e+05  -1.461089e+06
   1.194254e+06  -5.140473e+05
   8.192382e+05   4.973249e+05
  -9.136069e+05   4.169403e+05
  -2.110641e+06  -5.063975e+05
  -1.563593e+06  -1.440929e+06
   3.971206e+05  -1.881537e+06
   2.348043e+06  -1.491763e+06
   2.748275e+06  -1.538006e+05
   1.178943e+06   1.318720e+06
  -9.655061e+05   1.508232e+06
  -1.600077e+06   1.654344e+05
  -2.017841e+05  -1.095060e+06
   1.533557e+06  -6.933784e+05
   1.679047e+06   8.589549e+05
   2.328307e+05   1.668565e+06
  -1.168519e+06   8.935997e+05
  -1.236815e+06  -4.149141e+05
  -1.788353e+05  -8.127117e+05
   8.193669e+05  -2.340900e+04
   7.055140e+05   1.073059e+06
  -6.050095e+05   1.394738e+06
  -1.998306e+06   4.848129e+05
  -1.989431e+06  -1.098256e+06
  -3.137192e+05  -2.078803e+06
   1.503057e+06  -1.587584e+06
   1.734429e+06  -1.336415e+05
   4.530287e+05   8.939197e+05
  -6.931225e+05   7.633048e+05
  -5.985867e+05   5.154135e+04
   1.693148e+05  -3.034949e+05
   4.650480e+05  -1.203043e+05
   2.687307e+04   7.831743e+04
  -5.072363e+05  -1.568938e+05
  -4.783591e+05  -7.546804e+05
   2.904718e+05  -1.191660e+06
   1.423050e+06  -8.286080e+05
   2.050732e+06   4.938907e+05
   1.387019e+06   1.980537e+06
  -3.008752e+05   2.378673e+06
  -1.651595e+06   1.301096e+06
  -1.636893e+06  -2.255332e+05
  -7.489429e+05  -8.974833e+05
  -2.494947e+05  -5.723874e+05
  -4.971637e+05  -1.670236e+05
  -6.709619e+05  -3.403304e+05
  -7.848351e+04  -7.970668e+05
   9.246231e+05  -8.542737e+05
   1.443916e+06  -2.310565e+05
   9.656092e+05   7.572113e+05
  -3.441948e+05   1.394292e+06
  -1.747788e+06   9.596791e+05
  -2.188344e+06  -5.759519e+05
  -1.018637e+06  -2.134562e+06
   1.127462e+06  -2.317639e+06
   2.593505e+06  -9.054028e+05
   2.291420e+06   7.900661e+05
   8.306857e+05   1.377048e+06
  -2.887880e+05   8.789581e+05
  -3.756385e+05   4.269568e+05
  -2.719638e+04   7.305304e+05
  -9.878520e+04   1.326822e+06
  -7.116431e+05   1.289947e+06
  -1.311503e+06   2.882764e+05
  -1.296187e+06  -1.106114e+06
  -4.917996e+05  -1.887313e+06
   6.561639e+05  -1.397976e+06
   1.267511e+06   5.717854e+04
   7.500119e+05   1.322538e+06
  -4.704347e+05   1.379136e+06
  -1.216248e+06   3.265705e+05
  -7.981615e+05  -7.840937e+05
   1.973963e+05  -1.107569e+06
   6.184281e+05  -7.594928e+05
   1.274748e+05  -3.899678e+05
  -4.257174e+05  -3.322224e+05
  -5.173549e+04  -3.749974e+05
   1.166890e+06  -1.642872e+05
   2.061294e+06   4.069876e+05
   1.568371e+06   1.101721e+06
  -1.177827e+05   1.452983e+06
  -1.651493e+06   1.095327e+06
  -1.842355e+06   1.885871e+05
  -8.042384e+05  -5.696334e+05
   2.927825e+05  -5.816777e+05
   5.254308e+05   2.105069e+03
   3.786790e+04   4.459996e+05
  -4.292378e+05   2.481923e+05
  -4.723626e+05  -3.518303e+05
  -2.641962e+05  -7.054271e+05
  -1.157940e+05  -4.674243e+05
  -1.406948e+05   6.134615e+04
  -2.627487e+05   2.392736e+05
  -2.565653e+05  -2.466810e+05
   1.572697e+05  -9.538343e+05
   9.252951e+05  -1.031298e+06
   1.393570e+06  -1.633088e+05
   8.594940e+05   9.213801e+05
  -4.398216e+05   1.150941e+06
  -1.274939e+06   3.382709e+05
  -7.121028e+05  -5.754395e+05
   7.278479e+05  -6.122735e+05
   1.553432e+06   1.741308e+05
   9.118753e+05   9.085829e+05
  -5.595509e+05   9.342350e+05
  -1.496561e+06   3.608107e+05
  -1.178556e+06  -2.687143e+05
  -9.128399e+04  -5.060222e+05
   6.589005e+05  -2.244158e+05
   3.862415e+05   3.139188e+05
  -5.695970e+05   5.161934e+05
  -1.165651e+06  -8.044839e+04
  -6.681962e+05  -1.162608e+06
   5.786195e+05  -1.676956e+06
   1.462596e+06  -8.627699e+05
   1.219932e+06   7.647282e+05
   1.547462e+05   1.762777e+06
  -7.710296e+05   1.230292e+06
  -9.027006e+05  -2.332138e+05
  -3.578481e+05  -1.196976e+06
   2.901718e+05  -9.303565e+05
   5.712185e+05  -4.929089e+04
   4.162996e+05   3.829457e+05
   1.213575e+05   1.333948e+05
   6.502717e+04  -8.375984e+04
   3.193429e+05   3.166908e+05
   4.944923e+05   9.752111e+05
   1.141097e+05   1.065936e+06
  -7.650755e+05   3.667221e+05
  -1.433647e+06  -5.000849e+05
  -1.197745e+06  -8.666844e+05
  -1.582575e+05  -7.036169e+05
   8.168633e+05  -3.901735e+05
   9.636302e+05  -1.368138e+05
   3.876680e+05   8.085349e+04
  -1.344379e+05   2.213613e+05
  -8.666810e+04   1.847204e+05
   2.088004e+05   7.974506e+04
   6.437625e+04   1.275389e+05
  -6.057605e+05   2.302796e+05
  -1.037692e+06  -1.913479e+04
  -4.840301e+05  -6.937335e+05
   8.068665e+05  -1.170409e+06
   1.724087e+06  -7.516610e+05
   1.443612e+06   4.207215e+05
   2.624844e+05   1.384509e+06
  -7.971506e+05   1.361679e+06
  -1.045459e+06   5.448191e+05
  -6.328946e+05  -2.152986e+05
  -1.465741e+05  -3.552600e+05
   2.487518e+04  -8.938408e+04
  -9.999855e+04  -1.737564e+04
  -2.676454e+05  -3.867259e+05
  -2.083626e+05  -8.053984e+05
   1.778629e+05  -6.775556e+05
   6.575877e+05   9.772704e+04
   7.417975e+05   9.156046e+05
   1.548296e+05   1.021743e+06
  -7.129881e+05   2.796498e+05
  -1.024611e+06  -6.805958e+05
  -3.616130e+05  -1.082166e+06
   7.036321e+05  -6.958978e+05
   1.128341e+06   7.380231e+04
   5.478120e+05   6.453212e+05
  -2.935070e+05   7.119976e+05
  -4.208007e+05   3.721431e+05
   1.975804e+05  -1.082212e+03
   6.301093e+05  -3.545349e+04
   1.571165e+05   3.144081e+05
  -8.270240e+05   6.521969e+05
  -1.295858e+06   4.834647e+05
  -8.004681e+05  -2.192499e+05
   1.020602e+05  -8.763199e+05
   5.975448e+05  -8.611307e+05
   4.669039e+05  -1.918095e+05
   6.975742e+04   4.531425e+05
  -2.314044e+05   4.520767e+05
  -3.400313e+05  -1.084103e+05
  -2.503479e+05  -5.719930e+05
   4.277854e+04  -4.596389e+05
   3.862994e+05   3.006201e+04
   4.842548e+05   3.119030e+05
   2.413854e+05   1.251058e+05
  -5.647847e+04  -1.804214e+05
  -8.794822e+04  -1.132027e+05
   6.483151e+04   3.168972e+05
   3.310147e+04   5.834684e+05
  -2.839463e+05   2.889880e+05
  -5.020932e+05  -3.236655e+05
  -2.243885e+05  -6.288874e+05
   3.831453e+05  -3.264638e+05
   6.809405e+05   2.517956e+05
   2.660643e+05   5.502213e+05
  -5.184565e+05   3.637819e+05
  -8.966393e+05  -6.163124e+04
  -4.830846e+05  -3.760898e+05
   2.916010e+05  -4.262153e+05
   6.428080e+05  -2.613394e+05
   2.823748e+05  -2.590419e+04
  -2.908483e+05   9.633467e+04
  -3.790918e+05  -1.819811e+04
   1.310510e+05  -2.531591e+05
   6.712288e+05  -2.581525e+05
