
 $NMID
 id='ANONYMOUS ', fmtdat='(2E16.6)'
 volume=1.0
 tramp=1.0
 $END
  -1.898351e+07  -1.145014e+06
  -1.184537e+07  -9.729218e+06
   9.330866e+05  -1.186379e+07
   8.472598e+06  -7.263823e+06
   6.622940e+06  -3.631960e+05
   2.037531e+05   3.298969e+06
  -3.735914e+06   1.456014e+06
  -2.633472e+06  -3.048228e+06
   1.054107e+06  -5.000660e+06
   3.543105e+06  -2.107290e+06
   2.967938e+06   2.561137e+06
   2.714855e+05   3.976974e+06
  -1.880150e+06   7.891271e+05
  -1.402587e+06  -3.285311e+06
   1.193234e+06  -3.766101e+06
   3.136246e+06  -2.002905e+05
   2.166519e+06   3.810547e+06
  -1.086856e+06   4.663137e+06
  -3.764592e+06   2.079195e+06
  -3.703631e+06  -1.302804e+06
  -1.467119e+06  -2.837083e+06
   4.572029e+05  -2.175039e+06
   2.753175e+05  -1.089160e+06
  -1.280118e+06  -1.315913e+06
  -1.706493e+06  -2.640173e+06
   5.061922e+05  -3.218384e+06
   3.877398e+06  -1.782188e+06
   5.144228e+06   8.237459e+05
   2.774103e+06   2.523374e+06
  -1.107113e+06   2.125511e+06
  -2.836361e+06   2.694845e+05
  -1.111095e+06  -1.395040e+06
   1.821350e+06  -1.524107e+06
   2.884556e+06   7.044147e+04
   1.408839e+06   2.161042e+06
  -6.874715e+05   2.816981e+06
  -1.384759e+06   1.225999e+06
  -5.459072e+05  -1.041193e+06
   4.591101e+05  -1.436892e+06
   4.444602e+05   4.937873e+05
  -5.337133e+05   2.283115e+06
  -1.441137e+06   1.517025e+06
  -1.265284e+06  -1.012509e+06
   6.912612e+04  -2.214311e+06
   1.474809e+06  -5.670091e+05
   1.484028e+06   2.057069e+06
  -3.522748e+05   2.738538e+06
  -2.701469e+06   7.968678e+05
  -3.393451e+06  -1.826735e+06
  -1.502741e+06  -2.878930e+06
   1.510828e+06  -1.818288e+06
   3.040777e+06   1.587090e+05
   1.882886e+06   1.414432e+06
  -5.829242e+05   1.162812e+06
  -1.895592e+06  -3.723978e+04
  -1.067174e+06  -8.795545e+05
   5.856807e+05  -5.828081e+05
   1.108675e+06   3.711683e+05
   8.498097e+04   8.573068e+05
  -1.061508e+06   3.629751e+05
  -8.003188e+05  -5.506686e+05
   7.456734e+05  -9.128059e+05
   1.894072e+06  -2.235588e+05
   1.181610e+06   1.189118e+06
  -1.072625e+06   2.330503e+06
  -3.042156e+06   2.125387e+06
  -3.194536e+06   3.344039e+05
  -1.712351e+06  -1.945987e+06
  -8.121062e+04  -3.094612e+06
   5.659250e+05  -2.559494e+06
   4.509622e+05  -1.374294e+06
   5.311122e+05  -8.151694e+05
   1.219963e+06  -8.539149e+05
   1.962304e+06  -4.262461e+05
   1.927170e+06   8.848411e+05
   8.688325e+05   2.045262e+06
  -6.406427e+05   1.728896e+06
  -1.599686e+06  -4.061622e+04
  -1.255540e+06  -1.769895e+06
   2.554975e+05  -1.976015e+06
   1.816959e+06  -5.775413e+05
   2.170077e+06   1.180324e+06
   1.106631e+06   1.998305e+06
  -3.007259e+05   1.638072e+06
  -8.855356e+05   8.802371e+05
  -6.907892e+05   5.448669e+05
  -7.752083e+05   6.554808e+05
  -1.711244e+06   5.509288e+05
  -2.652000e+06  -2.949143e+05
  -2.199552e+06  -1.646977e+06
  -1.062331e+05  -2.640991e+06
   2.195010e+06  -2.473871e+06
   2.906794e+06  -1.082084e+06
   1.636516e+06   6.779023e+05
  -2.541968e+05   1.581947e+06
  -1.049035e+06   1.065914e+06
  -3.238151e+05  -1.659179e+05
   8.371884e+05  -7.694449e+05
   1.138052e+06  -1.862298e+05
   3.920178e+05   7.246675e+05
  -4.718615e+05   7.328880e+05
  -5.096735e+05  -2.034748e+05
   3.071101e+05  -8.070736e+05
   1.155485e+06  -1.922688e+04
   1.130867e+06   1.642318e+06
  -1.730416e+04   2.544974e+06
  -1.643626e+06   1.670080e+06
  -2.593406e+06  -3.494287e+05
  -2.084932e+06  -1.916638e+06
  -4.729838e+05  -2.011513e+06
   9.437354e+05  -9.970025e+05
   1.124850e+06  -5.235467e+04
   3.265594e+05   3.490697e+04
  -2.387355e+05  -4.863252e+05
   1.898162e+05  -7.722819e+05
   1.065861e+06  -3.479627e+05
   1.231838e+06   4.238058e+05
   3.305515e+05   7.902192e+05
  -7.192554e+05   4.195623e+05
  -7.206898e+05  -2.783419e+05
   4.514965e+05  -5.700104e+05
   1.628347e+06  -7.683503e+04
   1.510510e+06   8.859960e+05
   2.071433e+04   1.541081e+06
  -1.565679e+06   1.278333e+06
  -1.873153e+06   2.287267e+05
  -7.748936e+05  -7.533770e+05
   5.515328e+05  -8.404873e+05
   8.622203e+05  -7.669508e+04
   3.399481e+04   6.229413e+05
  -9.675452e+05   4.409204e+05
  -1.139200e+06  -4.420116e+05
  -3.649828e+05  -1.065777e+06
   5.913421e+05  -7.876065e+05
   8.652895e+05   2.142985e+04
   2.946199e+05   4.463083e+05
  -4.314671e+05   5.526716e+04
  -4.344351e+05  -6.749195e+05
   4.335292e+05  -9.056427e+05
   1.344531e+06  -2.856149e+05
   1.305398e+06   7.371174e+05
   2.363317e+05   1.344752e+06
  -9.003928e+05   1.070834e+06
  -1.112874e+06   1.909663e+05
  -3.900289e+05  -5.374603e+05
   4.005424e+05  -5.656836e+05
   5.039878e+05  -4.282753e+04
  -2.849726e+03   3.887998e+05
  -4.465458e+05   2.990349e+05
  -3.347144e+05  -7.968636e+04
   1.607003e+05  -1.620098e+05
   4.116422e+05   2.682833e+05
  -1.651319e+04   7.513163e+05
  -8.723215e+05   6.202744e+05
  -1.374875e+06  -2.613408e+05
  -9.501421e+05  -1.287141e+06
   1.598196e+05  -1.642726e+06
   1.099069e+06  -1.049891e+06
   1.241001e+06  -3.334775e+03
   7.514418e+05   7.047400e+05
   2.758341e+05   7.039528e+05
   1.829477e+05   3.214302e+05
   2.449127e+05   1.569982e+05
   2.795957e+04   4.012633e+05
  -5.336829e+05   6.266310e+05
  -1.000170e+06   3.024099e+05
  -8.255069e+05  -5.157938e+05
   8.733136e+04  -1.114415e+06
   1.168719e+06  -8.112107e+05
   1.556386e+06   3.038499e+05
   8.282697e+05   1.376122e+06
  -5.561364e+05   1.557505e+06
  -1.598873e+06   7.652881e+05
  -1.626090e+06  -3.066750e+05
  -8.293947e+05  -8.837703e+05
   2.855134e+04  -7.951564e+05
   3.764084e+05  -4.992539e+05
   2.756181e+05  -4.911443e+05
   1.895705e+05  -7.410312e+05
   4.219982e+05  -7.526906e+05
   7.975730e+05  -1.679376e+05
   8.532285e+05   7.465162e+05
   3.401088e+05   1.279311e+06
  -4.461126e+05   9.565026e+05
  -8.718827e+05   1.791717e+04
  -5.697859e+05  -7.969382e+05
   1.656004e+05  -9.151168e+05
   6.527395e+05  -3.831730e+05
   5.149314e+05   2.802354e+05
   3.890623e+04   6.052648e+05
  -1.953085e+05   5.352492e+05
   1.156814e+04   3.424663e+05
   2.579207e+05   2.665770e+05
   1.730610e+04   2.737896e+05
  -7.106627e+05   1.520905e+05
  -1.293857e+06  -2.057960e+05
  -1.069514e+06  -6.468858e+05
  -6.352341e+04  -8.756324e+05
   9.501350e+05  -7.104265e+05
   1.178577e+06  -2.465398e+05
   5.861727e+05   1.964953e+05
  -1.264066e+05   3.119218e+05
  -3.033234e+05   7.383383e+04
   2.790713e+04  -2.018699e+05
   3.441582e+05  -1.471509e+05
   3.034783e+05   2.365541e+05
   6.296299e+04   5.200520e+05
  -3.506024e+04   3.324611e+05
   1.021053e+05  -1.332283e+05
   2.652169e+05  -2.830721e+05
   2.018407e+05   1.473239e+05
  -1.531732e+05   6.975781e+05
  -6.090949e+05   6.862977e+05
  -7.985326e+05   3.162469e+04
  -4.435162e+05  -6.301292e+05
   2.935148e+05  -6.649000e+05
   7.822571e+05  -1.136382e+05
   4.722699e+05   4.249037e+05
  -4.499432e+05   4.488656e+05
  -1.109341e+06  -1.894247e+04
  -8.031263e+05  -5.567693e+05
   2.312597e+05  -7.420528e+05
   1.034764e+06  -4.538321e+05
   9.177257e+05   6.049866e+04
   1.394515e+05   3.695506e+05
  -4.257473e+05   2.236074e+05
  -2.220485e+05  -1.712392e+05
   4.485053e+05  -2.987882e+05
   7.896939e+05   1.425338e+05
   3.503546e+05   8.462753e+05
  -5.260387e+05   1.108736e+06
  -1.067600e+06   5.153181e+05
  -8.380647e+05  -5.669885e+05
  -1.022845e+05  -1.243178e+06
   5.194013e+05  -9.242351e+05
   6.441766e+05   6.896788e+04
   3.441394e+05   8.062293e+05
  -7.763363e+04   7.014144e+05
  -3.583784e+05   8.453099e+04
  -3.734049e+05  -2.748308e+05
  -1.763714e+05  -1.145146e+05
  -7.951371e+03   8.410775e+04
  -9.080355e+04  -1.626102e+05
  -2.996798e+05  -6.464189e+05
  -1.978229e+05  -7.496294e+05
   4.002193e+05  -2.723388e+05
   1.014308e+06   3.368483e+05
   9.386855e+05   5.835816e+05
   1.264233e+05   4.628329e+05
  -6.528839e+05   2.702890e+05
  -6.974408e+05   1.377543e+05
  -1.893744e+05  -4.014874e+03
   1.276441e+05  -1.459609e+05
  -5.068401e+04  -1.748995e+05
  -2.616117e+05  -1.094252e+05
  -5.989855e+02  -9.788720e+04
   5.423741e+05  -1.218685e+05
   7.026374e+05   5.158435e+04
   1.633429e+05   4.699715e+05
  -6.722545e+05   7.399486e+05
  -1.118376e+06   4.211625e+05
  -8.545965e+05  -3.696245e+05
  -1.288518e+05  -9.766977e+05
   5.286034e+05  -8.930223e+05
   7.249438e+05  -2.911790e+05
   4.540035e+05   2.147392e+05
   4.954447e+04   2.464286e+05
  -1.187830e+05   2.577533e+02
   2.820819e+04  -6.159340e+04
   2.321661e+05   2.309886e+05
   1.828193e+05   5.524440e+05
  -1.521444e+05   4.416821e+05
  -4.773809e+05  -1.474836e+05
  -4.389397e+05  -7.142460e+05
   2.642989e+04  -6.984609e+05
   5.647623e+05  -8.293333e+04
   6.666349e+05   5.792340e+05
   1.649415e+05   7.460126e+05
  -5.135743e+05   3.914051e+05
  -7.232776e+05  -9.793220e+04
  -3.039014e+05  -3.801055e+05
   2.080033e+05  -3.881425e+05
   2.070775e+05  -2.230402e+05
  -2.343149e+05  -3.372619e+04
  -4.600177e+05   2.597470e+03
  -6.973443e+04  -2.009256e+05
   5.751098e+05  -4.523321e+05
   8.091314e+05  -3.862517e+05
   4.466274e+05   8.872113e+04
  -9.146418e+04   5.626578e+05
  -3.381830e+05   5.401813e+05
  -2.301854e+05   5.056276e+04
   7.306874e+03  -3.551363e+05
   1.862588e+05  -2.558597e+05
   2.423308e+05   1.653874e+05
   1.504397e+05   4.006743e+05
  -6.368681e+04   2.368399e+05
  -2.632017e+05  -6.482043e+04
  -2.943978e+05  -1.619269e+05
  -1.602453e+05  -3.477224e+04
  -1.161311e+04   5.866053e+04
   4.979402e+04  -6.274885e+04
   7.878635e+04  -2.814941e+05
   1.638778e+05  -3.142689e+05
   2.633710e+05  -3.702757e+04
   2.287104e+05   3.410221e+05
  -1.113856e+04   4.578323e+05
  -3.157184e+05   1.767126e+05
  -4.078535e+05  -2.461934e+05
  -1.300484e+05  -4.205714e+05
   3.365899e+05  -2.267092e+05
   5.646148e+05   1.003319e+05
   2.990953e+05   2.703612e+05
  -2.112951e+05   2.213136e+05
  -4.265052e+05   8.548468e+04
  -1.257041e+05  -4.958754e+03
   3.023975e+05   5.495915e+03
   3.033341e+05   1.164681e+05
  -1.712197e+05   2.347681e+05
  -5.967678e+05   1.681338e+05
