
 $NMID
 id='ANONYMOUS ', fmtdat='(2E16.6)'
 volume=1.0
 tramp=1.0
 $END
   2.857598e+07  -6.018789e+05
   1.902348e+07   1.437716e+07
  -6.879310e+05   1.865033e+07
  -1.279573e+07   1.102711e+07
  -1.000097e+07  -5.422341e+04
  -7.022350e+04  -5.130449e+06
   5.668411e+06  -1.759626e+06
   3.656463e+06   4.741579e+06
  -1.831570e+06   7.116775e+06
  -5.281065e+06   2.916906e+06
  -4.406942e+06  -3.506213e+06
  -6.026154e+05  -5.558740e+06
   2.540247e+06  -1.326161e+06
   1.993224e+06   4.359122e+06
  -1.728877e+06   5.215323e+06
  -4.637057e+06   2.766085e+05
  -3.320523e+06  -5.502016e+06
   1.365760e+06  -6.897466e+06
   5.338877e+06  -3.404147e+06
   5.576562e+06   1.372800e+06
   2.730929e+06   3.878106e+06
  -8.269406e+04   3.491913e+06
  -4.221107e+05   2.155192e+06
   1.251232e+06   2.016821e+06
   1.995650e+06   3.292301e+06
  -5.195937e+05   4.103478e+06
  -4.928979e+06   2.611208e+06
  -6.949083e+06  -6.726131e+05
  -4.088820e+06  -3.173385e+06
   1.079970e+06  -2.961467e+06
   3.551773e+06  -6.499324e+05
   1.474904e+06   1.504637e+06
  -2.177375e+06   1.739050e+06
  -3.496954e+06  -8.991255e+04
  -1.785367e+06  -2.581143e+06
   6.638892e+05  -3.574169e+06
   1.654245e+06  -1.872945e+06
   9.602471e+05   1.040721e+06
  -1.890091e+05   1.958190e+06
  -4.544479e+05  -2.881299e+05
   5.743594e+05  -2.823175e+06
   1.910215e+06  -2.039603e+06
   1.847075e+06   1.506524e+06
  -2.019705e+05   3.424622e+06
  -2.547199e+06   1.065246e+06
  -2.590822e+06  -3.026025e+06
   3.444783e+05  -4.275701e+06
   3.918060e+06  -1.448777e+06
   4.843747e+06   2.470356e+06
   2.068888e+06   4.018052e+06
  -2.127008e+06   2.485082e+06
  -4.176237e+06  -2.957114e+05
  -2.520512e+06  -2.041964e+06
   9.390992e+05  -1.688917e+06
   2.773527e+06   4.440966e+04
   1.539321e+06   1.314733e+06
  -8.521881e+05   8.914990e+05
  -1.503136e+06  -5.349446e+05
   9.274851e+04  -1.167208e+06
   1.645322e+06  -2.401064e+05
   9.742427e+05   1.167804e+06
  -1.398507e+06   1.488986e+06
  -2.909425e+06   2.427227e+05
  -1.770791e+06  -1.802867e+06
   1.298001e+06  -3.323399e+06
   3.931972e+06  -3.082981e+06
   4.309974e+06  -7.317152e+05
   2.559253e+06   2.451048e+06
   3.456077e+05   4.226078e+06
  -7.899043e+05   3.556241e+06
  -7.638893e+05   1.762778e+06
  -6.839748e+05   8.469839e+05
  -1.362321e+06   9.983337e+05
  -2.336457e+06   6.707680e+05
  -2.456042e+06  -9.329309e+05
  -1.207591e+06  -2.494433e+06
   7.175242e+05  -2.176681e+06
   1.987937e+06   4.392529e+04
   1.623499e+06   2.254194e+06
  -2.600109e+05   2.585081e+06
  -2.348330e+06   8.939366e+05
  -3.002945e+06  -1.377307e+06
  -1.734449e+06  -2.624833e+06
   2.157057e+05  -2.368030e+06
   1.194336e+06  -1.408320e+06
   1.036436e+06  -8.382238e+05
   1.114605e+06  -8.757069e+05
   2.315761e+06  -7.312936e+05
   3.567146e+06   3.649343e+05
   2.966730e+06   2.163560e+06
   1.880080e+05   3.504692e+06
  -2.831726e+06   3.317546e+06
  -3.762518e+06   1.526559e+06
  -2.161828e+06  -7.805963e+05
   2.325527e+05  -2.035750e+06
   1.288550e+06  -1.437599e+06
   4.300452e+05   1.848715e+05
  -1.063589e+06   1.041214e+06
  -1.522316e+06   2.892755e+05
  -5.793663e+05  -9.497392e+05
   5.906489e+05  -9.665508e+05
   6.406196e+05   2.941801e+05
  -5.042931e+05   1.041546e+06
  -1.621848e+06  -1.211129e+05
  -1.439645e+06  -2.345930e+06
   2.160413e+05  -3.396123e+06
   2.313572e+06  -2.083557e+06
   3.400598e+06   5.775325e+05
   2.657324e+06   2.531179e+06
   5.966980e+05   2.606646e+06
  -1.207289e+06   1.314059e+06
  -1.459264e+06   9.814229e+04
  -4.306665e+05  -4.090586e+04
   3.252019e+05   6.424270e+05
  -2.450851e+05   1.057064e+06
  -1.442127e+06   5.028750e+05
  -1.675587e+06  -5.657627e+05
  -4.473635e+05  -1.080750e+06
   9.630474e+05  -5.661779e+05
   9.370836e+05   3.737343e+05
  -6.277885e+05   7.286372e+05
  -2.139426e+06   5.610899e+04
  -1.940618e+06  -1.179770e+06
   5.810400e+03  -2.005443e+06
   2.057221e+06  -1.674280e+06
   2.468581e+06  -3.182661e+05
   1.049285e+06   9.995683e+05
  -7.150547e+05   1.157002e+06
  -1.170489e+06   1.391509e+05
  -8.358627e+04  -8.352517e+05
   1.276707e+06  -6.125231e+05
   1.520873e+06   5.827330e+05
   4.722420e+05   1.423878e+06
  -8.118424e+05   1.034647e+06
  -1.157335e+06  -5.728532e+04
  -3.768757e+05  -6.160772e+05
   5.931514e+05  -8.909868e+04
   6.024994e+05   8.832277e+05
  -5.403822e+05   1.208759e+06
  -1.761294e+06   4.162505e+05
  -1.742893e+06  -9.388602e+05
  -3.409346e+05  -1.778072e+06
   1.182967e+06  -1.438180e+06
   1.479725e+06  -2.602538e+05
   5.150378e+05   7.205892e+05
  -5.333425e+05   7.524363e+05
  -6.503719e+05   5.753997e+04
   2.496973e+04  -4.932318e+05
   5.754740e+05  -3.613363e+05
   3.903713e+05   1.146918e+05
  -2.548603e+05   1.869925e+05
  -5.499785e+05  -3.877650e+05
   2.922682e+04  -1.009601e+06
   1.151677e+06  -8.326752e+05
   1.822247e+06   3.233959e+05
   1.281030e+06   1.681864e+06
  -1.848851e+05   2.162763e+06
  -1.440498e+06   1.377993e+06
  -1.622196e+06  -5.913283e+03
  -9.538136e+05  -9.142060e+05
  -3.341006e+05  -8.757266e+05
  -2.560113e+05  -3.716993e+05
  -3.653586e+05  -1.953565e+05
  -6.079601e+04  -5.453390e+05
   7.047287e+05  -8.331918e+05
   1.312827e+06  -3.950306e+05
   1.066958e+06   6.696686e+05
  -1.257991e+05   1.448678e+06
  -1.531762e+06   1.067845e+06
  -2.047870e+06  -3.840428e+05
  -1.103558e+06  -1.814433e+06
   7.301956e+05  -2.080631e+06
   2.125310e+06  -1.029522e+06
   2.152336e+06   4.122592e+05
   1.070261e+06   1.174626e+06
  -6.357545e+04   1.027310e+06
  -4.806339e+05   6.208083e+05
  -3.094721e+05   6.324708e+05
  -2.013828e+05   9.952084e+05
  -5.397948e+05   1.023883e+06
  -1.058689e+06   2.497825e+05
  -1.143225e+06  -9.623420e+05
  -4.741385e+05  -1.676667e+06
   5.670936e+05  -1.266996e+06
   1.149985e+06  -3.236786e+04
   7.653931e+05   1.057416e+06
  -2.215123e+05   1.223208e+06
  -8.916352e+05   5.059129e+05
  -7.080995e+05  -3.959567e+05
  -4.819508e+04  -8.329624e+05
   2.831917e+05  -7.236584e+05
   1.563275e+02  -4.457988e+05
  -3.456607e+05  -3.350583e+05
  -2.989185e+04  -3.539115e+05
   9.465506e+05  -2.153118e+05
   1.727603e+06   2.444926e+05
   1.428121e+06   8.438403e+05
   8.917059e+04   1.180501e+06
  -1.258999e+06   9.747948e+05
  -1.566705e+06   3.360555e+05
  -7.847806e+05  -2.802772e+05
   1.641741e+05  -4.320204e+05
   4.116817e+05  -9.586822e+04
  -1.586481e+04   2.765905e+05
  -4.387952e+05   1.983421e+05
  -4.059658e+05  -3.036977e+05
  -1.083503e+05  -6.653341e+05
   2.236540e+04  -4.258076e+05
  -1.372801e+05   1.616548e+05
  -3.377514e+05   3.519488e+05
  -2.656838e+05  -1.927301e+05
   1.817062e+05  -9.069400e+05
   7.861179e+05  -9.197679e+05
   1.065369e+06  -8.545414e+04
   6.189583e+05   8.054912e+05
  -3.620211e+05   8.994429e+05
  -1.028939e+06   1.917298e+05
  -6.283234e+05  -5.419844e+05
   5.918393e+05  -5.975206e+05
   1.457711e+06   2.228373e+04
   1.042579e+06   7.396252e+05
  -3.210620e+05   9.748907e+05
  -1.364810e+06   5.833254e+05
  -1.199049e+06  -8.920289e+04
  -1.766229e+05  -4.852582e+05
   5.648346e+05  -2.937966e+05
   3.062699e+05   2.237741e+05
  -5.687386e+05   4.060221e+05
  -1.034371e+06  -1.559040e+05
  -4.905356e+05  -1.087208e+06
   6.442941e+05  -1.462058e+06
   1.374605e+06  -7.045152e+05
   1.107612e+06   7.210438e+05
   1.568706e+05   1.624129e+06
  -6.713844e+05   1.211828e+06
  -8.507933e+05  -9.374747e+04
  -4.542519e+05  -1.062031e+06
   1.116453e+05  -9.232171e+05
   4.783053e+05  -1.138050e+05
   4.813656e+05   3.585083e+05
   2.176938e+05   1.511562e+05
   1.707441e+04  -1.095060e+05
   1.476648e+05   2.092776e+05
   4.149111e+05   8.430652e+05
   2.544321e+05   9.879384e+05
  -5.415444e+05   3.731721e+05
  -1.334199e+06  -4.254654e+05
  -1.226603e+06  -7.588445e+05
  -1.742888e+05  -6.093844e+05
   8.371311e+05  -3.595233e+05
   9.107423e+05  -1.850290e+05
   2.650137e+05   2.879709e+03
  -1.588887e+05   1.920573e+05
   4.832645e+04   2.301586e+05
   3.225707e+05   1.393983e+05
   9.318590e+03   1.229409e+05
  -6.862395e+05   1.661232e+05
  -9.218570e+05  -4.625342e+04
  -2.512373e+05  -6.001267e+05
   8.435545e+05  -9.849422e+05
   1.461780e+06  -5.960454e+05
   1.143694e+06   4.434471e+05
   1.947654e+05   1.270790e+06
  -6.747187e+05   1.191149e+06
  -9.371299e+05   4.097651e+05
  -5.917419e+05  -2.633409e+05
  -7.834397e+04  -3.176374e+05
   1.345366e+05  -3.820364e+03
  -4.835817e+04   7.336459e+04
  -3.050141e+05  -3.079442e+05
  -2.454298e+05  -7.252070e+05
   1.839767e+05  -5.845479e+05
   6.191476e+05   1.732717e+05
   5.947584e+05   9.094867e+05
   4.847243e+02   9.067912e+05
  -7.187091e+05   1.309179e+05
  -8.829723e+05  -7.262639e+05
  -2.443967e+05  -9.682534e+05
   6.538930e+05  -5.350938e+05
   9.553667e+05   1.018240e+05
   4.236837e+05   4.962310e+05
  -2.550832e+05   5.291620e+05
  -2.773055e+05   3.096087e+05
   2.895277e+05   4.287989e+04
   5.974024e+05  -1.388322e+04
   1.028309e+05   2.612517e+05
  -7.450906e+05   6.040889e+05
  -1.071761e+06   5.218560e+05
  -6.095600e+05  -1.083301e+05
   1.020791e+05  -7.447886e+05
   4.399200e+05  -7.301271e+05
   3.081835e+05  -9.155023e+04
   2.393477e+03   4.545574e+05
  -2.302018e+05   3.457295e+05
  -3.120824e+05  -1.986756e+05
  -2.082667e+05  -5.197579e+05
   6.660699e+04  -3.215538e+05
   3.433788e+05   7.269620e+04
   4.002559e+05   2.115927e+05
   2.162588e+05   4.999301e+04
   4.268676e+02  -8.315522e+04
  -7.790105e+04   6.223545e+04
  -8.390500e+04   3.504808e+05
  -1.720913e+05   4.132894e+05
  -3.203385e+05   7.325925e+04
  -3.150133e+05  -4.144243e+05
  -1.827870e+04  -5.828061e+05
   3.984263e+05  -2.412202e+05
   5.433300e+05   2.981559e+05
   1.838658e+05   5.380672e+05
  -4.381788e+05   3.097345e+05
  -7.461939e+05  -1.066736e+05
  -4.022048e+05  -3.441450e+05
   2.650765e+05  -3.050885e+05
   5.524981e+05  -1.367797e+05
   1.737863e+05  -5.297254e+03
  -3.750122e+05   1.315863e+03
  -3.849457e+05  -1.343234e+05
   2.126333e+05  -2.952167e+05
   7.580162e+05  -2.224656e+05
