
 $NMID
 id='ANONYMOUS ', fmtdat='(2E16.6)'
 volume=1.0
 tramp=1.0
 $END
  -4.424334e+07  -9.006496e+05
  -2.664560e+07  -2.623490e+07
   5.052653e+06  -2.922721e+07
   2.111519e+07  -1.279366e+07
   1.346419e+07   3.854986e+06
  -1.818209e+06   7.369635e+06
  -7.908668e+06   1.776523e+05
  -3.187670e+06  -7.467394e+06
   4.191341e+06  -8.417160e+06
   7.710192e+06  -2.428802e+06
   5.864590e+06   5.164987e+06
   6.461359e+05   7.425794e+06
  -3.485953e+06   2.079860e+06
  -2.427623e+06  -5.155223e+06
   2.869434e+06  -6.084287e+06
   6.445131e+06   6.588203e+05
   3.872429e+06   8.226135e+06
  -2.872645e+06   9.653168e+06
  -8.168326e+06   4.658800e+06
  -8.532487e+06  -2.026270e+06
  -4.710513e+06  -6.121935e+06
  -6.011720e+04  -6.363315e+06
   1.913079e+06  -4.131582e+06
   2.859684e+05  -2.283921e+06
  -1.750540e+06  -2.814642e+06
   1.041429e+05  -4.410025e+06
   5.502194e+06  -3.700141e+06
   8.785402e+06   1.723102e+05
   5.812831e+06   3.945229e+06
  -5.311631e+05   4.287770e+06
  -3.926997e+06   1.710690e+06
  -2.172743e+06  -8.436441e+05
   1.424386e+06  -1.542701e+06
   3.101172e+06  -3.152965e+05
   2.191708e+06   2.140632e+06
   1.722584e+04   4.043327e+06
  -1.912383e+06   3.002063e+06
  -2.243546e+06  -7.363394e+05
  -7.036017e+05  -3.032381e+06
   7.712337e+05  -8.131888e+05
  -8.095737e+04   2.850234e+06
  -2.285876e+06   2.278663e+06
  -2.180907e+06  -2.461326e+06
   1.455321e+06  -4.870243e+06
   4.913066e+06  -8.820660e+05
   3.838715e+06   5.287540e+06
  -1.348216e+06   6.589655e+06
  -5.956181e+06   1.871505e+06
  -6.101106e+06  -3.673817e+06
  -2.004011e+06  -5.228689e+06
   2.915040e+06  -2.689884e+06
   4.895453e+06   9.493285e+05
   2.558364e+06   2.859927e+06
  -1.749766e+06   1.975655e+06
  -3.774134e+06  -5.564152e+05
  -1.775896e+06  -2.109918e+06
   1.354221e+06  -1.149819e+06
   1.688870e+06   8.102292e+05
  -6.931621e+05   1.040795e+06
  -2.047796e+06  -7.853569e+05
  -1.107403e+05  -2.288357e+06
   3.122579e+06  -1.618946e+06
   4.197417e+06   6.566686e+05
   2.047278e+06   3.019914e+06
  -1.700245e+06   4.483782e+06
  -4.765495e+06   4.135858e+06
  -5.559803e+06   1.233056e+06
  -3.722028e+06  -3.032689e+06
  -6.107953e+05  -5.485953e+06
   1.407684e+06  -4.326719e+06
   1.269081e+06  -1.541032e+06
   3.908508e+05  -3.705049e+05
   7.187010e+05  -1.136258e+06
   2.148100e+06  -1.346934e+06
   2.854214e+06   3.773489e+05
   1.759033e+06   2.380572e+06
  -3.490221e+05   2.338283e+06
  -1.895858e+06   1.320420e+05
  -1.784783e+06  -2.276527e+06
   1.276134e+05  -2.932572e+06
   2.729274e+06  -1.340139e+06
   3.952792e+06   1.407561e+06
   2.560785e+06   3.418430e+06
  -2.138064e+05   3.466627e+06
  -1.873709e+06   2.110730e+06
  -1.715659e+06   9.831628e+05
  -1.526290e+06   7.990107e+05
  -2.748245e+06   6.344976e+05
  -4.156290e+06  -5.951349e+05
  -3.395411e+06  -2.596841e+06
  -1.721103e+05  -4.024318e+06
   3.187594e+06  -3.820728e+06
   4.212682e+06  -1.940226e+06
   2.573930e+06   6.443660e+05
   2.805122e+04   2.289911e+06
  -1.279741e+06   1.805564e+06
  -5.362570e+05  -1.197413e+05
   1.141601e+06  -1.252489e+06
   1.814448e+06  -3.600723e+05
   7.884163e+05   1.150657e+06
  -5.840275e+05   1.113254e+06
  -5.666892e+05  -3.395415e+05
   7.923281e+05  -8.978139e+05
   1.771796e+06   7.271385e+05
   1.072286e+06   3.013200e+06
  -9.060704e+05   3.527128e+06
  -2.800405e+06   1.679070e+06
  -3.508912e+06  -1.021910e+06
  -2.627761e+06  -2.750458e+06
  -5.835489e+05  -2.747439e+06
   1.291815e+06  -1.480230e+06
   1.614922e+06  -1.801778e+05
   4.894913e+05   4.529287e+04
  -3.623002e+05  -7.359723e+05
   3.527328e+05  -1.261291e+06
   1.770715e+06  -5.611179e+05
   1.951068e+06   7.709222e+05
   4.345702e+05   1.312941e+06
  -1.122786e+06   6.007907e+05
  -9.652159e+05  -4.247356e+05
   7.614764e+05  -6.523141e+05
   2.262658e+06   1.222319e+05
   1.950589e+06   1.311977e+06
  -1.133668e+05   2.089935e+06
  -2.293441e+06   1.767145e+06
  -2.770392e+06   3.199273e+05
  -1.195693e+06  -1.199161e+06
   8.735481e+05  -1.404585e+06
   1.448579e+06  -1.643317e+05
   1.462726e+05   1.020653e+06
  -1.480213e+06   7.141093e+05
  -1.710042e+06  -7.192177e+05
  -4.292716e+05  -1.617121e+06
   9.950446e+05  -1.056597e+06
   1.264327e+06   1.903975e+05
   3.262183e+05   7.283749e+05
  -7.319852e+05   6.973009e+04
  -7.070872e+05  -1.026958e+06
   5.917912e+05  -1.396916e+06
   1.999434e+06  -5.107074e+05
   2.004708e+06   1.053671e+06
   3.841052e+05   2.041042e+06
  -1.388712e+06   1.629470e+06
  -1.694574e+06   2.489980e+05
  -5.379862e+05  -8.365967e+05
   6.265423e+05  -8.223119e+05
   6.796419e+05  -8.011803e+04
  -6.316672e+04   4.434882e+05
  -5.494915e+05   3.100338e+05
  -2.717025e+05  -7.414780e+04
   3.561251e+05  -4.487408e+04
   5.499506e+05   5.573016e+05
  -1.289296e+05   1.153170e+06
  -1.339272e+06   9.110803e+05
  -2.065590e+06  -3.896997e+05
  -1.455283e+06  -1.919801e+06
   2.071023e+05  -2.428409e+06
   1.607194e+06  -1.480942e+06
   1.746200e+06   5.928089e+04
   9.681605e+05   9.432566e+05
   3.672232e+05   8.025831e+05
   4.030459e+05   3.229419e+05
   5.216805e+05   2.834195e+05
   7.120201e+04   6.967676e+05
  -8.356010e+05   9.137197e+05
  -1.454157e+06   3.826089e+05
  -1.121594e+06  -7.267420e+05
   1.881223e+05  -1.531747e+06
   1.713457e+06  -1.134220e+06
   2.271907e+06   4.528440e+05
   1.183721e+06   2.064647e+06
  -9.205902e+05   2.344832e+06
  -2.463824e+06   1.085386e+06
  -2.373324e+06  -5.604993e+05
  -1.072172e+06  -1.313498e+06
   1.288468e+05  -1.034314e+06
   4.458738e+05  -6.074644e+05
   2.033869e+05  -7.522394e+05
   1.692347e+05  -1.230177e+06
   6.478327e+05  -1.224182e+06
   1.249100e+06  -2.979393e+05
   1.317619e+06   1.082175e+06
   5.505287e+05   1.892017e+06
  -6.267075e+05   1.435281e+06
  -1.287299e+06   1.917417e+04
  -8.316314e+05  -1.235974e+06
   3.242766e+05  -1.379214e+06
   1.078444e+06  -4.725850e+05
   7.895600e+05   5.817211e+05
  -4.903778e+04   1.001222e+06
  -4.332051e+05   7.836717e+05
  -3.952710e+04   4.499710e+05
   4.168229e+05   3.571532e+05
   4.949099e+04   3.921839e+05
  -1.108809e+06   2.214013e+05
  -2.006676e+06  -3.102743e+05
  -1.609697e+06  -9.945461e+05
  -2.119613e+04  -1.377555e+06
   1.511712e+06  -1.113342e+06
   1.793957e+06  -3.233619e+05
   8.456839e+05   4.077957e+05
  -2.309486e+05   5.272056e+05
  -4.850011e+05   6.509710e+04
  -2.045805e+03  -3.753633e+05
   4.684401e+05  -2.476562e+05
   4.720937e+05   3.427604e+05
   1.985202e+05   7.437177e+05
   4.335282e+04   4.877033e+05
   1.391675e+05  -1.351048e+05
   3.164905e+05  -3.459690e+05
   2.847987e+05   2.237057e+05
  -1.652699e+05   1.006754e+06
  -8.925102e+05   1.053798e+06
  -1.295057e+06   1.325898e+05
  -7.857909e+05  -9.197529e+05
   4.173859e+05  -1.084613e+06
   1.222220e+06  -2.810343e+05
   7.271572e+05   5.893754e+05
  -6.835787e+05   6.590072e+05
  -1.607924e+06  -5.737498e+04
  -1.079658e+06  -8.365011e+05
   4.212867e+05  -1.029648e+06
   1.502596e+06  -5.624958e+05
   1.278479e+06   1.407301e+05
   1.657545e+05   5.235032e+05
  -6.389342e+05   2.967109e+05
  -3.655365e+05  -2.776797e+05
   6.117579e+05  -5.010134e+05
   1.183564e+06   1.176791e+05
   6.299678e+05   1.206461e+06
  -6.442882e+05   1.693864e+06
  -1.515830e+06   8.596002e+05
  -1.261635e+06  -7.767769e+05
  -2.020231e+05  -1.811243e+06
   7.382516e+05  -1.329267e+06
   9.356273e+05   1.422273e+05
   4.689327e+05   1.188056e+06
  -1.734650e+05   9.927889e+05
  -5.497996e+05   1.020181e+05
  -5.004448e+05  -3.813472e+05
  -1.992934e+05  -1.439861e+05
  -3.452175e+04   1.047739e+05
  -2.317311e+05  -2.793994e+05
  -4.961983e+05  -9.624751e+05
  -2.357810e+05  -1.086069e+06
   6.711203e+05  -4.005355e+05
   1.491505e+06   4.636649e+05
   1.326770e+06   8.329166e+05
   1.913959e+05   6.936344e+05
  -8.891012e+05   4.248983e+05
  -9.994779e+05   1.997397e+05
  -3.340959e+05  -3.744239e+04
   1.582693e+05  -2.259207e+05
  -3.333051e+03  -2.194954e+05
  -3.075547e+05  -1.094475e+05
  -3.660347e+04  -1.381312e+05
   7.073152e+05  -2.301122e+05
   1.049301e+06   2.179126e+04
   3.809120e+05   6.973271e+05
  -8.826850e+05   1.168681e+06
  -1.687310e+06   7.323115e+05
  -1.377960e+06  -4.592291e+05
  -2.653385e+05  -1.421986e+06
   7.618300e+05  -1.370620e+06
   1.057575e+06  -5.183366e+05
   6.673778e+05   2.513533e+05
   1.198211e+05   3.618508e+05
  -1.038987e+05   5.128575e+04
   6.665148e+04  -3.844780e+04
   3.167991e+05   3.563247e+05
   2.633169e+05   8.097097e+05
  -1.870275e+05   6.771029e+05
  -6.953141e+05  -1.413274e+05
  -7.293515e+05  -9.799891e+05
  -8.279995e+04  -1.039601e+06
   7.808305e+05  -2.242678e+05
   1.037172e+06   7.518784e+05
   3.322978e+05   1.096842e+06
  -7.246907e+05   6.612031e+05
  -1.111455e+06  -8.431048e+04
  -5.146175e+05  -5.972387e+05
   2.901394e+05  -6.545797e+05
   3.571602e+05  -3.596137e+05
  -2.776292e+05  -1.418495e+04
  -6.609401e+05   3.768654e+04
  -1.377932e+05  -3.060163e+05
   8.280849e+05  -6.879138e+05
   1.238741e+06  -5.613845e+05
   7.365081e+05   1.609746e+05
  -9.943106e+04   8.642761e+05
  -5.325215e+05   8.468711e+05
  -4.051647e+05   1.397324e+05
  -4.330919e+04  -4.951417e+05
   2.472355e+05  -4.252245e+05
   3.603374e+05   1.698820e+05
   2.533706e+05   5.816251e+05
  -6.230269e+04   4.100249e+05
  -3.942842e+05  -5.418319e+04
  -4.678205e+05  -2.666863e+05
  -2.410722e+05  -8.218727e+04
   1.983464e+04   1.351837e+05
   7.568406e+04   6.385371e+03
   1.582087e+04  -3.763120e+05
   9.844219e+04  -5.373114e+05
   3.427222e+05  -1.821655e+05
   4.372459e+05   4.130741e+05
   1.201484e+05   6.626101e+05
  -4.234498e+05   3.086314e+05
  -6.570791e+05  -2.972250e+05
  -2.471996e+05  -5.874648e+05
   5.035304e+05  -3.642898e+05
   8.768699e+05   8.628507e+04
   4.764151e+05   3.805032e+05
  -2.977995e+05   3.869207e+05
  -6.404872e+05   2.097750e+05
  -2.355569e+05   1.208474e+04
   3.755639e+05  -5.723695e+04
   4.246865e+05   8.518527e+04
  -1.846470e+05   3.119977e+05
  -7.790192e+05   2.810956e+05
