
 $NMID
 id='ANONYMOUS ', fmtdat='(2E16.6)'
 volume=1.0
 tramp=1.0
 $END
   2.878620e+07   6.533883e+05
   1.834847e+07   1.516500e+07
  -1.518808e+06   1.855591e+07
  -1.313701e+07   1.052203e+07
  -9.876745e+06  -3.410918e+05
   1.070645e+05  -5.068224e+06
   5.650950e+06  -1.601011e+06
   3.495108e+06   4.795521e+06
  -1.991193e+06   7.044440e+06
  -5.336947e+06   2.758387e+06
  -4.320873e+06  -3.681285e+06
  -4.377504e+05  -5.635478e+06
   2.632318e+06  -1.254180e+06
   1.927340e+06   4.465985e+06
  -1.850689e+06   5.197465e+06
  -4.634272e+06   1.286069e+05
  -3.138852e+06  -5.628666e+06
   1.615580e+06  -6.867915e+06
   5.507649e+06  -3.212208e+06
   5.580222e+06   1.630651e+06
   2.574277e+06   4.070644e+06
  -3.030612e+05   3.528729e+06
  -5.637316e+05   2.070714e+06
   1.246927e+06   1.956970e+06
   2.028195e+06   3.348396e+06
  -5.887438e+05   4.184951e+06
  -5.093444e+06   2.558837e+06
  -7.065084e+06  -8.705604e+05
  -4.056611e+06  -3.365052e+06
   1.214980e+06  -3.020940e+06
   3.677743e+06  -5.932876e+05
   1.520243e+06   1.592147e+06
  -2.220282e+06   1.795330e+06
  -3.578247e+06  -1.018151e+05
  -1.812648e+06  -2.666356e+06
   7.437314e+05  -3.661227e+06
   1.767268e+06  -1.859012e+06
   9.734366e+05   1.151083e+06
  -2.872383e+05   2.034738e+06
  -5.270571e+05  -3.262966e+05
   6.152293e+05  -2.892042e+06
   1.970188e+06  -2.026300e+06
   1.796278e+06   1.560323e+06
  -3.199762e+05   3.381907e+06
  -2.564323e+06   9.066273e+05
  -2.445829e+06  -3.157796e+06
   5.301731e+05  -4.253492e+06
   4.001121e+06  -1.299439e+06
   4.806057e+06   2.623860e+06
   1.985148e+06   4.083782e+06
  -2.189252e+06   2.450113e+06
  -4.188471e+06  -3.803700e+05
  -2.485852e+06  -2.092153e+06
   9.816404e+05  -1.650810e+06
   2.773894e+06   1.317819e+05
   1.496506e+06   1.358073e+06
  -8.864152e+05   8.624757e+05
  -1.501432e+06  -5.670891e+05
   9.241233e+04  -1.146418e+06
   1.603135e+06  -2.105689e+05
   9.127325e+05   1.130044e+06
  -1.427756e+06   1.386357e+06
  -2.886791e+06   1.436114e+05
  -1.699847e+06  -1.854218e+06
   1.419758e+06  -3.325540e+06
   4.080503e+06  -3.030076e+06
   4.403410e+06  -6.178176e+05
   2.527647e+06   2.581866e+06
   2.277273e+05   4.299461e+06
  -8.797557e+05   3.555910e+06
  -7.732436e+05   1.751004e+06
  -6.734331e+05   8.759355e+05
  -1.406022e+06   1.041202e+06
  -2.423136e+06   6.660028e+05
  -2.517154e+06  -1.000087e+06
  -1.205340e+06  -2.580063e+06
   7.624265e+05  -2.225423e+06
   2.029936e+06   5.882981e+04
   1.624187e+06   2.313891e+06
  -3.117928e+05   2.627425e+06
  -2.417858e+06   8.571238e+05
  -3.025450e+06  -1.487178e+06
  -1.677881e+06  -2.727167e+06
   3.119355e+05  -2.392488e+06
   1.264915e+06  -1.368597e+06
   1.063302e+06  -7.961406e+05
   1.131054e+06  -8.526690e+05
   2.347630e+06  -6.938203e+05
   3.597778e+06   4.395395e+05
   2.959791e+06   2.247747e+06
   1.248670e+05   3.553998e+06
  -2.934742e+06   3.314158e+06
  -3.856407e+06   1.482003e+06
  -2.192550e+06  -8.404255e+05
   2.736877e+05  -2.079097e+06
   1.345426e+06  -1.444628e+06
   4.382307e+05   1.993529e+05
  -1.102528e+06   1.040335e+06
  -1.550390e+06   2.598409e+05
  -5.644852e+05  -9.815270e+05
   6.184927e+05  -9.748473e+05
   6.455070e+05   2.997057e+05
  -5.101069e+05   1.035485e+06
  -1.605219e+06  -1.425522e+05
  -1.399676e+06  -2.365546e+06
   2.537528e+05  -3.399855e+06
   2.337810e+06  -2.065454e+06
   3.416830e+06   6.212221e+05
   2.659772e+06   2.590413e+06
   5.724114e+05   2.649495e+06
  -1.247696e+06   1.315710e+06
  -1.486123e+06   7.517250e+04
  -4.359437e+05  -4.934843e+04
   3.178406e+05   6.568723e+05
  -2.709568e+05   1.062270e+06
  -1.469796e+06   4.753840e+05
  -1.680257e+06  -6.062020e+05
  -4.291012e+05  -1.098816e+06
   9.840929e+05  -5.553317e+05
   9.445540e+05   3.896412e+05
  -6.379216e+05   7.261263e+05
  -2.159841e+06   3.080394e+04
  -1.950470e+06  -1.215177e+06
   2.908506e+04  -2.028125e+06
   2.107936e+06  -1.664424e+06
   2.506421e+06  -2.805003e+05
   1.041635e+06   1.032344e+06
  -7.514277e+05   1.155539e+06
  -1.188859e+06   1.120661e+05
  -6.453653e+04  -8.513058e+05
   1.306694e+06  -5.959489e+05
   1.528118e+06   6.168815e+05
   4.539143e+05   1.445562e+06
  -8.338588e+05   1.030753e+06
  -1.165004e+06  -7.488684e+04
  -3.700197e+05  -6.249901e+05
   6.007395e+05  -7.637752e+04
   5.935270e+05   9.076838e+05
  -5.713005e+05   1.217255e+06
  -1.795836e+06   3.901823e+05
  -1.750931e+06  -9.851180e+05
  -3.122097e+05  -1.808708e+06
   1.224910e+06  -1.433987e+06
   1.502009e+06  -2.364718e+05
   5.083329e+05   7.370024e+05
  -5.523417e+05   7.523324e+05
  -6.621384e+05   5.014600e+04
   2.634532e+04  -4.986658e+05
   5.845330e+05  -3.637440e+05
   3.989900e+05   1.127402e+05
  -2.503064e+05   1.822757e+05
  -5.437733e+05  -3.971196e+05
   4.732377e+04  -1.016862e+06
   1.180154e+06  -8.218384e+05
   1.840406e+06   3.602528e+05
   1.267941e+06   1.728326e+06
  -2.247779e+05   2.189971e+06
  -1.480381e+06   1.373700e+06
  -1.642123e+06  -2.875131e+04
  -9.575243e+05  -9.376463e+05
  -3.351892e+05  -8.947989e+05
  -2.581747e+05  -3.894578e+05
  -3.620592e+05  -2.108343e+05
  -4.690096e+04  -5.533381e+05
   7.270228e+05  -8.300314e+05
   1.334140e+06  -3.798780e+05
   1.072617e+06   6.925673e+05
  -1.459182e+05   1.464570e+06
  -1.567423e+06   1.057500e+06
  -2.068851e+06  -4.226593e+05
  -1.086619e+06  -1.855160e+06
   7.759312e+05  -2.090865e+06
   2.167763e+06  -1.003084e+06
   2.169660e+06   4.515618e+05
   1.066522e+06   1.201418e+06
  -7.408917e+04   1.038048e+06
  -4.931899e+05   6.279997e+05
  -3.286617e+05   6.448182e+05
  -2.290636e+05   1.008336e+06
  -5.694254e+05   1.025640e+06
  -1.078458e+06   2.310479e+05
  -1.142311e+06  -9.977180e+05
  -4.511555e+05  -1.709492e+06
   5.978142e+05  -1.275580e+06
   1.165699e+06  -1.341254e+04
   7.551185e+05   1.083282e+06
  -2.453985e+05   1.231745e+06
  -9.061508e+05   4.936190e+05
  -7.025900e+05  -4.121274e+05
  -3.127687e+04  -8.383663e+05
   2.967709e+05  -7.219322e+05
   4.314194e+03  -4.500295e+05
  -3.456459e+05  -3.476529e+05
  -2.440918e+04  -3.603825e+05
   9.617783e+05  -1.993092e+05
   1.744733e+06   2.815254e+05
   1.430625e+06   8.802297e+05
   6.754795e+04   1.193201e+06
  -1.293780e+06   9.604620e+05
  -1.590807e+06   3.120446e+05
  -7.854329e+05  -2.946798e+05
   1.761506e+05  -4.319193e+05
   4.161944e+05  -8.907305e+04
  -2.514185e+04   2.807892e+05
  -4.501336e+05   1.947846e+05
  -4.061077e+05  -3.159673e+05
  -9.787713e+04  -6.813680e+05
   3.126673e+04  -4.356194e+05
  -1.391553e+05   1.629095e+05
  -3.459727e+05   3.555295e+05
  -2.657728e+05  -1.989673e+05
   1.994048e+05  -9.190139e+05
   8.141336e+05  -9.183712e+05
   1.083168e+06  -6.183326e+04
   6.119947e+05   8.329929e+05
  -3.871695e+05   9.044561e+05
  -1.050175e+06   1.718773e+05
  -6.287802e+05  -5.619441e+05
   6.095082e+05  -5.945794e+05
   1.475957e+06   4.562458e+04
   1.044877e+06   7.621507e+05
  -3.377012e+05   9.797515e+05
  -1.388423e+06   5.707054e+05
  -1.212391e+06  -1.064550e+05
  -1.723838e+05  -4.932552e+05
   5.757152e+05  -2.882062e+05
   3.048873e+05   2.333250e+05
  -5.867956e+05   4.032309e+05
  -1.049629e+06  -1.778181e+05
  -4.788646e+05  -1.116034e+06
   6.825554e+05  -1.475955e+06
   1.410594e+06  -6.917823e+05
   1.112589e+06   7.516936e+05
   1.315932e+05   1.651334e+06
  -6.998517e+05   1.218507e+06
  -8.589618e+05  -1.081367e+05
  -4.429970e+05  -1.082204e+06
   1.258972e+05  -9.316514e+05
   4.852404e+05  -1.066343e+05
   4.836677e+05   3.695014e+05
   2.202021e+05   1.544403e+05
   1.793313e+04  -1.099482e+05
   1.427416e+05   2.184895e+05
   4.049272e+05   8.638183e+05
   2.428817e+05   1.003286e+06
  -5.538405e+05   3.652854e+05
  -1.346521e+06  -4.541609e+05
  -1.232389e+06  -7.876358e+05
  -1.656835e+05  -6.205588e+05
   8.568607e+05  -3.531196e+05
   9.264090e+05  -1.734559e+05
   2.661852e+05   9.457778e+03
  -1.652795e+05   1.931741e+05
   4.794124e+04   2.313642e+05
   3.281729e+05   1.438955e+05
   7.116194e+03   1.264618e+05
  -7.020388e+05   1.602082e+05
  -9.357637e+05  -6.394719e+04
  -2.420332e+05  -6.188604e+05
   8.769099e+05  -9.876856e+05
   1.496089e+06  -5.757344e+05
   1.153637e+06   4.756230e+05
   1.754684e+05   1.294931e+06
  -7.067294e+05   1.195653e+06
  -9.609251e+05   3.985103e+05
  -5.982751e+05  -2.778054e+05
  -7.337400e+04  -3.253951e+05
   1.398718e+05  -4.091073e+03
  -4.742343e+04   7.319575e+04
  -3.035741e+05  -3.158035e+05
  -2.367967e+05  -7.388980e+05
   1.981196e+05  -5.906401e+05
   6.282135e+05   1.868674e+05
   5.894557e+05   9.367596e+05
  -1.725766e+04   9.244964e+05
  -7.361500e+05   1.212822e+05
  -8.863992e+05  -7.551408e+05
  -2.299864e+05  -9.895835e+05
   6.761565e+05  -5.313602e+05
   9.685310e+05   1.224159e+05
   4.182155e+05   5.125489e+05
  -2.715164e+05   5.314039e+05
  -2.868570e+05   3.062142e+05
   2.954038e+05   4.582280e+04
   6.074859e+05  -4.200500e+03
   9.876499e+04   2.679617e+05
  -7.666391e+05   6.001631e+05
  -1.093922e+06   5.087137e+05
  -6.132859e+05  -1.232605e+05
   1.182548e+05  -7.541676e+05
   4.600126e+05  -7.301094e+05
   3.158404e+05  -8.346905e+04
  -4.833579e+03   4.636573e+05
  -2.418094e+05   3.469652e+05
  -3.162715e+05  -2.079581e+05
  -2.021706e+05  -5.318765e+05
   7.627077e+04  -3.252397e+05
   3.485841e+05   8.044121e+04
   4.002261e+05   2.223469e+05
   2.168076e+05   5.407035e+04
   4.673669e+03  -8.520062e+04
  -7.539370e+04   6.321592e+04
  -9.077599e+04   3.590299e+05
  -1.871123e+05   4.213794e+05
  -3.325194e+05   6.889031e+04
  -3.147808e+05  -4.313962e+05
  -7.041900e+03  -5.974626e+05
   4.107600e+05  -2.388815e+05
   5.477240e+05   3.149950e+05
   1.778419e+05   5.514881e+05
  -4.505842e+05   3.056511e+05
  -7.565574e+05  -1.237865e+05
  -4.020552e+05  -3.575168e+05
   2.768391e+05  -3.043761e+05
   5.659478e+05  -1.273808e+05
   1.763169e+05   2.270699e+02
  -3.842308e+05  -2.796488e+03
  -3.922222e+05  -1.429937e+05
   2.199953e+05  -2.992746e+05
   7.751272e+05  -2.167472e+05
