
 $NMID
 id='ANONYMOUS ', fmtdat='(2E16.6)'
 volume=1.0
 tramp=1.0
 $END
  -1.579997e+07   9.755832e+05
  -1.144840e+07  -6.043976e+06
  -1.304603e+06  -9.874815e+06
   6.213852e+06  -7.959338e+06
   6.185683e+06  -1.857437e+06
   9.802975e+05   2.975880e+06
  -3.337523e+06   2.252475e+06
  -3.178986e+06  -2.366869e+06
   1.620515e+05  -5.068363e+06
   2.989952e+06  -2.633610e+06
   2.937140e+06   2.027743e+06
   5.608704e+05   3.663412e+06
  -1.655698e+06   7.777195e+05
  -1.573849e+06  -3.128130e+06
   7.050537e+05  -3.821774e+06
   2.831835e+06  -7.023382e+05
   2.434148e+06   3.120138e+06
  -3.786906e+05   4.255125e+06
  -3.019666e+06   2.148146e+06
  -3.176337e+06  -8.671504e+05
  -1.256957e+06  -2.200218e+06
   2.650204e+05  -1.532695e+06
  -2.479143e+05  -7.100191e+05
  -1.797628e+06  -1.311312e+06
  -1.938210e+06  -2.789430e+06
   4.538009e+05  -3.266961e+06
   3.733334e+06  -1.800078e+06
   4.896889e+06   6.266442e+05
   2.620975e+06   2.202518e+06
  -1.111555e+06   1.915566e+06
  -2.793505e+06   1.868663e+05
  -1.022199e+06  -1.526335e+06
   2.021395e+06  -1.693314e+06
   3.086560e+06   5.688123e+04
   1.436424e+06   2.282987e+06
  -7.446526e+05   2.816134e+06
  -1.268697e+06   1.059379e+06
  -2.770621e+05  -1.081499e+06
   5.806301e+05  -1.200835e+06
   3.471528e+05   7.602006e+05
  -5.674148e+05   2.368656e+06
  -1.313204e+06   1.602861e+06
  -1.333590e+06  -7.307131e+05
  -4.466444e+05  -2.000946e+06
   8.976098e+05  -8.395410e+05
   1.446084e+06   1.404834e+06
   1.627889e+05   2.311283e+06
  -2.210982e+06   9.629720e+05
  -3.355808e+06  -1.344399e+06
  -1.787480e+06  -2.606136e+06
   1.268089e+06  -1.960417e+06
   3.023691e+06  -1.954604e+05
   2.064197e+06   1.175722e+06
  -3.290767e+05   1.224333e+06
  -1.752642e+06   2.450627e+05
  -1.142556e+06  -6.556546e+05
   4.379639e+05  -6.066880e+05
   1.145051e+06   2.528074e+05
   2.818624e+05   9.633253e+05
  -1.043619e+06   7.217178e+05
  -1.153596e+06  -2.931286e+05
   2.706297e+05  -1.047670e+06
   1.670978e+06  -6.258072e+05
   1.277422e+06   8.476507e+05
  -8.398664e+05   2.187919e+06
  -2.789269e+06   2.118919e+06
  -2.952000e+06   4.338156e+05
  -1.600658e+06  -1.729704e+06
  -2.294185e+05  -2.876459e+06
   2.690646e+05  -2.524766e+06
   2.913608e+05  -1.531240e+06
   6.179263e+05  -9.713628e+05
   1.381459e+06  -8.708591e+05
   2.024654e+06  -3.566708e+05
   1.913674e+06   9.421618e+05
   8.610663e+05   2.084346e+06
  -6.646489e+05   1.775485e+06
  -1.685169e+06  -7.023387e+03
  -1.360225e+06  -1.764782e+06
   1.817780e+05  -1.975842e+06
   1.741438e+06  -5.977876e+05
   2.071197e+06   1.064544e+06
   1.072884e+06   1.777378e+06
  -1.799265e+05   1.432118e+06
  -6.668086e+05   8.064622e+05
  -5.071223e+05   5.920660e+05
  -6.684627e+05   7.581486e+05
  -1.640368e+06   7.053054e+05
  -2.625390e+06  -8.393654e+04
  -2.276512e+06  -1.467657e+06
  -2.740331e+05  -2.604673e+06
   2.037623e+06  -2.566699e+06
   2.830416e+06  -1.184678e+06
   1.625267e+06   6.373890e+05
  -2.379336e+05   1.580145e+06
  -1.024963e+06   1.068874e+06
  -3.207285e+05  -1.665212e+05
   7.989911e+05  -7.958372e+05
   1.099181e+06  -2.525245e+05
   4.049559e+05   6.732305e+05
  -4.492889e+05   7.560030e+05
  -5.683482e+05  -1.730271e+05
   2.053997e+05  -9.114011e+05
   1.191108e+06  -2.514931e+05
   1.389354e+06   1.493308e+06
   2.970879e+05   2.650807e+06
  -1.518764e+06   1.950026e+06
  -2.707920e+06  -1.156107e+05
  -2.281905e+06  -1.836640e+06
  -6.022430e+05  -2.032193e+06
   9.025339e+05  -1.042924e+06
   1.124688e+06  -9.531579e+04
   3.271347e+05   1.747637e+04
  -2.702400e+05  -4.664650e+05
   1.163481e+05  -7.664898e+05
   1.002116e+06  -4.213808e+05
   1.246446e+06   3.082220e+05
   4.058659e+05   7.481062e+05
  -6.807619e+05   4.793658e+05
  -7.628440e+05  -2.317442e+05
   4.024547e+05  -6.409879e+05
   1.661203e+06  -2.178644e+05
   1.618973e+06   8.068736e+05
   1.335798e+05   1.583876e+06
  -1.496488e+06   1.396498e+06
  -1.859330e+06   3.468858e+05
  -8.181475e+05  -6.872009e+05
   4.773732e+05  -8.485863e+05
   8.221768e+05  -1.324151e+05
   6.336533e+04   5.961181e+05
  -9.250808e+05   4.944417e+05
  -1.167237e+06  -3.554641e+05
  -4.574777e+05  -1.044103e+06
   5.261873e+05  -8.574722e+05
   8.839764e+05  -6.527581e+04
   3.543955e+05   4.233376e+05
  -4.058188e+05   9.680052e+04
  -4.658953e+05  -6.302663e+05
   3.777827e+05  -9.129362e+05
   1.312014e+06  -3.520613e+05
   1.330237e+06   6.558479e+05
   3.160350e+05   1.315274e+06
  -8.196013e+05   1.120543e+06
  -1.095738e+06   2.685915e+05
  -4.370306e+05  -5.106572e+05
   3.587180e+05  -5.997153e+05
   5.165220e+05  -6.939171e+04
   3.009539e+04   4.186470e+05
  -4.543256e+05   3.481539e+05
  -3.813160e+05  -7.851859e+04
   1.354561e+05  -2.163709e+05
   4.456852e+05   2.125689e+05
   5.268402e+04   7.454479e+05
  -8.206867e+05   6.745586e+05
  -1.379224e+06  -1.731678e+05
  -1.016763e+06  -1.218259e+06
   6.592183e+04  -1.647645e+06
   1.042874e+06  -1.129193e+06
   1.262162e+06  -8.498450e+04
   8.152062e+05   6.908277e+05
   3.086871e+05   7.405312e+05
   1.621769e+05   3.331157e+05
   2.213848e+05   1.194509e+05
   5.010324e+04   3.724121e+05
  -4.857990e+05   6.591507e+05
  -9.849562e+05   3.709186e+05
  -8.681301e+05  -4.780629e+05
   1.608995e+04  -1.141651e+06
   1.121294e+06  -8.903625e+05
   1.575311e+06   2.090542e+05
   9.218189e+05   1.317269e+06
  -4.340736e+05   1.585754e+06
  -1.530226e+06   8.790026e+05
  -1.656458e+06  -1.857085e+05
  -9.159866e+05  -8.409386e+05
  -2.924340e+04  -8.315836e+05
   3.775445e+05  -5.413002e+05
   2.869399e+05  -4.875769e+05
   1.589690e+05  -7.154236e+05
   3.629988e+05  -7.553276e+05
   7.676167e+05  -2.107140e+05
   8.840193e+05   6.934798e+05
   4.081882e+05   1.252684e+06
  -3.918860e+05   9.759592e+05
  -8.702656e+05   7.396253e+04
  -6.243323e+05  -7.480095e+05
   8.989549e+04  -9.232762e+05
   6.094291e+05  -4.509534e+05
   5.358649e+05   2.092956e+05
   1.064989e+05   5.852565e+05
  -1.302804e+05   5.576401e+05
   4.112380e+04   3.580062e+05
   2.618249e+05   2.565222e+05
   2.647529e+04   2.725681e+05
  -6.864696e+05   1.984289e+05
  -1.281316e+06  -1.191395e+05
  -1.102546e+06  -5.690402e+05
  -1.400444e+05  -8.558184e+05
   8.757893e+05  -7.606320e+05
   1.153122e+06  -3.313379e+05
   6.103652e+05   1.352774e+05
  -9.296231e+04   3.068985e+05
  -2.927009e+05   1.039887e+05
   2.179821e+04  -1.827747e+05
   3.430152e+05  -1.569602e+05
   3.110494e+05   2.189133e+05
   6.774259e+04   5.140805e+05
  -3.676383e+04   3.286856e+05
   1.005698e+05  -1.511524e+05
   2.676962e+05  -3.091583e+05
   2.112556e+05   1.328829e+05
  -1.265190e+05   7.040110e+05
  -5.631156e+05   7.107642e+05
  -7.607682e+05   6.873060e+04
  -4.498801e+05  -5.946476e+05
   2.489435e+05  -6.564278e+05
   7.507350e+05  -1.391379e+05
   4.874355e+05   4.026032e+05
  -4.184992e+05   4.771272e+05
  -1.117423e+06   5.188246e+04
  -8.595942e+05  -5.114863e+05
   1.731386e+05  -7.744376e+05
   1.018384e+06  -5.376900e+05
   9.401861e+05  -1.730389e+03
   1.692770e+05   3.681448e+05
  -4.112394e+05   2.580294e+05
  -2.257708e+05  -1.485268e+05
   4.361368e+05  -3.086605e+05
   7.864962e+05   1.135473e+05
   3.727687e+05   8.255189e+05
  -4.844841e+05   1.117037e+06
  -1.042304e+06   5.522800e+05
  -8.614334e+05  -5.281458e+05
  -1.635091e+05  -1.237350e+06
   4.717765e+05  -9.600688e+05
   6.532404e+05   2.163836e+04
   4.012545e+05   7.866724e+05
  -2.354393e+04   7.183833e+05
  -3.486007e+05   1.131065e+05
  -3.994441e+05  -2.600973e+05
  -1.957914e+05  -1.130544e+05
   8.858751e+02   9.077763e+04
  -8.082685e+04  -1.409006e+05
  -3.269956e+05  -6.217324e+05
  -2.549581e+05  -7.454126e+05
   3.647104e+05  -3.022379e+05
   1.032448e+06   2.831216e+05
   9.841258e+05   5.364902e+05
   1.534864e+05   4.514573e+05
  -6.511246e+05   2.980248e+05
  -6.950334e+05   1.784678e+05
  -1.786449e+05   1.828932e+04
   1.251645e+05  -1.493888e+05
  -7.456707e+04  -1.854369e+05
  -2.820735e+05  -1.101426e+05
   1.965330e+03  -9.597272e+04
   5.517614e+05  -1.365363e+05
   6.979270e+05   2.021510e+04
   1.596019e+05   4.488746e+05
  -6.464931e+05   7.546678e+05
  -1.075253e+06   4.652005e+05
  -8.427161e+05  -3.295645e+05
  -1.688752e+05  -9.666879e+05
   4.741238e+05  -9.097279e+05
   7.023307e+05  -3.131834e+05
   4.620883e+05   2.016548e+05
   5.373451e+04   2.397137e+05
  -1.313403e+05  -9.164305e+03
   2.208569e+04  -7.693285e+04
   2.527799e+05   2.143923e+05
   2.176806e+05   5.418839e+05
  -1.314719e+05   4.421613e+05
  -4.826140e+05  -1.359147e+05
  -4.582502e+05  -6.979794e+05
   1.139908e+04  -6.890702e+05
   5.644283e+05  -9.009065e+04
   6.815828e+05   5.583573e+05
   1.888953e+05   7.298904e+05
  -4.911339e+05   4.001242e+05
  -7.135242e+05  -6.489118e+04
  -3.134873e+05  -3.477519e+05
   1.820885e+05  -3.797101e+05
   1.786506e+05  -2.319109e+05
  -2.495280e+05  -3.282693e+04
  -4.607630e+05   2.119884e+04
  -7.413575e+04  -1.918039e+05
   5.502863e+05  -4.804328e+05
   7.747759e+05  -4.398147e+05
   4.354678e+05   4.942937e+04
  -6.323584e+04   5.572645e+05
  -2.939059e+05   5.505457e+05
  -2.071093e+05   5.354057e+04
   4.645538e+02  -3.581330e+05
   1.737288e+05  -2.536264e+05
   2.462531e+05   1.676486e+05
   1.664733e+05   3.910565e+05
  -5.255360e+04   2.241112e+05
  -2.626666e+05  -5.798286e+04
  -2.980002e+05  -1.351787e+05
  -1.631196e+05  -1.764504e+04
  -1.325812e+04   4.540949e+04
   5.209668e+04  -8.882684e+04
   8.754217e+04  -2.882096e+05
   1.730141e+05  -2.970607e+05
   2.629558e+05  -2.017428e+04
   2.197982e+05   3.410104e+05
  -1.610308e+04   4.516570e+05
  -3.111734e+05   1.814763e+05
  -4.047039e+05  -2.327701e+05
  -1.401603e+05  -4.158807e+05
   3.186499e+05  -2.401888e+05
   5.554359e+05   7.733122e+04
   3.056895e+05   2.537318e+05
  -1.967610e+05   2.189622e+05
  -4.126861e+05   9.260291e+04
  -1.130604e+05   1.322837e+03
   3.144329e+05   6.805602e+03
   3.097247e+05   1.195716e+05
  -1.747718e+05   2.484457e+05
  -6.072151e+05   1.896944e+05
