
 $NMID
 id='ANONYMOUS ', fmtdat='(2E16.6)'
 volume=1.0
 tramp=1.0
 $END
  -2.634598e+07   2.551922e+06
  -1.928681e+07  -1.155377e+07
  -1.320164e+06  -1.749363e+07
   1.130118e+07  -1.189434e+07
   1.002722e+07  -1.101442e+06
   7.057974e+05   5.040670e+06
  -5.570254e+06   2.388513e+06
  -4.169447e+06  -4.389390e+06
   1.275270e+06  -7.342190e+06
   5.010989e+06  -3.370492e+06
   4.413785e+06   3.131690e+06
   7.928834e+05   5.350113e+06
  -2.349700e+06   1.302490e+06
  -2.037365e+06  -4.302543e+06
   1.471675e+06  -5.329505e+06
   4.513421e+06  -6.671478e+05
   3.591756e+06   5.059627e+06
  -8.167952e+05   6.700997e+06
  -4.790521e+06   3.536395e+06
  -5.195220e+06  -9.805372e+05
  -2.625607e+06  -3.320906e+06
  -1.848724e+05  -2.974444e+06
  -9.543990e+04  -1.966122e+06
  -1.646633e+06  -2.207980e+06
  -2.046911e+06  -3.548842e+06
   6.153128e+05  -4.131115e+06
   4.868998e+06  -2.504781e+06
   6.735551e+06   6.356373e+05
   3.929404e+06   2.946829e+06
  -1.103552e+06   2.712844e+06
  -3.480820e+06   4.678600e+05
  -1.294542e+06  -1.630262e+06
   2.448390e+06  -1.747428e+06
   3.660020e+06   2.443939e+05
   1.695621e+06   2.733095e+06
  -8.039720e+05   3.519098e+06
  -1.541784e+06   1.712864e+06
  -6.763369e+05  -1.006499e+06
   2.796359e+05  -1.693722e+06
   2.767037e+05   5.043745e+05
  -7.137787e+05   2.858113e+06
  -1.879877e+06   2.090565e+06
  -1.938748e+06  -1.325282e+06
  -2.075984e+05  -3.370639e+06
   2.148524e+06  -1.394344e+06
   2.648440e+06   2.514141e+06
   9.900017e+04   4.032956e+06
  -3.572381e+06   1.615351e+06
  -4.862048e+06  -2.179875e+06
  -2.269730e+06  -3.914252e+06
   2.021241e+06  -2.605417e+06
   4.238958e+06   1.057837e+05
   2.681759e+06   1.946849e+06
  -7.736567e+05   1.773893e+06
  -2.712154e+06   1.629432e+05
  -1.625064e+06  -1.171494e+06
   7.490966e+05  -9.198300e+05
   1.544426e+06   4.815809e+05
   1.419756e+04   1.303831e+06
  -1.732847e+06   5.080435e+05
  -1.316617e+06  -1.068061e+06
   1.065917e+06  -1.699188e+06
   2.833781e+06  -5.749983e+05
   1.899206e+06   1.580376e+06
  -1.144793e+06   3.224989e+06
  -3.787966e+06   3.033098e+06
  -4.137226e+06   7.642865e+05
  -2.447794e+06  -2.294654e+06
  -4.177658e+05  -4.073310e+06
   6.173212e+05  -3.578985e+06
   7.165634e+05  -1.924783e+06
   8.302410e+05  -9.423472e+05
   1.539329e+06  -9.229534e+05
   2.386234e+06  -5.138813e+05
   2.388243e+06   1.054312e+06
   1.104610e+06   2.551436e+06
  -8.160186e+05   2.173682e+06
  -2.058355e+06  -1.039449e+05
  -1.636700e+06  -2.319236e+06
   2.726580e+05  -2.584757e+06
   2.303189e+06  -8.587529e+05
   2.898091e+06   1.329170e+06
   1.690063e+06   2.461807e+06
  -1.140811e+05   2.211020e+06
  -1.017945e+06   1.374088e+06
  -9.135366e+05   9.058237e+05
  -1.077340e+06   9.627806e+05
  -2.317317e+06   8.138914e+05
  -3.587428e+06  -2.809375e+05
  -3.014113e+06  -2.113255e+06
  -2.374960e+05  -3.517327e+06
   2.814925e+06  -3.348913e+06
   3.758671e+06  -1.520281e+06
   2.129194e+06   8.030615e+05
  -2.795575e+05   2.021794e+06
  -1.302701e+06   1.400728e+06
  -4.145972e+05  -1.957567e+05
   1.065655e+06  -1.035461e+06
   1.506458e+06  -3.092410e+05
   5.723003e+05   9.193962e+05
  -6.016933e+05   9.657699e+05
  -6.834635e+05  -3.057164e+05
   4.803176e+05  -1.139404e+06
   1.713126e+06  -1.542224e+04
   1.632244e+06   2.331692e+06
  -7.703541e+04   3.563146e+06
  -2.345281e+06   2.286749e+06
  -3.542912e+06  -5.077324e+05
  -2.767864e+06  -2.590326e+06
  -6.221768e+05  -2.672213e+06
   1.219936e+06  -1.326798e+06
   1.468289e+06  -9.311398e+04
   4.333828e+05   3.731711e+04
  -3.358830e+05  -6.421016e+05
   2.126264e+05  -1.060695e+06
   1.417463e+06  -5.374570e+05
   1.695113e+06   5.187727e+05
   4.869390e+05   1.072364e+06
  -9.609298e+05   5.922008e+05
  -9.680595e+05  -3.767822e+05
   6.322774e+05  -7.822394e+05
   2.207324e+06  -9.960675e+04
   2.014984e+06   1.201241e+06
   1.638513e+04   2.069318e+06
  -2.076490e+06   1.728376e+06
  -2.491342e+06   3.496542e+05
  -1.071585e+06  -9.807580e+05
   6.841817e+05  -1.158113e+06
   1.149441e+06  -1.636338e+05
   8.961736e+04   8.178882e+05
  -1.269100e+06   6.283049e+05
  -1.545619e+06  -5.602635e+05
  -5.125814e+05  -1.439453e+06
   8.035348e+05  -1.082969e+06
   1.189784e+06   2.408413e+04
   4.112020e+05   6.210408e+05
  -5.858248e+05   1.094621e+05
  -6.122771e+05  -8.736528e+05
   5.330342e+05  -1.212628e+06
   1.762405e+06  -4.275495e+05
   1.754752e+06   9.266596e+05
   3.635049e+05   1.780248e+06
  -1.166104e+06   1.463914e+06
  -1.488036e+06   2.879979e+05
  -5.378123e+05  -7.211755e+05
   5.278073e+05  -7.718183e+05
   6.650205e+05  -5.494379e+04
  -2.499285e+04   5.253898e+05
  -6.084381e+05   3.795130e+05
  -4.247542e+05  -1.423738e+05
   2.581575e+05  -2.341062e+05
   5.856209e+05   3.672852e+05
   1.928500e+03   1.024296e+06
  -1.146716e+06   8.592676e+05
  -1.838562e+06  -3.028737e+05
  -1.305420e+06  -1.676336e+06
   1.685748e+05  -2.182367e+06
   1.450835e+06  -1.415003e+06
   1.658290e+06  -1.056199e+04
   9.826275e+05   9.439544e+05
   3.256437e+05   9.210488e+05
   2.251924e+05   3.806199e+05
   3.524065e+05   1.674805e+05
   7.417761e+04   5.303133e+05
  -6.965338e+05   8.551980e+05
  -1.331236e+06   4.198648e+05
  -1.094741e+06  -6.804627e+05
   1.153303e+05  -1.487384e+06
   1.544002e+06  -1.102558e+06
   2.076261e+06   3.685265e+05
   1.143098e+06   1.820308e+06
  -6.956489e+05   2.113293e+06
  -2.125216e+06   1.080041e+06
  -2.194235e+06  -3.810849e+05
  -1.116978e+06  -1.191144e+06
   5.611757e+04  -1.069015e+06
   5.100377e+05  -6.392325e+05
   3.337952e+05  -6.150830e+05
   1.948019e+05  -9.741820e+05
   5.183696e+05  -1.025254e+06
   1.050257e+06  -2.635833e+05
   1.153538e+06   9.566937e+05
   4.892090e+05   1.682628e+06
  -5.619998e+05   1.278491e+06
  -1.162099e+06   4.572322e+04
  -7.921722e+05  -1.052129e+06
   1.958397e+05  -1.242385e+06
   8.883694e+05  -5.472204e+05
   7.336633e+05   3.637016e+05
   8.559311e+04   8.363489e+05
  -2.572169e+05   7.511734e+05
   6.659365e+03   4.651250e+05
   3.427234e+05   3.361097e+05
   2.881241e+04   3.559498e+05
  -9.446960e+05   2.343747e+05
  -1.733010e+06  -2.169826e+05
  -1.450821e+06  -8.278522e+05
  -1.230763e+05  -1.186728e+06
   1.237529e+06  -1.000105e+06
   1.575326e+06  -3.677634e+05
   8.118817e+05   2.593750e+05
  -1.470207e+05   4.327895e+05
  -4.139667e+05   1.119458e+05
   1.115127e+04  -2.625182e+05
   4.436383e+05  -1.953187e+05
   4.084488e+05   3.008510e+05
   9.724064e+04   6.623329e+05
  -3.315404e+04   4.199209e+05
   1.455459e+05  -1.726342e+05
   3.568040e+05  -3.615427e+05
   2.729638e+05   1.919095e+05
  -1.857160e+05   9.140010e+05
  -7.803608e+05   9.301274e+05
  -1.047325e+06   9.774407e+04
  -6.122484e+05  -7.935783e+05
   3.469167e+05  -8.944993e+05
   1.013834e+06  -1.945671e+05
   6.311005e+05   5.432382e+05
  -5.890110e+05   6.121186e+05
  -1.480060e+06  -6.536125e+03
  -1.078142e+06  -7.459415e+05
   3.094840e+05  -1.006736e+06
   1.388201e+06  -6.166112e+05
   1.229260e+06   7.851904e+04
   1.869837e+05   4.961657e+05
  -5.696949e+05   3.088789e+05
  -3.088415e+05  -2.147593e+05
   5.709958e+05  -4.011572e+05
   1.033020e+06   1.588448e+05
   4.845169e+05   1.086635e+06
  -6.494003e+05   1.459323e+06
  -1.378913e+06   7.035073e+05
  -1.115248e+06  -7.232952e+05
  -1.644450e+05  -1.636353e+06
   6.739316e+05  -1.232741e+06
   8.670779e+05   8.146233e+04
   4.754624e+05   1.072592e+06
  -9.899342e+04   9.468181e+05
  -4.812577e+05   1.258587e+05
  -4.948938e+05  -3.665576e+05
  -2.279942e+05  -1.612370e+05
  -1.491716e+04   1.163334e+05
  -1.408785e+05  -1.926451e+05
  -4.204133e+05  -8.398102e+05
  -2.733287e+05  -1.004777e+06
   5.309992e+05  -3.918497e+05
   1.348817e+06   4.218404e+05
   1.252241e+06   7.648663e+05
   1.827249e+05   6.113991e+05
  -8.501514e+05   3.591044e+05
  -9.228326e+05   1.933276e+05
  -2.628744e+05   1.088885e+04
   1.619998e+05  -1.905298e+05
  -5.761456e+04  -2.459657e+05
  -3.333261e+05  -1.543090e+05
  -4.614059e+03  -1.209013e+05
   6.997995e+05  -1.565216e+05
   9.234271e+05   4.410668e+04
   2.389239e+05   5.869507e+05
  -8.498788e+05   9.791313e+05
  -1.451915e+06   6.041626e+05
  -1.131800e+06  -4.360072e+05
  -1.959620e+05  -1.275745e+06
   6.658996e+05  -1.199706e+06
   9.338980e+05  -4.085431e+05
   5.932690e+05   2.701202e+05
   7.513009e+04   3.149077e+05
  -1.409102e+05  -1.068049e+04
   5.022979e+04  -8.548866e+04
   3.169656e+05   3.084309e+05
   2.557553e+05   7.315432e+05
  -1.826588e+05   5.842086e+05
  -6.198624e+05  -1.813369e+05
  -5.890979e+05  -9.145205e+05
   7.904115e+03  -9.005857e+05
   7.209738e+05  -1.179291e+05
   8.792168e+05   7.341527e+05
   2.426243e+05   9.658189e+05
  -6.504129e+05   5.304752e+05
  -9.522369e+05  -9.719172e+04
  -4.270569e+05  -4.836344e+05
   2.453226e+05  -5.226116e+05
   2.654858e+05  -3.168724e+05
  -2.991505e+05  -5.366791e+04
  -6.020116e+05   1.291333e+04
  -1.022512e+05  -2.573114e+05
   7.471599e+05  -6.122290e+05
   1.071243e+06  -5.444437e+05
   6.082996e+05   8.972866e+04
  -9.707121e+04   7.439796e+05
  -4.260129e+05   7.380829e+05
  -2.927853e+05   9.312163e+04
   4.558523e+03  -4.572696e+05
   2.277078e+05  -3.410268e+05
   3.082723e+05   2.085174e+05
   2.097358e+05   5.206702e+05
  -6.190449e+04   3.125204e+05
  -3.419016e+05  -7.560316e+04
  -4.044685e+05  -2.015529e+05
  -2.217335e+05  -4.303162e+04
   3.418793e+02   7.230727e+04
   8.904115e+04  -7.907303e+04
   1.010322e+05  -3.493249e+05
   1.831534e+05  -3.914642e+05
   3.152223e+05  -5.243069e+04
   2.967517e+05   4.177408e+05
   1.979390e+03   5.747539e+05
  -4.009313e+05   2.354839e+05
  -5.357309e+05  -2.993488e+05
  -1.789377e+05  -5.402615e+05
   4.348888e+05  -3.135230e+05
   7.409361e+05   1.045527e+05
   4.022476e+05   3.422781e+05
  -2.598539e+05   2.999957e+05
  -5.453528e+05   1.322176e+05
  -1.655531e+05   9.836265e+03
   3.821403e+05   1.293792e+04
   3.837723e+05   1.476814e+05
  -2.261282e+05   2.978555e+05
  -7.751220e+05   2.157298e+05
