
 $NMID
 id='ANONYMOUS ', fmtdat='(2E16.6)'
 volume=1.0
 tramp=1.0
 $END
  -5.576542e+06   6.209089e+05
  -4.176088e+06  -2.070239e+06
  -5.571504e+05  -3.558461e+06
   2.177330e+06  -2.837520e+06
   2.180484e+06  -6.109802e+05
   3.244998e+05   1.073234e+06
  -1.186653e+06   7.682611e+05
  -1.106176e+06  -8.473041e+05
   6.742261e+04  -1.760919e+06
   1.048577e+06  -9.162549e+05
   1.038916e+06   6.821758e+05
   2.212324e+05   1.258929e+06
  -5.646248e+05   2.911640e+05
  -5.606353e+05  -1.052061e+06
   2.294552e+05  -1.314087e+06
   9.896389e+05  -2.552050e+05
   8.728438e+05   1.070052e+06
  -9.630705e+04   1.485101e+06
  -1.025846e+06   7.853378e+05
  -1.118444e+06  -2.453803e+05
  -4.944555e+05  -7.363110e+05
   3.564783e+04  -5.611233e+05
  -8.541534e+04  -2.954125e+05
  -5.727781e+05  -4.551502e+05
  -6.405733e+05  -9.094563e+05
   1.232595e+05  -1.085348e+06
   1.226619e+06  -6.455281e+05
   1.661522e+06   1.499688e+05
   9.293014e+05   7.159486e+05
  -3.333997e+05   6.671672e+05
  -9.262812e+05   1.036957e+05
  -3.532843e+05  -4.807755e+05
   6.546420e+05  -5.557994e+05
   1.010811e+06   7.714301e+03
   4.791695e+05   7.398771e+05
  -2.252681e+05   9.339642e+05
  -4.078651e+05   3.764992e+05
  -1.142284e+05  -3.374939e+05
   1.553318e+05  -4.104543e+05
   1.058599e+05   2.241093e+05
  -1.698942e+05   7.811993e+05
  -4.326510e+05   5.464380e+05
  -4.677732e+05  -2.544788e+05
  -1.563780e+05  -7.161494e+05
   3.450483e+05  -3.209826e+05
   5.522914e+05   4.837112e+05
   8.714875e+04   8.304542e+05
  -7.619473e+05   3.734045e+05
  -1.166233e+06  -4.340211e+05
  -6.228983e+05  -8.836644e+05
   4.290387e+05  -6.742153e+05
   1.031272e+06  -7.369439e+04
   7.013900e+05   4.040182e+05
  -1.235401e+05   4.317089e+05
  -6.151190e+05   9.221407e+04
  -3.991866e+05  -2.325288e+05
   1.529917e+05  -2.204242e+05
   3.911659e+05   8.550241e+04
   8.020197e+04   3.312046e+05
  -3.734952e+05   2.289374e+05
  -3.882437e+05  -1.352380e+05
   1.175020e+05  -3.836319e+05
   5.925331e+05  -2.171261e+05
   4.521536e+05   2.956558e+05
  -2.590000e+05   7.543255e+05
  -9.147164e+05   7.426768e+05
  -9.915291e+05   1.832130e+05
  -5.674193e+05  -5.601232e+05
  -1.095910e+05  -9.740885e+05
   8.348462e+04  -8.633461e+05
   1.074813e+05  -5.090992e+05
   2.026672e+05  -3.049417e+05
   4.366333e+05  -2.842323e+05
   6.533301e+05  -1.384867e+05
   6.381106e+05   2.859449e+05
   3.039424e+05   6.789846e+05
  -2.055166e+05   5.921576e+05
  -5.583595e+05   6.271353e+03
  -4.637369e+05  -5.813824e+05
   4.587476e+04  -6.637872e+05
   5.779669e+05  -2.199309e+05
   7.102091e+05   3.319771e+05
   3.895200e+05   5.881560e+05
  -3.791839e+04   4.957499e+05
  -2.193490e+05   2.923626e+05
  -1.751765e+05   2.102916e+05
  -2.268842e+05   2.589074e+05
  -5.505770e+05   2.464850e+05
  -8.853739e+05  -1.136871e+04
  -7.755403e+05  -4.791930e+05
  -1.095799e+05  -8.738237e+05
   6.640688e+05  -8.751577e+05
   9.371710e+05  -4.185677e+05
   5.490881e+05   1.974397e+05
  -6.389906e+04   5.274683e+05
  -3.328912e+05   3.659545e+05
  -1.108474e+05  -5.258795e+04
   2.611524e+05  -2.748447e+05
   3.718175e+05  -9.463574e+04
   1.454727e+05   2.248054e+05
  -1.468452e+05   2.582568e+05
  -1.925575e+05  -5.761532e+04
   7.202348e+04  -3.088788e+05
   4.095165e+05  -8.214405e+04
   4.723416e+05   5.091506e+05
   9.711586e+04   8.945649e+05
  -5.133833e+05   6.541041e+05
  -9.080094e+05  -3.617180e+04
  -7.662729e+05  -6.073866e+05
  -2.091247e+05  -6.754708e+05
   2.947760e+05  -3.530239e+05
   3.750523e+05  -3.849266e+04
   1.097495e+05   4.581271e+03
  -9.491932e+04  -1.554682e+05
   3.357102e+04  -2.623868e+05
   3.378178e+05  -1.518928e+05
   4.267147e+05   9.757918e+04
   1.429950e+05   2.547518e+05
  -2.281190e+05   1.686534e+05
  -2.590964e+05  -7.345050e+04
   1.321362e+05  -2.169472e+05
   5.554705e+05  -7.989017e+04
   5.440685e+05   2.629965e+05
   5.071151e+04   5.293267e+05
  -4.947050e+05   4.756902e+05
  -6.226759e+05   1.266515e+05
  -2.806774e+05  -2.281101e+05
   1.552825e+05  -2.921797e+05
   2.791239e+05  -5.183557e+04
   2.837013e+04   2.018597e+05
  -3.083916e+05   1.744067e+05
  -3.964030e+05  -1.133847e+05
  -1.587533e+05  -3.513399e+05
   1.761165e+05  -2.921839e+05
   3.003049e+05  -2.440172e+04
   1.223862e+05   1.444856e+05
  -1.372574e+05   3.899444e+04
  -1.635381e+05  -2.061864e+05
   1.171266e+05  -3.089019e+05
   4.357176e+05  -1.289663e+05
   4.510446e+05   2.095805e+05
   1.153851e+05   4.400075e+05
  -2.693397e+05   3.825860e+05
  -3.685804e+05   9.569983e+04
  -1.502492e+05  -1.721360e+05
   1.183976e+05  -2.055869e+05
   1.738486e+05  -2.630454e+04
   1.237884e+04   1.401662e+05
  -1.492165e+05   1.181638e+05
  -1.253720e+05  -2.451883e+04
   4.624144e+04  -7.178548e+04
   1.505022e+05   7.032847e+04
   2.157873e+04   2.499290e+05
  -2.705519e+05   2.311910e+05
  -4.631986e+05  -4.866315e+04
  -3.490327e+05  -4.012167e+05
   1.223300e+04  -5.523365e+05
   3.443796e+05  -3.834740e+05
   4.224162e+05  -3.314533e+04
   2.731724e+05   2.284292e+05
   1.028230e+05   2.443758e+05
   5.502942e+04   1.067155e+05
   7.681812e+04   3.628879e+04
   2.025788e+04   1.237905e+05
  -1.588387e+05   2.225343e+05
  -3.261597e+05   1.285225e+05
  -2.901468e+05  -1.546661e+05
   6.537040e+02  -3.803002e+05
   3.695080e+05  -3.035402e+05
   5.280252e+05   6.041153e+04
   3.174157e+05   4.364437e+05
  -1.357432e+05   5.364500e+05
  -5.095876e+05   3.052437e+05
  -5.581275e+05  -5.417715e+04
  -3.106785e+05  -2.792694e+05
  -1.172252e+04  -2.784658e+05
   1.239524e+05  -1.804934e+05
   9.064336e+04  -1.623881e+05
   4.607283e+04  -2.407417e+05
   1.160871e+05  -2.570733e+05
   2.562468e+05  -7.686725e+04
   3.009726e+05   2.261310e+05
   1.451161e+05   4.170020e+05
  -1.248791e+05   3.296900e+05
  -2.918272e+05   3.031675e+04
  -2.149999e+05  -2.476674e+05
   2.487404e+04  -3.117288e+05
   2.042043e+05  -1.559699e+05
   1.838028e+05   6.783956e+04
   4.006824e+04   1.981529e+05
  -4.149052e+04   1.901791e+05
   1.436401e+04   1.204742e+05
   8.831615e+04   8.339367e+04
   1.013645e+04   9.012632e+04
  -2.288488e+05   7.117646e+04
  -4.302065e+05  -3.050965e+04
  -3.738221e+05  -1.835828e+05
  -5.353326e+04  -2.879885e+05
   2.885456e+05  -2.628513e+05
   3.860718e+05  -1.186100e+05
   2.075983e+05   4.301073e+04
  -2.852956e+04   1.045092e+05
  -9.828876e+04   3.676542e+04
   5.209412e+03  -6.074106e+04
   1.135167e+05  -5.331538e+04
   1.051216e+05   7.148977e+04
   2.542840e+04   1.697740e+05
  -1.000858e+04   1.087659e+05
   3.354570e+04  -5.021243e+04
   8.787279e+04  -1.034952e+05
   7.092972e+04   4.246650e+04
  -3.791784e+04   2.342586e+05
  -1.826263e+05   2.414260e+05
  -2.529030e+05   3.070332e+04
  -1.548128e+05  -1.937035e+05
   7.735032e+04  -2.215837e+05
   2.488813e+05  -5.274965e+04
   1.649298e+05   1.313799e+05
  -1.377913e+05   1.623562e+05
  -3.742540e+05   2.278043e+04
  -2.901825e+05  -1.683067e+05
   5.533181e+04  -2.610642e+05
   3.396603e+05  -1.847466e+05
   3.153089e+05  -4.507891e+03
   5.826971e+04   1.229413e+05
  -1.370493e+05   8.914508e+04
  -7.757856e+04  -4.776845e+04
   1.426817e+05  -1.057049e+05
   2.627450e+05   3.225945e+04
   1.297684e+05   2.721464e+05
  -1.541838e+05   3.751170e+05
  -3.441175e+05   1.903762e+05
  -2.906383e+05  -1.714830e+05
  -6.151955e+04  -4.126237e+05
   1.530530e+05  -3.235999e+05
   2.195553e+05   3.881595e+03
   1.389166e+05   2.617788e+05
  -4.386753e+03   2.417683e+05
  -1.164358e+05   4.051873e+04
  -1.348075e+05  -8.537390e+04
  -6.576981e+04  -3.765267e+04
   2.127018e+02   3.081834e+04
  -2.921365e+04  -4.505707e+04
  -1.137713e+05  -2.056016e+05
  -8.921277e+04  -2.495116e+05
   1.209432e+05  -1.049909e+05
   3.470554e+05   8.892654e+04
   3.320462e+05   1.750493e+05
   5.418755e+04   1.501739e+05
  -2.156261e+05   1.022167e+05
  -2.317225e+05   6.325791e+04
  -6.048240e+04   8.030986e+03
   4.094164e+04  -5.035274e+04
  -2.480121e+04  -6.279350e+04
  -9.382432e+04  -3.618411e+04
  -1.793610e+02  -3.122581e+04
   1.825311e+05  -4.753330e+04
   2.330419e+05   2.018002e+03
   5.686314e+04   1.468595e+05
  -2.103739e+05   2.550496e+05
  -3.557503e+05   1.633234e+05
  -2.831164e+05  -1.030242e+05
  -6.212020e+04  -3.213642e+05
   1.523118e+05  -3.073510e+05
   2.315158e+05  -1.092976e+05
   1.547572e+05   6.433299e+04
   1.980117e+04   7.896381e+04
  -4.267882e+04  -3.353979e+03
   7.980032e+03  -2.613199e+04
   8.619012e+04   7.077635e+04
   7.625546e+04   1.803907e+05
  -4.066753e+04   1.486025e+05
  -1.612219e+05  -4.231993e+04
  -1.568638e+05  -2.294227e+05
  -9.128390e+02  -2.289230e+05
   1.866225e+05  -3.295612e+04
   2.299874e+05   1.817961e+05
   6.779062e+04   2.417990e+05
  -1.605010e+05   1.366005e+05
  -2.384306e+05  -1.642391e+04
  -1.080973e+05  -1.134110e+05
   5.695234e+04  -1.282927e+05
   5.798756e+04  -8.006583e+04
  -8.279887e+04  -1.089051e+04
  -1.534223e+05   9.573493e+03
  -2.620779e+04  -6.316652e+04
   1.811640e+05  -1.639110e+05
   2.574525e+05  -1.527308e+05
   1.470998e+05   1.274693e+04
  -1.721742e+04   1.866416e+05
  -9.450500e+04   1.870026e+05
  -6.806113e+04   2.058416e+04
  -1.534436e+03  -1.188502e+05
   5.570728e+04  -8.558576e+04
   8.204390e+04   5.443243e+04
   5.798317e+04   1.294177e+05
  -1.504525e+04   7.502875e+04
  -8.764322e+04  -1.763319e+04
  -1.013413e+05  -4.307803e+04
  -5.533677e+04  -5.040525e+03
  -3.064492e+03   1.478092e+04
   1.882050e+04  -2.972050e+04
   2.799118e+04  -9.507492e+04
   5.434057e+04  -9.816437e+04
   8.546790e+04  -7.888084e+03
   7.431811e+04   1.108136e+05
  -2.516382e+03   1.488079e+05
  -1.021229e+05   6.197182e+04
  -1.358774e+05  -7.431675e+04
  -4.898454e+04  -1.372942e+05
   1.047801e+05  -8.256666e+04
   1.855609e+05   2.157134e+04
   1.037314e+05   8.251126e+04
  -6.350000e+04   7.454733e+04
  -1.363221e+05   3.396144e+04
  -3.773530e+04   2.002984e+03
   1.040168e+05   1.434514e+03
   1.028850e+05   3.840716e+04
  -5.751465e+04   8.296690e+04
  -2.014419e+05   6.535682e+04
