
 $NMID
 id='ANONYMOUS ', fmtdat='(2E16.6)'
 volume=1.0
 tramp=1.0
 $END
  -2.598580e+07   1.473192e+06
  -1.711424e+07  -1.413435e+07
   1.442350e+06  -1.752966e+07
   1.200044e+07  -8.708250e+06
   8.402820e+06   1.597537e+06
  -6.793891e+05   4.548096e+06
  -4.842287e+06   5.276833e+05
  -2.332779e+06  -4.392002e+06
   2.193807e+06  -5.341152e+06
   4.572059e+06  -1.834755e+06
   3.678138e+06   2.849646e+06
   6.231734e+05   4.395561e+06
  -1.972503e+06   1.325813e+06
  -1.562769e+06  -3.049073e+06
   1.544683e+06  -3.805401e+06
   3.908759e+06   9.683229e+04
   2.664580e+06   4.739930e+06
  -1.290203e+06   5.866115e+06
  -4.612681e+06   3.094061e+06
  -5.060703e+06  -8.308825e+05
  -2.987787e+06  -3.328607e+06
  -3.621379e+05  -3.639166e+06
   8.101174e+05  -2.532267e+06
  -3.176537e+03  -1.548232e+06
  -1.061521e+06  -1.794953e+06
   4.941109e+04  -2.643864e+06
   3.203298e+06  -2.265791e+06
   5.190997e+06  -8.348064e+04
   3.522525e+06   2.150702e+06
  -2.186504e+05   2.464307e+06
  -2.265745e+06   1.013153e+06
  -1.207359e+06  -4.969817e+05
   9.617722e+05  -8.929062e+05
   1.900587e+06  -1.268736e+05
   1.271427e+06   1.304467e+06
   1.402031e+04   2.370724e+06
  -1.018730e+06   1.779037e+06
  -1.232493e+06  -3.340935e+05
  -4.797660e+05  -1.670018e+06
   3.230583e+05  -4.378730e+05
  -8.007257e+04   1.699779e+06
  -1.337260e+06   1.431794e+06
  -1.425930e+06  -1.384131e+06
   6.046846e+05  -3.011111e+06
   2.826634e+06  -8.384631e+05
   2.519750e+06   2.898811e+06
  -4.580476e+05   3.963378e+06
  -3.428460e+06   1.361876e+06
  -3.790214e+06  -1.989947e+06
  -1.394086e+06  -3.108368e+06
   1.690893e+06  -1.735619e+06
   3.024858e+06   4.271511e+05
   1.671064e+06   1.672745e+06
  -9.673759e+05   1.285724e+06
  -2.292171e+06  -1.732088e+05
  -1.165619e+06  -1.195622e+06
   7.573711e+05  -7.450088e+05
   1.056265e+06   4.479315e+05
  -3.833025e+05   7.214437e+05
  -1.340188e+06  -3.389232e+05
  -2.779168e+05  -1.402433e+06
   1.745295e+06  -1.186694e+06
   2.567601e+06   1.646891e+05
   1.380409e+06   1.709663e+06
  -8.642054e+05   2.705030e+06
  -2.724959e+06   2.560600e+06
  -3.248842e+06   8.729329e+05
  -2.261314e+06  -1.671836e+06
  -5.111350e+05  -3.231307e+06
   7.093866e+05  -2.666060e+06
   7.527551e+05  -1.027672e+06
   3.160620e+05  -2.401897e+05
   4.800693e+05  -6.207034e+05
   1.260873e+06  -7.577810e+05
   1.663516e+06   2.273049e+05
   1.030829e+06   1.410018e+06
  -2.222458e+05   1.387495e+06
  -1.157558e+06   6.266296e+04
  -1.096617e+06  -1.376205e+06
   4.140253e+04  -1.761018e+06
   1.592532e+06  -8.371039e+05
   2.356462e+06   7.445048e+05
   1.601475e+06   1.931690e+06
   2.041171e+03   2.034360e+06
  -1.005799e+06   1.316759e+06
  -9.735552e+05   6.730400e+05
  -9.066892e+05   5.504720e+05
  -1.660635e+06   4.589070e+05
  -2.533224e+06  -2.629445e+05
  -2.109937e+06  -1.498151e+06
  -1.812824e+05  -2.432044e+06
   1.859235e+06  -2.359606e+06
   2.500005e+06  -1.223746e+06
   1.535629e+06   3.543114e+05
   3.047795e+04   1.359067e+06
  -7.422428e+05   1.082317e+06
  -3.144771e+05  -6.695868e+04
   6.684368e+05  -7.658902e+05
   1.082646e+06  -2.541426e+05
   4.929771e+05   6.651925e+05
  -3.411686e+05   6.741559e+05
  -3.632721e+05  -2.115009e+05
   4.739679e+05  -6.019692e+05
   1.147780e+06   3.679684e+05
   7.798988e+05   1.830243e+06
  -4.660243e+05   2.239541e+06
  -1.717182e+06   1.136122e+06
  -2.203286e+06  -5.620752e+05
  -1.656004e+06  -1.666029e+06
  -3.874733e+05  -1.678091e+06
   7.632900e+05  -9.107618e+05
   9.704643e+05  -1.267327e+05
   2.965205e+05   1.924933e+04
  -2.333018e+05  -4.395329e+05
   1.799608e+05  -7.720370e+05
   1.052537e+06  -3.836997e+05
   1.202780e+06   4.186101e+05
   2.994674e+05   7.882709e+05
  -6.717960e+05   3.897624e+05
  -6.005654e+05  -2.502022e+05
   4.618037e+05  -4.277273e+05
   1.402606e+06   3.496171e+04
   1.221025e+06   7.864120e+05
  -4.166201e+04   1.292021e+06
  -1.373444e+06   1.115530e+06
  -1.677239e+06   2.411547e+05
  -7.495583e+05  -6.998288e+05
   4.912047e+05  -8.634980e+05
   8.637176e+05  -1.348171e+05
   1.087141e+05   6.048840e+05
  -8.795293e+05   4.591746e+05
  -1.054211e+06  -4.030574e+05
  -2.959463e+05  -9.818288e+05
   5.900661e+05  -6.731715e+05
   7.850375e+05   8.862060e+04
   2.210204e+05   4.435997e+05
  -4.406529e+05   6.395469e+04
  -4.470630e+05  -6.047372e+05
   3.325402e+05  -8.518327e+05
   1.197050e+06  -3.410686e+05
   1.227929e+06   6.011307e+05
   2.699597e+05   1.226791e+06
  -8.090055e+05   1.014322e+06
  -1.024396e+06   1.843569e+05
  -3.451402e+05  -5.007430e+05
   3.670219e+05  -5.133186e+05
   4.139269e+05  -5.293879e+04
  -3.856703e+04   2.831237e+05
  -3.453676e+05   1.960039e+05
  -1.748394e+05  -6.103390e+04
   2.247540e+05  -5.381267e+04
   3.595987e+05   3.245829e+05
  -4.911322e+04   7.081235e+05
  -7.946610e+05   5.802938e+05
  -1.258640e+06  -1.981661e+05
  -9.145293e+05  -1.135046e+06
   8.634459e+04  -1.474390e+06
   9.573308e+05  -9.274361e+05
   1.070110e+06   1.103056e+04
   6.015135e+05   5.729368e+05
   2.177166e+05   4.959019e+05
   2.302221e+05   1.852399e+05
   3.176571e+05   1.464479e+05
   6.271712e+04   4.130181e+05
  -4.892518e+05   5.728808e+05
  -8.815818e+05   2.587605e+05
  -6.947595e+05  -4.309300e+05
   9.419732e+04  -9.429928e+05
   1.025953e+06  -7.197863e+05
   1.387950e+06   2.380822e+05
   7.581340e+05   1.234824e+06
  -5.103593e+05   1.445007e+06
  -1.475759e+06   7.111218e+05
  -1.460311e+06  -2.975286e+05
  -6.809918e+05  -7.919664e+05
   6.846765e+04  -6.444098e+05
   2.770081e+05  -3.733071e+05
   1.188729e+05  -4.410851e+05
   7.624148e+04  -7.328690e+05
   3.618603e+05  -7.500027e+05
   7.451671e+05  -2.052437e+05
   8.130980e+05   6.307996e+05
   3.635616e+05   1.134819e+06
  -3.561336e+05   8.777057e+05
  -7.818202e+05   3.350328e+04
  -5.311589e+05  -7.340883e+05
   1.672425e+05  -8.479611e+05
   6.488674e+05  -3.195874e+05
   5.020385e+05   3.286027e+05
   1.858675e+03   6.121884e+05
  -2.429477e+05   4.959248e+05
  -1.857686e+04   2.815158e+05
   2.537526e+05   2.081334e+05
   3.446921e+04   2.353461e+05
  -6.660323e+05   1.584377e+05
  -1.218398e+06  -1.454594e+05
  -9.955401e+05  -5.717357e+05
  -4.723925e+04  -8.379380e+05
   8.875838e+05  -7.074083e+05
   1.084217e+06  -2.329153e+05
   5.314464e+05   2.292019e+05
  -1.231241e+05   3.242281e+05
  -2.950517e+05   5.319326e+04
  -1.212446e+04  -2.195640e+05
   2.791807e+05  -1.526827e+05
   2.900789e+05   1.982250e+05
   1.252537e+05   4.395886e+05
   2.923221e+04   2.869138e+05
   8.794632e+04  -8.642560e+04
   1.962494e+05  -2.126645e+05
   1.780579e+05   1.311812e+05
  -8.794645e+04   6.092504e+05
  -5.202272e+05   6.521654e+05
  -7.700747e+05   1.086015e+05
  -4.848033e+05  -5.336811e+05
   2.266114e+05  -6.585165e+05
   7.232866e+05  -1.912414e+05
   4.460867e+05   3.446475e+05
  -4.030142e+05   4.130633e+05
  -9.805122e+05  -9.066667e+03
  -6.757193e+05  -4.979451e+05
   2.399937e+05  -6.420587e+05
   9.129704e+05  -3.697626e+05
   7.865856e+05   6.801562e+04
   1.094554e+05   3.195803e+05
  -3.853244e+05   1.934237e+05
  -2.269241e+05  -1.578732e+05
   3.601093e+05  -3.069309e+05
   7.111792e+05   5.469688e+04
   3.929363e+05   7.137602e+05
  -3.643528e+05   1.023875e+06
  -8.996512e+05   5.363896e+05
  -7.717556e+05  -4.511671e+05
  -1.480421e+05  -1.092207e+06
   4.302650e+05  -8.181199e+05
   5.744863e+05   6.986887e+04
   3.063638e+05   7.166426e+05
  -8.932858e+04   6.129517e+05
  -3.329417e+05   7.433377e+04
  -3.106370e+05  -2.287887e+05
  -1.243541e+05  -9.086715e+04
  -1.984074e+04   6.714659e+04
  -1.438668e+05  -1.549282e+05
  -3.151697e+05  -5.705952e+05
  -1.621964e+05  -6.612837e+05
   3.966180e+05  -2.615354e+05
   9.100593e+05   2.587124e+05
   8.194381e+05   4.899432e+05
   1.284784e+05   4.166346e+05
  -5.338243e+05   2.646269e+05
  -6.049710e+05   1.354384e+05
  -2.033413e+05  -1.057937e+04
   9.296539e+04  -1.364316e+05
  -5.853195e+03  -1.414066e+05
  -1.879511e+05  -7.088332e+04
  -2.230457e+04  -8.035338e+04
   4.255990e+05  -1.406390e+05
   6.316813e+05  -2.692960e+03
   2.359888e+05   4.040636e+05
  -5.148930e+05   7.101724e+05
  -9.998269e+05   4.701598e+05
  -8.300422e+05  -2.495676e+05
  -1.791875e+05  -8.526314e+05
   4.354649e+05  -8.401308e+05
   6.257137e+05  -3.267134e+05
   4.035521e+05   1.448654e+05
   7.634038e+04   2.135215e+05
  -6.127550e+04   2.390881e+04
   4.319935e+04  -2.940573e+04
   2.009843e+05   2.124353e+05
   1.732450e+05   4.879297e+05
  -1.018932e+05   4.094946e+05
  -4.180730e+05  -7.888318e+04
  -4.481770e+05  -5.790979e+05
  -6.207474e+04  -6.181410e+05
   4.636807e+05  -1.391211e+05
   6.299097e+05   4.394627e+05
   2.150151e+05   6.522238e+05
  -4.228579e+05   4.060490e+05
  -6.681826e+05  -3.165287e+04
  -3.222291e+05  -3.459704e+05
   1.585457e+05  -3.964400e+05
   2.053768e+05  -2.273985e+05
  -1.688969e+05  -1.196674e+04
  -3.982612e+05   3.061706e+04
  -8.779072e+04  -1.797169e+05
   4.902452e+05  -4.283574e+05
   7.408140e+05  -3.657990e+05
   4.483150e+05   7.689356e+04
  -4.471970e+04   5.211698e+05
  -3.028004e+05   5.232229e+05
  -2.342556e+05   9.411369e+04
  -2.915788e+04  -2.963173e+05
   1.400107e+05  -2.572097e+05
   2.146438e+05   1.006182e+05
   1.609868e+05   3.463620e+05
  -2.713318e+04   2.438786e+05
  -2.361384e+05  -2.791905e+04
  -2.891116e+05  -1.496147e+05
  -1.501737e+05  -4.384652e+04
   1.678884e+04   7.589328e+04
   5.483061e+04  -2.673815e+03
   1.201022e+04  -2.215982e+05
   5.153984e+04  -3.109931e+05
   1.958090e+05  -1.055375e+05
   2.589524e+05   2.390264e+05
   7.577180e+04   3.884275e+05
  -2.496499e+05   1.880704e+05
  -3.948935e+05  -1.677766e+05
  -1.540230e+05  -3.490588e+05
   2.964070e+05  -2.285742e+05
   5.257439e+05   3.693598e+04
   2.919958e+05   2.207454e+05
  -1.695712e+05   2.354028e+05
  -3.770836e+05   1.346416e+05
  -1.383733e+05   1.472644e+04
   2.247720e+05  -3.125807e+04
   2.525225e+05   5.119187e+04
  -1.134878e+05   1.880868e+05
  -4.703283e+05   1.727129e+05
