
 $NMID
 id='ANONYMOUS ', fmtdat='(2E16.6)'
 volume=1.0
 tramp=1.0
 $END
   1.966744e+07  -2.919220e+06
   1.241286e+07   1.336626e+07
  -3.537857e+06   1.478970e+07
  -1.074757e+07   3.472676e+06
  -5.156097e+06  -5.559015e+06
   2.736909e+06  -4.370915e+06
   3.992585e+06   1.496528e+06
   1.689896e+05   4.147798e+06
  -3.068832e+06   2.528680e+06
  -3.616821e+06  -2.652332e+05
  -2.319183e+06  -2.281380e+06
  -8.333845e+04  -2.789812e+06
   1.706836e+06  -1.311143e+06
   1.238959e+06   9.267761e+05
  -1.075993e+06   1.256760e+06
  -2.317634e+06  -9.236383e+05
  -8.641734e+05  -3.062693e+06
   1.642084e+06  -3.003698e+06
   3.115122e+06  -1.376970e+06
   3.400128e+06   4.770025e+05
   2.772123e+06   2.367014e+06
   7.487682e+05   3.741743e+06
  -1.973334e+06   3.004241e+06
  -2.871333e+06   2.451970e+05
  -9.808869e+05  -1.586908e+06
   1.034209e+06  -4.395603e+05
   3.874354e+05   1.702446e+06
  -1.885091e+06   1.654381e+06
  -2.735986e+06  -5.174366e+05
  -1.456753e+06  -2.224729e+06
   1.955475e+05  -2.268260e+06
   1.114070e+06  -1.515193e+06
   1.526686e+06  -5.916008e+05
   1.299995e+06   4.908725e+05
   1.740157e+05   9.294339e+05
  -6.591001e+05  -5.552294e+04
   2.325478e+05  -1.200536e+06
   1.822295e+06  -5.171152e+05
   1.690134e+06   1.379881e+06
  -9.930812e+04   1.877488e+06
  -9.098042e+05   5.646753e+05
   1.283658e+05  -8.567919e+03
   5.674284e+05   1.354326e+06
  -1.266212e+06   2.253768e+06
  -3.233719e+06   4.570046e+05
  -2.470925e+06  -2.398796e+06
   3.538868e+05  -3.080331e+06
   2.140097e+06  -1.214697e+06
   1.554849e+06   7.608760e+05
  -9.324509e+03   1.136899e+06
  -9.324937e+05   3.151527e+05
  -8.109721e+05  -7.244257e+05
   1.606415e+05  -1.341207e+06
   1.389659e+06  -9.340291e+05
   1.682011e+06   4.609728e+05
   5.061010e+05   1.442293e+06
  -7.320945e+05   7.883584e+05
  -3.264226e+05  -4.502134e+05
   1.017006e+06  -1.839188e+05
   9.715130e+05   1.458328e+06
  -8.664159e+05   2.104691e+06
  -2.276891e+06   6.786049e+05
  -1.739295e+06  -1.094943e+06
  -4.152878e+05  -1.471324e+06
   1.238483e+05  -1.011240e+06
   2.416572e+05  -9.211272e+05
   8.680066e+05  -8.151056e+05
   1.344103e+06   1.597947e+05
   5.232282e+05   1.190375e+06
  -8.803082e+05   7.695371e+05
  -1.004212e+06  -7.442679e+05
   3.820207e+05  -1.391431e+06
   1.523032e+06  -3.719199e+05
   1.168389e+06   1.016805e+06
  -2.097313e+04   1.364329e+06
  -7.914736e+05   7.364633e+05
  -7.813911e+05  -2.228415e+04
  -3.189045e+05  -4.182091e+05
   2.164830e+05  -3.127195e+05
   3.763270e+05   2.472998e+05
  -1.680370e+05   7.268245e+05
  -9.719846e+05   4.022398e+05
  -1.058871e+06  -5.947290e+05
  -2.077422e+05  -1.207934e+06
   6.612768e+05  -8.275757e+05
   7.517917e+05  -6.703596e+04
   3.556707e+05   2.350563e+05
   1.387573e+05   1.047480e+05
   1.634511e+05   2.549044e+04
   1.638022e+05   8.457328e+04
   1.721570e+05   1.316216e+05
   2.484187e+05   2.592412e+05
   1.047650e+05   4.914733e+05
  -3.536651e+05   4.451685e+05
  -5.824933e+05  -5.153825e+04
  -1.817786e+05  -4.249408e+05
   3.056326e+05  -1.415184e+05
   1.518733e+05   3.556180e+05
  -3.688153e+05   2.865363e+05
  -4.321801e+05  -2.052259e+05
  -4.062011e+04  -3.412718e+05
   6.078418e+04  -6.964660e+04
  -2.264545e+05  -1.032095e+05
  -1.460971e+05  -5.532773e+05
   5.204270e+05  -6.034116e+05
   9.080518e+05   1.127099e+05
   4.021587e+05   7.772240e+05
  -3.610266e+05   5.974782e+05
  -4.792449e+05  -2.973886e+04
  -7.958673e+04  -2.472008e+05
   1.133308e+05  -2.089000e+04
  -1.681950e+04   7.981775e+04
  -2.922285e+04  -4.188713e+04
   1.276860e+05   7.535272e+03
   6.073775e+04   2.514353e+05
  -2.638083e+05   2.624228e+05
  -4.065113e+05  -6.345459e+04
  -1.952783e+05  -3.273894e+05
   4.667927e+04  -2.997598e+05
   1.076580e+05  -1.925606e+05
   1.564826e+05  -1.553471e+05
   2.716626e+05  -4.159982e+04
   2.382937e+05   1.652604e+05
   1.516709e+04   2.007369e+05
  -8.182207e+04   1.186799e+04
   8.207411e+04  -5.613116e+04
   1.720868e+05   1.689920e+05
  -6.352068e+04   3.399752e+05
  -3.324873e+05   1.339884e+05
  -2.476691e+05  -2.066659e+05
   6.258016e+04  -2.458523e+05
   1.795581e+05  -1.323211e+03
   1.819878e+04   1.605575e+05
  -1.541084e+05   9.083525e+04
  -1.771823e+05  -5.419932e+04
  -1.121966e+05  -1.613631e+05
   6.958624e+03  -2.343967e+05
   1.849624e+05  -2.002033e+05
   2.793790e+05   9.264916e+03
   1.365028e+05   2.167216e+05
  -1.016151e+05   1.681090e+05
  -1.332470e+05  -6.391190e+04
   5.741430e+04  -1.513944e+05
   1.859471e+05   5.558779e+03
   1.108340e+05   1.724063e+05
  -1.524667e+04   1.847163e+05
  -7.614889e+04   1.393905e+05
  -1.509797e+05   1.108561e+05
  -2.484076e+05   1.580863e+03
  -1.999489e+05  -1.897530e+05
   2.470448e+04  -2.493158e+05
   1.749090e+05  -8.260512e+04
   8.414200e+04   8.391091e+04
  -6.309777e+04   4.114370e+04
  -4.035647e+04  -8.472688e+04
   6.695732e+04  -7.804312e+04
   6.210165e+04   6.481259e+03
  -3.454894e+03  -5.902992e+03
   4.042330e+04  -6.555858e+04
   1.364843e+05  -4.330026e+03
   9.812194e+04   1.235963e+05
  -3.172037e+04   1.218807e+05
  -4.419687e+04   1.754124e+04
   4.565149e+04   2.407039e+04
   6.827203e+03   1.421495e+05
  -1.808899e+05   1.262732e+05
  -2.416862e+05  -8.554709e+04
  -4.869870e+04  -2.246164e+05
   1.489522e+05  -1.077609e+05
   1.097796e+05   7.481224e+04
  -4.488256e+04   7.298218e+04
  -6.891057e+04  -4.835096e+04
   1.932735e+04  -7.203346e+04
   3.257966e+04   3.084721e+03
  -3.742161e+04   9.185136e+03
  -3.113590e+04  -7.248004e+04
   7.975316e+04  -9.152009e+04
   1.469344e+05   3.090820e+03
   9.436059e+04   9.337327e+04
   8.859316e+03   1.000766e+05
  -3.615507e+04   7.499379e+04
  -6.943816e+04   5.983121e+04
  -1.009382e+05   1.740392e+04
  -7.337317e+04  -5.263431e+04
   1.183904e+04  -7.207308e+04
   5.603968e+04  -1.551320e+04
   1.202724e+04   3.265501e+04
  -4.153829e+04   9.485809e+03
  -3.200522e+04  -3.753575e+04
   5.451235e+03  -4.494871e+04
   1.678660e+04  -2.403102e+04
   1.897797e+04  -5.229790e+03
   3.376981e+04   1.871668e+04
   2.536603e+04   3.984770e+04
  -1.978263e+04   1.339398e+04
  -3.570160e+04  -5.075238e+04
   1.748423e+04  -6.233593e+04
   6.667305e+04   1.399406e+04
   3.474827e+04   8.250998e+04
  -3.126355e+04   5.610555e+04
  -3.966447e+04  -9.501980e+03
  -3.266015e+03  -1.680237e+04
   2.536782e+02   1.393582e+04
  -2.793887e+04   1.894345e+03
  -2.333481e+04  -3.740191e+04
   9.713680e+03  -2.662104e+04
   7.170299e+03   1.696320e+04
  -2.076520e+04   4.517317e+03
   4.753724e+03  -5.171961e+04
   7.601329e+04  -3.852739e+04
   8.003108e+04   6.015905e+04
  -2.062719e+04   1.102292e+05
  -1.077600e+05   3.124385e+04
  -7.637436e+04  -7.393557e+04
   1.667248e+04  -7.654363e+04
   5.496583e+04  -4.424730e+03
   2.977290e+04   3.206881e+04
   9.621316e+03   1.475443e+04
   7.278357e+03   5.802114e+03
  -1.496793e+04   1.592175e+04
  -4.412870e+04   1.930128e+03
  -2.894258e+04  -2.945195e+04
   1.818818e+04  -2.599084e+04
   3.030634e+04   6.853258e+03
   1.168814e+02   7.638480e+03
  -6.225700e+03  -2.831692e+04
   3.465176e+04  -3.207656e+04
   5.898289e+04   2.168906e+04
   1.937768e+04   6.673631e+04
  -4.018714e+04   4.868955e+04
  -5.492849e+04   2.124892e+03
  -2.736756e+04  -1.743879e+04
  -2.531814e+02  -1.406427e+04
   1.196614e+04  -1.563535e+04
   1.769744e+04  -1.277734e+04
   1.048078e+04   1.079871e+04
  -1.541843e+04   2.855281e+04
  -3.608354e+04   9.207954e+03
  -2.708726e+04  -2.457802e+04
  -3.062651e+03  -2.986393e+04
   8.008049e+03  -1.289279e+04
   1.015297e+04  -1.135467e+04
   2.211258e+04  -2.480704e+04
   3.436157e+04  -1.859964e+04
   2.479270e+04   1.108663e+04
   3.094459e+03   3.037320e+04
  -2.973274e+03   2.557671e+04
   3.967078e+03   1.802803e+04
  -1.197996e+03   1.731805e+04
  -1.639543e+04   8.057112e+03
  -1.578115e+04  -8.586098e+03
  -1.365488e+03  -7.974789e+03
  -3.433475e+03   9.328903e+03
  -2.298257e+04   8.494091e+03
  -2.210074e+04  -1.926324e+04
   1.197575e+04  -3.172800e+04
   3.785305e+04  -2.873537e+02
   1.962930e+04   3.907285e+04
  -2.147200e+04   3.559273e+04
  -4.261723e+04  -4.981726e+03
  -3.461468e+04  -3.723278e+04
  -1.277462e+04  -4.115576e+04
   1.691000e+04  -3.026649e+04
   4.763151e+04  -1.208775e+04
   5.331163e+04   1.564914e+04
   2.047472e+04   3.715953e+04
  -1.818603e+04   3.004479e+04
  -2.221488e+04   5.605779e+03
  -3.310730e+03  -7.097133e+02
  -5.197169e+03   1.576191e+04
  -3.130304e+04   1.988759e+04
  -3.895257e+04  -7.435925e+03
  -8.656936e+03  -3.840843e+04
   2.624217e+04  -3.902039e+04
   3.195839e+04  -1.248890e+04
   1.620546e+04   1.524657e+04
  -6.735776e+01   2.881539e+04
  -1.572124e+04   2.411029e+04
  -2.994211e+04  -4.958628e+02
  -2.281781e+04  -3.132737e+04
   1.245709e+04  -3.784384e+04
   4.190304e+04  -9.307922e+03
   3.043061e+04   2.196033e+04
  -5.608766e+03   1.998746e+04
  -1.973131e+04  -4.395986e+03
  -2.843493e+02  -1.095680e+04
   1.967264e+04   1.025149e+04
   1.436996e+04   2.847086e+04
  -5.659228e+03   2.118800e+04
  -1.979529e+04   1.961333e+03
  -2.280040e+04  -8.346309e+03
  -1.621218e+04  -1.024168e+04
  -1.801286e+02  -1.170933e+04
   1.527404e+04  -8.317763e+03
   1.292263e+04   4.373254e+03
  -5.554941e+03   1.398261e+04
  -1.545614e+04   6.602392e+03
  -3.902314e+03  -9.504554e+03
   9.697854e+03  -1.346551e+04
   3.588199e+03  -1.549912e+03
  -1.261132e+04   8.128373e+03
  -1.360853e+04   1.250993e+03
   3.761503e+03  -1.405593e+04
   1.908241e+04  -1.776985e+04
   1.834166e+04  -1.571593e+03
   6.371848e+03   2.050792e+04
  -7.056208e+03   2.469260e+04
  -1.569789e+04   3.449268e+03
  -1.301065e+04  -2.173465e+04
   2.671447e+03  -2.166982e+04
   1.796675e+04   4.332711e+03
   1.524323e+04   2.509432e+04
  -3.413769e+03   1.699214e+04
  -1.671600e+04  -6.130849e+03
  -1.185369e+04  -1.472831e+04
   1.300175e+03  -3.690962e+03
   7.218260e+03   7.205545e+03
   2.974395e+03   5.950172e+03
  -5.101655e+03  -1.067794e+02
  -1.025759e+04  -4.250212e+03
