
 $NMID
 id='ANONYMOUS ', fmtdat='(2E16.6)'
 volume=1.0
 tramp=1.0
 $END
  -1.143206e+07   8.424805e+04
  -7.302194e+06  -6.426311e+06
   9.216984e+05  -7.665601e+06
   5.521428e+06  -3.747001e+06
   3.807943e+06   8.191279e+05
  -3.832689e+05   2.187438e+06
  -2.338565e+06   3.356855e+05
  -1.151553e+06  -2.070422e+06
   1.045873e+06  -2.589710e+06
   2.175180e+06  -8.399569e+05
   1.639511e+06   1.486036e+06
   9.991844e+04   2.150864e+06
  -1.069083e+06   5.374204e+05
  -7.435836e+05  -1.566979e+06
   7.515421e+05  -1.817106e+06
   1.759948e+06   8.428481e+04
   1.073439e+06   2.167549e+06
  -7.457440e+05   2.519302e+06
  -2.126134e+06   1.135958e+06
  -2.143236e+06  -6.092599e+05
  -1.109046e+06  -1.568970e+06
   1.690654e+04  -1.542301e+06
   4.065578e+05  -1.014240e+06
  -4.234638e+04  -6.800485e+05
  -4.878282e+05  -9.017054e+05
   1.037428e+05  -1.269903e+06
   1.588966e+06  -9.741780e+05
   2.465860e+06   1.307597e+05
   1.600071e+06   1.164468e+06
  -2.346198e+05   1.225715e+06
  -1.206452e+06   4.347223e+05
  -6.014436e+05  -3.415501e+05
   5.570903e+05  -4.782255e+05
   9.882785e+05   2.383727e+04
   5.084432e+05   7.702857e+05
  -2.196125e+05   1.160279e+06
  -6.090970e+05   7.023997e+05
  -5.024809e+05  -3.180283e+05
  -9.286123e+04  -8.002000e+05
   1.587526e+05  -1.091317e+05
  -1.231165e+05   8.453556e+05
  -6.596620e+05   6.276618e+05
  -6.387211e+05  -6.748083e+05
   2.521657e+05  -1.360617e+06
   1.196760e+06  -3.593640e+05
   1.074489e+06   1.279357e+06
  -2.019416e+05   1.715537e+06
  -1.519551e+06   5.492201e+05
  -1.704417e+06  -9.451984e+05
  -6.105064e+05  -1.452953e+06
   8.335872e+05  -8.133068e+05
   1.443454e+06   2.374756e+05
   7.637115e+05   8.627821e+05
  -4.993640e+05   6.545923e+05
  -1.099957e+06  -1.083722e+05
  -5.384606e+05  -6.287600e+05
   3.784429e+05  -3.773547e+05
   5.222106e+05   2.522321e+05
  -1.624774e+05   4.102491e+05
  -6.528855e+05  -1.078863e+05
  -2.095626e+05  -6.353989e+05
   7.231920e+05  -5.398879e+05
   1.133856e+06   9.091678e+04
   5.863072e+05   7.720609e+05
  -4.871724e+05   1.154548e+06
  -1.343367e+06   1.024449e+06
  -1.495804e+06   2.539469e+05
  -9.331635e+05  -8.519844e+05
  -9.748632e+04  -1.506953e+06
   4.180340e+05  -1.222303e+06
   3.938267e+05  -4.645088e+05
   1.900975e+05  -9.397087e+04
   2.756301e+05  -2.564435e+05
   6.273816e+05  -3.038680e+05
   7.859034e+05   1.773546e+05
   4.509109e+05   7.458258e+05
  -1.754846e+05   7.080928e+05
  -6.165951e+05   1.070393e+04
  -5.266588e+05  -7.219558e+05
   7.952273e+04  -8.683255e+05
   7.974005e+05  -3.382517e+05
   1.060283e+06   4.496346e+05
   6.324901e+05   9.451708e+05
  -9.038624e+04   8.937939e+05
  -4.830362e+05   5.195398e+05
  -4.278491e+05   2.530932e+05
  -4.076427e+05   2.365879e+05
  -7.683142e+05   1.925403e+05
  -1.158337e+06  -1.694941e+05
  -9.412938e+05  -7.492710e+05
  -3.156868e+04  -1.148259e+06
   9.307435e+05  -1.058893e+06
   1.227441e+06  -4.929339e+05
   7.332241e+05   2.362365e+05
  -3.781417e+04   6.655236e+05
  -4.249651e+05   4.980405e+05
  -1.799717e+05  -5.185882e+04
   3.419752e+05  -3.684118e+05
   5.459998e+05  -1.080089e+05
   2.269782e+05   3.440497e+05
  -2.058161e+05   3.532740e+05
  -2.206160e+05  -9.229918e+04
   1.959783e+05  -3.259826e+05
   5.380396e+05   1.116287e+05
   3.762911e+05   8.398803e+05
  -2.161912e+05   1.083185e+06
  -8.183498e+05   5.556895e+05
  -1.047099e+06  -3.032599e+05
  -7.680423e+05  -8.552132e+05
  -1.469182e+05  -8.233708e+05
   3.975401e+05  -4.023474e+05
   4.775501e+05  -1.630728e+04
   1.423094e+05   2.657312e+04
  -1.138919e+05  -2.129656e+05
   8.347886e+04  -3.696622e+05
   5.043239e+05  -1.765844e+05
   5.868501e+05   2.122234e+05
   1.588379e+05   3.986553e+05
  -3.244451e+05   2.140304e+05
  -3.183140e+05  -1.053688e+05
   1.848172e+05  -2.114802e+05
   6.566018e+05   8.723583e+03
   5.860509e+05   3.843604e+05
  -2.725385e+04   6.254748e+05
  -6.779651e+05   5.129483e+05
  -8.138765e+05   7.384773e+04
  -3.462218e+05  -3.606542e+05
   2.564581e+05  -4.056876e+05
   4.221588e+05  -4.356840e+04
   4.628039e+04   2.980560e+05
  -4.291723e+05   2.119731e+05
  -5.076079e+05  -2.085609e+05
  -1.380677e+05  -4.889103e+05
   2.954752e+05  -3.397572e+05
   3.997668e+05   3.727812e+04
   1.339002e+05   2.258910e+05
  -1.898753e+05   5.560308e+04
  -2.062140e+05  -2.630703e+05
   1.530868e+05  -3.811049e+05
   5.541213e+05  -1.361102e+05
   5.601512e+05   3.063835e+05
   1.008970e+05   5.864464e+05
  -4.101881e+05   4.662652e+05
  -5.071507e+05   6.138555e+04
  -1.732188e+05  -2.647762e+05
   1.848064e+05  -2.631507e+05
   2.258613e+05  -2.871966e+04
   1.056622e+04   1.487010e+05
  -1.588123e+05   1.147389e+05
  -1.053212e+05  -1.555731e+04
   7.466654e+04  -2.802693e+04
   1.474014e+05   1.377119e+05
  -3.244542e+04   3.101453e+05
  -3.722862e+05   2.451022e+05
  -5.754613e+05  -1.193034e+05
  -3.953109e+05  -5.499426e+05
   8.496359e+04  -6.961406e+05
   4.872532e+05  -4.249978e+05
   5.212074e+05   3.347546e+04
   2.800189e+05   3.145431e+05
   8.203187e+04   2.802098e+05
   7.575211e+04   1.130351e+05
   1.137986e+05   6.380035e+04
   2.802862e+03   1.680990e+05
  -2.385427e+05   2.369712e+05
  -4.029875e+05   9.178503e+04
  -3.023912e+05  -2.204576e+05
   6.662594e+04  -4.368433e+05
   4.883801e+05  -3.082220e+05
   6.397885e+05   1.435643e+05
   3.370824e+05   5.899388e+05
  -2.525643e+05   6.654095e+05
  -6.997635e+05   3.124397e+05
  -6.943788e+05  -1.614530e+05
  -3.290115e+05  -3.962267e+05
   3.646477e+04  -3.261692e+05
   1.575117e+05  -1.857308e+05
   9.727685e+04  -1.991371e+05
   7.180570e+04  -3.259853e+05
   1.878173e+05  -3.317806e+05
   3.477606e+05  -7.306417e+04
   3.620182e+05   3.203184e+05
   1.401946e+05   5.459201e+05
  -1.931150e+05   4.072424e+05
  -3.735987e+05   3.991120e+03
  -2.396646e+05  -3.479266e+05
   8.472888e+04  -3.948572e+05
   2.961607e+05  -1.552635e+05
   2.255462e+05   1.363157e+05
   6.840313e+03   2.709883e+05
  -9.808257e+04   2.329254e+05
  -6.985991e+03   1.472444e+05
   9.961362e+04   1.123259e+05
  -6.831513e+02   1.091713e+05
  -3.028349e+05   5.302806e+04
  -5.437851e+05  -9.748897e+04
  -4.491727e+05  -2.830093e+05
  -2.411122e+04  -3.804362e+05
   4.110332e+05  -3.045451e+05
   5.129930e+05  -9.466770e+04
   2.557566e+05   9.833027e+04
  -5.710012e+04   1.361518e+05
  -1.324697e+05   2.458399e+04
   1.580776e+04  -8.550722e+04
   1.500510e+05  -5.008291e+04
   1.236243e+05   1.086041e+05
   1.857729e+04   2.150759e+05
  -1.523587e+04   1.367018e+05
   4.641626e+04  -4.523950e+04
   1.063542e+05  -1.063420e+05
   7.144915e+04   5.662203e+04
  -7.209234e+04   2.744278e+05
  -2.517954e+05   2.783252e+05
  -3.282007e+05   1.829453e+04
  -1.837298e+05  -2.585725e+05
   1.232185e+05  -2.791810e+05
   3.274299e+05  -4.539588e+04
   1.915959e+05   1.841904e+05
  -2.003325e+05   1.829752e+05
  -4.691831e+05  -3.053206e+04
  -3.235190e+05  -2.540731e+05
   1.189569e+05  -3.082374e+05
   4.476869e+05  -1.686137e+05
   3.846609e+05   4.352811e+04
   5.151131e+04   1.591884e+05
  -1.853948e+05   9.204259e+04
  -9.887326e+04  -7.099694e+04
   1.834285e+05  -1.228719e+05
   3.278995e+05   6.059445e+04
   1.423613e+05   3.533543e+05
  -2.285948e+05   4.591164e+05
  -4.533914e+05   2.041795e+05
  -3.452258e+05  -2.505649e+05
  -2.503050e+04  -5.254348e+05
   2.339460e+05  -3.805982e+05
   2.722646e+05   3.969724e+04
   1.345727e+05   3.455012e+05
  -4.183075e+04   2.969361e+05
  -1.510374e+05   3.425276e+04
  -1.519466e+05  -1.196985e+05
  -7.217757e+04  -5.135099e+04
  -7.636313e+03   3.768670e+04
  -4.305740e+04  -6.430723e+04
  -1.235571e+05  -2.753956e+05
  -7.339123e+04  -3.254278e+05
   1.762161e+05  -1.166896e+05
   4.248651e+05   1.555988e+05
   3.865160e+05   2.623504e+05
   4.685450e+04   1.962188e+05
  -2.768453e+05   1.007893e+05
  -2.958523e+05   4.725127e+04
  -8.260632e+04  -2.322654e+03
   5.625833e+04  -6.046403e+04
  -1.206811e+04  -7.804474e+04
  -1.025440e+05  -4.941477e+04
  -1.289620e+03  -3.539365e+04
   2.228782e+05  -4.077463e+04
   2.933969e+05   2.579510e+04
   6.839168e+04   1.921876e+05
  -2.863667e+05   3.021578e+05
  -4.741285e+05   1.701760e+05
  -3.548777e+05  -1.587709e+05
  -4.231159e+04  -4.096121e+05
   2.297801e+05  -3.697971e+05
   3.014100e+05  -1.160466e+05
   1.841257e+05   9.159258e+04
   2.096677e+04   9.935674e+04
  -4.362705e+04  -4.021390e+03
   1.595902e+04  -2.534056e+04
   9.577103e+04   1.009234e+05
   7.317030e+04   2.351641e+05
  -6.434234e+04   1.858712e+05
  -1.964829e+05  -6.330737e+04
  -1.781525e+05  -3.005318e+05
   1.485769e+04  -2.905637e+05
   2.342288e+05  -2.864834e+04
   2.713971e+05   2.486808e+05
   6.210371e+04   3.129383e+05
  -2.164419e+05   1.587589e+05
  -3.013150e+05  -4.573185e+04
  -1.278365e+05  -1.592781e+05
   8.500043e+04  -1.616001e+05
   8.723550e+04  -9.752830e+04
  -9.523054e+04  -2.296371e+04
  -1.909481e+05  -5.618476e+03
  -2.744608e+04  -8.381251e+04
   2.478374e+05  -1.841337e+05
   3.496445e+05  -1.566520e+05
   1.921760e+05   3.977219e+04
  -4.316889e+04   2.369449e+05
  -1.482095e+05   2.277400e+05
  -9.532880e+04   2.315944e+04
   8.817337e+03  -1.464322e+05
   7.867433e+04  -1.045310e+05
   9.566655e+04   7.183636e+04
   5.858198e+04   1.693509e+05
  -2.569340e+04   9.888512e+04
  -1.088978e+05  -2.931959e+04
  -1.257731e+05  -7.112294e+04
  -6.931487e+04  -1.774061e+04
  -1.336802e+03   2.330973e+04
   2.794724e+04  -2.385254e+04
   3.670761e+04  -1.117167e+05
   6.601888e+04  -1.246771e+05
   1.041062e+05  -1.237237e+04
   8.962755e+04   1.399715e+05
  -8.563336e+03   1.854375e+05
  -1.320296e+05   6.895891e+04
  -1.662403e+05  -1.045341e+05
  -4.887219e+04  -1.748827e+05
   1.431730e+05  -9.247179e+04
   2.348867e+05   4.511990e+04
   1.233905e+05   1.156302e+05
  -8.847825e+04   9.243983e+04
  -1.782150e+05   3.382436e+04
  -5.396170e+04  -1.409683e+03
   1.234899e+05   7.335247e+03
   1.229484e+05   5.255825e+04
  -7.566677e+04   9.378812e+04
  -2.515033e+05   5.931386e+04
