
 $NMID
 id='ANONYMOUS ', fmtdat='(2E16.6)'
 volume=1.0
 tramp=1.0
 $END
  -2.193845e+07  -1.233105e+06
  -1.439568e+07  -1.001918e+07
  -7.669219e+04  -1.346370e+07
   9.420023e+06  -9.792623e+06
   8.365087e+06  -1.749844e+06
   8.961051e+05   4.013002e+06
  -4.655119e+06   2.610908e+06
  -3.938835e+06  -3.499181e+06
   7.650143e+05  -6.766874e+06
   4.303612e+06  -3.172765e+06
   3.752513e+06   3.156918e+06
   3.283991e+05   5.097516e+06
  -2.404032e+06   8.582461e+05
  -1.848171e+06  -4.479712e+06
   1.361045e+06  -5.121200e+06
   3.899046e+06  -5.842751e+05
   2.895656e+06   4.564846e+06
  -1.086478e+06   5.745177e+06
  -4.455704e+06   2.518240e+06
  -4.291924e+06  -1.682355e+06
  -1.404040e+06  -3.317024e+06
   7.203159e+05  -2.137468e+06
  -1.058975e+05  -8.912469e+05
  -2.346297e+06  -1.813381e+06
  -2.506199e+06  -3.968491e+06
   8.962262e+05  -4.513405e+06
   5.390187e+06  -2.159620e+06
   6.765962e+06   1.396689e+06
   3.385834e+06   3.395328e+06
  -1.798889e+06   2.606390e+06
  -3.961846e+06   7.538108e+03
  -1.351411e+06  -2.241304e+06
   2.892377e+06  -2.239959e+06
   4.278702e+06   2.727097e+05
   1.851411e+06   3.273310e+06
  -1.262390e+06   3.876792e+06
  -1.916797e+06   1.354261e+06
  -3.327897e+05  -1.610967e+06
   9.768673e+05  -1.695839e+06
   5.202782e+05   1.087915e+06
  -9.585104e+05   3.264975e+06
  -1.955831e+06   2.083556e+06
  -1.699413e+06  -1.146633e+06
  -3.156556e+05  -2.701809e+06
   1.320057e+06  -8.796049e+05
   1.705890e+06   2.191645e+06
  -1.701226e+05   3.150047e+06
  -3.190409e+06   9.895125e+05
  -4.439656e+06  -2.237914e+06
  -2.160681e+06  -3.740173e+06
   1.924921e+06  -2.535130e+06
   4.131922e+06   3.413128e+04
   2.679345e+06   1.782615e+06
  -5.837848e+05   1.580693e+06
  -2.395537e+06   1.040787e+05
  -1.448328e+06  -1.014868e+06
   6.817653e+05  -7.532998e+05
   1.531198e+06   4.553254e+05
   3.132023e+05   1.287598e+06
  -1.404996e+06   8.614627e+05
  -1.449487e+06  -4.309496e+05
   4.915184e+05  -1.274496e+06
   2.289312e+06  -6.143852e+05
   1.596672e+06   1.303910e+06
  -1.421926e+06   2.937100e+06
  -4.100669e+06   2.659523e+06
  -4.160836e+06   2.795850e+05
  -2.043007e+06  -2.609618e+06
   4.091989e+03  -4.017187e+06
   6.315700e+05  -3.411451e+06
   4.958500e+05  -2.041633e+06
   8.725836e+05  -1.317756e+06
   1.974351e+06  -1.161079e+06
   2.880693e+06  -3.653614e+05
   2.623306e+06   1.474498e+06
   1.042305e+06   2.986643e+06
  -1.064648e+06   2.426971e+06
  -2.335133e+06  -1.335516e+05
  -1.735747e+06  -2.552095e+06
   4.320382e+05  -2.722562e+06
   2.488262e+06  -6.617671e+05
   2.782587e+06   1.705419e+06
   1.288156e+06   2.608948e+06
  -4.470363e+05   1.973580e+06
  -1.045527e+06   1.015009e+06
  -7.629441e+05   7.259891e+05
  -9.780114e+05   9.612547e+05
  -2.315163e+06   8.112911e+05
  -3.605190e+06  -3.665782e+05
  -2.998343e+06  -2.237483e+06
  -1.353649e+05  -3.618783e+06
   3.052867e+06  -3.362953e+06
   4.032738e+06  -1.385952e+06
   2.206399e+06   1.037127e+06
  -4.686867e+05   2.185297e+06
  -1.524220e+06   1.396664e+06
  -4.319933e+05  -2.656061e+05
   1.184302e+06  -1.029666e+06
   1.542893e+06  -2.348105e+05
   4.879952e+05   9.796103e+05
  -6.917519e+05   1.003660e+06
  -7.624972e+05  -2.821670e+05
   3.500304e+05  -1.213140e+06
   1.615507e+06  -2.298751e+05
   1.740129e+06   2.144420e+06
   1.860015e+05   3.618663e+06
  -2.214774e+06   2.525683e+06
  -3.687401e+06  -3.775405e+05
  -2.986649e+06  -2.702922e+06
  -6.642076e+05  -2.847744e+06
   1.336911e+06  -1.365160e+06
   1.564362e+06  -3.433401e+04
   4.487898e+05   5.313311e+04
  -3.281137e+05  -6.697245e+05
   2.410020e+05  -1.041605e+06
   1.424752e+06  -4.741783e+05
   1.678180e+06   5.503773e+05
   4.762067e+05   1.064849e+06
  -9.849968e+05   5.910882e+05
  -1.029493e+06  -3.872153e+05
   6.040584e+05  -8.442494e+05
   2.298415e+06  -1.603684e+05
   2.161121e+06   1.240854e+06
   5.361861e+04   2.187448e+06
  -2.181677e+06   1.792362e+06
  -2.592728e+06   3.103285e+05
  -1.057920e+06  -1.024153e+06
   7.471930e+05  -1.120890e+06
   1.147710e+06  -9.412569e+04
   2.374412e+04   8.346483e+05
  -1.326171e+06   5.929325e+05
  -1.571659e+06  -5.991880e+05
  -5.308310e+05  -1.472730e+06
   7.971523e+05  -1.123103e+06
   1.212103e+06  -7.332316e+03
   4.409080e+05   6.097221e+05
  -5.726996e+05   8.814785e+04
  -5.858822e+05  -9.204574e+05
   6.089371e+05  -1.232762e+06
   1.850516e+06  -3.682163e+05
   1.779769e+06   1.030024e+06
   3.134630e+05   1.845165e+06
  -1.234413e+06   1.466445e+06
  -1.530513e+06   2.669554e+05
  -5.497001e+05  -7.404179e+05
   5.503168e+05  -7.894769e+05
   7.186637e+05  -4.999020e+04
   9.073795e+03   5.783282e+05
  -6.524276e+05   4.465262e+05
  -5.228540e+05  -1.298629e+05
   1.948284e+05  -2.808425e+05
   5.877306e+05   3.287543e+05
   4.772699e+03   1.027931e+06
  -1.192531e+06   8.559478e+05
  -1.888497e+06  -3.639818e+05
  -1.293591e+06  -1.775252e+06
   2.379398e+05  -2.268006e+06
   1.533940e+06  -1.463617e+06
   1.742252e+06  -1.002593e+04
   1.067064e+06   1.013381e+06
   3.748876e+05   1.042216e+06
   2.058078e+05   4.801479e+05
   2.945554e+05   1.946652e+05
   3.227576e+04   5.211955e+05
  -7.263586e+05   8.651702e+05
  -1.388215e+06   4.286588e+05
  -1.159652e+06  -7.282330e+05
   1.146060e+05  -1.570231e+06
   1.622263e+06  -1.131337e+06
   2.155437e+06   4.264493e+05
   1.151705e+06   1.898382e+06
  -7.454488e+05   2.143509e+06
  -2.188107e+06   1.068150e+06
  -2.260372e+06  -4.042334e+05
  -1.185174e+06  -1.232176e+06
   2.632742e+04  -1.142531e+06
   5.596176e+05  -7.186572e+05
   4.388386e+05  -6.600061e+05
   2.906217e+05  -9.804552e+05
   5.755403e+05  -1.008430e+06
   1.081486e+06  -2.177608e+05
   1.159041e+06   1.039231e+06
   4.508248e+05   1.767616e+06
  -6.295392e+05   1.313002e+06
  -1.206831e+06   2.314103e+04
  -7.902861e+05  -1.088426e+06
   2.096462e+05  -1.260876e+06
   8.770417e+05  -5.589754e+05
   7.108684e+05   3.407919e+05
   8.656326e+04   8.120107e+05
  -2.316990e+05   7.488545e+05
   2.694059e+04   4.927867e+05
   3.416370e+05   3.778748e+05
   1.441901e+04   3.794273e+05
  -9.651390e+05   2.099487e+05
  -1.758785e+06  -2.835166e+05
  -1.468636e+06  -8.860904e+05
  -1.098816e+05  -1.190917e+06
   1.282250e+06  -9.655490e+05
   1.618385e+06  -3.493595e+05
   8.221023e+05   2.424074e+05
  -1.600698e+05   4.135985e+05
  -4.109807e+05   1.147989e+05
   4.902575e+04  -2.533642e+05
   4.866791e+05  -1.888792e+05
   4.099543e+05   3.299509e+05
   5.144249e+04   7.199548e+05
  -7.812635e+04   4.551585e+05
   1.479336e+05  -1.997949e+05
   3.919870e+05  -4.067385e+05
   2.811149e+05   2.012081e+05
  -2.332357e+05   9.642274e+05
  -8.427807e+05   9.331571e+05
  -1.064074e+06   2.270972e+04
  -5.713906e+05  -8.679191e+05
   4.074167e+05  -8.866063e+05
   1.055549e+06  -1.237614e+05
   6.391868e+05   5.992438e+05
  -6.192952e+05   6.195228e+05
  -1.543000e+06  -2.622479e+04
  -1.137514e+06  -7.755309e+05
   3.046568e+05  -1.046883e+06
   1.445523e+06  -6.507504e+05
   1.292744e+06   7.778414e+04
   2.011595e+05   5.201625e+05
  -5.888434e+05   3.176223e+05
  -2.973968e+05  -2.283287e+05
   6.321373e+05  -3.911168e+05
   1.080711e+06   2.263245e+05
   4.450997e+05   1.177645e+06
  -7.683890e+05   1.505829e+06
  -1.490681e+06   6.740274e+05
  -1.144528e+06  -8.049294e+05
  -1.178315e+05  -1.722986e+06
   7.333620e+05  -1.282956e+06
   8.965749e+05   8.785253e+04
   4.828352e+05   1.118779e+06
  -9.564599e+04   9.850708e+05
  -4.906745e+05   1.234365e+05
  -5.283601e+05  -3.913731e+05
  -2.600509e+05  -1.699023e+05
  -6.271763e+03   1.233122e+05
  -9.877622e+04  -2.080468e+05
  -3.959183e+05  -8.899638e+05
  -2.846859e+05  -1.047120e+06
   5.316354e+05  -3.795964e+05
   1.400182e+06   4.815036e+05
   1.309768e+06   8.236054e+05
   1.713028e+05   6.367782e+05
  -9.241566e+05   3.578356e+05
  -9.736472e+05   1.859158e+05
  -2.474733e+05   5.772094e+03
   1.858539e+05  -1.964059e+05
  -8.721430e+04  -2.572886e+05
  -3.809309e+05  -1.717592e+05
   9.925911e+03  -1.345914e+05
   7.742175e+05  -1.456678e+05
   9.643693e+05   8.977088e+04
   1.828978e+05   6.412876e+05
  -9.609051e+05   9.907706e+05
  -1.531296e+06   5.460167e+05
  -1.140144e+06  -5.340565e+05
  -1.496545e+05  -1.351984e+06
   7.374056e+05  -1.214976e+06
   1.001562e+06  -3.723237e+05
   6.234112e+05   3.179223e+05
   5.395240e+04   3.384245e+05
  -1.818028e+05  -1.914051e+04
   3.496298e+04  -1.017277e+05
   3.282888e+05   3.173013e+05
   2.519251e+05   7.667265e+05
  -2.218537e+05   6.008069e+05
  -6.577958e+05  -2.287588e+05
  -5.753942e+05  -1.006778e+06
   7.530978e+04  -9.561666e+05
   7.909108e+05  -7.882511e+04
   8.969204e+05   8.315153e+05
   1.976727e+05   1.028203e+06
  -7.168251e+05   5.118301e+05
  -9.827722e+05  -1.541062e+05
  -4.010646e+05  -5.122320e+05
   2.892436e+05  -5.105742e+05
   2.703205e+05  -3.018451e+05
  -3.414039e+05  -6.272739e+04
  -6.389085e+05  -9.855182e+03
  -8.553512e+04  -2.731914e+05
   8.024216e+05  -6.150783e+05
   1.108248e+06  -5.347894e+05
   5.961222e+05   1.118716e+05
  -1.380245e+05   7.654861e+05
  -4.578124e+05   7.323257e+05
  -2.953854e+05   5.335571e+04
   2.968090e+04  -4.961349e+05
   2.640965e+05  -3.369759e+05
   3.288146e+05   2.515486e+05
   1.960231e+05   5.556580e+05
  -9.504454e+04   3.074796e+05
  -3.594554e+05  -1.028473e+05
  -3.980703e+05  -2.154693e+05
  -2.217526e+05  -3.973016e+04
  -2.421312e+04   6.463452e+04
   7.437050e+04  -1.155522e+05
   1.421126e+05  -3.943276e+05
   2.659711e+05  -4.036853e+05
   3.703459e+05  -9.670375e+03
   2.798226e+05   4.933192e+05
  -5.868354e+04   6.286257e+05
  -4.469740e+05   2.260110e+05
  -5.423432e+05  -3.585812e+05
  -1.594050e+05  -5.884195e+05
   4.626682e+05  -3.032635e+05
   7.635778e+05   1.571773e+05
   4.007507e+05   3.787366e+05
  -2.939413e+05   2.864578e+05
  -5.821553e+05   9.201962e+04
  -1.580106e+05  -1.052628e+04
   4.351302e+05   3.233619e+04
   4.205890e+05   1.894938e+05
  -2.599510e+05   3.299448e+05
  -8.539150e+05   2.136474e+05
