
 $NMID
 id='ANONYMOUS ', fmtdat='(2E16.6)'
 volume=1.0
 tramp=1.0
 $END
   3.321994e+07   1.044799e+06
   2.046853e+07   1.852348e+07
  -2.778323e+06   2.152990e+07
  -1.545499e+07   1.097808e+07
  -1.079592e+07  -1.433510e+06
   6.554421e+05  -5.676157e+06
   6.247295e+06  -1.133735e+06
   3.334347e+06   5.541128e+06
  -2.642565e+06   7.367053e+06
  -5.994434e+06   2.604773e+06
  -4.730033e+06  -4.129876e+06
  -4.683964e+05  -6.143542e+06
   2.891004e+06  -1.476992e+06
   2.063977e+06   4.659355e+06
  -2.148551e+06   5.417710e+06
  -5.126900e+06  -1.357810e+05
  -3.292669e+06  -6.379250e+06
   2.028806e+06  -7.632392e+06
   6.295909e+06  -3.573465e+06
   6.422156e+06   1.800562e+06
   3.151234e+06   4.707419e+06
  -2.605507e+05   4.359538e+06
  -1.007193e+06   2.632469e+06
   7.916735e+05   1.997642e+06
   1.968402e+06   3.163984e+06
  -4.341303e+05   4.252485e+06
  -5.217824e+06   2.893431e+06
  -7.568082e+06  -6.836259e+05
  -4.553676e+06  -3.557202e+06
   1.034898e+06  -3.405352e+06
   3.767312e+06  -9.253092e+05
   1.733310e+06   1.379776e+06
  -1.964795e+06   1.745702e+06
  -3.437350e+06   4.864405e+04
  -1.942717e+06  -2.504897e+06
   5.133206e+05  -3.783426e+06
   1.827317e+06  -2.190572e+06
   1.358245e+06   1.056587e+06
  -1.567379e+04   2.349042e+06
  -6.302590e+05   4.713786e+03
   4.435496e+05  -2.886909e+06
   2.054767e+06  -2.092326e+06
   1.883169e+06   1.822942e+06
  -6.813645e+05   3.776367e+06
  -3.241122e+06   8.401112e+05
  -2.798807e+06  -3.802249e+06
   8.177696e+05  -4.904346e+06
   4.572531e+06  -1.423828e+06
   5.150510e+06   2.940688e+06
   1.967588e+06   4.398304e+06
  -2.391778e+06   2.499582e+06
  -4.366416e+06  -5.497905e+05
  -2.484241e+06  -2.301806e+06
   1.206809e+06  -1.721348e+06
   3.045853e+06   2.739653e+05
   1.556397e+06   1.575674e+06
  -1.025767e+06   9.333997e+05
  -1.545987e+06  -6.359627e+05
   2.616183e+05  -1.094201e+06
   1.698872e+06   8.945566e+04
   6.449444e+05   1.440195e+06
  -1.921970e+06   1.407648e+06
  -3.238268e+06  -1.172777e+05
  -1.770485e+06  -2.192886e+06
   1.515798e+06  -3.651811e+06
   4.285503e+06  -3.341495e+06
   4.741981e+06  -7.817753e+05
   2.867119e+06   2.728247e+06
   3.232512e+05   4.642021e+06
  -1.038924e+06   3.757714e+06
  -9.025153e+05   1.671973e+06
  -5.695691e+05   7.353563e+05
  -1.197563e+06   1.090972e+06
  -2.350733e+06   8.812633e+05
  -2.629007e+06  -8.133388e+05
  -1.379233e+06  -2.523291e+06
   6.331040e+05  -2.265032e+06
   1.988926e+06  -8.706961e+03
   1.675348e+06   2.293014e+06
  -2.550984e+05   2.713880e+06
  -2.510852e+06   9.964690e+05
  -3.294990e+06  -1.472488e+06
  -1.922630e+06  -2.938268e+06
   3.023968e+05  -2.703225e+06
   1.454238e+06  -1.569766e+06
   1.252921e+06  -8.344625e+05
   1.238174e+06  -8.275151e+05
   2.452719e+06  -6.721812e+05
   3.746685e+06   4.848640e+05
   3.076511e+06   2.342639e+06
   1.392051e+05   3.680451e+06
  -2.999690e+06   3.455937e+06
  -3.954249e+06   1.616628e+06
  -2.305378e+06  -7.820551e+05
   1.819852e+05  -2.143153e+06
   1.325734e+06  -1.552253e+06
   4.681815e+05   1.766483e+05
  -1.112240e+06   1.102033e+06
  -1.624197e+06   2.865762e+05
  -6.270007e+05  -1.031864e+06
   6.065330e+05  -1.014919e+06
   6.199993e+05   3.061420e+05
  -5.837499e+05   9.854879e+05
  -1.633048e+06  -3.124369e+05
  -1.289793e+06  -2.532854e+06
   4.347339e+05  -3.407793e+06
   2.446437e+06  -1.940889e+06
   3.422849e+06   7.255482e+05
   2.646565e+06   2.616561e+06
   5.814180e+05   2.666843e+06
  -1.255450e+06   1.363090e+06
  -1.521098e+06   1.080136e+05
  -4.503062e+05  -4.770978e+04
   3.300576e+05   6.779267e+05
  -2.956730e+05   1.115811e+06
  -1.553691e+06   4.960131e+05
  -1.751446e+06  -6.537994e+05
  -4.270025e+05  -1.156435e+06
   1.020910e+06  -5.664078e+05
   9.479010e+05   3.959676e+05
  -6.673636e+05   7.013197e+05
  -2.178395e+06  -8.562425e+03
  -1.945850e+06  -1.231778e+06
   4.753933e+04  -2.036994e+06
   2.151339e+06  -1.691818e+06
   2.574959e+06  -2.935025e+05
   1.082353e+06   1.077874e+06
  -7.871941e+05   1.223946e+06
  -1.261846e+06   1.241971e+05
  -8.666332e+04  -9.001335e+05
   1.354168e+06  -6.286765e+05
   1.575621e+06   6.440315e+05
   4.456785e+05   1.488360e+06
  -8.751411e+05   1.033196e+06
  -1.187049e+06  -1.071320e+05
  -3.550196e+05  -6.507071e+05
   6.371757e+05  -7.276609e+04
   6.253131e+05   9.407153e+05
  -5.755815e+05   1.267810e+06
  -1.851361e+06   4.257955e+05
  -1.821399e+06  -1.001973e+06
  -3.328354e+05  -1.871360e+06
   1.268516e+06  -1.486472e+06
   1.552473e+06  -2.396752e+05
   5.149893e+05   7.625146e+05
  -5.714627e+05   7.701242e+05
  -6.655646e+05   6.053129e+04
   3.385009e+04  -4.800731e+05
   5.695845e+05  -3.500160e+05
   3.618799e+05   9.610564e+04
  -2.760574e+05   1.396194e+05
  -5.410482e+05  -4.406662e+05
   7.067361e+04  -1.051367e+06
   1.221933e+06  -8.456192e+05
   1.900792e+06   3.665034e+05
   1.320131e+06   1.778642e+06
  -2.167202e+05   2.253567e+06
  -1.509905e+06   1.402517e+06
  -1.665996e+06  -3.405938e+04
  -9.605781e+05  -9.322978e+05
  -3.493627e+05  -8.637950e+05
  -3.032644e+05  -3.712758e+05
  -4.067445e+05  -2.342604e+05
  -5.241275e+04  -5.939973e+05
   7.551525e+05  -8.517354e+05
   1.363243e+06  -3.816267e+05
   1.085197e+06   6.970248e+05
  -1.536665e+05   1.478586e+06
  -1.602692e+06   1.078695e+06
  -2.122130e+06  -4.273604e+05
  -1.112883e+06  -1.908666e+06
   8.145685e+05  -2.157315e+06
   2.245535e+06  -1.024073e+06
   2.220568e+06   4.791930e+05
   1.065865e+06   1.226142e+06
  -8.587437e+04   1.032002e+06
  -4.744784e+05   6.228645e+05
  -2.909648e+05   6.787526e+05
  -2.126925e+05   1.072470e+06
  -5.918461e+05   1.080447e+06
  -1.125727e+06   2.494649e+05
  -1.191382e+06  -1.019315e+06
  -4.804393e+05  -1.758030e+06
   6.035998e+05  -1.319514e+06
   1.197453e+06  -1.620714e+04
   7.750057e+05   1.123563e+06
  -2.669973e+05   1.269581e+06
  -9.512340e+05   4.844948e+05
  -7.227808e+05  -4.602517e+05
  -6.376565e+03  -8.811017e+05
   3.348384e+05  -7.350605e+05
   1.300849e+04  -4.474254e+05
  -3.664825e+05  -3.496459e+05
  -3.234734e+04  -3.689719e+05
   1.001410e+06  -2.049815e+05
   1.815987e+06   2.891172e+05
   1.478606e+06   9.100174e+05
   5.327909e+04   1.241842e+06
  -1.353766e+06   1.001256e+06
  -1.644031e+06   3.148655e+05
  -7.984627e+05  -3.256352e+05
   1.925082e+05  -4.576863e+05
   4.339913e+05  -8.148332e+04
  -1.834836e+04   3.083857e+05
  -4.543874e+05   2.108700e+05
  -4.245290e+05  -3.228166e+05
  -1.281988e+05  -6.994225e+05
   8.847701e+03  -4.514126e+05
  -1.372519e+05   1.546789e+05
  -3.344449e+05   3.535849e+05
  -2.707016e+05  -2.049551e+05
   1.872386e+05  -9.432478e+05
   8.343232e+05  -9.561730e+05
   1.143440e+06  -8.118685e+04
   6.620111e+05   8.577387e+05
  -3.959045e+05   9.550263e+05
  -1.099252e+06   2.030067e+05
  -6.568976e+05  -5.681068e+05
   6.285079e+05  -6.117603e+05
   1.509273e+06   4.674743e+04
   1.052244e+06   7.781875e+05
  -3.586609e+05   9.899526e+05
  -1.414605e+06   5.684769e+05
  -1.226957e+06  -1.133087e+05
  -1.708621e+05  -4.995485e+05
   5.914321e+05  -2.901575e+05
   3.214101e+05   2.460450e+05
  -5.930603e+05   4.322067e+05
  -1.087565e+06  -1.589478e+05
  -5.235621e+05  -1.140737e+06
   6.688221e+05  -1.538364e+06
   1.438144e+06  -7.413265e+05
   1.154611e+06   7.559612e+05
   1.539768e+05   1.693713e+06
  -7.068640e+05   1.248327e+06
  -8.779597e+05  -1.165450e+05
  -4.503674e+05  -1.108489e+06
   1.375849e+05  -9.455628e+05
   5.020473e+05  -1.050593e+05
   4.879432e+05   3.702825e+05
   2.140622e+05   1.494637e+05
   2.223159e+04  -1.076292e+05
   1.677591e+05   2.374386e+05
   4.310552e+05   8.906062e+05
   2.414605e+05   1.022934e+06
  -5.859835e+05   3.733869e+05
  -1.385781e+06  -4.539864e+05
  -1.257465e+06  -7.959018e+05
  -1.731347e+05  -6.398732e+05
   8.636988e+05  -3.753853e+05
   9.445801e+05  -1.821696e+05
   2.845785e+05   1.841880e+04
  -1.627202e+05   2.028929e+05
   3.576717e+04   2.256465e+05
   3.223291e+05   1.314405e+05
   1.600580e+04   1.302101e+05
  -7.021999e+05   1.827743e+05
  -9.671798e+05  -5.068246e+04
  -2.824629e+05  -6.424059e+05
   8.763250e+05  -1.040595e+06
   1.548883e+06  -6.205256e+05
   1.217807e+06   4.704378e+05
   2.029553e+05   1.329294e+06
  -7.203877e+05   1.244159e+06
  -9.875121e+05   4.335795e+05
  -6.182266e+05  -2.685027e+05
  -8.712272e+04  -3.359101e+05
   1.299290e+05  -1.947557e+04
  -5.176650e+04   6.235355e+04
  -3.065140e+05  -3.258227e+05
  -2.446884e+05  -7.569149e+05
   1.941630e+05  -6.150315e+05
   6.475975e+05   1.721298e+05
   6.309627e+05   9.474737e+05
   1.283522e+04   9.576882e+05
  -7.487961e+05   1.528317e+05
  -9.305260e+05  -7.519292e+05
  -2.603020e+05  -1.019344e+06
   6.893128e+05  -5.690300e+05
   1.008602e+06   1.107367e+05
   4.449169e+05   5.365865e+05
  -2.771789e+05   5.663941e+05
  -3.068240e+05   3.201460e+05
   2.900016e+05   3.473969e+04
   6.218615e+05  -1.499488e+04
   1.099647e+05   2.788279e+05
  -7.819548e+05   6.251355e+05
  -1.132101e+06   5.227489e+05
  -6.469012e+05  -1.348086e+05
   1.122684e+05  -7.848062e+05
   4.799863e+05  -7.617512e+05
   3.421750e+05  -9.868997e+04
   1.033388e+04   4.724719e+05
  -2.432074e+05   3.695636e+05
  -3.298546e+05  -1.958731e+05
  -2.172585e+05  -5.451498e+05
   7.280986e+04  -3.497203e+05
   3.617565e+05   7.226087e+04
   4.183997e+05   2.348626e+05
   2.226497e+05   6.198486e+04
  -1.627814e+03  -1.003018e+05
  -7.319140e+04   4.268816e+04
  -6.740511e+04   3.650484e+05
  -1.616101e+05   4.570126e+05
  -3.369205e+05   1.030699e+05
  -3.518545e+05  -4.263269e+05
  -4.099521e+04  -6.173395e+05
   4.138671e+05  -2.598085e+05
   5.796263e+05   3.093171e+05
   1.988161e+05   5.611772e+05
  -4.649106e+05   3.221753e+05
  -7.907151e+05  -1.125001e+05
  -4.232725e+05  -3.633856e+05
   2.829835e+05  -3.281209e+05
   5.874896e+05  -1.514382e+05
   1.934603e+05  -2.555999e+03
  -3.817926e+05   1.657774e+04
  -4.023489e+05  -1.247709e+05
   2.079638e+05  -3.036337e+05
   7.742349e+05  -2.377174e+05
