
 $NMID
 id='ANONYMOUS ', fmtdat='(2E16.6)'
 volume=1.0
 tramp=1.0
 $END
   3.497684e+07   4.035800e+05
   2.208562e+07   1.872959e+07
  -2.173370e+06   2.262354e+07
  -1.591125e+07   1.224336e+07
  -1.156111e+07  -9.081679e+05
   3.851708e+05  -6.024869e+06
   6.621227e+06  -1.579400e+06
   3.864034e+06   5.736839e+06
  -2.487086e+06   8.064086e+06
  -6.295976e+06   3.068459e+06
  -5.153171e+06  -4.293932e+06
  -6.343643e+05  -6.589274e+06
   3.071971e+06  -1.603733e+06
   2.338709e+06   5.040188e+06
  -2.132267e+06   5.952576e+06
  -5.466718e+06   6.261123e+04
  -3.705717e+06  -6.684126e+06
   1.926569e+06  -8.170841e+06
   6.581077e+06  -3.925803e+06
   6.804247e+06   1.810566e+06
   3.335240e+06   4.905579e+06
  -2.432527e+05   4.494229e+06
  -8.953464e+05   2.683887e+06
   1.117422e+06   2.153193e+06
   2.297817e+06   3.533480e+06
  -4.430611e+05   4.706737e+06
  -5.679282e+06   3.192434e+06
  -8.208286e+06  -6.734254e+05
  -4.919999e+06  -3.775985e+06
   1.157948e+06  -3.650563e+06
   4.134393e+06  -9.770127e+05
   1.879063e+06   1.587055e+06
  -2.239250e+06   2.020578e+06
  -3.878367e+06   8.534202e+04
  -2.172377e+06  -2.804358e+06
   5.772118e+05  -4.170809e+06
   1.964644e+06  -2.333084e+06
   1.376844e+06   1.198489e+06
  -8.955447e+04   2.488263e+06
  -6.738575e+05  -1.239341e+05
   4.909282e+05  -3.224345e+06
   2.194062e+06  -2.339599e+06
   2.083364e+06   1.868183e+06
  -5.299940e+05   4.018453e+06
  -3.284203e+06   1.003487e+06
  -3.014784e+06  -3.894023e+06
   6.986015e+05  -5.168757e+06
   4.801024e+06  -1.609762e+06
   5.622806e+06   3.016929e+06
   2.282691e+06   4.694367e+06
  -2.506517e+06   2.800269e+06
  -4.771561e+06  -4.378355e+05
  -2.802496e+06  -2.401476e+06
   1.203268e+06  -1.897415e+06
   3.262062e+06   1.817381e+05
   1.728945e+06   1.619500e+06
  -1.058759e+06   1.023475e+06
  -1.708032e+06  -6.394229e+05
   1.878547e+05  -1.232517e+06
   1.829003e+06  -6.499088e+04
   8.472343e+05   1.434859e+06
  -1.888774e+06   1.572730e+06
  -3.431566e+06   4.181718e+04
  -1.970050e+06  -2.248605e+06
   1.566971e+06  -3.945406e+06
   4.599718e+06  -3.671227e+06
   5.105846e+06  -8.985520e+05
   3.097379e+06   2.910711e+06
   4.163973e+05   5.001010e+06
  -1.001475e+06   4.099852e+06
  -9.000401e+05   1.903350e+06
  -6.494052e+05   8.949795e+05
  -1.391334e+06   1.230529e+06
  -2.626995e+06   9.497177e+05
  -2.899070e+06  -9.204869e+05
  -1.523198e+06  -2.796774e+06
   7.012315e+05  -2.518251e+06
   2.226185e+06  -3.397332e+04
   1.895460e+06   2.511872e+06
  -2.428386e+05   2.982709e+06
  -2.727787e+06   1.104700e+06
  -3.578616e+06  -1.570961e+06
  -2.091574e+06  -3.134875e+06
   2.885646e+05  -2.875339e+06
   1.504882e+06  -1.682322e+06
   1.290977e+06  -9.302204e+05
   1.305819e+06  -9.534057e+05
   2.657510e+06  -8.103601e+05
   4.101845e+06   4.326191e+05
   3.416323e+06   2.486948e+06
   2.340768e+05   4.025422e+06
  -3.219947e+06   3.844699e+06
  -4.310627e+06   1.830425e+06
  -2.532070e+06  -8.397711e+05
   1.897899e+05  -2.359317e+06
   1.445125e+06  -1.710823e+06
   5.122910e+05   1.950134e+05
  -1.204738e+06   1.223596e+06
  -1.764134e+06   3.436366e+05
  -6.923500e+05  -1.110559e+06
   6.538949e+05  -1.124690e+06
   7.054564e+05   3.193976e+05
  -5.884532e+05   1.124254e+06
  -1.797241e+06  -2.353582e+05
  -1.530959e+06  -2.699586e+06
   3.202739e+05  -3.776456e+06
   2.611219e+06  -2.260355e+06
   3.805775e+06   6.746886e+05
   3.005140e+06   2.823104e+06
   7.073077e+05   2.935916e+06
  -1.357293e+06   1.522952e+06
  -1.671292e+06   1.424864e+05
  -4.946882e+05  -4.300541e+04
   3.767724e+05   7.351581e+05
  -2.922313e+05   1.220755e+06
  -1.676084e+06   5.758932e+05
  -1.926008e+06  -6.645241e+05
  -5.005147e+05  -1.246973e+06
   1.102604e+06  -6.470762e+05
   1.059119e+06   4.124863e+05
  -7.085867e+05   8.030189e+05
  -2.405710e+06   6.080912e+04
  -2.189752e+06  -1.309589e+06
  -5.931841e+03  -2.255206e+06
   2.326213e+06  -1.916403e+06
   2.819936e+06  -3.812286e+05
   1.207880e+06   1.150998e+06
  -8.306948e+05   1.346370e+06
  -1.366079e+06   1.605245e+05
  -1.068629e+05  -9.765495e+05
   1.467518e+06  -7.148966e+05
   1.741939e+06   6.655287e+05
   5.329740e+05   1.620635e+06
  -9.269384e+05   1.164499e+06
  -1.307826e+06  -7.631113e+04
  -4.150485e+05  -7.006857e+05
   6.889538e+05  -9.607374e+04
   7.016537e+05   1.015243e+06
  -6.074626e+05   1.398714e+06
  -2.020888e+06   5.006044e+05
  -2.014412e+06  -1.062069e+06
  -4.041183e+05  -2.041572e+06
   1.353722e+06  -1.655908e+06
   1.694487e+06  -3.009411e+05
   5.862419e+05   8.220369e+05
  -6.070125e+05   8.598390e+05
  -7.355259e+05   7.952716e+04
   2.121774e+04  -5.403577e+05
   6.281721e+05  -4.089604e+05
   4.200939e+05   1.023176e+05
  -2.894558e+05   1.780982e+05
  -6.097203e+05  -4.567200e+05
   4.413527e+04  -1.151875e+06
   1.317577e+06  -9.561075e+05
   2.091323e+06   3.593543e+05
   1.483966e+06   1.920923e+06
  -1.904285e+05   2.478272e+06
  -1.628150e+06   1.579684e+06
  -1.838037e+06   5.233067e+03
  -1.087932e+06  -1.012017e+06
  -4.052027e+05  -9.629776e+05
  -3.278240e+05  -4.143986e+05
  -4.368007e+05  -2.423675e+05
  -6.834877e+04  -6.407380e+05
   8.055054e+05  -9.528612e+05
   1.490117e+06  -4.550595e+05
   1.215464e+06   7.445974e+05
  -1.307502e+05   1.637247e+06
  -1.736541e+06   1.225625e+06
  -2.341403e+06  -4.215070e+05
  -1.268111e+06  -2.067447e+06
   8.364110e+05  -2.382605e+06
   2.432720e+06  -1.178990e+06
   2.451508e+06   4.665544e+05
   1.211813e+06   1.322250e+06
  -6.379793e+04   1.148404e+06
  -5.179653e+05   7.059667e+05
  -3.233202e+05   7.480142e+05
  -2.193627e+05   1.168701e+06
  -6.227642e+05   1.188767e+06
  -1.223241e+06   2.945965e+05
  -1.325030e+06  -1.093999e+06
  -5.620796e+05  -1.918653e+06
   6.360827e+05  -1.459678e+06
   1.314228e+06  -4.523215e+04
   8.770673e+05   1.210546e+06
  -2.571133e+05   1.397408e+06
  -1.023062e+06   5.624659e+05
  -8.017693e+05  -4.730905e+05
  -3.725932e+04  -9.574514e+05
   3.374920e+05  -8.157580e+05
  -7.446882e+02  -4.970457e+05
  -4.064084e+05  -3.789190e+05
  -4.133968e+04  -4.052659e+05
   1.089039e+06  -2.478698e+05
   1.990729e+06   2.757965e+05
   1.640709e+06   9.620763e+05
   9.356077e+04   1.354390e+06
  -1.453098e+06   1.123798e+06
  -1.792884e+06   3.864308e+05
  -8.863013e+05  -3.286287e+05
   1.965874e+05  -5.006063e+05
   4.712782e+05  -1.034473e+05
  -1.706548e+04   3.313413e+05
  -4.977711e+05   2.384102e+05
  -4.708530e+05  -3.454740e+05
  -1.460897e+05  -7.666691e+05
   8.720311e+03  -4.955520e+05
  -1.486183e+05   1.785728e+05
  -3.666487e+05   4.020228e+05
  -3.028906e+05  -2.183100e+05
   1.904118e+05  -1.041325e+06
   8.948561e+05  -1.064277e+06
   1.241798e+06  -1.071082e+05
   7.333142e+05   9.270783e+05
  -4.142705e+05   1.047303e+06
  -1.195162e+06   2.369053e+05
  -7.306874e+05  -6.124717e+05
   6.745363e+05  -6.859724e+05
   1.660815e+06   1.513280e+04
   1.182511e+06   8.300076e+05
  -3.644746e+05   1.101323e+06
  -1.543147e+06   6.655820e+05
  -1.356912e+06  -9.257030e+04
  -2.023865e+05  -5.468790e+05
   6.419772e+05  -3.349619e+05
   3.549054e+05   2.603453e+05
  -6.458289e+05   4.817383e+05
  -1.195247e+06  -1.589315e+05
  -5.892321e+05  -1.244059e+06
   7.122272e+05  -1.697531e+06
   1.567455e+06  -8.360855e+05
   1.281664e+06   8.097895e+05
   2.017266e+05   1.857877e+06
  -7.510762e+05   1.389271e+06
  -9.680358e+05  -1.046218e+05
  -5.227963e+05  -1.207203e+06
   1.245518e+05  -1.045427e+06
   5.468928e+05  -1.288223e+05
   5.486025e+05   3.981615e+05
   2.440264e+05   1.619967e+05
   1.996127e+04  -1.206262e+05
   1.803757e+05   2.526387e+05
   4.879786e+05   9.670161e+05
   2.931066e+05   1.119847e+06
  -6.273291e+05   4.235251e+05
  -1.531755e+06  -4.707493e+05
  -1.403569e+06  -8.487471e+05
  -2.038943e+05  -6.975361e+05
   9.467497e+05  -4.284309e+05
   1.035740e+06  -2.211927e+05
   3.077717e+05   1.059638e+04
  -1.769495e+05   2.252121e+05
   5.085453e+04   2.509701e+05
   3.639639e+05   1.424472e+05
   1.706156e+04   1.429582e+05
  -7.753631e+05   2.110082e+05
  -1.061418e+06  -3.917829e+04
  -3.111049e+05  -6.978272e+05
   9.488605e+05  -1.154001e+06
   1.682440e+06  -7.053493e+05
   1.335784e+06   4.969237e+05
   2.451299e+05   1.456202e+06
  -7.645645e+05   1.376725e+06
  -1.075079e+06   4.894717e+05
  -6.845511e+05  -2.872069e+05
  -9.869229e+04  -3.667138e+05
   1.487094e+05  -1.905088e+04
  -5.332943e+04   7.472763e+04
  -3.462892e+05  -3.495062e+05
  -2.860979e+05  -8.260395e+05
   2.028594e+05  -6.769229e+05
   7.152444e+05   1.818188e+05
   7.056391e+05   1.032695e+06
   2.387419e+04   1.049590e+06
  -8.231049e+05   1.744772e+05
  -1.032643e+06  -8.142705e+05
  -2.999617e+05  -1.113148e+06
   7.467651e+05  -6.318780e+05
   1.105166e+06   1.045968e+05
   4.942732e+05   5.753132e+05
  -2.928050e+05   6.200652e+05
  -3.245967e+05   3.556851e+05
   3.254355e+05   3.546296e+04
   6.838489e+05  -2.698241e+04
   1.236438e+05   3.025494e+05
  -8.463636e+05   7.016332e+05
  -1.226968e+06   6.001457e+05
  -7.059553e+05  -1.303180e+05
   1.089818e+05  -8.606424e+05
   5.065146e+05  -8.423745e+05
   3.668472e+05  -1.100975e+05
   1.654767e+04   5.209133e+05
  -2.611392e+05   4.064213e+05
  -3.658106e+05  -2.147429e+05
  -2.476013e+05  -5.943742e+05
   7.483909e+04  -3.796049e+05
   3.979687e+05   7.519185e+04
   4.615218e+05   2.456973e+05
   2.455285e+05   6.012903e+04
  -7.644137e+02  -1.052423e+05
  -7.971841e+04   5.793589e+04
  -7.564549e+04   4.054418e+05
  -1.805131e+05   4.975365e+05
  -3.712786e+05   1.082523e+05
  -3.857726e+05  -4.682517e+05
  -4.566173e+04  -6.773099e+05
   4.523435e+05  -2.896399e+05
   6.375762e+05   3.326595e+05
   2.253091e+05   6.144855e+05
  -5.023851e+05   3.612340e+05
  -8.660540e+05  -1.115420e+05
  -4.693252e+05  -3.910694e+05
   3.043669e+05  -3.606967e+05
   6.400821e+05  -1.714233e+05
   2.074568e+05  -5.517327e+03
  -4.251609e+05   2.011238e+04
  -4.462167e+05  -1.363992e+05
   2.282045e+05  -3.408935e+05
   8.541770e+05  -2.745286e+05
