
 $NMID
 id='ANONYMOUS ', fmtdat='(2E16.6)'
 volume=1.0
 tramp=1.0
 $END
  -1.530144e+07  -1.657436e+05
  -1.030783e+07  -7.052673e+06
  -1.291174e+05  -9.652533e+06
   6.616283e+06  -6.683654e+06
   5.745865e+06  -8.826028e+05
   4.748829e+05   2.813812e+06
  -3.208437e+06   1.574363e+06
  -2.539816e+06  -2.481788e+06
   6.573634e+05  -4.465531e+06
   2.952426e+06  -2.044506e+06
   2.558351e+06   2.065783e+06
   2.910839e+05   3.358889e+06
  -1.556023e+06   6.476435e+05
  -1.225892e+06  -2.858460e+06
   9.269975e+05  -3.337196e+06
   2.657806e+06  -3.583778e+05
   1.991940e+06   3.090256e+06
  -6.916294e+05   3.927491e+06
  -2.993340e+06   1.830548e+06
  -2.995132e+06  -9.692282e+05
  -1.176620e+06  -2.189915e+06
   2.951050e+05  -1.604384e+06
  -1.903943e+04  -8.212885e+05
  -1.328433e+06  -1.235464e+06
  -1.514786e+06  -2.446134e+06
   5.090414e+05  -2.827568e+06
   3.371766e+06  -1.476680e+06
   4.377587e+06   7.429626e+05
   2.313058e+06   2.116405e+06
  -1.012218e+06   1.726135e+06
  -2.460622e+06   1.177314e+05
  -8.757641e+05  -1.304968e+06
   1.746409e+06  -1.338537e+06
   2.612172e+06   1.556777e+05
   1.168354e+06   1.980136e+06
  -7.031322e+05   2.426722e+06
  -1.165025e+06   9.637271e+05
  -3.125179e+05  -9.127280e+05
   4.735792e+05  -1.117314e+06
   2.999462e+05   5.569689e+05
  -5.531369e+05   2.015723e+06
  -1.247688e+06   1.340970e+06
  -1.137984e+06  -7.945933e+05
  -1.416954e+05  -1.891231e+06
   1.066266e+06  -6.470505e+05
   1.297059e+06   1.531093e+06
  -9.327598e+04   2.244663e+06
  -2.172312e+06   7.572973e+05
  -2.953186e+06  -1.458403e+06
  -1.398559e+06  -2.459575e+06
   1.272457e+06  -1.638426e+06
   2.682053e+06   5.565235e+04
   1.712340e+06   1.193197e+06
  -4.339101e+05   1.051240e+06
  -1.618182e+06   5.900847e+04
  -9.621861e+05  -7.014178e+05
   4.648221e+05  -5.179218e+05
   9.858535e+05   3.048004e+05
   1.268663e+05   8.207657e+05
  -9.681567e+05   4.541402e+05
  -8.735416e+05  -4.242251e+05
   4.714704e+05  -8.936897e+05
   1.599940e+06  -3.572949e+05
   1.082855e+06   9.204827e+05
  -8.707908e+05   1.965160e+06
  -2.589908e+06   1.800496e+06
  -2.694069e+06   2.818108e+05
  -1.414699e+06  -1.629572e+06
  -8.098475e+04  -2.616440e+06
   4.199931e+05  -2.233128e+06
   3.703088e+05  -1.276144e+06
   5.387863e+05  -7.610492e+05
   1.163516e+06  -7.059503e+05
   1.748378e+06  -2.827022e+05
   1.648750e+06   8.501279e+05
   6.948317e+05   1.828573e+06
  -6.253172e+05   1.511362e+06
  -1.440792e+06  -7.516369e+04
  -1.096611e+06  -1.590998e+06
   2.440777e+05  -1.726483e+06
   1.569638e+06  -4.717638e+05
   1.828892e+06   1.023899e+06
   9.208658e+05   1.665728e+06
  -2.260453e+05   1.337778e+06
  -6.839707e+05   7.347813e+05
  -5.350006e+05   5.009605e+05
  -6.553103e+05   6.127571e+05
  -1.493879e+06   5.167154e+05
  -2.320158e+06  -2.252722e+05
  -1.933315e+06  -1.420912e+06
  -1.047713e+05  -2.311545e+06
   1.919695e+06  -2.163784e+06
   2.542774e+06  -9.233686e+05
   1.409412e+06   6.172064e+05
  -2.578513e+05   1.375945e+06
  -9.346216e+05   9.044599e+05
  -2.760428e+05  -1.561405e+05
   7.389450e+05  -6.658180e+05
   9.891160e+05  -1.647253e+05
   3.328989e+05   6.221541e+05
  -4.267420e+05   6.386688e+05
  -4.710687e+05  -1.869966e+05
   2.567422e+05  -7.580597e+05
   1.055528e+06  -8.944356e+04
   1.081882e+06   1.424981e+06
   5.056358e+04   2.306954e+06
  -1.453800e+06   1.559368e+06
  -2.334237e+06  -2.775206e+05
  -1.869200e+06  -1.713634e+06
  -4.171292e+05  -1.793199e+06
   8.358348e+05  -8.711622e+05
   9.873097e+05  -3.507929e+04
   2.857075e+05   3.120075e+04
  -2.122694e+05  -4.264374e+05
   1.527748e+05  -6.759220e+05
   9.202021e+05  -3.159689e+05
   1.084300e+06   3.533400e+05
   3.050782e+05   6.898222e+05
  -6.313917e+05   3.788936e+05
  -6.484944e+05  -2.481366e+05
   3.956605e+05  -5.272197e+05
   1.457550e+06  -8.672601e+04
   1.356298e+06   7.901817e+05
   2.451187e+04   1.380165e+06
  -1.383162e+06   1.137544e+06
  -1.648530e+06   2.055197e+05
  -6.828990e+05  -6.531828e+05
   4.716596e+05  -7.306775e+05
   7.426004e+05  -7.291143e+04
   2.847120e+04   5.366570e+05
  -8.443207e+05   3.884331e+05
  -1.005946e+06  -3.806388e+05
  -3.343356e+05  -9.416286e+05
   5.168896e+05  -7.111245e+05
   7.742460e+05   5.740526e+03
   2.743876e+05   3.959126e+05
  -3.737843e+05   5.969347e+04
  -3.833692e+05  -5.850667e+05
   3.770927e+05  -7.912533e+05
   1.175022e+06  -2.496703e+05
   1.141889e+06   6.433434e+05
   2.108419e+05   1.176213e+06
  -7.832752e+05   9.428948e+05
  -9.771967e+05   1.737758e+05
  -3.493684e+05  -4.737202e+05
   3.512674e+05  -5.035319e+05
   4.509254e+05  -3.293713e+04
  -1.773441e+03   3.594360e+05
  -4.089753e+05   2.722759e+05
  -3.135010e+05  -8.422943e+04
   1.389830e+05  -1.674294e+05
   3.758463e+05   2.218412e+05
   1.217336e+02   6.611024e+05
  -7.597006e+05   5.508528e+05
  -1.206195e+06  -2.232262e+05
  -8.350418e+05  -1.124294e+06
   1.399920e+05  -1.442707e+06
   9.707049e+05  -9.301042e+05
   1.102349e+06  -4.972258e+03
   6.671168e+05   6.359056e+05
   2.315984e+05   6.417409e+05
   1.396545e+05   2.870530e+05
   2.039581e+05   1.218364e+05
   2.918384e+04   3.393283e+05
  -4.623703e+05   5.541858e+05
  -8.813914e+05   2.729834e+05
  -7.318074e+05  -4.579896e+05
   7.463034e+04  -9.916111e+05
   1.028341e+06  -7.209153e+05
   1.370964e+06   2.637226e+05
   7.377378e+05   1.207439e+06
  -4.732939e+05   1.373667e+06
  -1.398196e+06   6.871869e+05
  -1.440199e+06  -2.587963e+05
  -7.454424e+05  -7.847963e+05
   2.434884e+04  -7.174731e+05
   3.477387e+05  -4.446136e+05
   2.580903e+05  -4.173713e+05
   1.671982e+05  -6.328654e+05
   3.607656e+05  -6.540450e+05
   6.916620e+05  -1.492059e+05
   7.455750e+05   6.530545e+05
   2.977321e+05   1.121407e+06
  -3.920624e+05   8.385015e+05
  -7.679116e+05   1.849286e+04
  -5.079371e+05  -6.949448e+05
   1.346200e+05  -8.078523e+05
   5.688234e+05  -3.544752e+05
   4.615839e+05   2.277409e+05
   5.242011e+04   5.290813e+05
  -1.574776e+05   4.814584e+05
   1.215351e+04   3.102222e+05
   2.208531e+05   2.343624e+05
   1.264560e+04   2.393372e+05
  -6.182900e+05   1.392728e+05
  -1.128662e+06  -1.705543e+05
  -9.417390e+05  -5.604178e+05
  -7.081298e+04  -7.672005e+05
   8.194809e+05  -6.284359e+05
   1.034116e+06  -2.264682e+05
   5.259365e+05   1.621686e+05
  -1.018242e+05   2.710437e+05
  -2.656525e+05   7.209846e+04
   2.353961e+04  -1.664686e+05
   3.038877e+05  -1.233343e+05
   2.637871e+05   2.066362e+05
   4.413247e+04   4.517992e+05
  -3.965340e+04   2.862355e+05
   9.419215e+04  -1.219993e+05
   2.436598e+05  -2.517085e+05
   1.792038e+05   1.276810e+05
  -1.394877e+05   6.103961e+05
  -5.304767e+05   6.007092e+05
  -6.844418e+05   3.040978e+04
  -3.782805e+05  -5.444848e+05
   2.507362e+05  -5.742207e+05
   6.729651e+05  -9.525677e+04
   4.102308e+05   3.741473e+05
  -3.931520e+05   3.967295e+05
  -9.796704e+05  -1.412501e+04
  -7.176917e+05  -4.934771e+05
   1.987362e+05  -6.638685e+05
   9.181582e+05  -4.093009e+05
   8.175691e+05   5.148791e+04
   1.256782e+05   3.294704e+05
  -3.754546e+05   2.016303e+05
  -1.942506e+05  -1.451856e+05
   3.942039e+05  -2.549254e+05
   6.868137e+05   1.310055e+05
   2.962069e+05   7.397310e+05
  -4.691938e+05   9.612297e+05
  -9.366513e+05   4.411499e+05
  -7.310677e+05  -5.012199e+05
  -8.539374e+04  -1.091371e+06
   4.600193e+05  -8.147311e+05
   5.706320e+05   5.644032e+04
   3.079823e+05   7.108979e+05
  -6.374151e+04   6.252927e+05
  -3.143894e+05   7.918285e+04
  -3.323326e+05  -2.465277e+05
  -1.597880e+05  -1.070430e+05
  -6.218098e+03   7.743462e+04
  -7.368494e+04  -1.321447e+05
  -2.602640e+05  -5.634354e+05
  -1.793020e+05  -6.649834e+05
   3.438807e+05  -2.460692e+05
   8.906712e+05   2.980308e+05
   8.299959e+05   5.181765e+05
   1.123005e+05   4.050689e+05
  -5.787667e+05   2.309425e+05
  -6.159728e+05   1.207140e+05
  -1.633161e+05   3.756852e+03
   1.144123e+05  -1.254315e+05
  -4.883469e+04  -1.622186e+05
  -2.343016e+05  -1.058542e+05
   2.738644e+03  -8.398134e+04
   4.818702e+05  -9.700695e+04
   6.130038e+05   4.811726e+04
   1.313927e+05   4.026991e+05
  -5.949405e+05   6.368706e+05
  -9.712209e+05   3.643052e+05
  -7.345950e+05  -3.234781e+05
  -1.065007e+05  -8.549244e+05
   4.607757e+05  -7.797413e+05
   6.314673e+05  -2.482726e+05
   3.953691e+05   1.940517e+05
   3.977506e+04   2.133766e+05
  -1.076317e+05  -9.345516e+03
   2.587510e+04  -6.105640e+04
   2.083111e+05   2.028320e+05
   1.624063e+05   4.865119e+05
  -1.346942e+05   3.839776e+05
  -4.158867e+05  -1.365646e+05
  -3.745077e+05  -6.287774e+05
   3.312822e+04  -6.049803e+05
   4.945003e+05  -6.038864e+04
   5.748061e+05   5.143509e+05
   1.374879e+05   6.496960e+05
  -4.480320e+05   3.346205e+05
  -6.275232e+05  -8.727299e+04
  -2.642897e+05  -3.252172e+05
   1.776624e+05  -3.326613e+05
   1.744087e+05  -1.975670e+05
  -2.099780e+05  -3.770392e+04
  -4.036145e+05  -1.323701e+03
  -5.892984e+04  -1.730265e+05
   5.054032e+05  -3.953802e+05
   7.070414e+05  -3.451686e+05
   3.874680e+05   6.883473e+04
  -8.049523e+04   4.891341e+05
  -2.895671e+05   4.731006e+05
  -1.912156e+05   4.318394e+04
   1.311265e+04  -3.111690e+05
   1.625051e+05  -2.186456e+05
   2.077621e+05   1.519652e+05
   1.292978e+05   3.506744e+05
  -5.432561e+04   2.002167e+05
  -2.280852e+05  -6.013466e+04
  -2.579154e+05  -1.368215e+05
  -1.426466e+05  -2.698326e+04
  -1.017128e+04   4.427835e+04
   5.047342e+04  -6.502787e+04
   8.126833e+04  -2.443728e+05
   1.522655e+05  -2.593340e+05
   2.269605e+05  -1.734216e+04
   1.856180e+05   3.011517e+05
  -2.315043e+04   3.941126e+05
  -2.779324e+05   1.482834e+05
  -3.489625e+05  -2.181176e+05
  -1.074756e+05  -3.687433e+05
   2.926477e+05  -1.975840e+05
   4.880049e+05   8.997578e+04
   2.588195e+05   2.364682e+05
  -1.825137e+05   1.881928e+05
  -3.679592e+05   6.857197e+04
  -1.042648e+05  -2.617828e+03
   2.683249e+05   1.556637e+04
   2.631371e+05   1.120030e+05
  -1.592248e+05   2.054016e+05
  -5.320524e+05   1.385609e+05
