
 $NMID
 id='ANONYMOUS ', fmtdat='(2E16.6)'
 volume=1.0
 tramp=1.0
 $END
   4.608826e+07  -1.129250e+06
   2.911166e+07   2.727597e+07
  -4.566000e+06   3.143807e+07
  -2.237737e+07   1.348656e+07
  -1.438276e+07  -4.735202e+06
   2.144436e+06  -7.971474e+06
   8.486309e+06   3.010853e+05
   3.031840e+06   8.126253e+06
  -4.831895e+06   8.484142e+06
  -8.155533e+06   2.238742e+06
  -5.998793e+06  -5.129768e+06
  -7.330867e+05  -7.335419e+06
   3.336279e+06  -2.237542e+06
   2.236313e+06   4.876605e+06
  -3.124246e+06   5.914608e+06
  -6.722730e+06  -7.837474e+05
  -4.042671e+06  -8.458410e+06
   2.841730e+06  -9.994891e+06
   8.247838e+06  -5.083305e+06
   8.853283e+06   1.577547e+06
   5.376664e+06   5.949492e+06
   7.097454e+05   6.780364e+06
  -1.904521e+06   4.883199e+06
  -9.850430e+05   2.639166e+06
   1.065033e+06   2.454591e+06
  -9.733161e+04   3.838014e+06
  -4.930489e+06   3.546491e+06
  -8.302778e+06   1.217218e+05
  -5.842782e+06  -3.576964e+06
   5.271081e+04  -4.100080e+06
   3.343804e+06  -1.820936e+06
   1.913204e+06   3.510366e+05
  -1.090520e+06   8.954832e+05
  -2.411350e+06   1.019998e+05
  -1.788597e+06  -1.673470e+06
  -2.085149e+05  -3.489018e+06
   1.580834e+06  -3.079458e+06
   2.361809e+06   2.031513e+05
   1.182331e+06   2.853191e+06
  -4.767710e+05   1.258434e+06
   3.730965e+04  -2.321858e+06
   2.232169e+06  -2.077011e+06
   2.223306e+06   2.603596e+06
  -1.646292e+06   5.247242e+06
  -5.470028e+06   1.200078e+06
  -4.357004e+06  -5.443384e+06
   1.245447e+06  -7.057113e+06
   6.087932e+06  -2.147606e+06
   6.072703e+06   3.712193e+06
   1.799740e+06   5.266757e+06
  -3.008987e+06   2.521717e+06
  -4.765257e+06  -1.198969e+06
  -2.343449e+06  -3.020418e+06
   1.927259e+06  -2.016383e+06
   3.885289e+06   6.196949e+05
   1.788778e+06   2.233402e+06
  -1.397263e+06   1.202340e+06
  -1.598075e+06  -8.814028e+05
   9.934994e+05  -1.018608e+06
   2.280307e+06   1.141131e+06
  -4.685945e+04   2.815479e+06
  -3.559705e+06   1.876477e+06
  -4.514351e+06  -7.974147e+05
  -2.141130e+06  -3.217674e+06
   1.549665e+06  -4.460163e+06
   4.433195e+06  -4.056049e+06
   5.314670e+06  -1.370612e+06
   3.768993e+06   2.743220e+06
   7.274492e+05   5.295894e+06
  -1.522376e+06   4.242786e+06
  -1.512158e+06   1.339045e+06
  -4.006334e+05  -1.775725e+04
  -3.687785e+05   7.799049e+05
  -1.647339e+06   1.266688e+06
  -2.450160e+06  -1.366607e+05
  -1.577611e+06  -1.955699e+06
   2.474995e+05  -1.959596e+06
   1.564202e+06  -2.745939e+04
   1.482112e+06   2.066854e+06
  -1.315697e+05   2.660599e+06
  -2.486678e+06   1.316930e+06
  -3.788922e+06  -1.173480e+06
  -2.653942e+06  -3.215576e+06
   2.799445e+04  -3.498598e+06
   1.827750e+06  -2.270947e+06
   1.812218e+06  -1.050999e+06
   1.596956e+06  -7.094525e+05
   2.672252e+06  -4.813301e+05
   3.937011e+06   6.918397e+05
   3.136847e+06   2.537948e+06
   5.581751e+04   3.765938e+06
  -3.023562e+06   3.474640e+06
  -3.865244e+06   1.753249e+06
  -2.338696e+06  -5.328720e+05
  -7.317683e+04  -2.023391e+06
   1.107224e+06  -1.647781e+06
   4.831945e+05   7.793366e+04
  -1.045018e+06   1.138117e+06
  -1.715843e+06   3.233026e+05
  -7.726794e+05  -1.075513e+06
   5.348798e+05  -9.931188e+05
   4.564818e+05   3.863261e+05
  -9.362260e+05   7.719742e+05
  -1.786616e+06  -9.720276e+05
  -8.094238e+05  -3.134915e+06
   1.291913e+06  -3.326410e+06
   2.922922e+06  -1.272541e+06
   3.203368e+06   1.288766e+06
   2.173803e+06   2.689569e+06
   3.677017e+05   2.508045e+06
  -1.206668e+06   1.309508e+06
  -1.461949e+06   1.388560e+05
  -4.513778e+05  -5.383217e+04
   3.162847e+05   6.976071e+05
  -3.705788e+05   1.208794e+06
  -1.712815e+06   5.121246e+05
  -1.848384e+06  -8.024659e+05
  -3.646571e+05  -1.287354e+06
   1.085152e+06  -5.204337e+05
   8.477073e+05   4.533022e+05
  -7.979697e+05   5.363230e+05
  -2.091061e+06  -2.942191e+05
  -1.669450e+06  -1.335554e+06
   2.589290e+05  -1.896623e+06
   2.197302e+06  -1.514556e+06
   2.576202e+06  -1.988055e+05
   1.098066e+06   1.166304e+06
  -8.424643e+05   1.333706e+06
  -1.391518e+06   1.536204e+05
  -1.506885e+05  -9.630906e+05
   1.398153e+06  -6.405787e+05
   1.578555e+06   7.397073e+05
   3.132752e+05   1.544803e+06
  -1.017550e+06   9.300037e+05
  -1.188069e+06  -2.761679e+05
  -2.512932e+05  -7.297419e+05
   7.168530e+05  -5.306302e+04
   6.490719e+05   9.739963e+05
  -5.671920e+05   1.285714e+06
  -1.855555e+06   4.394860e+05
  -1.838957e+06  -1.014472e+06
  -3.099587e+05  -1.911758e+06
   1.348056e+06  -1.487579e+06
   1.596652e+06  -1.723923e+05
   4.625075e+05   8.125450e+05
  -6.226581e+05   7.399226e+05
  -6.054907e+05   4.156994e+04
   1.213711e+05  -3.781749e+05
   5.108272e+05  -2.030062e+05
   1.673999e+05   1.091442e+05
  -4.100155e+05  -8.932539e+03
  -5.053666e+05  -5.979192e+05
   1.816545e+05  -1.099069e+06
   1.286835e+06  -8.090198e+05
   1.911428e+06   4.219921e+05
   1.305034e+06   1.819569e+06
  -2.606881e+05   2.233696e+06
  -1.542781e+06   1.289535e+06
  -1.595636e+06  -1.504580e+05
  -7.968116e+05  -8.976176e+05
  -2.527636e+05  -6.807028e+05
  -3.774262e+05  -2.333134e+05
  -5.389082e+05  -2.641490e+05
  -7.623789e+04  -6.761495e+05
   8.193586e+05  -8.253346e+05
   1.363263e+06  -2.833181e+05
   9.764808e+05   7.149706e+05
  -2.647645e+05   1.385337e+06
  -1.630702e+06   9.713771e+05
  -2.079633e+06  -4.991701e+05
  -1.020582e+06  -1.968129e+06
   9.537625e+05  -2.174203e+06
   2.358454e+06  -9.281240e+05
   2.188140e+06   6.387062e+05
   8.977821e+05   1.283339e+06
  -2.107355e+05   9.222443e+05
  -4.209711e+05   4.812829e+05
  -1.382832e+05   6.572317e+05
  -1.319833e+05   1.155511e+06
  -6.249100e+05   1.153600e+06
  -1.179051e+06   2.656387e+05
  -1.198416e+06  -1.025768e+06
  -4.636348e+05  -1.759240e+06
   6.116951e+05  -1.307807e+06
   1.192766e+06   2.777881e+04
   7.370292e+05   1.192997e+06
  -3.669295e+05   1.290487e+06
  -1.071044e+06   3.928561e+05
  -7.553367e+05  -6.153804e+05
   9.276225e+04  -9.828006e+05
   4.775762e+05  -7.377891e+05
   8.222373e+04  -4.069029e+05
  -3.792524e+05  -3.234219e+05
  -3.958086e+04  -3.552263e+05
   1.053608e+06  -1.803685e+05
   1.880696e+06   3.344531e+05
   1.474979e+06   9.800297e+05
  -3.374432e+04   1.319198e+06
  -1.459320e+06   1.024362e+06
  -1.696199e+06   2.366191e+05
  -7.855618e+05  -4.497131e+05
   2.323017e+05  -5.120201e+05
   4.723495e+05  -3.713113e+04
   2.120237e+04   3.644858e+05
  -4.202177e+05   2.162056e+05
  -4.320654e+05  -3.244444e+05
  -1.911903e+05  -6.636818e+05
  -5.630872e+04  -4.315686e+05
  -1.413741e+05   9.735109e+04
  -2.934236e+05   2.702622e+05
  -2.544874e+05  -2.208895e+05
   1.682823e+05  -9.062600e+05
   8.496118e+05  -9.593824e+05
   1.225644e+06  -1.343334e+05
   7.403091e+05   8.459704e+05
  -3.947598e+05   1.022074e+06
  -1.139386e+06   2.732677e+05
  -6.557443e+05  -5.491421e+05
   6.606122e+05  -5.896906e+05
   1.480272e+06   1.213823e+05
   9.376424e+05   8.350195e+05
  -4.636473e+05   9.319937e+05
  -1.420978e+06   4.291175e+05
  -1.161951e+06  -2.052179e+05
  -1.177495e+05  -4.901313e+05
   6.112484e+05  -2.437497e+05
   3.470176e+05   2.701464e+05
  -5.528546e+05   4.538323e+05
  -1.078002e+06  -1.121145e+05
  -5.731974e+05  -1.098390e+06
   5.935916e+05  -1.537565e+06
   1.388159e+06  -7.670190e+05
   1.136965e+06   7.332561e+05
   1.404958e+05   1.662157e+06
  -7.232073e+05   1.186913e+06
  -8.636072e+05  -1.791655e+05
  -3.808963e+05  -1.121432e+06
   2.223726e+05  -9.100675e+05
   5.241284e+05  -7.281116e+04
   4.278445e+05   3.713199e+05
   1.531451e+05   1.439137e+05
   4.726024e+04  -9.348846e+04
   2.471824e+05   2.596303e+05
   4.474468e+05   8.980542e+05
   1.583268e+05   1.016322e+06
  -6.619297e+05   3.642667e+05
  -1.354771e+06  -4.670768e+05
  -1.173125e+06  -8.156837e+05
  -1.583443e+05  -6.502439e+05
   8.044773e+05  -3.574839e+05
   9.209891e+05  -1.446163e+05
   3.332093e+05   4.511254e+04
  -1.410597e+05   2.008319e+05
  -3.672026e+04   2.041376e+05
   2.430854e+05   1.095592e+05
   4.058728e+04   1.197709e+05
  -6.189409e+05   1.880218e+05
  -9.627351e+05  -3.323773e+04
  -3.787249e+05  -6.297199e+05
   8.005736e+05  -1.055502e+06
   1.573876e+06  -6.678164e+05
   1.281710e+06   4.154609e+05
   2.210047e+05   1.301066e+06
  -7.319670e+05   1.257110e+06
  -9.724792e+05   4.731445e+05
  -5.947056e+05  -2.321602e+05
  -1.148536e+05  -3.285680e+05
   6.253211e+04  -4.707782e+04
  -8.244573e+04   2.036674e+04
  -2.755502e+05  -3.506879e+05
  -2.133416e+05  -7.569967e+05
   1.772622e+05  -6.209714e+05
   6.194350e+05   1.291659e+05
   6.550337e+05   8.876061e+05
   8.643250e+04   9.416732e+05
  -6.898259e+05   2.061326e+05
  -9.313985e+05  -6.822613e+05
  -3.013898e+05  -1.005085e+06
   6.627668e+05  -6.098589e+05
   1.027865e+06   8.423980e+04
   4.869344e+05   5.682012e+05
  -2.670470e+05   6.209773e+05
  -3.540163e+05   3.421039e+05
   2.248971e+05   2.372434e+04
   5.991147e+05  -2.143614e+04
   1.315886e+05   2.834763e+05
  -7.767415e+05   6.116258e+05
  -1.181007e+06   4.845635e+05
  -7.087463e+05  -1.673984e+05
   1.009072e+05  -8.001406e+05
   5.214151e+05  -7.897129e+05
   3.884658e+05  -1.522483e+05
   3.673129e+04   4.378465e+05
  -2.229412e+05   3.959817e+05
  -3.131590e+05  -1.423682e+05
  -2.241451e+05  -5.361640e+05
   4.745285e+04  -3.915618e+05
   3.561688e+05   4.740719e+04
   4.410641e+05   2.646754e+05
   2.281391e+05   9.363487e+04
  -3.682950e+04  -1.349811e+05
  -9.102039e+04  -4.242358e+04
  -1.102571e+02   3.129575e+05
  -4.344751e+04   4.893874e+05
  -2.803350e+05   1.920547e+05
  -4.067132e+05  -3.441104e+05
  -1.342809e+05  -5.836716e+05
   3.768713e+05  -2.793853e+05
   6.033570e+05   2.618190e+05
   2.217603e+05   5.282723e+05
  -4.737038e+05   3.321449e+05
  -8.103364e+05  -7.796190e+04
  -4.363416e+05  -3.537485e+05
   2.706817e+05  -3.659924e+05
   5.854912e+05  -2.042502e+05
   2.314356e+05  -2.061461e+04
  -3.109669e+05   4.852972e+04
  -3.637526e+05  -6.734932e+04
   1.645020e+05  -2.562164e+05
   6.871860e+05  -2.246407e+05
