
 $NMID
 id='ANONYMOUS ', fmtdat='(2E16.6)'
 volume=1.0
 tramp=1.0
 $END
   1.908357e+07   1.083386e+06
   1.252588e+07   8.597697e+06
   1.420516e+05   1.164285e+07
  -8.113647e+06   8.609304e+06
  -7.278346e+06   1.655983e+06
  -8.325222e+05  -3.474602e+06
   4.044122e+06  -2.349865e+06
   3.491523e+06   3.012655e+06
  -6.005283e+05   5.946973e+06
  -3.734356e+06   2.821681e+06
  -3.290005e+06  -2.752886e+06
  -2.976235e+05  -4.470068e+06
   2.111307e+06  -7.421133e+05
   1.643989e+06   3.950190e+06
  -1.159796e+06   4.517503e+06
  -3.401351e+06   5.456123e+05
  -2.555850e+06  -3.969364e+06
   9.158558e+05  -5.018817e+06
   3.875645e+06  -2.203320e+06
   3.736811e+06   1.476258e+06
   1.195893e+06   2.896944e+06
  -6.579001e+05   1.831966e+06
   1.148126e+05   7.252195e+05
   2.127872e+06   1.567730e+06
   2.261655e+06   3.510703e+06
  -7.779792e+05   4.006757e+06
  -4.765929e+06   1.918712e+06
  -5.971827e+06  -1.228910e+06
  -2.972092e+06  -2.992372e+06
   1.611358e+06  -2.296558e+06
   3.519234e+06   1.263346e+03
   1.203088e+06   2.005049e+06
  -2.567338e+06   2.017583e+06
  -3.808912e+06  -2.193957e+05
  -1.656357e+06  -2.901819e+06
   1.115145e+06  -3.437035e+06
   1.693927e+06  -1.181250e+06
   2.749100e+05   1.446997e+06
  -8.897757e+05   1.493682e+06
  -4.729805e+05  -9.905265e+05
   8.407141e+05  -2.906137e+06
   1.713605e+06  -1.851156e+06
   1.494427e+06   9.871703e+05
   3.092556e+05   2.347588e+06
  -1.109195e+06   7.674741e+05
  -1.474557e+06  -1.895325e+06
   1.318689e+05  -2.732817e+06
   2.781168e+06  -8.677291e+05
   3.910977e+06   1.941842e+06
   1.929087e+06   3.274044e+06
  -1.675272e+06   2.245850e+06
  -3.639959e+06   2.536154e+03
  -2.374517e+06  -1.543596e+06
   4.948662e+05  -1.386372e+06
   2.094047e+06  -1.057182e+05
   1.272782e+06   8.748624e+05
  -5.932612e+05   6.590595e+05
  -1.351778e+06  -3.906478e+05
  -2.986167e+05  -1.135088e+06
   1.219678e+06  -7.901621e+05
   1.293450e+06   3.390222e+05
  -3.904281e+05   1.112277e+06
  -1.985882e+06   5.671170e+05
  -1.404996e+06  -1.119801e+06
   1.242151e+06  -2.582104e+06
   3.607434e+06  -2.352399e+06
   3.662434e+06  -2.514989e+05
   1.795176e+06   2.298037e+06
   2.801320e+03   3.533841e+06
  -5.312118e+05   3.002237e+06
  -4.099364e+05   1.811541e+06
  -7.637078e+05   1.188669e+06
  -1.758328e+06   1.048212e+06
  -2.564980e+06   3.307262e+05
  -2.333953e+06  -1.307869e+06
  -9.314536e+05  -2.651259e+06
   9.404958e+05  -2.158957e+06
   2.076319e+06   1.082005e+05
   1.550648e+06   2.254437e+06
  -3.736344e+05   2.410040e+06
  -2.198259e+06   5.875062e+05
  -2.455324e+06  -1.503480e+06
  -1.131134e+06  -2.293972e+06
   3.944758e+05  -1.726159e+06
   9.104387e+05  -8.832665e+05
   6.559809e+05  -6.389314e+05
   8.500119e+05  -8.570415e+05
   2.036950e+06  -7.331804e+05
   3.183809e+06   3.011469e+05
   2.659304e+06   1.958151e+06
   1.388231e+05   3.196185e+06
  -2.681954e+06   2.987457e+06
  -3.560552e+06   1.240924e+06
  -1.954597e+06  -9.137473e+05
   4.108918e+05  -1.937906e+06
   1.347084e+06  -1.238457e+06
   3.824639e+05   2.370478e+05
  -1.045237e+06   9.148426e+05
  -1.361189e+06   2.117830e+05
  -4.309317e+05  -8.638833e+05
   6.104628e+05  -8.898017e+05
   6.795797e+05   2.455483e+05
  -2.960330e+05   1.079194e+06
  -1.423288e+06   2.263195e+05
  -1.559189e+06  -1.871494e+06
  -2.026026e+05  -3.197474e+06
   1.932233e+06  -2.258584e+06
   3.264539e+06   3.009159e+05
   2.663788e+06   2.371366e+06
   6.064257e+05   2.517337e+06
  -1.175748e+06   1.214400e+06
  -1.383471e+06   3.677988e+04
  -3.964036e+05  -4.470901e+04
   2.933906e+05   5.906574e+05
  -2.073990e+05   9.200054e+05
  -1.254318e+06   4.244457e+05
  -1.483202e+06  -4.768824e+05
  -4.255470e+05  -9.369367e+05
   8.683877e+05  -5.277339e+05
   9.152972e+05   3.375937e+05
  -5.269498e+05   7.548395e+05
  -2.033885e+06   1.607741e+05
  -1.923804e+06  -1.083746e+06
  -6.333512e+04  -1.937049e+06
   1.918824e+06  -1.599150e+06
   2.289952e+06  -2.884452e+05
   9.384915e+05   8.984944e+05
  -6.549527e+05   9.909825e+05
  -1.010914e+06   8.649350e+04
  -2.226673e+04  -7.369381e+05
   1.169354e+06  -5.296399e+05
   1.391833e+06   5.207751e+05
   4.783469e+05   1.298073e+06
  -6.967687e+05   9.981554e+05
  -1.071331e+06   1.492975e+04
  -3.939828e+05  -5.361103e+05
   5.057017e+05  -8.131437e+04
   5.231371e+05   8.110827e+05
  -5.323843e+05   1.093767e+06
  -1.634660e+06   3.349519e+05
  -1.578290e+06  -9.017235e+05
  -2.862367e+05  -1.628737e+06
   1.082537e+06  -1.301577e+06
   1.349991e+06  -2.438706e+05
   4.893456e+05   6.512393e+05
  -4.827259e+05   7.008194e+05
  -6.370113e+05   4.690250e+04
  -1.260939e+04  -5.150520e+05
   5.769239e+05  -4.023431e+05
   4.686121e+05   1.121003e+05
  -1.671071e+05   2.538882e+05
  -5.224867e+05  -2.829236e+05
  -1.287389e+04  -9.074075e+05
   1.047930e+06  -7.639614e+05
   1.671096e+06   3.106839e+05
   1.152796e+06   1.561741e+06
  -1.982302e+05   2.006061e+06
  -1.347929e+06   1.303350e+06
  -1.541092e+06   1.995326e+04
  -9.512126e+05  -8.908722e+05
  -3.382000e+05  -9.229961e+05
  -1.824544e+05  -4.260098e+05
  -2.586354e+05  -1.692309e+05
  -3.148095e+04  -4.580339e+05
   6.351050e+05  -7.691947e+05
   1.224354e+06  -3.893260e+05
   1.031650e+06   6.363052e+05
  -8.993314e+04   1.390632e+06
  -1.427163e+06   1.011404e+06
  -1.908541e+06  -3.640434e+05
  -1.029862e+06  -1.671234e+06
   6.452106e+05  -1.898518e+06
   1.926536e+06  -9.572303e+05
   2.000750e+06   3.428761e+05
   1.057231e+06   1.082371e+06
  -1.508847e+04   1.012679e+06
  -4.924566e+05   6.410894e+05
  -3.881072e+05   5.856922e+05
  -2.538250e+05   8.657933e+05
  -5.029290e+05   8.923413e+05
  -9.535814e+05   1.974374e+05
  -1.029373e+06  -9.127444e+05
  -4.074442e+05  -1.560230e+06
   5.500363e+05  -1.163888e+06
   1.067009e+06  -2.717521e+04
   7.049745e+05   9.568557e+05
  -1.768701e+05   1.115298e+06
  -7.701373e+05   5.007481e+05
  -6.298434e+05  -2.941152e+05
  -8.309793e+04  -7.153740e+05
   1.980132e+05  -6.635757e+05
  -2.743960e+04  -4.364548e+05
  -3.034311e+05  -3.323684e+05
  -1.471880e+04  -3.352468e+05
   8.505907e+05  -1.913940e+05
   1.554596e+06   2.400361e+05
   1.302931e+06   7.742300e+05
   1.052616e+05   1.051029e+06
  -1.126208e+06   8.598363e+05
  -1.427844e+06   3.184716e+05
  -7.285646e+05  -2.077568e+05
   1.382140e+05  -3.653175e+05
   3.619070e+05  -1.047359e+05
  -4.244265e+04   2.223591e+05
  -4.293834e+05   1.688102e+05
  -3.634852e+05  -2.892352e+05
  -4.755990e+04  -6.360523e+05
   6.829774e+04  -4.025991e+05
  -1.296519e+05   1.786335e+05
  -3.456108e+05   3.634127e+05
  -2.504116e+05  -1.756257e+05
   2.011199e+05  -8.539994e+05
   7.394774e+05  -8.295156e+05
   9.384540e+05  -2.530777e+04
   5.079057e+05   7.638213e+05
  -3.550788e+05   7.842741e+05
  -9.308004e+05   1.135716e+05
  -5.676897e+05  -5.265731e+05
   5.434361e+05  -5.510787e+05
   1.364375e+06   1.393083e+04
   1.011757e+06   6.787561e+05
  -2.618221e+05   9.282511e+05
  -1.274531e+06   5.853515e+05
  -1.144648e+06  -6.055197e+04
  -1.814422e+05  -4.591430e+05
   5.187700e+05  -2.846910e+05
   2.636891e+05   1.998341e+05
  -5.574686e+05   3.483304e+05
  -9.562686e+05  -1.955897e+05
  -3.980194e+05  -1.039083e+06
   6.730051e+05  -1.334025e+06
   1.314625e+06  -6.021628e+05
   1.015464e+06   7.060341e+05
   1.128575e+05   1.522470e+06
  -6.415167e+05   1.138683e+06
  -7.933912e+05  -7.183225e+04
  -4.339300e+05  -9.863740e+05
   7.800890e+04  -8.724219e+05
   4.328649e+05  -1.125246e+05
   4.702639e+05   3.435723e+05
   2.319425e+05   1.494592e+05
   4.561257e+03  -1.093674e+05
   8.691118e+04   1.824382e+05
   3.540048e+05   7.842622e+05
   2.583499e+05   9.245851e+05
  -4.664425e+05   3.387483e+05
  -1.240342e+06  -4.184020e+05
  -1.163328e+06  -7.212733e+05
  -1.550432e+05  -5.616279e+05
   8.160279e+05  -3.208227e+05
   8.601148e+05  -1.698467e+05
   2.178167e+05  -7.272771e+03
  -1.637565e+05   1.742822e+05
   7.970670e+04   2.276841e+05
   3.391125e+05   1.507678e+05
  -8.484011e+03   1.191369e+05
  -6.850630e+05   1.321056e+05
  -8.527073e+05  -7.481464e+04
  -1.628506e+05  -5.653988e+05
   8.455820e+05  -8.795151e+05
   1.349532e+06  -4.893961e+05
   1.008466e+06   4.667870e+05
   1.385666e+05   1.194304e+06
  -6.450274e+05   1.077236e+06
  -8.831966e+05   3.333440e+05
  -5.528853e+05  -2.786176e+05
  -4.889977e+04  -2.988466e+05
   1.619457e+05   1.692443e+04
  -3.002410e+04   9.115563e+04
  -2.925738e+05  -2.784409e+05
  -2.271658e+05  -6.766048e+05
   1.934336e+05  -5.319149e+05
   5.828565e+05   1.999437e+05
   5.126420e+05   8.879273e+05
  -6.341743e+04   8.451496e+05
  -6.993420e+05   7.209623e+04
  -7.962088e+05  -7.316568e+05
  -1.789349e+05  -9.075292e+05
   6.310354e+05  -4.549023e+05
   8.686552e+05   1.315389e+05
   3.564763e+05   4.496855e+05
  -2.527867e+05   4.515905e+05
  -2.363411e+05   2.680895e+05
   3.031010e+05   5.436095e+04
   5.649962e+05   5.681942e+03
   7.658342e+04   2.406755e+05
  -7.061453e+05   5.477796e+05
  -9.758769e+05   4.792441e+05
  -5.262644e+05  -9.476575e+04
   1.182596e+05  -6.766912e+05
   3.997920e+05  -6.491243e+05
   2.593956e+05  -4.791363e+04
  -2.448193e+04   4.390204e+05
  -2.318308e+05   2.984274e+05
  -2.917578e+05  -2.217725e+05
  -1.758324e+05  -4.901202e+05
   8.263719e+04  -2.711528e+05
   3.180843e+05   8.962694e+04
   3.525713e+05   1.876500e+05
   1.962300e+05   3.329879e+04
   2.152437e+04  -5.632003e+04
  -6.536767e+04   1.043159e+05
  -1.253179e+05   3.497433e+05
  -2.351503e+05   3.565513e+05
  -3.276989e+05   8.194847e+03
  -2.480396e+05  -4.357645e+05
   5.078817e+04  -5.557665e+05
   3.943962e+05  -2.013264e+05
   4.802397e+05   3.148581e+05
   1.431837e+05   5.196311e+05
  -4.070247e+05   2.702081e+05
  -6.748968e+05  -1.355644e+05
  -3.557022e+05  -3.327534e+05
   2.583036e+05  -2.537468e+05
   5.136189e+05  -8.311652e+04
   1.387190e+05   8.629011e+03
  -3.859250e+05  -2.757045e+04
  -3.729624e+05  -1.668188e+05
   2.293045e+05  -2.935186e+05
   7.553391e+05  -1.927096e+05
