
 $NMID
 id='ANONYMOUS ', fmtdat='(2E16.6)'
 volume=1.0
 tramp=1.0
 $END
   2.242501e+07  -2.274792e+06
   1.451475e+07   1.311753e+07
  -2.290955e+06   1.570664e+07
  -1.101470e+07   6.237879e+06
  -6.666274e+06  -3.282011e+06
   1.627994e+06  -4.581516e+06
   4.495569e+06   1.023842e+05
   1.567665e+06   4.186478e+06
  -2.364725e+06   4.236642e+06
  -4.090402e+06   1.015233e+06
  -3.113793e+06  -2.691211e+06
  -3.207927e+05  -3.833761e+06
   2.077144e+06  -1.330377e+06
   1.685434e+06   2.208061e+06
  -1.134123e+06   2.761241e+06
  -3.070212e+06  -3.767424e+05
  -1.789698e+06  -3.798216e+06
   1.430206e+06  -4.287576e+06
   3.807115e+06  -2.048667e+06
   4.094402e+06   8.172848e+05
   2.655607e+06   2.895829e+06
   3.532017e+05   3.563552e+06
  -1.416540e+06   2.531753e+06
  -1.245378e+06   7.276164e+05
   2.950603e+05   1.345946e+05
   5.970667e+05   1.299925e+06
  -1.556199e+06   2.194503e+06
  -3.831510e+06   9.322616e+05
  -3.314215e+06  -1.487744e+06
  -5.092912e+05  -2.620115e+06
   1.548045e+06  -1.794952e+06
   1.375328e+06  -3.692045e+05
   1.916838e+05   4.449990e+05
  -5.477123e+05   4.155425e+05
  -6.380303e+05  -3.875403e+05
  -1.839258e+05  -1.439390e+06
   7.988951e+05  -1.431935e+06
   1.521280e+06   1.727065e+05
   9.562835e+05   1.658796e+06
  -3.052469e+05   1.030103e+06
  -4.469412e+05  -7.645147e+05
   7.172190e+05  -8.036154e+05
   1.041915e+06   1.356693e+06
  -7.699448e+05   2.604696e+06
  -2.850143e+06   6.624811e+05
  -2.485478e+06  -2.528680e+06
   2.564867e+05  -3.409458e+06
   2.699736e+06  -1.334765e+06
   2.784800e+06   1.232037e+06
   8.615984e+05   2.095137e+06
  -1.291278e+06   1.174113e+06
  -2.046992e+06  -4.288242e+05
  -8.655183e+05  -1.527948e+06
   1.192481e+06  -1.242381e+06
   2.076751e+06   2.481206e+05
   8.984098e+05   1.377519e+06
  -7.661284e+05   8.566121e+05
  -7.855258e+05  -4.469751e+05
   6.097947e+05  -5.616723e+05
   1.171568e+06   7.497865e+05
  -1.478159e+05   1.661196e+06
  -1.837303e+06   9.477242e+05
  -2.072167e+06  -5.380119e+05
  -9.029451e+05  -1.505936e+06
   5.013885e+05  -1.837157e+06
   1.541291e+06  -1.760218e+06
   2.108534e+06  -8.375768e+05
   1.804937e+06   9.790563e+05
   5.113116e+05   2.299467e+06
  -7.677471e+05   1.782881e+06
  -8.420895e+05   1.752960e+05
   3.506449e+04  -5.321586e+05
   4.753050e+05   2.132489e+05
  -1.470597e+05   9.847807e+05
  -9.972923e+05   5.749488e+05
  -1.051262e+06  -4.755635e+05
  -2.807926e+05  -9.036247e+05
   5.872576e+05  -3.346989e+05
   8.480734e+05   6.111793e+05
   2.103996e+05   1.153344e+06
  -9.822652e+05   8.485142e+05
  -1.758141e+06  -2.173867e+05
  -1.322844e+06  -1.323864e+06
  -5.591370e+04  -1.609371e+06
   8.310362e+05  -1.006376e+06
   8.051457e+05  -3.298389e+05
   5.782559e+05  -1.946690e+05
   8.951066e+05  -2.803090e+05
   1.406575e+06   3.485853e+04
   1.250305e+06   7.565932e+05
   2.886050e+05   1.369858e+06
  -7.869978e+05   1.477106e+06
  -1.300092e+06   9.828011e+05
  -1.071917e+06   3.348669e+04
  -3.354594e+05  -8.244319e+05
   3.564346e+05  -8.529731e+05
   3.829377e+05  -2.166508e+04
  -2.757426e+05   6.612480e+05
  -8.081976e+05   3.367464e+05
  -5.180859e+05  -4.834437e+05
   1.836062e+05  -6.211709e+05
   3.172640e+05   2.899238e+04
  -2.587416e+05   3.556608e+05
  -6.681915e+05  -2.887713e+05
  -2.869649e+05  -1.148312e+06
   4.975201e+05  -1.175029e+06
   9.945338e+05  -3.759653e+05
   1.036713e+06   4.560021e+05
   7.798214e+05   8.279824e+05
   2.667129e+05   7.960598e+05
  -3.410995e+05   5.094837e+05
  -5.600345e+05   1.224101e+05
  -1.800686e+05  -3.447912e+04
   2.293786e+05   2.329597e+05
  -1.218640e+04   5.606468e+05
  -6.852918e+05   4.012247e+05
  -9.053365e+05  -1.943389e+05
  -3.372648e+05  -6.029665e+05
   3.680352e+05  -4.549144e+05
   4.526519e+05  -3.217317e+04
  -7.520384e+04   2.030827e+05
  -6.061152e+05   9.679712e+04
  -6.236869e+05  -2.472657e+05
  -7.563484e+04  -6.195256e+05
   6.513702e+05  -6.903644e+05
   9.624506e+05  -2.317730e+05
   5.289641e+05   4.523801e+05
  -2.776279e+05   6.676435e+05
  -6.466948e+05   1.648446e+05
  -2.142028e+05  -4.474657e+05
   4.972305e+05  -4.299061e+05
   7.032099e+05   1.635392e+05
   2.421892e+05   6.193854e+05
  -3.613727e+05   4.820957e+05
  -5.543370e+05  -4.968749e+03
  -2.505107e+05  -3.215972e+05
   2.105514e+05  -2.188925e+05
   3.747049e+05   1.640373e+05
   2.870590e+04   4.659865e+05
  -5.438805e+05   3.505443e+05
  -7.373319e+05  -1.834670e+05
  -2.666210e+05  -6.884182e+05
   4.317325e+05  -6.660622e+05
   6.653983e+05  -1.360937e+05
   2.936349e+05   3.702896e+05
  -1.832944e+05   4.282524e+05
  -3.061985e+05   1.395485e+05
  -1.289904e+05  -1.228441e+05
   3.476903e+04  -1.759927e+05
   4.037713e+04  -1.095825e+05
  -4.347094e+04  -7.805117e+04
  -9.056770e+04  -1.586011e+05
   2.664979e+04  -3.023556e+05
   3.473163e+05  -3.117876e+05
   6.497238e+05   4.868153e+03
   5.639508e+05   5.275346e+05
   3.528259e+04   8.110760e+05
  -4.950097e+05   5.581116e+05
  -5.807090e+05   1.055262e+04
  -3.046066e+05  -3.216381e+05
  -9.301222e+04  -2.574347e+05
  -1.148791e+05  -6.893515e+04
  -1.474409e+05  -4.657586e+04
   1.963218e+03  -1.669674e+05
   2.315758e+05  -2.258485e+05
   3.424180e+05  -1.058647e+05
   2.558858e+05   1.532066e+05
  -2.384864e+04   3.911570e+05
  -4.255626e+05   3.735912e+05
  -6.937374e+05  -2.494375e+04
  -4.995074e+05  -5.802826e+05
   1.463988e+05  -8.168394e+05
   7.539291e+05  -4.982097e+05
   8.322746e+05   7.524201e+04
   4.254288e+05   4.032345e+05
   2.265309e+03   3.471060e+05
  -1.130525e+05   2.012562e+05
  -2.096651e+04   2.493604e+05
   8.536340e+02   4.257602e+05
  -1.644090e+05   4.492456e+05
  -4.021881e+05   1.674009e+05
  -4.938880e+05  -2.848488e+05
  -2.902942e+05  -5.959283e+05
   1.257813e+05  -5.217251e+05
   4.336565e+05  -9.869423e+04
   3.543607e+05   3.489771e+05
  -2.679050e+04   4.759320e+05
  -3.250609e+05   2.298996e+05
  -2.865305e+05  -1.290093e+05
  -5.029974e+04  -3.196582e+05
   7.410492e+04  -2.896109e+05
  -9.332107e+03  -1.750000e+05
  -1.090863e+05  -1.062973e+05
  -3.630408e+02  -1.032759e+05
   3.201065e+05  -9.651857e+04
   6.060951e+05   4.587393e+03
   5.604611e+05   2.203709e+05
   1.239026e+05   4.300507e+05
  -3.986347e+05   4.444982e+05
  -5.835969e+05   2.146867e+05
  -3.263590e+05  -6.987921e+04
   4.131403e+04  -1.653863e+05
   1.424779e+05  -4.285097e+04
  -2.689391e+04   9.337491e+04
  -1.796870e+05   5.534322e+04
  -1.481281e+05  -1.212757e+05
  -3.940872e+04  -2.372539e+05
  -5.073755e+03  -1.584712e+05
  -4.171265e+04   3.599198e+04
  -6.807795e+04   1.262876e+05
  -4.856425e+04  -1.741193e+04
   3.258303e+04  -2.664072e+05
   1.875071e+05  -3.360930e+05
   3.223088e+05  -1.009765e+05
   2.462116e+05   2.300821e+05
  -7.320548e+04   3.257400e+05
  -3.470466e+05   1.055545e+05
  -2.380474e+05  -1.778186e+05
   2.035491e+05  -2.338794e+05
   5.321562e+05  -2.835390e+04
   3.906024e+05   2.383800e+05
  -9.676830e+04   3.555711e+05
  -4.745550e+05   2.539136e+05
  -4.340279e+05   1.749442e+04
  -8.620912e+04  -1.708344e+05
   1.935968e+05  -1.504460e+05
   1.389312e+05   4.846342e+04
  -1.654023e+05   1.758355e+05
  -3.740921e+05   6.724282e+03
  -2.273129e+05  -3.628396e+05
   1.773073e+05  -5.541113e+05
   4.801591e+05  -3.006510e+05
   4.287827e+05   2.338555e+05
   1.074057e+05   5.899504e+05
  -2.030621e+05   4.648451e+05
  -3.109761e+05   4.709162e+03
  -2.165233e+05  -3.581033e+05
  -2.210592e+04  -3.431234e+05
   1.504619e+05  -7.705359e+04
   1.950554e+05   9.894656e+04
   1.008410e+05   4.223061e+04
   6.624367e+03  -5.129316e+04
   6.122177e+04   5.245791e+04
   1.948772e+05   2.870309e+05
   1.498197e+05   3.676521e+05
  -1.754234e+05   1.736529e+05
  -5.101878e+05  -1.047298e+05
  -4.828358e+05  -2.341510e+05
  -8.233993e+04  -2.062878e+05
   2.990525e+05  -1.501641e+05
   3.244603e+05  -1.029301e+05
   8.805107e+04  -1.556488e+04
  -6.061462e+04   8.170608e+04
   1.973710e+04   9.316495e+04
   1.210167e+05   3.329433e+04
   1.100094e+04   2.441439e+04
  -2.370168e+05   7.709537e+04
  -3.284017e+05   2.988755e+04
  -1.053852e+05  -1.927855e+05
   2.711395e+05  -3.849095e+05
   4.964437e+05  -2.728581e+05
   4.123119e+05   1.170639e+05
   1.111431e+05   4.477728e+05
  -1.843638e+05   4.447872e+05
  -3.007199e+05   1.780894e+05
  -2.146191e+05  -6.264887e+04
  -4.490394e+04  -9.536332e+04
   4.574050e+04   3.885665e+03
  -1.277888e+04   3.511143e+04
  -1.292104e+05  -9.052241e+04
  -1.360704e+05  -2.477106e+05
   2.924590e+04  -2.248410e+05
   2.320141e+05   2.922891e+04
   2.560873e+05   3.046781e+05
   3.143505e+04   3.291048e+05
  -2.614389e+05   6.697639e+04
  -3.433191e+05  -2.389930e+05
  -1.171817e+05  -3.369976e+05
   2.120182e+05  -2.062311e+05
   3.354069e+05  -2.909219e+03
   1.697253e+05   1.404394e+05
  -5.337694e+04   1.852309e+05
  -6.494707e+04   1.328184e+05
   1.152933e+05   2.508317e+04
   2.100123e+05  -2.152020e+04
   4.008624e+04   8.529387e+04
  -2.475075e+05   2.504515e+05
  -3.641316e+05   2.450968e+05
  -2.204549e+05  -4.803110e+03
   7.984375e+03  -2.732593e+05
   1.214281e+05  -2.807658e+05
   9.182553e+04  -3.875067e+04
   6.953550e+03   1.655354e+05
  -6.943626e+04   1.224546e+05
  -1.137564e+05  -7.223163e+04
  -9.201734e+04  -1.784813e+05
   1.053398e+04  -1.081656e+05
   1.267960e+05   1.631919e+04
   1.555730e+05   5.377964e+04
   8.243528e+04   6.594329e+03
  -4.498626e+03  -1.886902e+04
  -3.354289e+04   4.081628e+04
  -3.177580e+04   1.308547e+05
  -6.126333e+04   1.385571e+05
  -1.137791e+05   1.780029e+04
  -1.120258e+05  -1.456797e+05
  -9.124094e+03  -2.033014e+05
   1.367040e+05  -9.267267e+04
   1.942390e+05   9.005333e+04
   7.866691e+04   1.846145e+05
  -1.399152e+05   1.260780e+05
  -2.637028e+05  -9.846590e+03
  -1.568142e+05  -1.070931e+05
   8.102443e+04  -1.166148e+05
   1.928168e+05  -6.466639e+04
   5.817130e+04  -5.262117e+03
  -1.461295e+05   9.085122e+03
  -1.502906e+05  -4.641083e+04
   7.549945e+04  -1.227811e+05
   2.827378e+05  -1.057712e+05
