
 $NMID
 id='ANONYMOUS ', fmtdat='(2E16.6)'
 volume=1.0
 tramp=1.0
 $END
  -3.170326e+03  -2.049237e+01
  -1.652424e+03  -1.640764e+03
   1.140552e+02  -1.768821e+03
   1.370412e+03  -1.200219e+03
   7.701650e+02   4.961798e+01
  -1.926028e+02   4.745017e+02
  -5.093572e+02  -6.000050e+01
  -1.044437e+02  -5.267144e+02
   6.212513e+02  -5.547665e+02
   6.766541e+02  -8.394783e+01
   3.092463e+02   5.180606e+02
   4.631949e+01   5.950764e+02
  -3.579874e+02   2.474954e+02
  -3.353163e+02  -4.568762e+02
   6.094615e+01  -5.203269e+02
   3.519538e+02  -1.147322e+02
   2.764091e+02   5.101870e+02
  -2.295690e+02   5.507630e+02
  -4.206164e+02   1.348076e+02
  -4.403360e+02  -2.525774e+02
  -1.100643e+02  -3.016879e+02
   1.702311e+02  -2.473224e+02
   1.080493e+02  -2.327022e+01
  -4.716072e+01  -5.658685e+01
  -2.181677e+02  -2.172884e+02
  -3.923961e+01  -3.105751e+02
   3.707462e+02  -1.688169e+02
   6.122981e+02   1.444103e+02
   2.707629e+02   3.680804e+02
  -2.993980e+02   2.709829e+02
  -5.514086e+02  -1.988942e+01
  -2.060572e+02  -4.203033e+02
   1.396315e+02  -3.165838e+02
   4.294669e+02  -1.434608e+02
   3.268684e+02   2.092032e+02
   8.508645e+01   3.033251e+02
  -8.150548e+01   2.420515e+02
  -6.171387e+00  -9.379675e+01
   6.979107e+01  -2.572535e+02
   2.727338e+02   6.814143e+01
   6.140630e+01   4.022410e+02
  -1.905029e+02   4.764703e+02
  -3.351948e+02  -3.442729e+01
  -1.222228e+02  -3.235250e+02
   1.179474e+02  -1.505877e+02
   2.174194e+02   2.941882e+02
  -6.414976e+01   3.909083e+02
  -3.672844e+02   5.933143e+01
  -3.692565e+02  -2.954003e+02
  -1.018439e+02  -4.938636e+02
   2.630784e+02  -3.080118e+02
   5.015322e+02   5.075785e+01
   2.967187e+02   2.476654e+02
  -8.863953e+01   2.416848e+02
  -2.669137e+02   7.955105e+01
  -2.143646e+02  -5.348569e+01
   9.029507e+00  -5.208687e+01
   7.070488e+01   8.368364e+01
  -1.080604e+02   7.516378e+01
  -2.432450e+02  -3.667996e+01
  -1.425026e+02  -1.612081e+02
   1.441359e+02  -2.222450e+02
   3.210724e+02  -9.616073e+01
   2.006316e+02   1.107263e+02
  -6.303565e+01   2.309280e+02
  -1.980077e+02   3.129882e+02
  -3.181908e+02   1.468979e+02
  -2.246524e+02  -1.250748e+02
  -6.974758e+01  -3.586238e+02
   1.626639e+01  -2.994247e+02
   8.261663e+01  -1.576380e+02
   2.010802e+01  -6.741608e+01
   7.464902e+01  -1.195822e+02
   1.727787e+02  -4.736585e+01
   2.021966e+02   1.173309e+02
   1.000881e+02   1.974989e+02
  -6.852711e+01   1.472361e+02
  -1.732701e+02   1.994614e+01
  -1.444477e+02  -1.857632e+02
  -3.067207e+00  -2.416535e+02
   2.593790e+02  -3.531013e+01
   2.793837e+02   1.209722e+02
   1.390075e+02   2.058239e+02
  -4.778684e+01   2.772558e+02
  -1.856785e+02   1.418935e+02
  -1.426192e+02   6.302056e+01
  -1.417845e+02   5.935553e+01
  -2.108043e+02   2.725140e+01
  -3.493317e+02  -9.511359e+01
  -2.442821e+02  -2.919891e+02
  -2.260973e+01  -3.613279e+02
   3.251757e+02  -3.447666e+02
   4.308012e+02  -2.109081e+02
   2.830092e+02   1.030022e+02
   2.496847e+01   2.528722e+02
  -1.137108e+02   1.744626e+02
  -3.378659e+01   1.058905e+01
   7.796776e+01  -6.688097e+01
   1.204509e+02   2.777071e+01
   2.187867e+01   1.652702e+02
  -1.250942e+02   9.166599e+01
  -1.159584e+02  -3.327766e+01
   2.425733e+01  -1.397631e+02
   1.327579e+02  -2.389336e+00
   1.377906e+02   2.141429e+02
  -2.199187e+01   3.231192e+02
  -1.829723e+02   1.620791e+02
  -2.676420e+02  -5.604725e+01
  -2.218511e+02  -2.431330e+02
  -5.393618e+01  -1.979885e+02
   1.150346e+02  -1.103385e+02
   1.374079e+02   4.130529e+00
   6.898888e+01   1.610952e+01
  -3.424070e+01  -5.612616e+01
   5.143474e+00  -1.118446e+02
   6.675280e+01  -6.386561e+01
   1.541479e+02   2.421102e+01
   2.651329e+01   1.811623e+01
  -7.060078e+01   1.760888e+01
  -2.920022e+01  -8.042783e+01
   1.339271e+02  -4.479178e+01
   3.165880e+02   4.239678e+00
   1.844758e+02   1.509488e+02
   1.085638e+01   2.244165e+02
  -2.170200e+02   1.949421e+02
  -2.150434e+02   8.920244e+01
  -9.374814e+01  -2.281412e+01
   4.742562e+01  -7.041226e+01
   8.661617e+01   1.946593e-01
  -2.804968e+01   8.452434e+01
  -1.465404e+02   7.353972e+01
  -1.639336e+02  -1.071131e+02
  -6.927863e+01  -1.960591e+02
   3.041693e+01  -1.256790e+02
   9.785494e+01  -4.650852e+01
   3.689929e+01  -7.189311e+00
  -3.403821e+01   4.672395e+00
  -2.879355e+01  -7.896005e+01
   1.022162e+02  -8.585111e+01
   1.618998e+02  -2.672465e+01
   1.594561e+02   8.877356e+01
   5.210300e+00   1.711721e+02
  -1.470205e+02   1.337301e+02
  -1.777372e+02  -6.272432e+00
  -5.065421e+01  -9.994618e+01
   5.715815e+01  -7.811619e+01
   7.239047e+01  -1.731834e+01
   6.229842e-01   2.794455e+01
  -2.403862e+01   3.153488e+00
   1.171561e+01   2.733039e-01
   7.789500e+01   5.539112e+01
   8.699425e+01   1.034814e+02
  -2.969054e+00   1.620190e+02
  -9.496986e+01   1.434653e+02
  -1.990008e+02   3.554232e+00
  -1.650972e+02  -1.307125e+02
  -3.185178e+01  -2.072809e+02
   1.503436e+02  -1.372178e+02
   1.043911e+02  -1.861576e+00
   6.176399e+01   3.163986e+01
   2.183483e+01  -3.477945e-01
   7.545758e+01  -1.958748e+01
   8.092979e+01   6.557017e+00
   4.615968e+01   8.699770e+01
  -5.188318e+01   8.887245e+01
  -1.334890e+02   4.485418e+01
  -8.405509e+01  -7.520713e+01
   4.441687e+01  -9.824840e+01
   1.714417e+02  -7.841997e+01
   1.519130e+02   5.842755e+01
   8.622449e+01   1.566785e+02
  -1.246369e+02   2.039601e+02
  -2.377904e+02   2.158617e+01
  -1.886439e+02  -8.172280e+01
  -5.973104e+01  -1.722432e+02
   3.700299e+01  -1.139680e+02
   8.393647e+01  -7.369062e+01
   5.633089e+01  -6.709429e+01
   3.127181e+01  -6.195745e+01
   7.455546e+01  -7.614248e+01
   1.437447e+02   4.284161e+01
   7.080757e+01   1.547527e+02
   2.399602e+01   1.856860e+02
  -1.073742e+02   1.682475e+02
  -1.260330e+02   4.798315e+01
  -1.168115e+02  -1.536052e+02
   3.321611e+00  -1.307010e+02
   8.050395e+01  -6.195920e+01
   7.635456e+01   3.303265e+01
   4.360441e+01   6.944985e+01
  -1.925215e+01   3.215769e+01
   5.413224e+01  -9.658202e+00
   8.310826e+01   1.810788e+01
   5.536138e+01   1.925459e+01
  -5.604271e+01   2.474154e+01
  -1.321858e+02  -5.703959e+00
  -1.538177e+02  -5.833135e+01
  -1.911124e+01  -6.760478e+01
   1.475048e+02  -3.703782e+01
   1.171198e+02  -4.358689e+01
   4.200888e+01   3.889059e+01
  -2.975427e+01   1.580920e+01
  -1.217439e+02  -3.229595e+01
  -3.034588e+00  -7.215767e+01
   8.245696e+01  -7.706185e+01
   7.870820e+01   3.192711e+01
   4.239716e+01   3.071038e+01
   2.045641e+01   5.001711e+01
   5.104540e+01  -2.778158e+01
   3.777224e+01   7.325450e+00
   6.905840e+01   6.038047e+01
  -4.469756e+01   1.199240e+02
  -1.370950e+02   1.309164e+02
  -1.389677e+02   3.864202e+01
  -6.609949e+01  -1.038870e+02
  -2.677555e+01  -1.085302e+02
   7.075554e+01  -4.232444e+01
   4.939832e+01   1.342760e+01
  -3.336186e+01   3.186356e+00
  -1.348760e+02  -4.185350e+01
  -2.777948e+01  -9.053733e+01
   6.690832e+01  -1.004874e+02
   1.969865e+02  -3.177181e+01
   1.369465e+02   3.910704e+01
   8.095205e+00   1.125402e+02
  -5.027925e+01   3.837764e+01
  -1.662620e+01  -1.148790e+01
   5.137834e+01  -2.551053e+01
   6.542044e+01   3.029863e+01
   2.071255e+01   1.151486e+02
  -7.252198e+01   1.459677e+02
  -1.542847e+02   2.992211e+01
  -1.360025e+02  -9.591614e+01
  -3.049614e+01  -1.432089e+02
   2.943206e+01  -1.148308e+02
   9.695167e+01   4.623298e+01
   2.573085e+01   7.651254e+01
  -4.951176e+01   9.382432e+01
  -5.691821e+01   3.324787e+01
  -1.772233e+01  -5.115491e+01
  -2.342020e+01   1.794231e+01
   2.068859e-01   7.729032e+00
  -2.997313e+01  -5.287198e+00
  -2.866220e+01  -8.210311e+01
  -4.300142e+01  -6.451605e+01
   8.476948e+00  -4.439896e+01
   1.346331e+02   2.036241e+01
   1.144313e+02   8.073322e+01
   4.089098e+01   4.906712e+01
  -8.358632e+01   2.589340e+01
  -5.947821e+01  -1.386836e+01
  -2.659716e+01  -9.705597e-01
   3.245829e+01  -1.683152e+00
   2.336670e+01   2.780263e+00
  -1.369184e+01  -1.926385e+01
   1.754639e+01   7.489075e+00
   4.958119e+01   9.398570e+00
   6.414842e+01   4.479315e+01
   2.431084e+01   8.406545e+01
  -1.041503e+02   1.187942e+02
  -1.762938e+02   3.719349e+01
  -1.359534e+02  -5.136375e+01
   1.796456e+01  -1.611620e+02
   5.517508e+01  -1.116348e+02
   1.106879e+02  -7.687610e+01
   8.225910e+01   3.924106e+01
   2.474111e+01   3.324727e+01
  -1.099896e+01   8.991129e+00
   4.247930e+01   1.769044e+01
   2.629407e+01   5.215757e+01
   3.089585e+01   8.896733e+01
  -1.300773e+01   8.519508e+01
  -2.848185e+01   1.427374e+00
  -7.129107e+01  -9.972292e+01
  -3.101190e+01  -7.352095e+01
   6.279280e+01  -5.881989e+01
   7.568195e+01   5.462598e+01
   4.112057e+01   9.529557e+01
  -6.811188e+01   4.863772e+01
  -1.183980e+02  -2.433749e+01
  -7.977236e+00  -5.156974e+01
   3.053797e+01  -6.260769e+01
   2.043279e+01  -1.946801e+01
  -4.790993e+01   1.941273e+01
  -6.113669e+01  -8.210312e+00
  -1.151734e+00  -7.469378e+00
   6.102332e+01  -4.427747e+01
   1.155799e+02  -3.043978e+01
   5.221820e+01  -2.329153e-01
  -3.567453e+01   5.669097e+01
  -4.215485e+01   7.961950e+01
  -2.718370e+01   1.455104e+01
  -2.412394e+01  -6.896490e+01
   3.643712e+01  -3.095408e+01
   1.289327e+01   2.454782e+00
   4.047269e+01   4.830875e+01
  -1.176463e+01   3.168079e+01
  -2.475755e+01  -4.745424e+00
  -4.585176e+01   3.491820e+00
  -2.067137e+01  -1.596589e+01
   2.056117e+01   1.429585e+01
  -6.926188e+00  -7.612722e+00
   1.998427e+01  -2.871468e+01
   5.495680e+00  -3.749612e+01
   1.695091e+01   1.204228e+01
   1.560820e+01   2.475559e+01
   1.097490e+01   5.113159e+01
  -2.749845e+01   2.661319e+01
  -6.115200e+01  -6.158486e+01
   6.115608e+00  -1.297234e+01
   5.130040e+01  -3.955642e+01
   6.396221e+01   2.593369e+01
   6.403444e+01   1.824258e+01
   9.973721e+00   2.692761e+01
  -4.549130e+01  -4.005018e+00
  -3.868678e+01  -2.604796e+01
   6.296144e+00  -1.527532e+01
   3.326444e+01  -2.229752e+00
  -1.105399e+01   3.550092e+00
  -7.004227e+01   2.664288e+01
