
 $NMID
 id='ANONYMOUS ', fmtdat='(2E16.6)'
 volume=1.0
 tramp=1.0
 $END
  -2.670646e+03   1.007474e+02
  -1.939350e+03  -1.378543e+03
  -3.118031e+02  -1.682405e+03
   1.241413e+03  -5.758999e+02
   5.946279e+02  -9.745392e+01
  -1.473215e+02   1.345660e+02
  -3.829669e+02  -1.853508e+02
  -1.329411e+01  -5.105559e+02
   3.963825e+02  -4.658834e+02
   5.423742e+02   3.264993e+01
   4.137464e+02   4.734884e+02
  -7.500402e+01   6.522791e+02
  -3.438292e+02   7.690243e+01
  -2.107938e+02  -4.365962e+02
   9.989428e+01  -4.418918e+02
   3.570396e+02   2.548143e+01
   1.807281e+02   3.681820e+02
  -1.366951e+02   5.167199e+02
  -3.834511e+02   1.900171e+02
  -3.652099e+02  -2.458544e+01
  -8.305843e+01  -2.704149e+02
   9.222531e+01  -2.584279e+02
   8.501039e+01  -5.702092e+01
  -1.613563e+02  -5.344665e+01
  -3.297450e+02  -2.094754e+02
  -8.080534e+01  -3.362033e+02
   3.996491e+02  -2.541653e+02
   5.681297e+02   5.492180e+01
   2.164977e+02   3.072273e+02
  -3.165558e+02   2.656135e+02
  -4.897349e+02  -4.295435e+01
  -1.970150e+02  -3.613242e+02
   1.676044e+02  -3.334412e+02
   4.068194e+02  -1.597836e+02
   2.807038e+02   1.029640e+02
   4.855683e+01   2.528022e+02
  -6.928019e+01   1.398478e+02
  -6.178912e+01  -8.782583e+01
   1.606540e+02  -1.823022e+02
   2.583587e+02   1.321010e+02
   1.364768e+02   5.063476e+02
  -1.851277e+02   4.514677e+02
  -3.184161e+02   3.143882e+01
  -1.280114e+02  -3.636217e+02
   1.541706e+02  -1.491400e+02
   2.123399e+02   2.109656e+02
  -3.015026e+01   4.211701e+02
  -4.199913e+02   1.122858e+02
  -4.390220e+02  -3.557941e+02
  -9.338417e+01  -4.250603e+02
   2.699297e+02  -2.489258e+02
   4.504007e+02   5.331648e+01
   3.284925e+02   1.303461e+02
   2.810330e+01   2.317107e+02
  -2.783229e+02   3.255386e+01
  -1.678848e+02  -1.198914e+01
   4.915600e+01   2.141001e+00
   7.929818e+01   4.480230e+01
  -1.348059e+02   6.163107e+01
  -2.374835e+02  -5.371385e+01
  -1.474182e+02  -1.946851e+02
   8.448609e+01  -1.885677e+02
   2.023146e+02  -1.488245e+02
   1.934853e+02   3.616543e+01
   2.391670e+01   2.193740e+02
  -2.342853e+02   2.655429e+02
  -3.014395e+02   1.725244e+02
  -2.211075e+02  -8.768760e+01
  -1.310572e+02  -2.832180e+02
   2.328765e+01  -2.994232e+02
   1.271553e+01  -1.314951e+02
  -2.261975e+01  -5.365316e+01
   6.399603e+01  -6.467965e+01
   1.753411e+02  -7.118646e+01
   2.369555e+02   9.661045e+01
   1.099780e+02   2.482315e+02
  -7.251023e+01   1.495364e+02
  -1.529206e+02  -1.689504e+01
  -1.291446e+02  -2.283307e+02
   9.476464e+00  -1.771744e+02
   2.062856e+02  -1.364815e+02
   2.621103e+02   1.313218e+02
   1.592207e+02   2.527267e+02
  -3.620991e+01   2.332550e+02
  -1.489185e+02   1.444466e+02
  -9.680407e+01   8.990868e+01
  -1.019960e+02   7.058345e+01
  -2.025917e+02   5.676285e+01
  -3.396415e+02  -4.747529e+01
  -2.590653e+02  -1.200173e+02
  -4.735241e+01  -2.852647e+02
   2.762506e+02  -3.631321e+02
   3.843265e+02  -1.611443e+02
   2.640186e+02   8.194169e+01
   1.903680e+01   1.670742e+02
  -5.269211e+01   1.599431e+02
  -2.056377e+01   2.027990e+01
   1.015280e+02  -9.462534e+01
   1.210161e+02   1.699394e+01
   1.131689e+01   1.565614e+02
  -9.576831e+01   8.175167e+01
  -9.917529e+01  -2.281220e+01
   2.208122e+01  -1.413901e+02
   1.153798e+02   4.759240e+00
   1.422062e+02   1.757128e+02
   2.303111e+00   2.685189e+02
  -1.670975e+02   1.724662e+02
  -3.141070e+02   1.495618e+01
  -2.751450e+02  -1.525431e+02
  -6.293124e+01  -1.706845e+02
   9.535786e+01  -1.544896e+02
   1.157946e+02  -6.082524e+00
   4.290440e+01  -4.569381e+00
  -5.922752e+01  -5.151804e+01
  -4.663165e+01  -1.090786e+02
   1.005003e+02  -6.760360e+01
   1.232361e+02   1.134581e+01
   3.702246e+01   8.568855e+01
  -4.237057e+01   3.022362e+01
  -1.234312e+01  -7.729411e+01
   1.305266e+02  -8.316496e+01
   2.301851e+02  -1.181692e+01
   2.413190e+02   9.962570e+01
   6.155045e+01   2.527783e+02
  -1.667403e+02   1.875456e+02
  -2.494474e+02   1.436522e+02
  -8.925823e+01  -1.852761e+01
   3.540887e+01  -6.332076e+01
   5.646622e+01   1.951631e+01
  -1.698820e+01   7.643304e+01
  -1.413145e+02   2.712800e+01
  -1.548598e+02  -9.972936e+01
  -5.566752e+01  -1.304725e+02
   4.719579e+01  -1.397186e+02
   8.575925e+01  -2.644136e+01
   4.425841e+01   2.606956e+01
  -3.488937e+01   9.283325e+00
  -1.276979e+01  -8.693878e+01
   6.515857e+01  -1.135906e+02
   1.771662e+02  -3.974225e+01
   1.903059e+02   1.313817e+02
   4.725624e+01   1.536668e+02
  -1.285854e+02   1.186781e+02
  -1.502950e+02   3.496392e+01
  -3.650552e+01  -9.963598e+01
   5.182337e+01  -1.100562e+02
   4.754640e+01  -2.751592e+01
   1.101102e+01   2.889234e+01
  -2.414935e+01  -1.582203e+00
  -1.356393e+01  -3.142279e+01
   6.944938e+01  -1.377470e+01
   8.620168e+01   3.629547e+01
   3.568361e+01   1.489472e+02
  -7.733247e+01   1.285802e+02
  -2.151536e+02   6.350414e+01
  -1.419702e+02  -1.415959e+02
  -5.370875e+01  -1.564735e+02
   5.357866e+01  -1.551475e+02
   1.076001e+02  -1.861381e+01
   6.120289e+01   4.655875e+01
   3.201055e+01   1.733599e+01
   6.870648e+01  -4.429353e+00
   8.369406e+01  -2.728900e+01
   5.566205e+01   4.271424e+01
  -2.580541e+01   6.811557e+01
  -1.327159e+02   6.748878e+01
  -1.228553e+02  -6.162100e+00
   5.023098e+00  -1.096131e+02
   9.703027e+01  -1.176508e+02
   1.935857e+02   4.821899e+01
   1.113039e+02   1.313489e+02
  -8.982481e+01   1.989744e+02
  -2.401370e+02   9.665528e+01
  -2.347196e+02  -7.958301e+01
  -1.118616e+02  -1.276188e+02
   1.298376e+01  -1.072311e+02
   7.639922e+01  -7.820565e+01
   4.648398e+01  -8.088413e+01
   2.418330e+01  -1.043409e+02
   6.756737e+01  -7.462647e+01
   1.321988e+02   2.020990e+01
   1.000208e+02   1.361365e+02
   1.153415e+01   1.436403e+02
  -8.945736e+01   1.159643e+02
  -1.142723e+02   2.448489e+01
  -1.085184e+02  -9.266969e+01
   9.611211e+00  -1.101027e+02
   3.832999e+01  -9.105115e+01
   5.829564e+01   2.576628e+01
  -6.660163e+00   4.324877e+01
  -1.356623e+01   2.865256e+01
   1.142318e+01  -3.020028e-01
   6.597032e+01   1.036328e+01
   5.662673e+01   1.611230e+01
  -7.308638e+01   6.319022e+01
  -1.343068e+02   1.459293e+01
  -1.181600e+02  -3.801985e+01
  -1.626797e+01  -8.616944e+01
   8.869703e+01  -8.187699e+01
   9.422989e+01   2.949791e+01
   3.928139e+01   2.671781e+01
  -6.245149e+01   3.604791e+01
  -8.647352e+01  -8.913566e+00
  -4.732459e+01  -5.446051e+01
   6.467871e+01  -7.519813e+01
   7.998106e+01  -8.242557e+00
   5.194929e+01   1.180387e+01
   3.242420e+01   3.380247e+01
   4.867485e+01  -1.310240e+01
   5.798271e+01  -2.895578e+01
   6.836345e+01   3.951677e+01
  -1.630255e+01   1.246648e+02
  -6.750422e+01   9.096966e+01
  -1.736879e+02   2.773111e+01
  -1.161122e+02  -5.622484e+01
   1.336612e+01  -1.105376e+02
   6.475457e+01  -4.887420e+01
   6.703755e+01   4.967316e+00
  -2.777689e+01  -2.700044e+00
  -8.395316e+01  -1.698444e+01
  -6.238577e+01  -8.285452e+01
   8.132229e+01  -7.426367e+01
   1.505693e+02  -6.178548e+01
   9.832211e+01   4.126997e+01
   2.953926e+01   5.136659e+01
  -3.580683e+01   5.390941e+01
  -3.976489e+01  -3.460385e+00
   3.776492e+01  -4.144895e+01
   7.052689e+01  -7.139809e+00
   4.517799e+01   8.280884e+01
  -5.253212e+01   1.517014e+02
  -1.046639e+02   1.023253e+02
  -9.343907e+01  -5.405823e+01
  -2.509302e+01  -1.795676e+02
   4.887426e+01  -1.428639e+02
   9.266921e+01  -5.528683e-01
   4.456042e+01   9.583604e+01
   6.331150e-01   9.162804e+01
  -3.488417e+01   2.379750e+01
  -5.995821e+01  -1.657348e+01
  -2.214660e+01  -2.076670e+01
   2.265018e+00   1.033415e+01
  -2.009395e+00   3.789084e+00
  -5.938156e+01  -4.628543e+01
  -3.459339e+01  -8.640953e+01
   5.701020e+01  -1.504315e+01
   1.043897e+02   5.895272e+01
   1.173294e+02   7.747285e+01
   4.229167e+00   2.960527e+01
  -1.738647e+01   2.630885e+01
  -6.446437e+01   4.392805e+00
  -7.954602e+00  -8.065721e+00
   2.744620e+01  -1.499655e+01
   4.009555e+01  -3.966008e-01
  -5.478259e+01   9.493015e+00
   1.573477e+01   6.703966e+00
   3.743743e+01  -4.495234e+01
   6.390563e+01   1.934374e+01
   2.053537e+01   7.382434e+01
  -8.832382e+01   1.079604e+02
  -1.616134e+02   6.580438e+01
  -9.819489e+01  -5.170903e+01
  -3.827086e+01  -1.154537e+02
   6.054239e+01  -1.629983e+02
   9.910662e+01  -4.013332e+01
   9.370229e+01   4.671136e+00
   1.976633e+01   2.197074e+01
  -1.465741e+01  -6.440893e+00
   8.901363e+00   1.563779e+01
  -7.690816e+00   4.307734e+01
   1.382260e+01   6.422360e+01
  -5.000365e+01   5.265326e+01
  -8.664768e+01  -1.616666e+01
  -7.536017e+01  -5.896235e+01
  -5.771423e+01  -9.348498e+01
   7.580772e+01  -2.587711e+01
   8.038315e+01   1.033148e+01
   4.243060e+01   6.635146e+01
  -7.563118e+01   6.652025e+01
  -7.073874e+01  -1.906880e+01
  -5.078615e+01  -5.939599e+01
   1.983414e+01  -4.876706e+01
   3.162643e+01  -1.048558e+01
  -1.444204e+01  -1.685082e+01
  -3.932004e+01   6.022933e+00
   3.249514e+00  -2.270723e+01
   5.610300e+01  -3.468449e+01
   8.390246e+01  -7.692390e+01
   6.005010e+01   1.613562e+01
   3.249218e+01   7.849406e+01
  -5.043547e+01   1.004026e+02
  -1.438264e+01   5.487251e+01
  -2.401061e+01  -4.090384e+01
   4.075103e+01  -5.363319e+01
   3.911075e+01   1.849631e+01
   3.294899e+01   3.642363e+01
   1.634760e+01   3.040182e+01
  -1.320513e+01  -5.947327e+00
  -4.477506e+01  -6.878817e+00
  -1.690561e+01   1.070224e+01
  -1.110709e+01   2.229514e+01
   1.546548e+01   1.154116e+00
  -1.878875e+00  -3.072310e+01
   5.855794e+00  -3.949337e+01
   1.621396e+01  -1.077698e+01
   2.674094e+01   1.722670e+01
   3.114529e+01   2.560962e+01
  -2.739593e+01   2.274843e+01
  -4.282939e+01  -6.034150e+00
  -2.486872e+01  -5.144167e+01
   3.492987e+01  -2.633581e+01
   8.520598e+01   3.799859e+00
   4.898802e+01   2.494466e+01
   8.972636e+00   2.536951e+01
  -3.342481e+01   3.236380e+01
  -4.028505e+01   1.654409e+01
   2.191584e+01  -3.743263e+00
   1.393637e+01   9.050297e+00
  -4.719246e+01   2.556377e+01
  -6.467609e+01   3.069142e+01
