
 $NMID
 id='ANONYMOUS ', fmtdat='(2E16.6)'
 volume=1.0
 tramp=1.0
 $END
  -3.072893e+03   1.384145e+02
  -2.296145e+03  -2.041383e+03
   2.726499e+02  -2.306110e+03
   1.297981e+03  -9.835098e+02
   1.045807e+03   1.829058e+02
  -3.369672e+02   2.759426e+02
  -5.372623e+02  -1.782206e+02
   5.717768e+01  -7.537167e+02
   6.370641e+02  -5.687068e+02
   6.822428e+02  -8.647471e+00
   3.933008e+02   6.320869e+02
  -1.753192e+02   7.173245e+02
  -2.980557e+02   1.152713e+02
  -1.223621e+02  -4.187263e+02
   1.451017e+02  -6.050417e+02
   4.097121e+02   2.343897e+01
   1.731212e+02   5.299728e+02
  -2.469551e+02   5.128266e+02
  -4.924875e+02   1.920633e+02
  -3.796323e+02  -1.866310e+02
  -5.737396e+01  -3.013606e+02
   1.504165e+02  -2.252950e+02
   1.210578e+02  -6.375438e+01
  -1.135627e+02  -5.874752e+01
  -2.599203e+02  -2.185990e+02
   1.614932e+01  -3.766848e+02
   4.529696e+02  -1.676073e+02
   6.854200e+02   9.715342e+01
   2.886800e+02   4.942648e+02
  -3.730413e+02   2.678437e+02
  -5.211879e+02  -7.369649e+01
  -2.615514e+02  -3.917784e+02
   2.517600e+02  -3.382481e+02
   4.061207e+02  -4.300227e+01
   3.078650e+02   1.700481e+02
   1.339533e+02   3.727650e+02
  -5.639908e+01   2.258612e+02
  -9.075011e+01  -9.482593e+01
   2.014249e+02  -1.123117e+02
   2.607026e+02   1.768312e+02
   7.804263e+01   5.312519e+02
  -3.012278e+02   4.747414e+02
  -4.259695e+02   1.071061e+01
  -1.430611e+02  -3.610722e+02
   2.123006e+02  -2.054858e+02
   1.968712e+02   3.103313e+02
  -1.262837e+02   4.263083e+02
  -4.653572e+02  -7.818591e+00
  -4.377230e+02  -3.839873e+02
  -1.606638e+02  -5.251683e+02
   2.998841e+02  -2.351824e+02
   4.945156e+02   1.197815e+02
   3.317714e+02   2.967016e+02
  -1.051632e+02   2.584971e+02
  -3.129311e+02   2.101528e+01
  -2.067927e+02  -6.037098e+01
   5.114599e+01  -4.588393e+01
   5.375443e+01   8.958615e+01
  -1.090629e+02   7.476258e+01
  -2.322904e+02  -5.639746e+01
  -8.056219e+01  -2.088927e+02
   1.838315e+02  -2.579476e+02
   3.093883e+02  -1.144108e+02
   2.450980e+02   7.979488e+01
  -7.673256e+01   2.567276e+02
  -1.728010e+02   2.877353e+02
  -3.313122e+02   1.684753e+02
  -2.923135e+02  -1.703318e+02
  -5.028365e+01  -3.489338e+02
   1.092253e+02  -3.416966e+02
   4.036165e+01  -1.308669e+02
   8.751714e-01   6.554159e+00
   8.953440e+01  -9.225293e+01
   2.204519e+02  -1.079113e+02
   2.660898e+02   9.272613e+01
   7.362247e+01   2.599474e+02
  -1.052998e+02   2.130359e+02
  -1.934551e+02  -5.370196e+01
  -1.085731e+02  -2.600011e+02
   1.351783e+01  -2.322735e+02
   2.805737e+02  -1.841608e+01
   2.660317e+02   2.149242e+02
   1.285111e+02   3.023602e+02
  -8.066601e+01   2.833719e+02
  -1.905932e+02   1.398711e+02
  -1.156751e+02   7.216738e+01
  -1.504270e+02   4.541871e+01
  -2.367953e+02   2.659210e+01
  -3.759654e+02  -9.487752e+01
  -3.273265e+02  -3.707306e+02
   8.748134e-01  -3.937249e+02
   2.670540e+02  -3.536316e+02
   4.774336e+02  -1.637416e+02
   2.661742e+02   1.207829e+02
   3.257525e+01   2.587912e+02
  -1.150810e+02   1.982239e+02
  -4.762674e+01   4.294799e+01
   1.051310e+02  -2.810787e+01
   1.805563e+02   4.853572e+01
  -3.877624e+01   1.857531e+02
  -1.294654e+02   1.250969e+02
  -1.387279e+02  -5.100219e+01
   1.389956e+01  -1.337056e+02
   1.431503e+02  -3.378805e+01
   1.011092e+02   2.421217e+02
  -3.559858e+01   3.214561e+02
  -2.271310e+02   1.565176e+02
  -3.304528e+02  -5.897468e+01
  -2.238963e+02  -2.525642e+02
  -8.706543e+01  -2.814381e+02
   1.064035e+02  -1.685648e+02
   1.653853e+02   3.909155e+01
   3.042073e+01   4.604687e+01
  -2.764636e+01  -5.479173e+01
  -3.603667e+01  -1.134804e+02
   9.676829e+01  -4.752031e+01
   1.367015e+02   3.088648e+01
   3.180695e+01   7.278254e+01
  -6.958466e+01  -1.015235e+01
  -4.418285e+01  -7.347323e+01
   9.675865e+01  -6.210863e+01
   2.879991e+02   4.694529e+01
   2.596496e+02   1.473172e+02
   4.535050e+01   2.312063e+02
  -1.893275e+02   2.529300e+02
  -2.933623e+02   6.322466e+01
  -1.512792e+02  -1.893313e+01
   2.055041e+01  -9.939927e+01
   5.134904e+01  -3.796104e+01
  -5.288004e+01   6.152468e+01
  -1.554440e+02   3.867833e+01
  -1.552766e+02  -1.179936e+02
  -5.430769e+01  -1.749697e+02
   5.852222e+01  -1.591669e+02
   1.124723e+02  -4.125475e+00
   6.833232e+01   2.913524e+01
  -3.739974e+01  -1.231994e+01
  -9.910331e+00  -1.300634e+02
   1.073325e+02  -1.225739e+02
   1.932210e+02  -8.288346e+00
   1.716766e+02   7.918498e+01
   5.853667e+01   1.770453e+02
  -1.674899e+02   1.083161e+02
  -1.353083e+02   1.304922e+01
  -6.273198e+01  -6.179294e+01
   5.953861e+01  -8.929870e+01
   7.821195e+01  -1.676008e+01
   6.871565e+00   7.901458e+00
  -4.658606e+01  -3.385101e+00
   1.957289e+01  -5.197608e+01
   9.668655e+01  -2.385384e+00
   1.205304e+02   1.067146e+02
   9.558074e+00   1.451639e+02
  -1.277486e+02   1.429319e+02
  -2.093635e+02   1.356789e+01
  -1.957308e+02  -1.454371e+02
   4.620323e-01  -2.291658e+02
   1.109395e+02  -1.518616e+02
   1.413842e+02  -1.952938e+01
   8.463181e+01   2.337710e+01
   1.626367e+01   2.256369e+01
   4.943639e+01  -2.748077e+01
   8.018340e+01  -2.234366e+01
   5.562276e+01   5.350151e+01
  -4.150645e+01   7.202523e+01
  -9.912079e+01   6.027171e+01
  -1.162490e+02  -6.179562e+01
   1.288823e+01  -1.126502e+02
   1.573890e+02  -8.877592e+01
   1.736111e+02   3.815242e+01
   6.129453e+01   1.836684e+02
  -1.422722e+02   2.193001e+02
  -2.895304e+02   5.574301e+01
  -2.143204e+02  -1.330272e+02
  -7.540558e+01  -1.539505e+02
   4.344815e+01  -1.275880e+02
   8.988416e+01  -7.017784e+01
   6.434752e+01  -7.199261e+01
   4.731001e+01  -1.021649e+02
   8.939818e+01  -9.533895e+01
   1.073814e+02   7.161479e+01
   9.610954e+01   1.452474e+02
   6.941955e+01   2.103962e+02
  -6.207454e+01   1.434334e+02
  -1.439414e+02   5.265157e+01
  -9.635627e+01  -1.485733e+02
   9.144709e+00  -1.400797e+02
   7.747517e+01  -7.581670e+01
   6.698530e+01   1.658772e+01
   1.216563e+01   4.189586e+01
   9.912031e+00   3.048506e+01
   1.681914e+01   2.772718e+01
   6.248238e+01   3.339184e+01
   1.435693e+01   4.145299e+01
  -8.356861e+01   3.603740e+01
  -1.772420e+02   1.905408e+01
  -1.251711e+02  -4.558312e+01
   1.159863e+01  -1.149342e+02
   1.360739e+02  -5.723845e+01
   1.522250e+02  -3.809115e+00
   2.008680e+01   4.142826e+01
  -4.773993e+01   2.990489e+01
  -5.445752e+01  -2.258319e+01
   5.927709e+00  -3.184927e+01
   5.472781e+01  -2.558795e+01
   6.935037e+01  -4.820556e+00
   4.638619e+01   5.791275e+01
   2.289795e+01   7.934852e+01
   6.244428e+01  -2.346226e+01
   6.348394e+01   1.836712e+01
   3.129675e+01   7.716550e+01
  -1.641535e+01   1.344529e+02
  -1.222666e+02   1.340106e+02
  -1.031233e+02   4.863931e+00
  -1.416132e+02  -9.147322e+01
   1.406724e+00  -1.094296e+02
   8.975734e+01  -9.602418e+01
   5.739746e+01   2.744994e+01
  -5.154652e+01   4.923310e+00
  -1.133641e+02  -5.232662e+01
  -5.096725e+01  -1.147343e+02
   9.102200e+01  -7.939245e+01
   1.766620e+02  -6.265497e+01
   1.521241e+02   3.333050e+01
   2.401315e+01   7.841696e+01
  -7.366128e+01   5.111092e+01
  -4.458729e+01  -1.194570e+01
   5.000201e+01  -3.999208e+01
   5.532500e+01   1.041191e+01
   3.187736e+01   1.124857e+02
  -1.036624e+02   2.011168e+02
  -1.920035e+02   5.377361e+01
  -1.240032e+02  -6.480129e+01
   4.961416e+00  -1.641207e+02
   1.256296e+02  -1.274142e+02
   9.119668e+01   2.676837e+01
   3.679543e+01   1.006271e+02
  -1.863796e+01   8.238665e+01
  -3.498491e+01   1.020555e+01
  -3.159696e+01  -2.584031e+01
  -1.303702e+01  -2.023849e+01
  -1.423971e+01   2.592921e+01
  -1.002099e+01  -1.376110e+01
  -7.952957e+01  -7.867832e+01
  -4.220307e+01  -1.163963e+02
   5.389584e+01  -3.183773e+01
   1.133618e+02   1.472000e+01
   1.220638e+02   9.226000e+01
   8.125194e+00   5.031507e+01
  -9.348903e+01   3.435926e+01
  -6.840789e+01   1.531824e+01
  -2.498583e+00   1.010489e+01
   5.043304e+01  -3.114770e+01
   3.190782e+01   1.195225e+00
  -2.662964e+01  -1.359253e+01
   2.275511e+01   1.057267e+01
   3.733716e+01  -1.301002e+00
   1.009956e+02   3.493893e+01
  -9.546363e-01   7.268985e+01
  -8.846060e+01   7.517163e+01
  -1.579098e+02   6.194940e+01
  -1.443851e+02  -7.286610e+01
  -5.766332e+01  -1.464553e+02
   6.454633e+01  -1.452921e+02
   1.377283e+02  -5.292239e+01
   6.699123e+01   3.206643e+01
   2.041187e+00   3.352454e+01
   1.488679e+01   1.689262e+01
   7.087951e+00  -1.144602e+01
   5.087032e+01   6.315272e+01
   2.302313e+01   6.381265e+01
  -4.072026e+01   5.280267e+01
  -6.262219e+01  -1.715837e+01
  -7.161356e+01  -6.292968e+01
   3.374693e+00  -9.626905e+01
   8.167259e+01  -2.325367e+01
   1.157088e+02   5.433664e+01
   2.971537e+01   8.670813e+01
  -6.918973e+01   7.639843e+01
  -7.952728e+01  -3.773001e+01
  -6.238230e+01  -5.716939e+01
   5.299957e+01  -3.990030e+01
   7.294820e+01  -4.235951e+01
  -2.927621e+01  -2.363459e-01
  -3.145365e+01  -3.166595e+01
  -2.511489e+01  -1.653925e+01
   1.171992e+02  -6.464482e+01
   1.195576e+02  -3.297300e+01
   7.973425e+01   1.404605e+01
   2.024268e+01   1.012385e+02
  -5.933607e+01   1.155128e+02
  -2.693550e+01   3.689937e+00
   5.139105e+00  -3.843195e+01
   2.182728e+01  -7.565105e+01
   5.472148e+01   1.969924e+01
  -6.235193e+00   5.715497e+01
  -1.590206e+01   2.274467e+01
  -1.335392e+01  -9.664672e-01
  -2.208642e+01  -4.966764e+01
  -1.647363e+01  -1.376188e+01
   1.377985e+01   6.754487e+00
   2.199813e+01  -3.133081e+00
   1.026635e+01  -2.172508e+01
   1.398504e+01  -2.666453e+01
   3.509624e+01  -1.276383e+01
   2.174887e+01   2.444787e+01
   6.377897e+00   4.229203e+01
  -3.841238e+01   5.426492e+01
  -7.230584e+01  -4.022888e+01
  -1.559113e+01  -4.923730e+01
   4.542140e+01  -3.192102e+01
   4.112632e+01   1.033903e+01
   3.839183e+01   2.679515e+01
  -2.384401e+01   6.354281e+01
  -4.544586e+01  -5.161479e+00
  -3.855614e+01   2.827235e+01
   2.499192e+01   1.040756e+00
   1.667804e+01   4.756833e+01
   7.945409e+00   2.767802e+01
  -7.598145e+01  -3.585685e+00
