
 $NMID
 id='ANONYMOUS ', fmtdat='(2E16.6)'
 volume=1.0
 tramp=1.0
 $END
  -1.116217e+03  -5.987067e+02
  -7.185747e+02  -1.035095e+03
   5.657786e+02  -8.914664e+02
   6.855107e+02  -1.227479e+02
   1.872174e+02   1.816014e+02
  -2.279131e+02   9.218959e+01
  -1.400831e+02  -2.567196e+02
   9.696974e+01  -2.069890e+02
   3.337832e+02  -2.233418e+02
   3.349653e+02   1.201428e+02
   1.218661e+02   4.192248e+02
  -1.264758e+02   1.839519e+02
  -1.722691e+02   1.627087e+00
  -1.055853e+02  -4.261652e+02
   1.695618e+02  -2.284356e+02
   1.778077e+02   5.332118e+01
  -4.754851e+01   2.367981e+02
  -8.673576e+01   1.980644e+02
  -1.516952e+02  -1.995712e+01
  -1.709678e+02  -1.309514e+02
   2.354538e+01  -1.486610e+02
   6.344707e+01  -6.723617e+01
   6.672021e+01   5.716569e+01
  -3.940984e+01  -3.148826e+01
  -1.830049e+02  -9.902808e+01
   3.506407e+00  -2.168601e+02
   2.512254e+02  -3.814432e+01
   3.666462e+02   1.336629e+02
   9.191526e+01   2.567091e+02
  -2.169859e+02   1.144303e+02
  -3.096790e+02  -7.543355e+01
  -5.305169e+01  -1.421993e+02
   2.011179e+02  -1.815812e+02
   2.602292e+02  -3.787222e+01
   1.545240e+02   1.807738e+02
  -6.004312e+01   1.303978e+02
  -7.250807e+01   2.110001e+01
  -1.455734e+01  -5.200132e+01
   1.231496e+02  -9.124087e+01
   1.604658e+02   8.397511e+01
  -5.800156e+01   3.581420e+02
  -2.135639e+02   2.693762e+02
  -2.337186e+02  -1.021319e+02
  -9.925229e+00  -2.483675e+02
   9.330134e+01  -7.364263e+01
   5.664178e+01   1.340958e+02
  -1.332336e+02   1.972309e+02
  -2.772881e+02   4.135806e+00
  -3.360827e+02  -2.174189e+02
  -7.209555e+01  -1.707605e+02
   1.846842e+02  -4.723769e+01
   1.944727e+02   4.517544e+01
   7.926676e+01   1.119259e+02
  -7.798530e+01   9.862991e+01
  -1.203315e+02  -3.846642e+00
  -7.849641e+01  -9.317703e+01
   3.462257e+01   1.487772e+01
  -1.155210e+01   7.941110e+01
  -9.501834e+01   2.941369e+01
  -1.073309e+02  -6.079858e+01
   1.367694e+01  -1.615578e+02
   9.704275e+01  -9.649322e+01
   9.655009e+01  -1.768396e+01
   1.315840e+02   4.887541e+01
   1.380371e+01   9.060118e+01
  -1.234801e+02   1.306222e+02
  -1.107997e+02   9.113685e+01
  -1.205561e+02  -8.138445e+01
   2.296142e+00  -1.839825e+02
   6.336184e+01  -1.452174e+02
  -9.604465e+00  -3.561978e+01
  -1.270088e+00  -7.550104e+01
   1.017084e+02  -1.277442e+01
   1.136755e+02  -3.792097e+00
   1.408224e+02   5.044241e+01
   3.337861e+01   1.087415e+02
  -2.408984e+01   8.403154e+01
  -8.092750e+01   2.015310e+01
  -1.029798e+01  -1.052190e+02
   1.926267e+01  -9.419412e+01
   9.978502e+01  -2.478639e+01
   7.495294e+01   5.948040e+01
   2.745952e+01   2.070477e+02
  -4.788742e+01   1.262080e+02
  -7.708563e+01   1.464601e+01
  -5.990996e+01  -1.116086e+01
  -4.946643e+01   2.085568e+01
  -9.834837e+01   1.501322e+01
  -1.625944e+02  -6.811639e+01
  -1.096976e+02  -1.434970e+02
   6.427951e+01  -1.535293e+02
   1.633558e+02  -1.051707e+02
   2.473311e+02  -9.828157e+00
   1.444388e+02   9.729904e+01
  -1.214945e+01   8.945265e+01
  -8.815764e+01   1.876369e+01
  -1.348834e+01  -8.380766e+00
   5.473452e+01  -4.937358e+01
   7.254821e+01  -3.598292e+00
  -1.411171e+01   9.906038e+01
  -8.931902e+01   1.361965e+01
  -5.303766e+01  -6.240419e+01
   2.832905e+01  -8.113795e+01
   4.795092e+01   7.430525e+00
   5.963925e+01   7.031590e+01
  -1.455159e+01   1.463801e+02
  -1.395946e+02   6.708739e+01
  -1.434327e+02  -3.257255e+01
  -4.858718e+01  -1.573347e+02
  -4.607178e+01  -1.081178e+02
   6.205196e+01  -4.358205e+01
   5.432773e+01   1.463172e+01
   3.261302e+01  -1.463970e+01
  -2.027483e+01  -2.390386e+01
  -1.160087e+01  -9.926231e+01
   6.932866e+01   1.625060e+01
   7.995367e+01   3.792594e+01
   7.637001e+00   3.792235e+01
  -3.261171e+01   1.896349e+01
  -1.040077e+01  -4.068178e+01
   8.167884e+01  -4.785533e+01
   7.681484e+01   4.387498e+01
   4.870414e+01   6.987412e+01
  -8.000911e+00   1.049728e+02
  -1.447195e+02   9.326383e+01
  -1.547364e+02  -3.545775e+00
  -5.563854e+01  -4.150433e+01
   2.571885e+01  -4.848807e+01
   4.002940e+01   6.242559e-01
  -1.807565e+01   2.789311e+01
  -7.129933e+01  -4.235132e+00
  -8.177496e+01  -7.376804e+01
   9.312057e+00  -8.114024e+01
   3.897367e+01  -5.150909e+01
   7.743522e+01   2.049281e+01
   9.124308e+00   1.657089e+01
  -2.153340e+01  -1.864790e+01
  -3.577454e+01  -5.205098e+01
   5.566139e+01  -4.301588e+01
   7.313616e+01   1.553678e+01
   5.520146e+01   4.799594e+01
  -5.865904e+00   1.008542e+02
  -8.725592e+01   6.314235e+01
  -9.665483e+01   1.200846e+01
  -3.617473e+01  -6.751462e+01
   9.515454e+01  -4.492114e+01
   1.314979e+00   1.951457e+00
  -1.541479e+01   8.380278e+00
  -2.084137e+01   1.419585e+01
  -2.220074e+00   1.763100e+01
   1.728905e+01   4.968291e+00
   1.846727e+01   1.700821e+01
  -2.179732e+01   4.634661e+01
  -7.209238e+01   6.333475e+01
  -1.369479e+02  -2.681462e+01
  -1.211306e+02  -5.634952e+01
   1.818038e+01  -9.418541e+01
   6.071461e+01  -3.855917e+01
   8.563975e+01   2.809912e+01
   5.714957e-01   3.271825e+01
  -4.738842e+00   4.265067e+01
   1.044616e+01   5.819701e+00
   4.485190e+01  -2.129933e+01
   6.940579e+00   2.524719e+01
  -4.775395e+00   4.530160e+01
  -4.666643e+01   4.292361e+00
  -2.938189e+01  -2.128744e+01
   1.679791e+01  -5.612620e+01
   3.713080e+01  -4.989037e+01
   4.642235e+01   9.673775e+00
   5.825722e+01   9.804770e+01
  -5.218959e+01   1.007716e+02
  -1.232980e+02   1.334118e+01
  -7.586723e+01  -8.917282e+01
  -5.876788e+01  -7.715800e+01
   5.699367e+01  -5.890388e+01
   1.370281e+01  -2.654148e+01
   2.948343e+01  -2.683908e+01
   1.043018e+01  -2.686670e+01
   3.472326e+01  -1.528399e+01
   7.085776e+01  -1.648911e+01
   4.633961e+01   7.444942e+01
  -1.350524e+01   8.695020e+01
  -4.328911e+01   4.751226e+01
  -7.414158e+01  -1.606174e+01
  -2.166742e+01  -9.887559e+01
   2.033425e+01  -3.284987e+01
   2.614261e+01  -5.154399e+01
   4.648215e+01   2.893238e+01
   1.616187e+01   6.715117e-01
  -8.872105e+00   1.204712e+01
   1.379011e+01   1.360357e+01
   3.446138e+01   4.776067e+01
   2.539581e+01   5.175970e+01
  -4.177036e+01   2.331341e+01
  -4.207951e+01  -8.484073e+00
  -6.476187e+01   1.091036e-01
   3.316084e+00  -4.364731e+01
   7.111904e+01  -1.202173e+01
   7.247193e+01   3.294469e+01
  -2.455782e+00   5.072309e+00
   5.412211e-01   2.298466e+01
  -2.416682e+01  -4.138401e+01
  -1.940830e+00  -2.421442e+01
   4.738269e+01  -5.844507e+01
   1.243539e+01  -1.180866e+01
   1.355515e+01   3.844237e+01
   1.591460e+00   8.850447e-01
   2.980660e+00  -1.644089e+01
   4.201445e+01  -9.206387e+00
   5.102940e+00   3.357142e+01
  -2.625266e+01   5.314410e+01
  -5.126677e+01   6.136026e+01
  -1.814443e+01  -2.309483e+00
  -3.181138e+01  -4.561361e+01
   2.686418e+01  -4.084312e+01
   1.580134e+01   1.809782e+01
   2.233845e+01  -1.717790e+01
  -3.629798e+01  -8.564079e+00
  -2.783085e+01  -2.445022e+01
  -3.734568e+01  -3.898220e+01
   4.566290e+01  -4.870205e+01
   7.569840e+01   1.321945e+01
   3.419185e+01   1.726683e+01
   1.826020e+01   3.230341e+01
  -2.516442e+01   2.300836e+01
  -2.626295e+01   4.655282e+00
   2.130513e+00  -2.281488e+01
   2.338410e+01  -7.220708e+00
   3.085436e+01   2.635655e+01
  -6.486992e+01   6.001411e+01
  -7.562887e+01   2.357770e+01
  -4.844205e+01  -5.762958e+01
   2.304670e+01  -5.429983e+01
   5.242825e+01  -1.079460e+01
   2.890214e+01   3.426050e+01
   1.478426e+01   4.720766e+01
  -2.927527e+00   2.536192e+01
  -7.579819e+00  -8.170561e+00
  -7.735783e+00   1.080775e+01
  -2.400401e+01  -1.708146e+01
  -2.513009e+01  -1.569209e+01
  -2.106739e+00  -5.692154e+00
  -3.659273e+01  -8.494905e+01
   1.962460e+01  -4.611779e+01
   2.588641e+01  -4.713997e+00
   3.487720e+01   5.017934e+01
   5.105754e+01   5.700632e+01
   2.407908e+01   1.462119e+01
  -6.137502e+01   4.527047e+00
  -1.680383e+01  -2.227141e+01
   1.727026e+01  -1.868605e+01
   1.250685e+01  -1.076475e+01
   4.435881e+01  -7.059166e+00
  -6.682368e+00   2.680428e+01
  -1.582643e+01   2.860801e+01
   1.738668e+01  -7.974439e+00
   3.528313e+01   7.790167e+00
   1.482036e+01   3.339926e+01
  -4.946668e+01   4.906810e+01
  -8.659772e+01   1.854400e+01
  -2.274935e+01  -5.250144e+01
  -1.100205e+01  -9.293078e+01
   3.690514e+01  -3.824505e+01
   5.336054e+01  -2.659663e+01
   2.802815e+01   2.498975e+01
   1.550239e+01   3.524689e+01
  -1.036278e+01   8.420874e-01
   1.430341e+01   2.472339e+01
  -6.253921e+00   5.064404e+01
  -1.491214e+01   6.153561e+01
  -2.131461e+00   3.894346e+01
  -3.158550e+01  -3.470273e+01
  -5.372717e+01  -7.110505e+01
   2.015672e+01  -8.620632e+01
   5.514045e+01  -1.544137e+01
   2.411087e+01   2.464048e+01
  -6.473032e+00   6.771674e+01
  -9.500735e+00   4.598794e-01
  -3.066987e+01  -1.334599e+00
  -2.477544e+01  -2.904329e+01
   3.296221e+01  -1.163601e+01
   7.550535e+00  -7.970343e+00
  -2.603649e+01  -2.035157e+01
  -1.713505e+01   1.246345e+01
  -3.955836e+01  -1.187961e+01
   1.219744e+01  -2.984501e+01
   8.046390e+01  -2.692484e+01
   5.646687e+01   6.827757e+00
  -1.129235e+01   5.940932e+00
  -4.105975e+01   2.611776e+01
  -3.657615e+01   6.688517e+00
   2.440567e+01   1.569694e-01
   2.833984e+01  -3.341560e+01
   3.182505e+01   9.682946e+00
   2.302552e+01  -5.862215e+00
  -9.482475e+00   1.472447e+00
  -2.471319e+01   3.390543e+00
  -1.038000e+01  -4.139717e+01
   1.597258e+01   1.013654e+01
  -1.305558e+01   1.446673e+01
   2.741346e+01   1.798272e+01
  -3.911771e+00  -1.076461e+00
   1.129505e+01  -1.953838e+01
   1.282342e+00  -1.642394e+01
   2.074469e+01   2.469758e+01
   3.560022e+01   2.346183e+01
  -3.680298e+01   8.732875e+00
  -1.371044e+01  -4.016040e+01
  -7.608919e+00  -2.914183e+01
   4.004152e+01  -1.350626e+01
   1.280669e+01  -8.696582e+00
   1.888876e+01   6.470338e-01
  -7.205866e+00   1.046460e+00
  -3.858191e+01  -1.137874e+01
  -2.205470e+01  -3.630351e+00
   2.440941e+01   1.912207e+01
   7.284096e+00   3.470048e+01
  -1.733883e+01   1.794194e+01
  -4.316591e+01   1.273823e+01
