
 $NMID
 id='ANONYMOUS ', fmtdat='(2E16.6)'
 volume=1.0
 tramp=1.0
 $END
   2.678057e+03   1.543235e+02
   1.454176e+03   1.696512e+03
  -5.319187e+02   1.642259e+03
  -1.444646e+03   3.586785e+02
  -6.376015e+02  -2.611346e+02
   4.531053e+02  -2.549035e+02
   4.223740e+02   2.862712e+02
  -1.552981e+02   5.166029e+02
  -4.632080e+02   5.096045e+02
  -5.104372e+02  -1.532992e+02
  -2.396377e+02  -5.393340e+02
   1.280937e+02  -5.666161e+02
   4.286314e+02   1.524046e+01
   1.837253e+02   4.914455e+02
  -1.851330e+02   4.357790e+02
  -3.236087e+02  -7.088679e+01
  -4.006085e+01  -4.663555e+02
   1.906114e+02  -4.260398e+02
   4.745791e+02  -1.512539e+01
   3.124397e+02   2.701709e+02
   6.052759e+01   2.593332e+02
  -1.433511e+02   1.403830e+02
  -1.510724e+02  -7.924176e+00
   1.200181e+02  -6.652955e+00
   1.709276e+02   1.925557e+02
   2.222896e+01   2.823409e+02
  -3.477605e+02   1.364663e+02
  -5.658683e+02  -1.785287e+02
  -2.311435e+02  -3.889847e+02
   2.984247e+02  -2.709859e+02
   4.425361e+02   1.329683e+02
   1.474745e+02   3.502912e+02
  -2.168611e+02   2.102642e+02
  -4.224733e+02   6.076422e+01
  -2.829136e+02  -2.024088e+02
  -3.021587e+01  -3.054588e+02
   1.096194e+02  -1.609801e+02
   8.009068e+01   1.113268e+02
  -1.469777e+02   2.004991e+02
  -2.155306e+02  -7.856369e+01
  -9.139671e+00  -4.911574e+02
   2.709919e+02  -4.470480e+02
   3.801590e+02   8.664986e+01
   9.232749e+01   3.430281e+02
  -2.067707e+02   1.782343e+02
  -1.849813e+02  -2.419195e+02
   1.149994e+02  -3.105495e+02
   3.877358e+02   6.828521e+00
   3.947126e+02   3.023607e+02
   1.286897e+02   4.233148e+02
  -2.974104e+02   1.595674e+02
  -3.257041e+02  -1.078556e+02
  -2.118544e+02  -2.811984e+02
   1.156606e+02  -2.116113e+02
   2.808012e+02   7.198681e+00
   1.169936e+02   1.156695e+02
  -4.532248e+01   4.845795e+01
  -7.237828e+01  -1.088043e+02
   1.212246e+02  -7.527890e+01
   2.148285e+02   9.625537e+01
   4.993725e+01   2.125757e+02
  -1.510255e+02   2.136969e+02
  -2.337995e+02   6.394914e+01
  -1.538501e+02  -9.076194e+01
   4.188720e+01  -2.159419e+02
   1.593768e+02  -2.433379e+02
   2.523532e+02  -1.134666e+02
   1.889339e+02   1.595740e+02
  -2.325614e+01   2.877190e+02
  -8.071352e+01   2.464393e+02
  -6.426678e+01   1.021555e+02
  -2.924325e+01   5.061058e+01
  -8.592236e+01   3.964452e+01
  -2.032158e+02   8.618919e+01
  -2.170987e+02  -6.692203e+01
  -3.702933e+01  -1.976014e+02
   7.272918e+01  -1.139903e+02
   1.601537e+02   3.742099e+01
   7.628932e+01   1.774538e+02
  -6.656851e+01   1.937884e+02
  -1.993137e+02   5.796223e+01
  -2.075865e+02  -1.399351e+02
  -7.032365e+01  -2.674362e+02
   1.302295e+02  -1.997962e+02
   1.818541e+02  -6.273848e+01
   6.129340e+01   6.380568e+00
   1.017184e+02  -8.424243e+00
   1.653962e+02  -1.317716e+01
   2.653375e+02   1.103837e+02
   2.149700e+02   2.706084e+02
  -5.504362e+01   2.897213e+02
  -3.034829e+02   2.353814e+02
  -4.039594e+02  -4.721221e+01
  -2.088552e+02  -7.724167e+01
  -8.256838e+00  -1.732991e+02
   1.303411e+02  -1.116692e+02
   3.440708e+01  -1.065960e+01
  -1.115575e+02   5.055768e+01
  -1.487959e+02   1.538920e+00
  -3.151122e+00  -1.573809e+02
   1.009939e+02  -7.861223e+01
   1.414249e+02   6.270522e+01
  -4.994577e+01   1.241087e+02
  -1.259170e+02   2.977938e+00
  -1.046992e+02  -1.742087e+02
   8.760775e+01  -2.228688e+02
   2.136352e+02  -7.155921e+01
   2.255911e+02   5.733791e+01
   1.356250e+02   2.076342e+02
   4.852773e+01   1.909391e+02
  -1.131627e+02   9.556913e+01
  -1.202569e+02   1.347060e+01
  -3.708114e+01  -1.810853e+01
   4.852862e+01   2.899268e+01
  -2.464187e+01   9.395250e+01
  -1.078797e+02   5.521027e+01
  -1.349779e+02  -5.782365e+00
  -8.763301e+00  -2.104891e+01
   7.837301e+01  -3.924826e+00
   3.241173e+01   4.690432e+01
  -1.015522e+02   6.904558e+01
  -1.745680e+02  -3.774605e+01
  -1.550249e+02  -1.387829e+02
  -3.560124e+01  -2.059175e+02
   1.938169e+02  -1.453255e+02
   2.176460e+02  -6.354410e+01
   1.169443e+02   4.142564e+01
  -4.970719e+01   1.162268e+02
  -6.925400e+01  -1.096302e+01
   2.176295e+01  -4.852196e+01
   1.403624e+02  -1.424825e+00
   1.233677e+02   6.734070e+01
   2.292393e+01   1.659851e+02
  -8.340258e+01   1.336569e+02
  -1.389595e+02  -2.180936e+01
  -1.953535e+01  -2.654506e+01
   3.378273e+01  -9.060445e+00
   3.231767e+01   6.301367e+01
  -4.338687e+01   8.281426e+01
  -1.440856e+02  -7.081271e+00
  -8.445964e+01  -1.024272e+02
   1.136005e+01  -1.576727e+02
   1.564717e+02  -1.007439e+02
   1.360064e+02   1.263940e+01
   1.878324e+01   8.790899e+01
  -6.751761e+01   5.968301e+01
  -6.169396e+01   1.338198e+01
   1.563961e+01  -2.612617e+01
   9.444039e+00  -1.099420e+01
   8.940904e+00   1.012615e+01
  -3.190962e+01  -2.823312e+00
  -9.538842e+01  -7.288119e+01
   3.651802e+01  -1.133195e+02
   1.239689e+02  -8.550689e+01
   1.749311e+02   4.142877e+01
   1.662192e+02   1.338834e+02
  -3.837473e+01   2.032525e+02
  -1.136932e+02   1.136264e+02
  -1.070154e+02   4.156837e+00
  -5.737218e+01  -4.803581e+01
  -2.027029e+01  -1.498112e+01
  -4.175200e+01   1.495599e+00
  -6.091164e+01   2.641041e+01
  -1.072685e+01  -5.976923e+01
   3.450178e+01  -4.571413e+01
   7.394644e+01  -2.286991e+01
   4.892802e+01   6.835911e+01
  -1.748965e+01   9.118121e+01
  -7.468125e+01   7.919072e+01
  -1.223313e+02  -2.540045e+01
  -6.271083e+01  -2.030050e+02
   1.278087e+02  -1.902928e+02
   1.561320e+02   1.358315e+01
   1.179419e+02   1.089274e+02
   8.900675e+01   1.570880e+02
  -6.940311e+01   1.007846e+02
  -7.628221e+01   5.307907e+01
  -5.125534e+01   3.762842e+01
  -3.793981e+01   5.196400e+01
  -8.386772e+01   4.233927e+01
  -8.691172e+01  -1.341106e+01
  -6.079378e+01  -1.155696e+02
  -2.003825e+01  -1.836663e+02
   6.131010e+01  -8.678222e+01
   1.209118e+02   2.455500e+01
   8.487590e+01   9.279446e+01
  -1.154753e-01   1.140127e+02
  -5.688005e+01   5.783048e+01
  -6.364292e+01  -1.887384e+01
  -5.355909e+00  -1.523784e+01
   1.308042e+01  -3.929555e+01
  -2.905176e+01  -4.050752e+01
  -8.414905e+01  -4.349898e+01
  -2.850166e+01  -4.250445e+01
   3.749247e+01  -3.244790e+00
   9.086994e+01   6.844702e+00
   1.033932e+02   4.514653e+01
   4.802788e+00   7.721262e+01
  -9.903242e+01   3.976038e+01
  -7.908434e+01  -5.011619e+01
  -4.567589e+00  -2.889469e+01
   3.026678e+01  -2.596510e+01
   7.026190e+01   1.432595e+01
  -1.043598e+01   4.257068e+01
  -5.153026e+01   5.006024e+01
  -5.081339e+01  -1.673740e+01
  -7.078853e+01  -3.207902e+01
  -1.481706e+01  -3.424187e+01
  -2.871027e+01   4.852902e+00
  -5.291607e+01  -3.643997e+01
  -3.097582e+00  -5.041476e+01
   4.774250e+01  -7.188176e+01
   1.308158e+02  -7.607162e+01
   1.062956e+02   3.012377e+01
   8.053414e+01   6.165598e+01
  -1.766557e+01   8.725806e+01
  -4.535845e+01   3.055950e+01
  -5.855465e+01   1.938016e-01
   4.873947e+01   5.996078e+00
   1.064648e+02   3.806822e+01
   3.821301e+01   8.134333e+01
  -5.305032e+01   3.791886e+01
  -1.371527e+02   3.153839e+01
  -9.730005e+01  -4.374760e+01
  -1.247584e+01  -5.075369e+01
   3.722725e+01  -8.873516e+00
   3.715007e+01  -1.005238e+01
   1.763990e+00  -1.896732e-01
  -6.275571e+01   4.069491e+00
  -9.637919e+00  -7.638812e+01
   6.718612e+01  -1.136864e+02
   1.191542e+02  -3.890340e+01
   9.126957e+01   8.609822e+01
  -1.731429e+00   1.437391e+02
  -8.055827e+01   9.437232e+01
  -1.613502e+01  -3.641838e+01
  -3.562802e+01  -8.379966e+01
  -2.659372e+00  -8.341421e+01
   5.428069e+00   1.255086e+01
   1.290960e+01   2.487599e+01
  -7.310390e+00   2.378457e+01
   5.485789e+00   4.274002e+00
   2.095188e+01  -4.394797e+00
   1.186768e+01   6.856555e+01
   1.386409e+01   8.049762e+01
  -1.877505e+01   4.758255e+01
  -8.342187e+01  -5.511692e+01
  -8.541031e+01  -9.498522e+01
  -2.009475e+01  -4.021856e+01
   7.319210e+01  -1.739306e+01
   7.049890e+01   1.074019e+00
   2.065427e+01   8.498420e+00
  -1.373113e+01  -1.621978e+01
   6.738225e-01  -9.236224e+00
   2.977908e-01  -1.314730e+01
  -2.200509e+01  -1.646739e+01
  -3.526810e+01  -1.730063e+01
  -6.537077e+01  -2.827586e+01
   1.965664e+01  -5.581587e+01
   8.917629e+01  -5.235525e+01
   1.240226e+02  -2.320674e+01
   7.639107e+01   4.657749e+01
   3.538757e+01   1.200777e+02
  -8.757391e+01   8.084637e+01
  -7.349715e+01   2.054279e+01
  -6.128087e+01  -1.715143e+01
  -5.113629e+00  -6.311689e+01
   2.626787e+01  -2.678507e+01
  -3.837491e+00  -6.948632e+00
  -1.147694e+01  -3.348380e+01
  -6.320521e+00  -8.438675e+01
   2.128207e+01  -5.506312e+01
   6.209053e+01   3.248865e+01
   4.322765e+01   8.125144e+01
  -1.590058e+00   7.615933e+01
  -6.633890e+01   3.911943e+01
  -8.462667e+01  -6.915744e+01
  -4.516340e+00  -8.975740e+01
   3.933309e+01  -2.041440e+01
   5.671060e+01  -2.094137e+00
   2.181193e+01   3.763177e+01
  -4.550320e+01   3.810911e+00
  -1.844194e+01   1.526224e+01
   2.363855e+01   1.838915e+01
   5.984590e+01  -9.041523e+00
   1.249326e+01   2.582062e+01
  -5.605088e+01   4.181018e+01
  -1.155558e+02   1.469570e+01
  -4.952560e+01  -3.416812e+00
   6.713761e+00  -1.899097e+01
   5.925488e+01  -9.921916e+01
   9.623989e+00  -5.703409e+00
   1.297985e+01   5.620300e+01
   2.465831e+00   4.020952e+01
  -6.102927e+01  -1.007573e+01
  -1.130451e+01  -4.366783e+01
   5.047603e+01  -1.460498e+01
   3.007088e+01  -1.791388e+01
   2.510077e+01   4.998873e+01
   1.976239e+01   9.776147e+00
  -4.440426e+00  -1.371606e+01
  -8.016804e+00   6.077727e+00
  -2.618204e+01   2.556031e+00
   6.866327e+00   3.507571e+01
  -1.230965e+01   9.523196e+00
  -9.741919e+00  -6.144291e+01
  -2.143386e+01  -3.490254e+01
   2.223644e+01  -1.860625e+00
   2.659926e+01   6.972515e+00
  -3.195386e+01   6.107912e+01
  -5.824789e+01   2.642842e+01
  -5.253872e+01  -1.213976e+01
  -2.343476e+01  -3.718784e+01
   4.801656e-01  -3.014207e+01
   4.684900e+01  -1.262105e+01
   9.628116e+00  -3.963746e+00
   1.771603e+00   1.454310e+00
  -3.198464e+01  -3.175565e+01
   3.774015e+00  -2.536890e+01
   6.451946e+01   2.314151e+00
