
 $NMID
 id='ANONYMOUS ', fmtdat='(2E16.6)'
 volume=1.0
 tramp=1.0
 $END
  -2.871700e+03   6.058126e+01
  -2.007847e+03  -7.390491e+02
  -1.963809e+02  -1.868999e+03
   8.399066e+02  -1.331163e+03
   8.707201e+02  -4.559801e+02
   1.143369e+02   1.637941e+02
  -3.897015e+02  -1.024674e+02
  -1.591647e+02  -3.302830e+02
   2.720240e+02  -5.806718e+02
   5.792945e+02  -2.465591e+02
   4.109453e+02   2.818417e+02
   2.067156e+02   5.368100e+02
  -1.809823e+02   2.416277e+02
  -1.917884e+02  -2.351041e+02
   3.053495e+01  -4.542014e+02
   2.688514e+02  -1.232489e+02
   2.556032e+02   4.381462e+02
   4.447346e+00   5.365068e+02
  -2.834130e+02   3.298830e+02
  -3.440986e+02  -6.508544e+01
  -1.647955e+02  -2.612490e+02
   3.173820e+01  -2.454741e+02
   4.682687e+01  -9.203514e+01
  -2.042084e+02  -6.382457e+01
  -2.785494e+02  -1.949193e+02
  -5.783802e+01  -2.304111e+02
   3.470580e+02  -2.401281e+02
   4.115103e+02   1.712294e+02
   1.999847e+02   2.069636e+02
  -2.247380e+02   1.681406e+02
  -4.177625e+02   2.294338e+01
  -1.862555e+02  -2.298517e+02
   1.742105e+02  -3.526279e+02
   3.332437e+02  -1.747060e+02
   2.588131e+02   5.170177e+01
   5.779621e+01   2.565614e+02
   2.288777e+01   1.817805e+02
   7.184740e+01  -5.880461e+01
   1.555323e+02  -1.793001e+02
   1.799172e+02   5.262433e+01
  -1.507117e+01   3.010704e+02
  -1.293246e+02   3.565297e+02
  -2.049601e+02   1.017593e+02
  -1.453791e+02  -1.749083e+02
   1.005950e+02  -1.000646e+02
   1.187460e+02   1.352148e+02
  -2.493854e+01   3.240100e+02
  -3.280810e+02   9.077264e+01
  -4.217126e+02  -2.077783e+02
  -2.024838e+02  -2.647949e+02
   2.076690e+02  -2.893249e+02
   4.255057e+02  -7.293935e+01
   3.430044e+02   2.251416e+02
   3.165860e+00   1.302810e+02
  -1.991724e+02   1.547712e+02
  -1.763005e+02   3.557697e+01
  -2.614604e+01  -1.973267e+01
   6.695334e+01   8.187009e+00
  -7.437589e+01   6.586474e+01
  -2.056516e+02   4.777059e+01
  -1.319592e+02  -1.243607e+02
   7.543266e+01  -2.043543e+02
   2.983514e+02  -1.339813e+02
   2.053817e+02   5.662474e+01
  -1.783219e+00   2.625235e+02
  -2.256946e+02   3.746126e+02
  -2.588908e+02   1.620927e+02
  -1.564698e+02  -1.120541e+02
  -7.907659e+01  -2.543043e+02
  -1.576198e+01  -2.284703e+02
  -3.303807e+01  -1.112884e+02
  -4.183929e-01  -1.301978e+02
   1.066201e+02  -9.941180e+01
   2.318935e+02  -1.062236e+02
   1.988946e+02   5.485026e+01
   1.344922e+02   1.557306e+02
  -6.584960e+01   1.790153e+02
  -1.603827e+02   1.096489e+01
  -1.534227e+02  -2.239063e+02
  -1.014460e+00  -2.234729e+02
   1.612314e+02  -4.759423e+01
   2.720869e+02   1.195160e+02
   1.631991e+02   2.138377e+02
   3.270108e+01   1.975183e+02
  -1.723713e+02   1.711380e+02
  -1.185087e+02   6.620375e+01
  -1.332124e+02   6.515768e+01
  -2.604044e+02   8.071513e+01
  -3.951651e+02  -2.451323e+00
  -3.039758e+02  -2.216682e+02
   2.633558e+01  -4.207840e+02
   3.109728e+02  -3.628979e+02
   3.292923e+02  -2.070441e+02
   2.643815e+02   2.415654e+01
   5.735933e+01   2.319017e+02
  -8.622603e+01   1.649924e+02
  -7.024569e+00   7.611571e+00
   8.366801e+01  -3.073013e+01
   9.713806e+01  -9.047156e+00
   1.565146e+01   8.759748e+01
  -9.554897e+01   8.672876e+01
  -1.200866e+02  -4.140208e+01
   5.408106e+01  -1.384706e+02
   1.355703e+02  -1.581641e+00
   1.206994e+02   1.968561e+02
   4.035763e+01   2.605603e+02
  -1.531719e+02   1.811769e+02
  -3.120164e+02   2.195828e+01
  -2.574173e+02  -1.940064e+02
  -4.956725e+01  -2.067455e+02
   3.313927e+01  -9.977196e+01
   1.244212e+02  -4.415890e+01
  -7.161252e+00  -3.924106e+00
  -5.416594e+01  -7.347129e+01
  -3.547969e+01  -5.842674e+01
   1.138642e+02  -8.124179e+01
   8.843684e+01  -4.980559e+00
  -1.769955e+01   4.013931e+01
  -5.033780e+01   7.141765e-01
  -3.025134e+01  -1.142549e+02
   1.228571e+02  -1.092767e+02
   2.952794e+02   2.648993e+01
   2.380998e+02   1.395448e+02
   4.527665e+01   2.359161e+02
  -1.562260e+02   2.269695e+02
  -2.369881e+02   1.390947e+02
  -1.336128e+02  -5.106917e+01
  -1.057441e+01  -5.170989e+01
   4.702453e+01  -1.080456e+00
  -3.284993e+01   7.531980e+01
  -1.964113e+02   3.869622e+01
  -1.592907e+02  -9.046979e+01
  -7.142859e+01  -1.437629e+02
   7.534352e+01  -1.043809e+02
   8.852055e+01  -2.208102e+01
   4.712704e+01   9.943004e+00
  -4.308909e+01  -2.148620e+01
  -3.036684e+01  -8.236581e+01
   2.938184e+01  -1.052939e+02
   1.637286e+02  -5.126993e+01
   2.099993e+02   1.107554e+02
   1.766773e+01   1.895996e+02
  -7.286028e+01   1.529411e+02
  -1.494917e+02   7.690950e+01
  -4.852398e+01  -6.866835e+01
   3.470901e+01  -8.187769e+01
   4.285272e+01  -3.232830e+01
   1.452486e+01   3.357713e+01
  -3.687138e+01  -2.504636e+01
   2.137200e+01  -7.233738e+00
   7.233351e+01   1.191892e+01
   8.543359e+01   8.451153e+01
   3.916154e+01   1.408208e+02
  -8.454905e+01   1.193237e+02
  -2.019931e+02   5.356118e+00
  -1.775792e+02  -9.852573e+01
  -4.319059e+01  -1.593376e+02
   4.003240e+01  -1.160321e+02
   8.115278e+01  -5.419199e+01
   6.754907e+01  -3.990378e+00
   3.672780e+01   2.078065e+01
   5.491173e+01  -2.126555e+01
   8.444122e+01  -2.727162e+00
   7.764580e+01   3.472797e+01
  -2.501907e+01   8.879545e+01
  -9.445092e+01   8.122943e+01
  -1.243041e+02  -1.903158e+01
   2.280257e+01  -9.263998e+01
   1.323326e+02  -1.125330e+02
   1.878775e+02   6.289784e+01
   1.043097e+02   1.547300e+02
  -9.922415e+01   2.433793e+02
  -1.648551e+02   8.874970e+01
  -2.252944e+02  -5.885708e+01
  -4.199663e+01  -1.054224e+02
   1.616324e+01  -1.321895e+02
   5.828020e+01  -9.781418e+01
   5.118973e+01  -6.960066e+01
   2.443797e+01  -6.712419e+01
   6.503087e+01  -6.447716e+01
   1.113995e+02   7.147349e-01
   9.730445e+01   1.077625e+02
   6.738434e+01   1.783258e+02
  -5.955691e+01   1.984914e+02
  -1.354081e+02   1.956883e+01
  -1.303143e+02  -7.498541e+01
  -1.148109e+01  -1.183870e+02
   3.705649e+01  -6.136774e+01
   3.418152e+01   5.444978e+00
   5.691278e+00   4.865258e+01
  -1.808708e+01   3.605373e+01
   4.004365e+01   6.402803e-01
   1.004796e+02  -1.293197e+01
   2.620779e+01   3.527181e+01
  -5.056682e+01   2.740824e+01
  -1.406823e+02   1.062892e+01
  -1.104358e+02  -4.355630e+01
  -9.490142e+00  -9.385907e+01
   1.074242e+02  -9.911438e+01
   1.367507e+02  -4.703617e+01
   5.721720e+01   1.353395e+01
  -8.683145e+01   3.473298e+01
  -6.119835e+01   1.135514e+01
  -2.234076e+01  -7.905290e+01
   5.197956e+01  -6.293516e+01
   5.393645e+01  -3.005884e+01
   8.151922e+01  -1.214335e+01
   5.474325e+01   2.883362e+01
   3.873050e+01  -1.658302e+01
   7.062260e+01   8.340659e+00
   4.046808e+01   6.473046e+01
   5.850861e+00   1.207235e+02
  -1.020414e+02   1.168441e+02
  -1.426897e+02   2.764408e+01
  -1.337957e+02  -6.165779e+01
  -2.018480e+01  -1.208985e+02
   6.677646e+01  -7.100431e+01
   3.880783e+01   3.391075e+01
  -3.595740e+01   1.205190e+01
  -8.288812e+01  -3.486415e+00
  -9.804482e+01  -1.006058e+02
   1.948476e+01  -7.175643e+01
   1.757701e+02  -8.710643e+01
   1.207707e+02   4.139879e+00
  -5.432351e+00   2.898017e+01
  -2.918322e+01   3.902816e+01
  -5.759199e+01   8.062132e+00
   2.103308e+01  -3.552401e+01
   6.285254e+01   1.451714e+01
   6.428811e+01   8.983622e+01
  -2.890581e+01   1.038935e+02
  -1.047727e+02   2.101881e+01
  -9.574214e+01  -1.954969e+01
  -4.425971e+01  -1.849211e+02
   8.472172e+01  -9.862479e+01
   8.121487e+01  -2.065800e+01
   8.602825e+01   5.971935e+01
   2.465388e+01   5.379622e+01
  -5.300083e+01   1.867216e+01
  -1.694392e+01  -2.579264e+01
  -2.381175e+00   7.021624e+00
  -1.732093e+01  -3.051672e+01
  -6.642236e+01  -1.172612e+01
  -1.467335e+01  -4.884087e+01
  -4.176342e+01  -4.910391e+01
   2.330546e+01  -7.186161e+01
   1.334146e+02   2.740958e+01
   1.127397e+02   2.125141e+01
   2.074656e+01   2.980424e+01
  -4.342776e+01   2.319654e+01
  -7.195536e+01   1.328475e+01
  -2.136366e+01   4.867526e+00
   3.466542e+01  -1.795469e+00
   2.549349e+01   9.584817e+00
  -2.203724e+01  -1.520306e+01
  -7.130481e+00   2.485192e+01
   4.511466e+01   1.176655e+01
   9.751697e+01  -1.167162e+01
   2.983713e+01   7.583621e+01
  -8.420867e+01   1.388277e+02
  -1.210097e+02   6.023456e+01
  -1.459987e+02  -2.400788e+01
  -5.119145e+01  -1.061512e+02
   6.528391e+01  -1.612383e+02
   7.664500e+01  -6.126634e+01
   7.658853e+01   3.158067e+01
   3.287806e+01   3.781151e+01
   2.925495e+01  -2.723396e+01
   5.571140e+00   1.088265e+01
  -1.056619e+00   1.941630e+01
   1.939145e+01   8.779406e+01
  -6.925523e+00   7.570542e+01
  -6.602030e+01   3.291146e+01
  -8.454369e+01  -6.790837e+01
  -3.133601e+01  -7.324811e+01
   6.323819e+01  -2.054556e+01
   9.307450e+01   5.694414e+01
   7.532050e+01   5.200588e+01
  -1.119149e+01   8.801795e+01
  -8.109288e+01  -2.743228e+01
  -1.964703e+01  -8.550296e+01
   1.828744e+01  -6.612424e+01
   2.764597e+01  -2.839233e+01
   3.490866e+00  -4.379099e+00
  -3.475571e+01   1.248748e+01
  -3.690012e+01  -1.215715e+01
   4.762444e+01  -8.315193e+01
   9.107138e+01  -5.328497e+01
   6.853953e+01  -1.367466e+01
   8.102556e+00   6.047921e+01
  -5.758927e+01   8.937293e+01
  -4.600897e+01   1.297931e+01
  -1.181445e+01  -5.508960e+01
   8.110941e+00  -7.312479e+01
   3.644910e+01   1.285342e+01
   4.975286e+01   4.130419e+01
  -8.673063e+00   5.746306e+01
  -3.396463e+01   1.181348e+01
  -4.301019e+01   7.494069e+00
  -1.300594e+01   2.806183e+01
   2.170714e+01   1.809741e+01
   1.549927e+01  -2.475465e+00
  -1.720220e+00  -1.318232e+01
   1.534679e+01  -3.508130e+01
   2.615398e+01  -2.554731e+01
   5.277074e+01   2.035154e+01
   2.906574e+01   2.716869e+00
  -1.434451e+01   4.725304e+01
  -5.236104e+01  -2.454689e+01
  -1.378810e+01  -3.779609e+01
   4.105226e+01  -6.569868e+01
   6.284114e+01   1.622988e+01
   6.596968e+01   1.089587e+01
  -6.098997e+00   3.652609e+01
  -6.081514e+01  -2.195435e+01
  -1.744374e+01   2.903651e+01
   5.721918e+01   1.432651e+01
   1.170173e+01   6.752334e+00
  -2.206556e+01   4.615081e+01
  -7.046363e+01   5.508470e+01
