
 $NMID
 id='ANONYMOUS ', fmtdat='(2E16.6)'
 volume=1.0
 tramp=1.0
 $END
  -2.722551e+03  -3.667937e+02
  -1.751083e+03  -1.936735e+03
   8.531233e+02  -1.717498e+03
   1.347906e+03  -2.722668e+02
   7.047688e+02   4.073649e+02
  -3.955178e+02   2.809539e+02
  -4.390643e+02  -4.014149e+02
   6.395868e+01  -6.554272e+02
   5.489239e+02  -4.464459e+02
   6.177061e+02   1.008967e+02
   1.928848e+02   6.605183e+02
  -1.137480e+02   6.570602e+02
  -4.176103e+02  -2.701752e+01
  -1.114355e+02  -5.675886e+02
   2.094346e+02  -5.082372e+02
   4.081000e+02   9.517484e+01
   1.012069e+02   4.161007e+02
  -2.507752e+02   3.831791e+02
  -4.955083e+02   6.007736e+01
  -2.738799e+02  -2.883013e+02
   1.540091e+01  -2.799569e+02
   1.754768e+02  -1.433598e+02
   1.578077e+02  -4.046086e+00
  -8.731514e+01   2.930582e+01
  -2.520297e+02  -2.450045e+02
  -1.435927e+01  -2.722792e+02
   3.817405e+02  -1.270452e+02
   5.736836e+02   2.134012e+02
   2.142682e+02   3.925151e+02
  -2.856475e+02   2.356284e+02
  -4.594861e+02  -1.411763e+02
  -1.553306e+02  -3.533720e+02
   2.366549e+02  -3.142921e+02
   4.288210e+02  -6.827120e+01
   2.813174e+02   2.260341e+02
   5.988800e+00   2.591479e+02
  -1.407149e+02   1.815059e+02
  -7.250230e+01  -1.043861e+02
   1.669923e+02  -1.804390e+02
   2.366455e+02   4.176825e+01
   1.340777e+01   5.169594e+02
  -2.846248e+02   4.755486e+02
  -4.357754e+02  -1.186828e+02
  -6.836233e+01  -3.710648e+02
   2.520258e+02  -1.720260e+02
   2.211855e+02   2.429559e+02
  -1.672817e+02   3.256437e+02
  -4.239031e+02  -4.757195e+01
  -3.776699e+02  -4.248632e+02
  -1.792561e+02  -4.071736e+02
   2.710006e+02  -1.428157e+02
   3.684479e+02   1.276108e+02
   1.797766e+02   2.923273e+02
  -1.709999e+02   1.933325e+02
  -3.321409e+02   4.369198e+01
  -1.148472e+02  -1.210530e+02
   3.887293e+01  -2.622578e+01
   5.588488e+01   1.190291e+02
  -1.557779e+02   6.329149e+01
  -2.187974e+02  -8.230955e+01
  -7.743149e+01  -2.151203e+02
   1.493758e+02  -2.221345e+02
   2.675454e+02  -7.981673e+00
   1.238943e+02   1.148113e+02
  -4.853611e+01   2.374527e+02
  -1.577625e+02   1.811997e+02
  -2.796934e+02   1.226322e+02
  -2.364503e+02  -1.468688e+02
   2.415711e+01  -3.325548e+02
   6.021253e+01  -2.665342e+02
   1.027065e+02  -7.908125e+01
   3.052510e+01  -2.683602e+01
   8.073921e+01  -1.196194e+01
   2.100591e+02  -6.247606e+01
   2.281978e+02   8.944534e+01
   5.508356e+01   2.175969e+02
  -8.042819e+01   1.393290e+02
  -1.826339e+02  -3.610060e+01
  -1.327986e+02  -1.887601e+02
   6.967542e+01  -1.614941e+02
   2.288825e+02  -5.075786e+01
   2.261285e+02   1.582645e+02
   8.559220e+01   2.729243e+02
  -6.354584e+01   2.188381e+02
  -1.668121e+02   3.346310e+01
  -7.884001e+01  -1.761031e+01
  -9.449114e+01  -2.540556e+00
  -1.483491e+02   3.236052e+01
  -2.351747e+02  -9.852663e+01
  -2.274632e+02  -2.711543e+02
   2.018865e+01  -2.931535e+02
   3.088945e+02  -2.312136e+02
   3.793900e+02  -2.842869e+01
   2.005206e+02   1.316106e+02
  -4.086469e+01   2.080316e+02
  -1.310105e+02   1.078134e+02
  -2.648980e+01   3.007172e+01
   7.910432e+01  -5.164667e+01
   1.352919e+02   7.585347e+00
  -2.139923e+00   1.436851e+02
  -1.290532e+02   7.487166e+01
  -1.326831e+02  -7.505723e+01
   2.580161e+01  -1.232465e+02
   1.306661e+02   6.355192e+00
   1.213191e+02   2.000651e+02
  -5.936659e+01   2.616995e+02
  -1.978541e+02   5.756002e+01
  -2.311905e+02  -8.036583e+01
  -1.690502e+02  -2.361423e+02
  -5.040312e+01  -2.110553e+02
   7.483541e+01  -9.997428e+01
   1.011815e+02  -9.952371e+00
   3.459007e+01   8.543615e+00
  -4.575234e+01  -4.311443e+01
  -7.260712e+00  -8.447719e+01
   9.672424e+01  -2.286963e+01
   1.200585e+02   1.310232e+01
   2.801554e+01   5.432699e+01
  -5.367301e+01   6.064257e-01
  -4.147018e+01  -7.755448e+01
   1.158488e+02  -3.898357e+01
   1.911695e+02   6.014618e+01
   1.810161e+02   1.482991e+02
  -2.698917e+01   1.946064e+02
  -1.499436e+02   1.409055e+02
  -2.230729e+02   5.003860e+01
  -1.412665e+02  -5.546671e+01
   2.587192e+01  -1.022188e+02
   7.291817e+01   1.809186e+01
  -2.711991e+01   6.153873e+01
  -1.341283e+02   1.613019e+01
  -1.407787e+02  -6.652040e+01
  -3.174907e+01  -1.294635e+02
   1.181453e+02  -9.185469e+01
   1.242997e+02  -1.075145e+01
   3.823261e+01   3.607472e+01
  -5.331912e+01  -1.406588e+01
  -2.225769e+01  -1.163243e+02
   5.647744e+01  -5.077689e+01
   1.406647e+02   4.177579e+01
   3.943984e+01   1.214922e+02
  -2.146535e+01   1.794062e+02
  -1.572702e+02   7.542656e+01
  -1.066942e+02  -2.966894e+01
  -2.258867e+01  -7.829395e+01
   6.283239e+01  -3.180306e+01
   6.774890e+01  -5.153927e+00
   2.252497e+01  -2.203077e+00
  -1.614719e+00   3.325330e+01
   8.799871e+00   8.539378e+00
   4.614519e+01   1.385303e+01
   8.756513e+01   9.750082e+01
   4.292415e+00   1.011900e+02
  -1.223769e+02   8.436215e+01
  -1.653496e+02  -4.889692e+01
  -1.644308e+02  -1.426656e+02
   8.177836e+00  -1.750955e+02
   1.160628e+02  -1.081118e+02
   1.172471e+02   6.177228e+00
   5.524916e+01   4.407061e+01
   2.798511e+01   2.405738e+01
   2.274866e+01   4.040492e+00
   7.514547e+01   3.144714e+01
   1.781349e+01   5.463162e+01
   1.228339e+00   6.024186e+01
  -8.085736e+01   2.961134e+01
  -2.587373e+01  -3.476338e+01
   1.591478e+01  -9.542668e+01
   1.063334e+02  -4.899512e+01
   1.452550e+02   4.227288e+01
   6.121642e+01   1.476951e+02
  -1.331003e+02   1.729648e+02
  -1.812908e+02   4.375911e+01
  -1.754861e+02  -8.166799e+01
  -6.665839e+01  -1.540616e+02
   2.776471e+01  -9.014721e+01
   5.800320e+01  -5.645561e+01
   4.442993e+01  -4.494437e+01
   3.888138e+01  -4.429619e+01
   6.662487e+01  -6.015298e+01
   6.272093e+01  -3.890451e+00
   7.493092e+01   1.119319e+02
   2.228340e+01   1.709194e+02
  -8.435975e+01   7.752830e+01
  -1.038242e+02  -2.092358e+01
  -4.967586e+01  -1.058435e+02
   2.387853e+01  -8.390913e+01
   5.385582e+01  -6.699311e+01
   4.162195e+01   2.021662e+01
   1.819808e+01   9.854446e+00
  -3.004149e+01   5.621018e+01
   9.021288e+00   4.761105e+00
   6.445962e+01   3.992627e+01
   4.363348e+01   3.580991e+01
  -2.919386e+01   2.346309e+01
  -1.155007e+02  -2.356970e+00
  -1.238319e+02  -4.737841e+01
   2.800854e+01  -3.902583e+01
   9.350109e+01  -2.923179e+01
   1.040879e+02   4.388640e+01
   2.257726e+01   1.812419e+01
  -4.248189e+01   1.785174e+01
  -6.118919e+01  -2.263639e+01
   1.575453e+01  -5.696526e+01
   4.798258e+01  -1.239573e+01
   2.869664e+01  -2.387235e+00
   2.132031e+01   5.314130e+01
   1.122211e+01   4.928365e+01
   1.468414e+01  -3.246869e+00
   4.473843e+01   1.134246e+01
   1.838224e+01   5.596019e+01
  -4.326195e+01   1.085032e+02
  -7.581786e+01   9.380333e+01
  -1.003012e+02  -2.926803e+01
  -5.409374e+01  -8.924920e+01
   1.526238e+01  -7.186459e+01
   5.894454e+01  -2.007577e+01
   2.186141e+01   3.489428e+01
  -5.213122e+01  -1.208964e+01
  -8.423240e+01  -2.902854e+01
  -2.789099e+01  -8.693646e+01
   6.696647e+01  -8.257791e+01
   1.453940e+02  -2.103072e+01
   1.048021e+02   1.564471e+01
   4.601160e+01   5.168027e+01
  -5.757101e+00   1.335656e+01
  -2.139585e+01  -9.597500e+00
   4.302879e+01  -1.903201e+01
   7.189520e+01   1.605207e+01
   2.480376e+01   1.211483e+02
  -1.091927e+02   9.543304e+01
  -9.907582e+01   3.360432e+01
  -9.682509e+01  -1.036210e+02
   2.991821e+01  -1.322519e+02
   1.005339e+02  -1.016209e+02
   6.046537e+01   3.900554e+01
   2.093817e+01   1.038811e+02
  -3.031376e+01   7.476518e+01
  -3.512477e+01   1.417984e+01
  -2.770730e+01  -1.590310e+01
  -8.968417e+00  -7.826084e+00
  -2.095158e+01  -1.059578e+01
  -2.596193e+01  -1.565903e+01
  -1.521089e+01  -6.248112e+01
  -4.698630e+00  -9.105526e+01
   1.026138e+01  -2.988119e+01
   1.105954e+02   3.644259e+01
   9.654421e+01   6.981628e+01
   1.434293e+01   3.673655e+01
  -4.224860e+01   6.703725e+00
  -4.995941e+01   1.997969e+01
  -8.726946e+00  -1.035607e+01
   1.309657e+01  -2.010279e+01
   2.467013e+01   1.455107e+01
  -1.562661e+01   2.022640e+01
   1.209742e+01   1.201440e+00
   5.567877e+01   1.513580e+01
   6.956277e+01   4.495285e+01
  -1.137676e+00   4.604268e+01
  -9.649099e+01   7.238874e+01
  -1.439596e+02   1.524565e+01
  -1.054080e+02  -5.607933e+01
  -2.346914e+01  -1.440371e+02
   8.294442e+01  -5.978256e+01
   6.624718e+01  -3.732672e+01
   6.201615e+01   2.734110e+01
   1.157704e+01   7.838865e+01
  -4.312988e+00  -3.749083e+00
   5.683988e+00  -4.251286e+00
   2.348314e+01   3.391491e+01
  -1.319528e+01   5.473004e+01
  -1.720675e+01   7.503972e+01
  -5.725995e+01  -2.539072e+01
  -4.681979e+01  -7.444537e+01
   4.436316e+01  -8.974140e+01
   8.346316e+01  -4.672285e+01
   6.565839e+01   5.523003e+01
   1.012238e+01   1.082787e+02
  -6.035048e+01   3.005888e+01
  -5.642082e+01  -7.022859e+00
  -1.581570e+00  -5.155074e+01
   6.744425e+01  -3.932579e+01
   2.608445e+01  -2.939070e+01
  -3.148342e+01  -1.771432e+00
  -6.842140e+01  -2.331464e+01
  -1.217958e+01  -2.901740e+01
   8.502883e+01  -2.103236e+01
   8.989215e+01  -6.069814e+01
   7.030798e+01   4.921149e+01
  -2.486491e+01   4.636581e+01
  -4.492706e+01   9.923746e+01
  -1.395470e+00   1.658228e+01
  -2.160900e+00  -4.570498e+01
   4.339119e+01  -4.178897e+01
   5.490856e+01   1.931540e+01
   2.874813e+01   2.676971e+01
  -2.818596e+01   2.075561e+01
  -1.029840e+01   1.647719e+01
  -1.048995e+01  -2.233497e+01
   1.014700e+01  -1.150733e+01
   1.458030e+01  -1.629053e+00
  -9.022399e+00   1.560557e+01
   2.414342e+01   4.641049e+00
   2.226179e+01  -2.976142e+01
   3.495610e+01  -6.990029e+00
   4.736465e+01   5.376378e+01
  -1.024242e+01   4.775169e+01
  -1.883376e+01  -2.959455e+00
  -3.730975e+01  -3.763341e+01
   5.012683e+00  -3.606147e+01
   5.172341e+01  -1.461234e+01
   8.560885e+01   2.965549e+01
   1.564682e+01   3.349329e+01
   1.967329e+01  -6.524884e+00
  -4.809692e+01  -1.635898e+01
  -1.683451e+01  -8.005645e+00
   4.804492e+01   1.582300e+01
  -9.622675e+00   2.067354e+01
  -2.352424e+01   4.164683e+01
  -8.088106e+01   4.286511e+00
