
 $NMID
 id='ANONYMOUS ', fmtdat='(2E16.6)'
 volume=1.0
 tramp=1.0
 $END
  -2.860589e+03   2.232655e+01
  -1.232917e+03  -1.724264e+03
   2.850799e+02  -1.616674e+03
   1.012692e+03  -9.831613e+02
   7.098821e+02   5.202414e+01
  -5.194301e+01   2.471538e+02
  -3.853771e+02  -1.418435e+02
   6.913391e+01  -6.126351e+02
   3.297170e+02  -4.005278e+02
   5.218941e+02   6.554150e+01
   2.000154e+02   5.604179e+02
  -5.794593e+01   4.294705e+02
  -2.893076e+02   1.454675e+02
  -1.227422e+02  -3.455877e+02
   6.288020e+01  -4.552179e+02
   3.501499e+02   2.821653e+01
   2.204379e+02   3.465983e+02
  -1.655502e+02   4.218397e+02
  -4.591323e+02   1.298715e+02
  -3.020142e+02  -1.742577e+02
  -1.877102e+01  -3.145245e+02
   1.547470e+02  -1.480186e+02
   6.630275e+01  -6.077464e+01
  -1.224036e+02  -4.885608e+01
  -1.579948e+02  -2.400494e+02
   4.991134e+01  -3.173706e+02
   3.926275e+02  -9.181445e+01
   5.525287e+02   1.787351e+02
   1.933463e+02   3.329344e+02
  -1.889216e+02   1.162078e+02
  -3.710988e+02  -9.829161e+01
  -1.044346e+02  -3.372922e+02
   2.488566e+02  -3.018682e+02
   3.352468e+02  -3.626591e+01
   3.166054e+02   1.686089e+02
   6.502122e+01   2.867263e+02
  -5.661134e+01   1.625117e+02
  -2.035106e+01  -4.736847e+01
   1.263675e+02  -1.655797e+02
   1.573661e+02   1.088078e+02
  -8.331248e+01   4.032460e+02
  -2.953537e+02   2.979619e+02
  -3.670876e+02  -4.627336e+01
  -1.645243e+01  -2.647400e+02
   1.366666e+02  -4.404439e+01
   1.343955e+02   2.245903e+02
  -1.364229e+02   3.049028e+02
  -3.030500e+02  -1.906713e+01
  -2.744469e+02  -3.162372e+02
  -1.175779e+02  -3.743475e+02
   2.641430e+02  -2.224979e+02
   4.123199e+02   9.630462e+01
   2.129935e+02   2.061990e+02
  -7.172419e+01   2.023515e+02
  -2.667424e+02   4.095930e+01
  -1.461809e+02  -6.419811e+01
   1.894351e+01  -8.741556e-01
   3.138729e+01   3.512942e+01
  -1.265788e+02   7.890082e+01
  -1.526729e+02  -1.070479e+02
  -1.013766e+02  -1.674189e+02
   1.671385e+02  -1.367207e+02
   2.818934e+02  -5.791681e+01
   1.906046e+02   8.026619e+01
  -6.915186e+01   2.186367e+02
  -1.697460e+02   2.198715e+02
  -3.043247e+02   6.226509e+01
  -1.848828e+02  -1.230953e+02
  -1.675207e+01  -2.869113e+02
   7.124439e+01  -2.337509e+02
   7.848612e+01  -1.381623e+02
   3.442930e+01  -6.049083e+01
   6.363337e+01  -4.714968e+01
   1.928145e+02  -2.124043e+01
   1.641250e+02   1.007122e+02
   2.509366e+01   1.882823e+02
  -9.017751e+01   1.477251e+02
  -1.129821e+02  -2.315271e+01
  -5.922288e+01  -1.793760e+02
   5.820276e+01  -1.899506e+02
   1.819531e+02  -3.012757e+01
   1.534551e+02   1.393513e+02
   4.973147e+01   2.691400e+02
  -5.421877e+01   2.000634e+02
  -1.438272e+02   1.125408e+02
  -1.075606e+02   5.435176e+01
  -1.390586e+02   9.541410e+00
  -1.890685e+02   1.848198e+01
  -2.527976e+02  -1.188947e+02
  -2.358301e+02  -2.496159e+02
   5.189078e+00  -3.176108e+02
   3.250828e+02  -2.349943e+02
   4.509529e+02  -7.528552e+01
   1.525646e+02   1.102162e+02
   2.605757e+01   2.142412e+02
  -1.098610e+02   1.763158e+02
  -6.510243e+00   3.295396e+01
   9.636722e+01  -1.736536e+01
   1.055751e+02   4.355616e+01
   1.703050e+01   1.241316e+02
  -1.368205e+02   6.447342e+01
  -1.215232e+02  -6.598801e+01
   1.182292e+01  -9.808910e+01
   1.447837e+02  -6.723419e+00
   1.361209e+02   1.698566e+02
  -5.559956e+01   2.476128e+02
  -2.104285e+02   1.095976e+02
  -2.353378e+02  -9.118237e+01
  -1.593826e+02  -2.566455e+02
  -5.937464e+01  -2.153546e+02
   1.204299e+02  -1.131864e+02
   1.292799e+02  -6.773148e+00
   1.407707e+01   9.576862e+00
  -1.899399e+01  -5.427457e+01
  -1.100532e+01  -7.066314e+01
   6.582343e+01  -2.349066e+01
   1.195024e+02   2.274778e+01
   1.678928e+01   7.310738e+01
  -7.533703e+01   6.775756e+00
   5.827350e+00  -7.871657e+01
   1.076236e+02  -7.524675e+00
   2.077707e+02  -8.409198e-02
   1.906302e+02   1.213485e+02
   4.138004e+01   2.159773e+02
  -1.720284e+02   1.777683e+02
  -2.432111e+02   3.850662e+01
  -1.018285e+02  -3.884653e+01
   4.360387e+01  -5.998776e+01
   7.880786e+01   1.402853e+01
  -6.011227e+01   6.432067e+01
  -1.426439e+02   7.999642e-01
  -1.445791e+02  -6.977198e+01
  -3.657805e+01  -1.553348e+02
   8.798370e+01  -1.032093e+02
   7.593916e+01  -2.485709e+01
   4.976561e+01   3.993068e+01
  -3.359158e+01  -1.902778e+01
  -1.626379e+01  -1.064152e+02
   8.524079e+01  -6.536218e+01
   1.782385e+02   4.553615e+00
   1.495828e+02   1.022313e+02
   5.542382e-01   1.550427e+02
  -1.674152e+02   1.680372e+01
  -1.260036e+02  -1.888171e+01
  -1.707464e+01  -7.390664e+01
   4.345537e+01  -8.275795e+01
   6.058487e+01  -8.813603e+00
   6.881742e+00   1.722454e+01
  -2.416014e+01   1.192062e+00
   6.838791e+00  -1.272229e+01
   6.456305e+01   2.425402e+01
   8.772157e+01   9.070281e+01
   2.463210e+01   1.847712e+02
  -1.161379e+02   1.053080e+02
  -1.467122e+02  -3.369576e+01
  -1.442845e+02  -1.315141e+02
  -4.512368e+01  -1.900157e+02
   1.173377e+02  -8.702877e+01
   1.361516e+02  -2.845950e+01
   5.302204e+01   7.484478e+01
   3.467093e+01   4.236801e+00
   3.701967e+01   5.285130e+00
   8.649073e+01  -1.173584e+01
   1.490675e+01   3.681998e+01
  -2.353642e+01   4.025152e+01
  -7.989450e+01   2.634138e+01
  -8.153581e+01  -6.131887e+01
   4.791729e+00  -1.183921e+02
   1.249233e+02  -7.810069e+01
   1.315426e+02   5.520278e+01
   2.740887e+01   1.442903e+02
  -1.134708e+02   1.584961e+02
  -1.589275e+02   2.647232e+01
  -1.457955e+02  -9.697772e+01
  -8.538086e+01  -1.456777e+02
   7.822667e+01  -1.013768e+02
   7.913388e+01  -5.602358e+01
   7.918255e+01  -3.031193e+01
   6.376645e+01  -6.267410e+01
   9.811949e+01  -5.250705e+01
   9.664566e+01   3.963022e+01
   7.656589e+01   1.218386e+02
   2.299750e+01   1.653639e+02
  -7.809461e+01   6.829989e+01
  -1.447727e+02   7.262492e+00
  -9.784669e+01  -1.319751e+02
   1.155907e+01  -1.451672e+02
   2.275649e+01  -3.527253e+01
   3.639869e+01   3.401293e+01
  -1.820861e+01   4.092130e+01
  -2.794863e+01   1.945937e+01
   2.953371e+01   1.096897e+00
   4.424442e+01   5.200455e+01
   5.588318e+01   5.233137e+01
  -1.924182e+01  -1.068222e+00
  -1.127393e+02  -3.025545e+01
  -1.052075e+02  -5.173612e+01
   7.222135e+00  -9.088773e+01
   1.189349e+02  -9.224450e+00
   1.142615e+02   1.632974e+01
   1.689366e+01   5.275432e+01
  -7.265635e+01   3.799358e+01
  -6.757439e+01  -2.978944e+01
  -1.577035e+01  -6.340213e+01
   5.574864e+01  -2.774484e+01
   3.866294e+01   2.698245e+01
   4.520716e+01   4.876359e+01
   3.688358e+01   3.171369e+01
   5.193919e+01  -2.190710e+00
   6.752417e+01   6.207211e+00
   6.223893e+01   6.163420e+01
  -3.578628e+01   1.513412e+02
  -1.044525e+02   1.147655e+02
  -1.258377e+02   2.507433e+01
  -8.665864e+01  -7.011393e+01
   2.338191e+01  -1.158243e+02
   7.882623e+01  -4.079381e+01
   5.031278e+01   1.353088e+01
  -4.130305e+01   2.847794e+00
  -1.133928e+02  -8.096871e+01
  -2.583084e+01  -6.945211e+01
   6.863315e+01  -4.617972e+01
   1.038900e+02  -2.949720e+01
   1.053044e+02   2.525650e+01
   1.846190e+01   7.086492e+01
  -3.550327e+01   2.827006e+00
  -2.587887e+01   9.461810e-01
   3.922705e+01  -3.886922e-01
   8.477370e+01   1.413184e+01
   5.716551e+00   1.064808e+02
  -8.670458e+01   1.184795e+02
  -1.569702e+02   5.599784e+01
  -7.400923e+01  -5.816643e+01
  -6.307407e-01  -1.690722e+02
   9.248391e+01  -1.168894e+02
   5.968658e+01   3.288345e+01
  -1.787719e+01   8.152170e+01
  -1.398218e+01   7.397894e+01
  -6.057560e+01  -1.009226e+01
  -4.037803e+01  -2.230539e+01
  -8.483975e+00  -1.252388e+01
  -8.764041e+00   5.568445e+01
  -1.940473e+00   1.024290e+01
  -3.474595e+01  -6.223554e+01
   1.763950e+01  -6.342569e+01
   7.289359e+01  -4.647714e+01
   7.959269e+01   4.996987e+01
   9.294764e+01   7.908165e+01
   5.456697e+00   4.065858e+01
  -8.156622e+01  -3.100477e+00
  -4.840934e+01  -2.432914e+01
  -1.734995e+01  -3.255259e+01
   2.835848e+01  -2.178110e+00
   3.521065e+00  -1.436186e+01
  -9.298267e+00  -1.234267e+01
   2.175680e+01   1.458105e+01
   4.475709e+01   1.573959e+01
   6.064052e+01   3.178350e+01
  -3.944631e+00   6.493724e+01
  -7.227490e+01   7.222928e+01
  -1.705410e+02   2.599531e+01
  -1.455617e+02  -4.379692e+01
  -8.919514e+00  -1.232368e+02
   4.868446e+01  -7.064982e+01
   1.386501e+02   3.967164e+00
   4.830231e+01   1.936568e+01
   6.253236e+00   4.134985e+01
  -1.300253e+01   1.208347e+01
   3.245408e+01   1.329086e+01
   1.013668e+01   5.292313e+01
   8.982306e+00   6.135500e+01
  -5.939134e+01   4.668950e+01
  -5.557426e+01  -2.153822e+01
  -5.401698e+01  -6.622060e+01
  -7.086803e+00  -8.077439e+01
   5.139040e+01  -1.942530e+01
   7.792825e+01   6.766736e+01
  -6.684790e+00   9.893474e+01
  -8.123462e+01   4.465011e+00
  -7.816040e+01   9.079456e+00
  -3.368999e+01  -5.656024e+01
   3.229172e+01  -4.905765e+01
   1.697708e+01  -9.712956e+00
  -2.149607e+01  -2.553283e+01
  -3.559494e+01  -2.833769e+01
   4.188464e+00  -3.518428e+01
   7.339052e+01  -5.472287e+01
   1.070322e+02  -2.470282e+01
   4.576072e+01   1.886038e+01
  -1.547658e+00   5.064259e+01
  -4.812912e+01   6.170602e+01
  -2.262721e+01  -1.087402e+01
   6.353183e+00  -5.876624e+01
   1.053311e+01  -6.696839e+01
   2.220865e+01   4.380060e+00
   6.536698e+00   3.952782e+01
   9.652158e+00   1.176931e+01
  -3.325627e+00   2.132881e+01
  -4.036481e+01  -3.760960e+01
  -1.405872e+01  -2.601293e+01
  -3.896404e+01   2.529403e+01
   1.792103e+01   1.267382e+00
   7.845505e+00  -1.543024e+01
   1.515342e+01  -2.639400e+01
   1.992305e+01  -1.673188e+01
  -1.316083e+00   1.595156e+01
   2.484162e+01   6.364850e+01
  -2.097639e+01   3.542839e+01
  -2.475898e+01  -2.349136e+01
  -3.599314e+01  -6.227153e+01
   5.375158e+01  -1.588045e+01
   2.823975e+01   2.621562e+01
   4.647446e+01   3.402529e+01
  -1.250842e+01   1.770495e+01
  -1.537071e+01   2.094707e+01
  -2.974428e+01   1.316229e+01
   2.190436e+01   1.109211e+01
  -1.445891e+00   2.499417e+01
  -2.238503e+01   6.275949e+00
  -5.052170e+01   1.962372e+01
