
 $NMID
 id='ANONYMOUS ', fmtdat='(2E16.6)'
 volume=1.0
 tramp=1.0
 $END
   2.947518e+03  -1.567946e+02
   1.789988e+03   1.993491e+03
  -2.627637e+02   1.929522e+03
  -1.314281e+03   1.185653e+03
  -8.978265e+02  -1.468655e+02
   1.366913e+02  -2.864489e+02
   3.794999e+02   5.998014e+01
   7.961520e+01   5.236645e+02
  -5.384599e+02   5.205806e+02
  -6.815255e+02  -3.854874e+01
  -3.073715e+02  -6.675161e+02
   6.051452e+01  -6.282397e+02
   2.973918e+02  -2.598976e+02
   3.259966e+02   3.774745e+02
  -1.026544e+02   4.634374e+02
  -4.064903e+02   4.859492e+01
  -2.657354e+02  -4.853901e+02
   2.030240e+02  -4.778410e+02
   3.861984e+02  -2.244169e+02
   3.515748e+02   1.441886e+02
   2.215582e+01   3.293088e+02
  -1.308011e+02   2.028052e+02
  -8.892729e+01   6.318269e+01
   1.263490e+02   8.389667e+01
   2.308610e+02   1.875382e+02
   4.594547e+01   2.529667e+02
  -3.509536e+02   1.532989e+02
  -5.588941e+02  -1.647966e+02
  -1.691025e+02  -4.075712e+02
   2.385680e+02  -1.795222e+02
   4.012294e+02   2.518318e+01
   1.743862e+02   2.477952e+02
  -2.597429e+02   2.713108e+02
  -3.932700e+02   1.358294e+02
  -2.511273e+02  -1.918883e+02
  -1.111644e+02  -3.141075e+02
   7.787559e+01  -2.033587e+02
   3.424405e+01   9.979509e+01
  -7.824796e+01   2.117830e+02
  -2.446999e+02  -6.601193e+01
  -8.094956e+00  -4.254828e+02
   2.783006e+02  -3.463599e+02
   3.530130e+02  -2.622080e+01
   1.091909e+02   2.967612e+02
  -1.590374e+02   1.319136e+02
  -2.009622e+02  -1.275814e+02
   5.238616e+01  -3.503934e+02
   3.639514e+02  -1.467168e+01
   3.043835e+02   2.774993e+02
   7.682471e+01   4.588257e+02
  -2.798976e+02   2.649489e+02
  -4.849528e+02  -1.017709e+02
  -3.166852e+02  -2.201257e+02
   8.585925e+01  -2.327404e+02
   2.545494e+02  -6.083327e+01
   1.851875e+02   6.823211e+01
   5.981468e+00   3.351543e+01
  -1.683657e+01  -1.715584e+01
   1.048686e+02  -6.685448e+01
   2.082236e+02   4.532261e+01
   9.046967e+01   1.883073e+02
  -1.518138e+02   1.825699e+02
  -3.079242e+02   1.083560e+02
  -2.049478e+02  -1.019997e+02
   4.219008e+01  -2.220119e+02
   2.589399e+02  -2.396700e+02
   2.472247e+02  -1.099652e+02
   1.778447e+02   1.382807e+02
   7.377592e+01   2.994369e+02
  -9.501439e+01   2.763794e+02
  -5.641649e+01   1.495313e+02
  -5.354157e+01   4.031024e+01
  -1.159229e+02   1.030087e+02
  -1.670619e+02   1.295971e+01
  -2.321303e+02  -1.070726e+02
  -6.655844e+01  -1.857054e+02
   8.422198e+01  -1.598549e+02
   1.040243e+02   8.244551e+00
   8.413700e+01   2.234485e+02
  -6.039986e+00   1.917507e+02
  -1.801328e+02   7.230466e+01
  -2.309988e+02  -1.258932e+02
  -1.310851e+02  -3.065785e+02
   7.538585e+01  -2.131445e+02
   1.559630e+02  -1.241282e+02
   1.418141e+02  -7.126025e+01
   1.117645e+02  -5.521439e+01
   2.276911e+02  -1.679622e+01
   3.081423e+02   1.180456e+02
   2.694027e+02   3.358021e+02
   7.327454e+00   3.899034e+02
  -3.175725e+02   3.335798e+02
  -3.829282e+02   9.312031e+01
  -1.902691e+02  -9.105402e+01
  -2.890367e+01  -2.329941e+02
   1.144742e+02  -1.576018e+02
   2.513936e+01  -1.692237e+01
  -8.165562e+01   4.921536e+01
  -8.334852e+01  -4.964379e+01
  -6.684830e+00  -1.251398e+02
   1.247651e+02  -9.927406e+01
   9.021333e+01   7.056753e+01
  -6.290575e+00   1.099800e+02
  -1.368051e+02   1.718717e+01
  -8.011531e+01  -2.501634e+02
   3.832273e+01  -2.703547e+02
   2.389817e+02  -1.175402e+02
   2.390180e+02   8.444673e+01
   1.715461e+02   2.444377e+02
   4.179904e+01   2.083437e+02
  -1.110193e+02   1.062045e+02
  -1.572328e+02  -9.942020e+00
  -4.168457e+01  -1.685297e+01
   2.839394e+01   7.153684e+01
  -1.821515e+01   1.041405e+02
  -9.429727e+01   2.789955e+01
  -1.350528e+02  -3.303032e+01
  -3.479032e+01  -6.613042e+01
   6.445942e+01   1.559853e+01
   4.755359e+01   8.893290e+01
  -9.717897e+01   4.017969e+01
  -2.367493e+02  -2.832848e+01
  -2.332366e+02  -1.682849e+02
  -1.204191e+01  -1.863600e+02
   1.773194e+02  -1.717626e+02
   2.218988e+02  -4.785945e+01
   1.538877e+02   4.724264e+01
  -3.613104e+01   9.623899e+01
  -7.410135e+01   1.239551e+01
   3.741148e+01  -6.453209e+01
   1.480010e+02  -2.545764e+01
   1.390873e+02   7.691541e+01
   1.966837e+01   1.669170e+02
  -7.199472e+01   1.099116e+02
  -1.203483e+02   9.828525e-01
  -5.471743e+01  -4.437494e+01
   4.030067e+01   9.311912e+00
   4.383510e+01   1.133102e+02
  -1.008016e+02   9.710795e+01
  -1.616432e+02  -4.700761e+01
  -1.524056e+02  -1.071134e+02
   7.147404e+00  -1.927666e+02
   1.078773e+02  -9.670637e+01
   1.181659e+02  -7.432555e+00
   2.924510e+01   7.657519e+01
  -4.004093e+01   8.224222e+01
  -9.261813e+01  -5.603758e-01
   8.611725e-01  -1.549670e+01
   2.615251e+01   2.049278e+01
   1.635078e+01   2.560779e+01
  -4.812799e+01  -3.710670e+00
  -7.693115e+01  -9.451193e+01
  -2.184204e+01  -1.363012e+02
   1.127662e+02  -5.701453e+01
   1.774150e+02  -1.368402e+01
   1.671654e+02   1.748188e+02
   4.563179e+01   2.138499e+02
  -8.226478e+01   1.220453e+02
  -1.266186e+02  -1.366626e+01
  -8.784225e+01  -7.449730e+01
  -3.403704e+01   8.321556e+00
  -4.037733e+01   1.422783e+00
  -4.700164e+01  -1.808070e+01
  -2.320486e+01  -7.998495e+01
   1.715181e+01  -6.631517e+01
   1.112098e+02  -4.987889e+01
   7.145558e+01   4.534533e+01
  -7.936636e+00   1.229433e+02
  -1.390254e+02   5.440719e+01
  -1.613401e+02  -4.192755e+01
  -7.515439e+01  -1.271867e+02
   1.397215e+02  -1.720273e+02
   1.668251e+02  -7.716978e+01
   1.789660e+02   7.464158e+01
   7.913129e+01   2.041240e+02
  -4.941651e+01   1.231989e+02
  -9.697533e+01   1.424581e+01
  -7.056732e+01   3.063341e+01
  -7.450771e+01   7.625874e+01
  -6.790269e+01   5.721844e+01
  -8.152876e+01  -4.222325e+01
  -1.048256e+02  -1.724211e+02
  -1.049804e+01  -1.780185e+02
   8.067614e+01  -1.444707e+02
   1.290136e+02   2.762470e-01
   8.478005e+01   1.345538e+02
  -2.690786e+00   1.359395e+02
  -4.586291e+01   4.948870e+01
  -2.719555e+01  -9.887788e+00
   1.497363e+01  -4.603134e+01
  -3.244761e+00  -4.807458e+01
  -2.615863e+01   8.722426e+00
  -8.888456e+01  -4.896120e+01
  -3.333105e+01  -1.251795e+01
   4.114799e+01  -4.202007e+00
   1.131388e+02   3.661714e+01
   1.207754e+02   6.993852e+01
   5.549428e+00   6.561666e+01
  -1.334489e+02   3.508648e+01
  -1.112379e+02  -1.659128e+01
  -5.546099e+01  -3.497505e+01
   9.408586e+01  -3.490910e+01
   4.588506e+01   2.771579e+01
   1.251350e+01   5.355243e+01
  -3.175344e+01   3.468469e+01
  -7.678422e+01   3.722299e+00
  -4.401537e+01  -6.792797e+01
  -4.313266e+01  -2.235497e+01
  -2.897909e+01   1.424829e+01
  -3.474273e+01  -3.024501e+01
  -4.376584e+01  -8.812829e+01
   2.895623e+01  -1.257322e+02
   1.226906e+02  -9.597566e+01
   1.390196e+02  -9.578869e+00
   8.285681e+01   9.160177e+01
  -2.419570e+01   9.755676e+01
  -6.814996e+01   3.738101e+01
  -4.221583e+01  -2.995737e+01
   7.321956e+01  -9.866388e+00
   1.041921e+02   7.371354e+01
   2.383071e+01   6.664978e+01
  -7.850485e+01   7.381294e+01
  -1.229123e+02   2.222708e+01
  -1.335922e+02  -1.361604e+01
  -3.033763e+01  -5.895511e+01
   1.697806e+01  -2.135169e+00
   1.851605e+01   8.024889e+00
  -4.716776e+01   3.132074e+01
  -7.516123e+01  -1.057063e+01
  -2.173043e+01  -9.603217e+01
   9.519737e+01  -1.235785e+02
   1.498898e+02  -5.888535e+01
   7.480729e+01   9.282495e+01
  -1.980206e+00   1.842510e+02
  -8.417453e+01   1.308144e+02
  -1.039897e+02  -4.149740e+01
  -2.272876e+01  -9.692643e+01
   1.958765e+01  -5.316769e+01
   2.336638e+01   1.498188e+00
   4.946141e+01   1.091721e+01
   2.741934e+01  -8.966669e+00
  -1.103500e+01  -1.240450e+01
   3.256629e+00   1.071087e+01
   4.807081e+01   5.576436e+01
   4.136236e+01   8.940747e+01
  -6.302662e+01   4.314959e+01
  -8.318319e+01  -4.445005e+01
  -6.268742e+01  -6.694311e+01
  -2.339367e+01  -3.559583e+01
   3.659432e+01  -5.495317e+00
   9.625002e+01   1.814391e+01
  -4.182307e+00   5.706546e+00
  -3.940240e+01  -5.862411e-02
  -2.942406e+01   1.615628e+01
   2.866955e+01  -8.201156e+00
  -1.799304e+01  -4.304291e+00
  -7.861746e+01   9.303202e+00
  -6.727942e+01   9.144916e+00
   5.626446e+00  -6.663064e+01
   9.133767e+01  -5.877197e+01
   1.660244e+02  -5.451250e+01
   1.199049e+02   8.182135e+01
   3.948141e+01   1.405288e+02
  -8.963021e+01   1.354729e+02
  -1.172645e+02   3.652421e+01
  -6.503184e+01   4.916254e+00
   1.428439e+00  -2.975023e+01
   4.113932e+00   1.357520e+00
  -2.165981e+01  -1.944738e+01
  -5.398495e+01  -4.264932e+01
  -2.804953e+01  -1.011357e+02
   5.349630e+01  -5.718803e+01
   4.395549e+01   1.007306e+01
   6.144698e+01   9.244844e+01
  -1.101836e+01   8.964707e+01
  -3.977541e+01   4.602304e+01
  -9.490799e+01  -6.928113e+01
  -3.931601e+01  -1.023970e+02
   5.907864e+01  -3.361946e+01
   7.825974e+01   3.873782e+01
   2.700781e+01   2.534622e+01
  -2.678417e+01   6.348015e+01
  -2.541979e+01   2.742204e+01
   6.426765e+01  -2.008150e+01
   4.181861e+01   2.063815e+01
   1.243127e+01   9.096303e-01
  -7.892922e+01   2.013707e+01
  -8.602332e+01   3.167949e+01
  -3.881952e+01  -9.075806e+00
  -1.096500e+01  -1.078203e+02
   7.119465e+01  -3.475568e+01
   3.674391e+01  -1.277237e+01
   2.142445e+01   3.438811e+01
  -3.333810e+01   4.320761e+01
  -1.152612e+01   1.663222e+01
  -1.150158e+01  -5.173227e+01
  -8.090189e+00  -1.626754e+01
   1.710606e+01  -3.646775e+00
   2.584751e+01   8.333998e+00
   4.713569e+01   2.290085e+01
   1.424085e+01  -8.039130e+00
  -3.204323e+00   1.178906e+01
  -5.786022e+00   2.591386e+01
   3.003719e+00   2.918140e+01
  -2.987737e+01  -8.106770e+00
  -2.436671e+01  -1.166154e+01
  -1.885842e+01  -4.001978e+01
   2.344085e+00  -2.501289e+01
   1.217643e+01   4.067952e+01
   1.860550e+01   5.987571e+01
  -5.178410e+01   2.938406e+01
  -6.581851e+01  -2.162159e+01
  -3.433789e+01  -6.132970e+01
   4.396306e+01  -9.713803e+00
   2.009464e+01  -1.759921e+00
   4.934035e+01   5.328624e+00
  -3.738365e+01  -5.913958e+00
  -2.599785e+01  -3.467567e+01
   4.576919e+01   4.606304e+00
   5.852074e+01  -7.244073e+00
