
 $NMID
 id='ANONYMOUS ', fmtdat='(2E16.6)'
 volume=1.0
 tramp=1.0
 $END
   2.896508e+03  -2.341846e+02
   1.573525e+03   1.322860e+03
   3.170992e+02   1.577450e+03
  -9.006731e+02   1.306428e+03
  -8.106040e+02   1.774508e+02
  -5.816137e+00  -1.698524e+02
   3.071832e+02  -2.612402e+00
   4.305612e+01   4.607970e+02
  -3.135709e+02   5.312499e+02
  -5.328829e+02   8.483081e+01
  -3.041062e+02  -4.131450e+02
   1.811207e+01  -6.022153e+02
   2.296011e+02  -2.380852e+02
   3.021129e+02   2.909257e+02
  -1.058153e+02   4.903494e+02
  -3.534383e+02   6.515349e+01
  -3.139872e+02  -3.451449e+02
   1.637204e+01  -4.906116e+02
   3.578507e+02  -2.592760e+02
   4.180031e+02   1.213679e+02
   1.131807e+02   2.775938e+02
  -8.711150e+01   2.367436e+02
  -5.735207e+01   8.903308e+01
   1.289961e+02   1.103807e+02
   2.451656e+02   1.654100e+02
   6.583669e+01   2.848861e+02
  -3.198998e+02   1.671813e+02
  -3.673917e+02   4.836247e+00
  -2.069903e+02  -2.560644e+02
   2.981560e+02  -2.265326e+02
   4.322845e+02   7.123642e+01
   2.113682e+02   2.936647e+02
  -1.826525e+02   3.367678e+02
  -3.052781e+02   1.770513e+02
  -2.552334e+02  -1.182092e+02
  -9.475492e+01  -2.436585e+02
   3.277985e+01  -1.013034e+02
  -4.284939e+00   5.209695e+01
  -4.532768e+01   1.479993e+02
  -2.098374e+02  -7.781459e+01
  -5.194176e+01  -3.765509e+02
   1.554522e+02  -3.430005e+02
   2.774688e+02  -2.508968e+01
   1.603034e+02   3.021813e+02
  -1.130819e+02   8.649015e+01
  -2.018559e+02  -1.739472e+02
   1.124994e+01  -3.198129e+02
   2.650308e+02  -8.328484e+01
   4.906724e+02   1.995820e+02
   4.828452e+01   2.901462e+02
  -2.643965e+02   2.560003e+02
  -3.491452e+02  -8.365596e+00
  -3.178209e+02  -2.767038e+02
  -4.781367e+00  -1.833162e+02
   2.137796e+02  -9.253618e+01
   1.946430e+02   1.312826e+01
   4.856529e+01   3.114680e+01
  -7.514753e+01  -4.664898e+01
   5.187454e+01  -5.634088e+01
   2.586508e+02   1.591171e+01
   9.493387e+01   1.216483e+02
  -9.938210e+01   2.150365e+02
  -3.076160e+02   1.603660e+02
  -2.236777e+02  -7.755318e+01
  -9.736776e+00  -2.498718e+02
   2.540317e+02  -3.076576e+02
   2.998974e+02  -1.728867e+02
   1.258255e+02   1.229915e+02
   1.157061e+02   2.357621e+02
  -3.521609e+01   2.269961e+02
   1.607905e+01   1.616569e+02
   2.466738e+00   9.160892e+01
  -7.140475e+01   7.380666e+01
  -1.687710e+02   6.008210e+01
  -1.891487e+02  -6.638926e+01
  -8.629331e+01  -2.055056e+02
   6.781269e+01  -1.827647e+02
   1.686451e+02   1.583694e+00
   1.324405e+02   1.813244e+02
  -5.052940e+01   2.111762e+02
  -2.057557e+02   7.699102e+01
  -3.111876e+02  -1.618569e+02
  -1.301407e+02  -2.001062e+02
  -2.507794e+00  -1.803666e+02
   1.260847e+02  -1.660681e+02
   1.086884e+02  -6.884286e+01
   1.240169e+02  -6.079851e+01
   2.163661e+02  -4.694241e+01
   3.539131e+02   1.057122e+01
   2.064810e+02   2.215609e+02
  -6.570128e+01   3.485597e+02
  -2.985178e+02   3.469721e+02
  -3.675248e+02   1.575518e+02
  -2.574677e+02  -4.407973e+01
  -6.502664e+00  -2.231236e+02
   4.224010e+01  -1.603399e+02
  -4.163250e+00  -3.444937e+01
  -9.740484e+01   3.422508e+01
  -1.114352e+02  -7.251995e+00
  -1.391428e+01  -1.096745e+02
   9.820678e+01  -1.127897e+02
   7.147379e+01   2.853172e+01
   3.920850e+01   1.336718e+02
  -1.613867e+02   1.479600e+00
  -1.251732e+02  -1.944406e+02
  -9.313534e+00  -2.152664e+02
   1.261618e+02  -1.506197e+02
   2.813221e+02   3.657851e+01
   2.142295e+02   2.088051e+02
   4.428440e+01   2.369872e+02
  -1.210364e+02   9.003883e+01
  -1.392957e+02  -1.546754e+01
  -1.443730e+01  -5.105041e+00
   3.595820e+01   2.746474e+01
  -3.881384e+00   7.242848e+01
  -1.212750e+02   9.175792e+01
  -1.040964e+02  -3.047367e+01
  -3.226216e+01  -2.998014e+01
   6.199055e+01   1.003647e+00
   5.371745e+01   1.063400e+02
  -1.107649e+02   3.878763e+01
  -2.573724e+02   2.994340e+01
  -2.192612e+02  -9.421928e+01
  -2.888591e+01  -2.171004e+02
   1.645151e+02  -2.295465e+02
   2.362384e+02  -8.506958e+01
   1.227071e+02  -2.740861e+01
  -4.188279e+01   5.266960e+01
  -4.128131e+01  -7.810319e+00
   3.656110e+01  -1.330684e+01
   1.467583e+02  -1.748182e+01
   1.392617e+02   6.338012e+01
   2.911142e+01   1.127935e+02
  -7.797604e+01   1.127234e+02
  -8.517018e+01   1.025027e+01
  -4.635992e+01  -2.203832e+01
   1.771620e+00  -2.350137e+01
   1.944275e+01   9.724785e+01
  -8.734450e+01   9.574171e+01
  -1.836932e+02   2.351665e+01
  -1.599049e+02  -9.883183e+01
   8.988840e-01  -1.573798e+02
   1.454196e+02  -1.276136e+02
   1.477257e+02  -4.711086e+01
   6.735172e+01   6.119067e+01
  -3.842933e+01   4.721446e+01
  -7.012983e+01   2.365953e+01
  -9.851584e+00  -3.112041e+01
   8.991271e+00   1.818342e+01
  -5.063782e+01   1.981468e+01
  -9.495702e+01   4.057966e+00
  -9.128974e+01  -7.217399e+01
   9.872420e+00  -1.021269e+02
   8.674936e+01  -1.008298e+02
   1.744357e+02  -1.074668e+01
   1.400971e+02   9.397422e+01
   3.140999e+01   1.833330e+02
  -5.735078e+01   1.473208e+02
  -9.909552e+01   3.977893e+01
  -5.662412e+01  -3.942477e+01
  -4.424866e+01  -3.169203e+01
  -2.090922e+01   1.281930e+01
  -6.244270e+01   2.101744e+01
  -5.280867e+01  -2.716272e+01
   4.055183e+01  -8.446312e+01
   1.037747e+02  -8.100395e+01
   6.430933e+01   3.646092e+01
  -2.790279e+01   8.694833e+01
  -1.608182e+02   7.937642e+01
  -1.669322e+02  -3.742530e+01
  -7.714158e+01  -1.551721e+02
   1.046218e+02  -2.219925e+02
   1.924721e+02  -7.131921e+01
   2.122951e+02   8.153059e+01
   1.006691e+02   1.137782e+02
  -4.674608e+01   1.030199e+02
  -7.676164e+01   7.677771e+01
  -6.666979e+01   7.372838e+01
  -7.747383e+01   6.510017e+01
  -3.157671e+01   7.271252e+01
  -1.131390e+02  -3.932847e+01
  -7.235534e+01  -9.415181e+01
  -2.090207e+01  -1.966314e+02
   7.655247e+01  -1.577957e+02
   1.258412e+02  -2.948265e+01
   1.371773e+02   1.176994e+02
  -1.099825e+01   1.240670e+02
  -8.640394e+01   6.370812e+01
  -3.481984e+01   5.022905e-02
  -4.958411e+00  -2.767342e+01
   3.369318e+01  -8.246947e+01
  -2.003681e+01  -4.894789e+01
  -6.142837e+01   7.377951e+00
  -7.916147e+00  -2.334323e+01
   3.809970e+01  -4.808823e+01
   1.318429e+02  -1.107978e+01
   9.400117e+01   6.477771e+01
  -2.417736e+01   8.682430e+01
  -1.390233e+02   8.763369e+01
  -9.699576e+01  -3.927633e+00
  -6.418592e+01  -6.756239e+01
   4.424322e+01  -1.668865e+01
   3.201879e+01   2.001752e+01
   2.836566e+01   4.584419e+01
  -4.353618e+01   3.844012e+01
  -5.084936e+01  -9.349647e+00
  -5.631277e+01  -2.773952e+01
  -4.713291e+01  -6.760061e+01
  -3.786951e+01  -6.911681e+00
  -7.309019e+01  -8.970467e+00
  -9.653356e+00  -1.118216e+02
   3.233989e+01  -1.141848e+02
   8.677524e+01  -1.384390e+02
   1.062021e+02  -1.305814e+01
   1.002227e+02   7.427111e+01
  -6.684882e+00   1.021455e+02
  -5.884773e+01   6.157082e+01
  -4.630598e+01  -5.573881e+00
   2.730797e+01  -4.192448e+01
   1.105758e+02   2.347687e+01
   4.466696e+01   8.890776e+01
  -6.478665e+01   6.509903e+01
  -1.522496e+02   5.632078e+01
  -1.270073e+02  -1.425665e+01
   1.331249e+00  -6.599838e+01
   3.674073e+01  -3.751587e+01
   1.468123e+01  -6.754518e+00
  -2.454179e+01   2.627412e+01
  -6.746466e+01  -1.957454e+01
  -4.726027e+01  -6.042813e+01
   3.516329e+01  -1.477180e+02
   1.437504e+02  -6.957497e+01
   1.006763e+02   8.180845e+01
  -6.182003e+00   1.303447e+02
  -7.890344e+01   1.108058e+02
  -9.162618e+01   1.345235e+01
  -5.937920e+01  -8.259922e+01
  -1.982072e+01  -9.058903e+01
   4.887890e+01   7.437929e+00
   3.948824e+01   4.183237e+01
   2.804068e+01  -1.760507e+01
   2.546679e+01  -6.453531e+00
   8.676360e+00   2.679076e+01
   5.837745e+01   6.593620e+01
   4.873831e+01   8.942123e+01
  -5.753113e+01   5.954048e+01
  -9.522736e+01  -2.907213e+01
  -1.084564e+02  -4.608601e+01
   3.864491e+00  -3.301930e+01
   8.368336e+01  -4.359795e+01
   7.056093e+01  -9.641762e+00
   3.651978e+01   3.360214e+01
  -2.845260e+01   5.366893e+00
  -1.737842e+01   9.002058e+00
   7.038225e+00  -1.013254e+01
  -3.070363e+00   2.588508e+00
  -6.349770e+01   2.184160e+01
  -6.634485e+01  -1.296413e+01
  -3.132248e+01  -8.772395e+01
   8.496112e+01  -9.878008e+01
   1.115648e+02  -4.340994e+01
   1.221235e+02   3.545120e+01
   1.766800e+01   1.270882e+02
  -7.898726e+01   1.252168e+02
  -6.667044e+01   5.460657e+01
  -7.526861e+01   4.032160e-01
  -2.783555e+01  -4.535626e+01
   8.303417e+00   1.032285e+01
  -5.702738e+00   4.983351e+00
  -2.820995e+01  -1.973921e+01
  -2.743042e+01  -6.719435e+01
   5.508408e+01  -5.078202e+01
   6.004821e+01   3.644797e+00
   6.733921e+01   9.465032e+01
  -4.573105e+00   8.385586e+01
  -6.788999e+01   8.931058e+00
  -1.035413e+02  -4.526905e+01
  -3.543139e+01  -7.806109e+01
   5.146343e+01  -7.421299e+01
   9.239034e+01  -3.497944e+01
   1.903000e+01   3.590643e+01
  -3.486235e+01   4.723455e+01
  -2.039492e+01   1.700578e+01
   3.122510e+01  -1.407028e+01
   2.144723e+01   2.917272e+00
   9.276219e+00   8.505903e-01
  -9.310126e+01   5.562905e+01
  -1.122265e+02   5.970651e+01
  -5.921507e+01   1.391854e+00
   2.103336e+01  -5.693809e+01
   2.545034e+01  -4.652252e+01
   1.712329e+01   1.458692e+01
  -6.701238e+00   5.379904e+01
  -4.831203e+01   4.869786e+01
  -2.971212e+01  -5.295304e+00
  -4.075724e+01  -4.258528e+01
   2.426820e+01  -3.091875e+01
   5.430839e+01  -4.577134e+00
   1.903208e+01   2.879484e+00
   1.938078e+01   5.519450e+00
  -1.620311e+01  -2.328178e+01
  -2.951891e-01  -1.318992e+01
   1.249581e+01   4.464730e+01
   4.104805e-02   5.047360e+01
  -7.234769e+00   6.674542e+00
  -4.718667e+01  -2.230699e+01
  -1.876828e+01  -3.759433e+01
   3.295151e+01   2.220686e-01
   4.730745e+01   2.389771e+01
   2.097015e+01   7.981961e+01
  -6.542880e+01   3.580625e+01
  -7.251972e+01  -5.384272e+00
  -4.292914e+01  -5.875727e+01
   6.218973e+01  -3.702473e+01
   6.536173e+01  -2.940364e+01
   3.518685e+01  -2.387578e+01
  -8.200886e+00  -2.456140e+01
  -1.439658e+01  -8.087718e+00
  -7.125962e+00  -2.187308e+01
   3.694178e+01   9.012928e+00
