
 $NMID
 id='ANONYMOUS ', fmtdat='(2E16.6)'
 volume=1.0
 tramp=1.0
 $END
  -2.710951e+03   1.059409e+02
  -1.920566e+03  -1.215195e+03
  -2.465865e+02  -1.420779e+03
   8.272310e+02  -1.284995e+03
   5.442659e+02  -2.240543e+02
   1.012537e+02   6.356695e+01
  -3.400466e+02  -1.318076e+00
  -8.196885e+01  -4.338799e+02
   3.286956e+02  -4.953203e+02
   5.660606e+02  -6.570869e+01
   3.546816e+02   3.668309e+02
  -7.459121e+01   5.995383e+02
  -1.496294e+02   1.796176e+02
  -2.591460e+02  -3.804730e+02
   5.397848e+01  -3.746091e+02
   3.225802e+02  -8.966172e+01
   2.605546e+02   3.574334e+02
  -6.495263e+00   4.380230e+02
  -2.375431e+02   2.381922e+02
  -2.798299e+02  -8.824543e+01
  -1.578691e+02  -2.393303e+02
   7.123249e+01  -1.740219e+02
   2.520361e+01  -5.416316e+01
  -1.619638e+02  -7.875026e+01
  -2.755100e+02  -1.869241e+02
  -7.899501e+01  -3.111395e+02
   2.688833e+02  -1.736121e+02
   4.270885e+02   3.058872e+01
   2.739284e+02   2.853201e+02
  -2.740584e+02   2.128512e+02
  -4.308180e+02  -1.105003e+02
  -1.765034e+02  -3.310084e+02
   1.117669e+02  -2.344343e+02
   3.197313e+02  -1.591846e+02
   2.148220e+02   1.030717e+02
   7.570901e+01   2.529263e+02
  -5.741901e+01   1.347908e+02
   1.778745e+01  -1.694078e+02
   1.193725e+02  -1.524797e+02
   2.700388e+02   1.454324e+02
   2.218293e+01   3.957373e+02
  -1.467946e+02   3.660379e+02
  -2.137459e+02   3.881768e+01
  -9.197099e+01  -2.723874e+02
   1.084792e+02  -1.148538e+02
   1.703236e+02   1.578085e+02
  -4.890094e+01   3.266455e+02
  -3.292856e+02   1.214631e+02
  -4.001683e+02  -1.970549e+02
  -1.363539e+02  -3.176300e+02
   2.395423e+02  -2.252361e+02
   4.069986e+02   6.534155e+00
   2.508565e+02   1.868538e+02
   2.023733e+01   1.584920e+02
  -2.231081e+02   1.138978e+02
  -1.531626e+02   3.270388e+00
  -3.745463e+01   6.211279e+00
   5.364183e+01   4.621260e+01
  -6.947368e+01   9.128042e+01
  -1.771617e+02  -6.544154e+00
  -7.301338e+01  -1.113367e+02
   8.398393e+01  -1.581330e+02
   2.094063e+02  -1.814117e+02
   1.968958e+02   1.851551e+01
   1.586887e+01   2.015225e+02
  -2.159255e+02   2.946691e+02
  -2.533727e+02   1.388801e+02
  -2.003569e+02  -9.301368e+01
  -9.052391e+01  -2.224035e+02
   5.254491e+00  -2.518999e+02
  -1.981032e+01  -7.488440e+01
   1.392508e+00  -7.369003e+01
   6.480506e+01  -9.725322e+01
   1.704563e+02  -5.620711e+01
   1.660204e+02   4.619347e+01
   9.609364e+01   1.847787e+02
  -2.579624e+01   1.809327e+02
  -1.445044e+02  -6.586480e+00
  -1.321642e+02  -1.751901e+02
   5.052493e+01  -2.279588e+02
   2.184194e+02  -9.465146e+01
   2.670699e+02   1.483809e+02
   1.505360e+02   2.435971e+02
  -3.882583e+01   2.027913e+02
  -1.437186e+02   1.413620e+02
  -8.388465e+01   6.641483e+01
  -9.233088e+01   9.472717e+01
  -2.116516e+02   7.417613e+01
  -3.318317e+02  -3.020886e-01
  -2.767377e+02  -1.827608e+02
   4.735680e+01  -3.142032e+02
   2.504383e+02  -3.972315e+02
   3.511739e+02  -1.995033e+02
   2.318862e+02   2.684961e+01
   1.710946e+01   1.876807e+02
  -3.347522e+01   1.716087e+02
   9.178285e+00   1.439687e+01
   1.042612e+02  -2.971734e+01
   1.124667e+02   2.292639e+01
   3.457804e+01   7.613627e+01
  -1.139423e+02   9.625331e+01
  -8.190421e+01  -4.864875e+01
   1.060911e+00  -1.363556e+02
   1.391953e+02  -1.050106e+01
   1.198816e+02   1.388242e+02
   5.545676e+01   2.447974e+02
  -1.482058e+02   2.048604e+02
  -2.708994e+02   7.635916e+00
  -2.326668e+02  -1.476841e+02
  -5.538769e+01  -2.012700e+02
   6.993839e+01  -1.018542e+02
   1.068197e+02  -6.999123e+01
   3.485630e+01   2.853868e+01
  -3.892979e+01  -3.303956e+01
  -2.636848e+01  -6.070463e+01
   1.229208e+02  -8.050823e+01
   1.049927e+02  -1.411715e+01
  -1.081846e+01   4.209099e+01
  -5.947482e+01   3.376420e+00
  -3.399923e+01  -8.103838e+01
   9.469534e+01  -9.306385e+01
   2.563159e+02   7.081459e-01
   2.463644e+02   1.166333e+02
   1.967618e+01   2.089339e+02
  -1.175929e+02   2.218492e+02
  -2.306905e+02   1.172082e+02
  -1.080501e+02   8.484248e+00
   2.538003e+01  -8.000721e+01
   5.020302e+01   3.297415e+00
  -1.542802e-01   9.436522e+01
  -1.484018e+02   7.393137e+01
  -1.616043e+02  -4.859764e+01
  -5.881837e+01  -9.849576e+01
   7.636437e+01  -1.078697e+02
   6.235391e+01  -1.860895e+01
   1.759440e+01   6.123823e+00
  -3.570998e+01   1.908525e+01
   6.550472e+00  -1.069247e+02
   1.906018e+01  -8.359307e+01
   1.560072e+02  -5.002165e+01
   1.779823e+02   1.216059e+02
   1.358207e+01   1.646271e+02
  -1.216051e+02   1.459393e+02
  -1.219057e+02   3.323454e+01
  -4.656919e+01  -4.327576e+01
   3.190937e+01  -9.471319e+01
   5.728395e+01  -2.924123e+01
  -2.680619e+01   2.512834e+01
  -3.203470e+01  -2.380027e+01
   2.003237e+01  -1.669103e+01
   5.689312e+01  -1.651294e+01
   7.979899e+01   5.151197e+01
   3.568721e+01   1.228008e+02
  -4.922868e+01   9.945226e+01
  -1.425691e+02  -1.709005e+01
  -1.736427e+02  -9.757397e+01
  -1.279979e+01  -1.749150e+02
   9.206993e+00  -1.176625e+02
   7.015127e+01  -3.332782e+01
   3.573761e+01   4.209237e+01
   4.547123e+01   2.162196e+01
   3.919753e+01  -4.023185e+00
   4.008371e+01  -1.763258e+01
   4.414202e+01   6.912908e+01
   4.776763e+00   8.253522e+01
  -7.963008e+01   7.845136e+01
  -1.070908e+02   1.039450e+01
  -9.200535e+00  -1.062073e+02
   1.091353e+02  -9.058699e+01
   1.605359e+02   4.795735e+01
   6.020167e+01   1.910694e+02
  -7.456343e+01   2.211068e+02
  -2.014463e+02   8.868537e+01
  -2.032271e+02  -6.690080e+01
  -7.403368e+01  -1.167370e+02
   1.265398e+01  -1.215744e+02
   6.796420e+01  -8.148735e+01
   3.844246e+01  -5.327994e+01
   3.187738e+01  -4.176114e+01
   4.990277e+01  -7.707364e+01
   1.081127e+02  -3.188286e+01
   1.096620e+02   9.026972e+01
   2.573827e+01   1.929532e+02
  -7.837310e+01   1.526870e+02
  -1.201935e+02   2.266946e+01
  -1.072485e+02  -3.604199e+01
  -1.301086e+01  -1.365955e+02
   8.219544e+01  -5.569258e+01
   3.985041e+01   1.873668e+01
  -1.126325e+01   4.572232e+01
  -2.538944e+01   2.499690e+01
   3.724583e+01   2.675152e+01
   6.964557e+01   3.351244e+01
   7.984900e+00   1.325272e+01
  -6.463649e+01   5.121734e+01
  -8.850801e+01   3.089215e+01
  -1.093939e+02  -4.626309e+01
  -8.288236e+00  -6.520548e+01
   9.950831e+01  -5.550647e+01
   1.108782e+02  -3.268636e+01
   7.159420e+01   5.151439e+01
  -2.176916e+01   4.082393e+01
  -6.619626e+01  -2.085591e+01
  -2.599564e+00  -5.004857e+01
   2.841549e+01  -4.352483e+01
   3.051804e+01  -3.054793e+00
   4.709057e+01   3.085166e+01
   4.109319e+01   3.273449e+01
   5.649134e+01   4.349840e+00
   5.860623e+01  -1.454208e+01
   5.493737e+01   4.486333e+01
   1.519341e+01   1.116554e+02
  -5.857739e+01   1.531839e+02
  -1.192558e+02   4.652035e+01
  -1.052021e+02  -5.907457e+01
   2.061091e+00  -1.038663e+02
   6.189908e+01  -9.680122e+01
   5.341256e+01  -1.395816e+01
  -4.860982e+01   2.573134e+01
  -7.615431e+01  -1.366470e+01
  -7.543214e+01  -7.098100e+01
   4.380091e+01  -8.163674e+01
   1.373581e+02  -4.697156e+01
   1.197602e+02   1.325919e+01
   1.932813e+01   4.788052e+01
  -1.921432e+01   5.407383e+01
  -1.592763e+01   8.975722e+00
   3.116154e+01  -2.056954e+00
   8.732825e+01   6.160100e+00
   5.639575e+01   4.134103e+01
  -1.199478e+01   1.056480e+02
  -1.120744e+02   3.611220e+01
  -9.483654e+01  -3.807850e+01
  -4.913104e+01  -1.429758e+02
   6.479755e+01  -1.228101e+02
   9.244217e+01  -7.849921e+00
   6.901747e+01   4.958958e+01
   1.485199e+01   1.108813e+02
  -2.859051e+01   2.289987e+01
  -2.847024e+01  -1.935899e+01
  -5.106365e+01   2.833588e+00
   7.800608e+00  -1.933269e+00
  -1.024666e+01   3.928287e+00
  -5.925642e+01  -5.730364e+01
  -4.921116e+01  -1.008871e+02
   4.389024e+00  -7.043783e+01
   1.036131e+02   3.224001e+01
   9.866350e+01   3.369157e+01
   1.949836e+01   2.297219e+01
  -8.919222e+01   4.208074e+01
  -9.165894e+01   1.366764e+01
  -2.432046e+01  -9.093649e+00
   1.048967e+01  -2.149245e+01
   2.105183e+01  -1.153966e+01
  -1.771787e+01  -4.454269e+00
  -3.394458e+01   4.183325e+00
   4.010550e+01  -2.826736e+01
   6.798442e+01   2.504609e+01
   3.405940e+01   4.792596e+01
  -6.779250e+01   9.752671e+01
  -1.469676e+02   3.288350e+01
  -8.490433e+01  -5.450977e+01
  -1.955704e+01  -1.234832e+02
   5.176497e+01  -1.234184e+02
   6.994767e+01  -5.649836e+01
   4.197171e+01   1.125118e+01
   1.021183e+01   4.225747e+01
  -1.855837e+00   1.046480e+01
   2.275739e+01   1.395505e+01
   4.135922e+01   2.031318e+01
   2.726200e+01   7.590663e+01
  -4.864717e+01   7.486927e+01
  -7.078452e+01  -1.534816e+01
  -6.010961e+01  -5.401352e+01
  -5.681335e+01  -7.743886e+01
   2.935748e+01  -2.003599e+01
   9.516618e+01   2.645241e+01
   5.652235e+01   4.057289e+01
  -4.173074e+01   6.001837e+01
  -8.751638e+01   1.973699e+01
  -5.138587e+01  -4.601934e+01
   4.808378e+01  -6.891729e+01
   3.665512e+01  -2.471295e+01
  -2.501929e+01   3.435908e+01
  -3.769522e+01   1.560378e+01
  -3.415703e+01  -1.444630e+01
   3.172717e+01  -6.568507e+01
   9.883777e+01  -5.209325e+01
   7.232352e+01   2.570746e+01
   1.489550e+01   4.853128e+01
  -2.322849e+01   5.572754e+01
  -2.834510e+01   3.481121e+01
  -3.306762e+00  -4.620795e+01
   2.297993e+01  -7.152521e+01
   3.405949e+01   2.377557e+01
   6.898555e+00   5.330913e+01
  -2.054481e+01   3.176671e+01
  -1.297475e+01  -4.414143e+00
  -3.321171e+01  -2.692133e+01
  -3.694468e+00   3.463939e+00
   1.787080e+00   4.551199e+01
  -6.973032e+00  -9.881122e+00
  -7.350562e+00  -3.135417e+01
   9.495480e-01  -3.239401e+01
   2.199819e+01   1.274361e+01
   4.468049e+00   3.109048e+01
  -7.176800e+00   2.907464e+01
  -4.894620e+01   2.028816e+01
  -4.433109e+01  -3.123267e+01
  -5.511868e+01  -2.720132e+01
   3.090810e+01  -3.920679e+01
   5.057123e+01   1.315423e+01
   3.953008e+01   3.225149e+01
  -1.901586e+01   4.421922e+01
  -7.405079e+01   3.284932e+01
  -1.977432e+01  -1.525176e+01
   1.679254e+01   2.565076e+01
   3.120752e+01  -3.597251e+00
  -1.739342e+01   2.508095e+01
  -5.788717e+01   1.329230e+01
