
 $NMID
 id='ANONYMOUS ', fmtdat='(2E16.6)'
 volume=1.0
 tramp=1.0
 $END
   2.144149e+03  -9.987873e+01
   1.621073e+03   9.076793e+02
   7.627727e+01   1.306539e+03
  -7.485276e+02   6.193732e+02
  -5.381233e+02   2.038314e+02
   1.897995e+01   2.235329e+01
   2.960592e+02   5.010223e+01
  -3.783566e+01   4.601368e+02
  -2.822201e+02   4.801874e+02
  -5.342113e+02   5.803423e+01
  -3.203560e+02  -2.618929e+02
   7.972531e+01  -3.877070e+02
   2.408544e+02  -1.392850e+01
   1.409120e+02   2.811318e+02
  -7.575696e+01   3.385105e+02
  -3.169067e+02   6.410838e+01
  -1.761115e+02  -3.270894e+02
   5.666207e+00  -3.703343e+02
   2.601340e+02  -1.849743e+02
   2.372255e+02   7.394332e+01
   1.144073e+02   2.110620e+02
  -6.905209e+01   1.436402e+02
  -3.522703e+01   4.651559e+01
   1.324910e+02   2.890891e+01
   2.498293e+02   1.568877e+02
   7.356458e+01   2.847414e+02
  -2.955621e+02   2.296204e+02
  -4.350411e+02  -4.137863e+01
  -2.179967e+02  -2.476126e+02
   2.964338e+02  -2.062860e+02
   3.035022e+02   1.467051e+02
   1.162558e+02   3.315304e+02
  -1.400312e+02   2.947226e+02
  -2.710440e+02   1.607942e+02
  -2.150598e+02  -7.459236e+01
  -1.795246e+01  -2.207459e+02
   6.240093e+01  -5.955881e+01
  -9.187389e+00   9.757832e+01
  -1.521368e+02   1.912412e+02
  -1.563682e+02  -8.713222e+01
  -1.007277e+02  -3.423006e+02
   4.347631e+01  -2.406783e+02
   1.855498e+02  -4.767976e+01
   1.197994e+02   2.861288e+02
  -1.052058e+02   1.340481e+02
  -1.602605e+02  -2.079411e+02
   7.440684e+01  -3.084650e+02
   2.779214e+02  -1.026309e+02
   3.351278e+02   2.081951e+02
   1.295481e+02   3.186446e+02
  -2.236796e+02   1.763591e+02
  -3.242407e+02  -6.287462e+01
  -1.689088e+02  -1.836410e+02
  -4.057874e+00  -1.531418e+02
   2.241322e+02  -4.846743e+00
   1.034214e+02   1.069023e+01
  -4.141973e+01   6.401219e+01
  -4.398182e+01  -2.672437e+01
   7.447534e+01  -8.985026e+01
   1.824717e+02   1.468145e+01
   1.173883e+02   9.748775e+01
  -7.708206e+01   1.664895e+02
  -1.357468e+02   1.391647e+02
  -1.666870e+02  -1.386408e+01
  -4.477492e+01  -1.729367e+02
   1.311597e+02  -2.522076e+02
   2.270678e+02  -1.212475e+02
   2.238476e+02   6.121629e+01
   6.657765e+01   1.774980e+02
  -1.050580e+01   1.986570e+02
   2.579013e+01   8.686974e+01
   3.523408e+01   2.831383e+01
  -5.446322e+01   8.493424e+01
  -1.733315e+02   4.109073e+01
  -1.557459e+02  -4.133299e+01
  -1.185119e+02  -1.825123e+02
   3.621378e+01  -1.405046e+02
   1.327864e+02  -5.981764e-01
   1.730616e+02   1.465489e+02
  -3.740328e+01   1.737577e+02
  -1.622693e+02   6.622137e+01
  -1.416588e+02  -9.755174e+01
  -1.562862e+02  -2.194287e+02
   2.825699e+01  -1.584303e+02
   1.197371e+02  -7.624948e+01
   5.738726e+01  -5.318846e+01
   9.169236e+01  -6.248391e+01
   1.649806e+02  -3.344782e+01
   2.851703e+02   4.379152e+00
   2.524943e+02   2.103598e+02
   5.471359e+01   2.501052e+02
  -2.351224e+02   2.440646e+02
  -3.405595e+02   1.988178e+02
  -2.100926e+02  -7.994138e+00
  -3.037180e+01  -2.149432e+02
   7.240724e+01  -1.666091e+02
   5.066943e+01  -1.804756e+01
  -9.272892e+01   9.003655e+00
  -7.144460e+01  -2.749412e+00
  -2.636911e+01  -7.357179e+01
   9.609762e+01  -6.059670e+01
   7.253847e+01   1.172613e+01
  -1.827948e+00   1.023066e+02
  -1.005294e+02  -8.823407e+00
  -1.002567e+02  -1.540447e+02
  -6.531214e+00  -1.988119e+02
   1.464028e+02  -1.621816e+02
   2.489431e+02   2.321439e+01
   2.056364e+02   1.163989e+02
   3.567149e+01   1.746327e+02
  -7.852182e+01   1.031569e+02
  -6.919360e+01   3.671129e+01
  -3.833877e+01  -9.157528e+00
   3.795528e+01   3.193883e+01
   3.093331e+01   4.755673e+01
  -9.571450e+01   7.499250e+01
  -1.149455e+02   1.540842e+01
  -3.130596e+01  -3.486460e+00
   1.502919e+01   2.147435e+01
   5.481922e+01   6.910274e+01
  -6.789773e+01   5.077183e+01
  -2.114852e+02   8.173163e+00
  -2.137749e+02  -9.532888e+01
  -4.053487e+01  -1.650213e+02
   1.169545e+02  -1.926328e+02
   2.124849e+02  -7.872114e+01
   9.126637e+01   1.231507e+01
  -2.003636e+01   5.613091e+01
  -3.735956e+01   1.434411e+01
   1.473579e+01  -7.397153e+01
   1.148083e+02  -4.520066e+01
   1.279514e+02   3.782531e+01
   6.050016e+01   1.517443e+02
  -4.867585e+01   9.546277e+01
  -7.553100e+01   7.392422e+00
  -1.278217e+01  -3.140654e+01
   2.476831e+01  -5.085821e+00
   2.382489e+01   9.231661e+01
  -7.399794e+01   7.122759e+01
  -1.397558e+02   6.126141e+01
  -1.190241e+02  -1.143683e+02
  -1.444239e+01  -1.356978e+02
   5.641239e+01  -9.601072e+01
   1.151268e+02  -4.547775e+00
   3.309235e+01   4.227574e+01
  -1.793524e+01   9.625481e+01
  -7.567747e+01   3.826095e+01
   2.978957e+01   1.270221e+00
   3.368630e+01   6.964993e+00
  -6.773478e-01  -1.281072e+01
  -4.081109e+01   7.181895e+00
  -7.168187e+01  -1.421145e+01
  -2.568507e+01  -1.269246e+02
   2.883478e+01  -1.053526e+02
   1.471815e+02  -3.285463e+01
   1.652344e+02   7.147530e+01
   6.113200e+01   1.302186e+02
  -2.217723e+01   8.198146e+01
  -6.484025e+01   4.201266e+01
  -3.427213e+01   3.536427e+00
  -4.739125e+01  -4.611318e+01
  -3.215567e+01   1.420157e+01
  -8.287654e+01  -6.837473e-01
  -5.195379e+01  -5.526813e+01
   2.614525e+01  -5.629591e+01
   8.458790e+01  -5.211988e+01
   5.399926e+01  -6.843679e+00
   7.772844e+00   7.347073e+01
  -6.642682e+01   7.462251e+01
  -1.422793e+02  -5.755183e+00
  -6.334231e+01  -1.557516e+02
   6.629910e+01  -1.290406e+02
   1.229209e+02  -5.544464e+01
   1.781530e+02   6.033445e+01
   5.735282e+01   1.260300e+02
  -7.891421e+00   1.132362e+02
  -8.348352e+01   4.212354e+01
  -5.290680e+01   7.468196e+01
  -2.590365e+01   7.273146e+01
  -4.922966e+01   4.263050e+01
  -7.083461e+01   3.450364e+00
  -7.885330e+01  -5.713873e+01
  -2.241237e+01  -1.791730e+02
   3.452649e+01  -1.006414e+02
   1.147935e+02  -1.109452e+01
   8.379556e+01   6.660191e+01
   8.978444e+00   9.677579e+01
  -7.115610e+01   8.151840e+01
  -4.051536e+01   1.028251e+01
   2.932824e+00  -2.827630e+01
   9.715171e+00  -3.894735e+01
   5.784251e-01  -3.354464e+01
  -6.334542e+01   1.323399e+01
  -2.543381e+01  -3.580904e+01
   2.753718e+01  -5.393030e+01
   1.536862e+02  -1.123552e+01
   1.101930e+02   7.145045e+01
   1.355843e+01   5.154538e+01
  -7.922926e+01   5.107090e+01
  -1.367929e+02   1.050872e+01
  -5.032931e+01  -1.315903e+01
   3.343745e+01  -4.047138e+01
   4.279906e+01   2.426860e+00
   4.724796e+01   5.287460e+01
  -4.624288e+01   2.410721e+01
   5.767821e-01  -2.898729e+00
  -3.295665e+01  -2.566175e+01
  -1.067088e+01  -2.885214e+01
  -7.507516e+01   1.233492e+01
  -5.226314e+01   8.658399e+00
  -1.739786e+01  -3.905368e+01
   1.739204e+01  -8.000502e+01
   8.156566e+01  -1.403842e+02
   1.078500e+02  -2.472405e+01
   8.073646e+01   1.550790e+01
  -1.864449e+00   8.743529e+01
  -7.700166e+01   4.878839e+01
  -6.757335e+01  -3.727863e+01
   6.553688e+01  -3.476353e+01
   5.840201e+01   1.582403e+01
   5.496579e+01   5.150722e+01
  -5.087160e+01   5.012626e+01
  -1.001067e+02   2.665244e+01
  -1.255761e+02  -3.465503e+01
  -1.311228e+01  -7.922564e+01
   1.193795e+01  -2.745057e+01
   4.677487e+01  -2.751015e+00
  -3.721786e+01   1.125088e+01
  -5.362653e+01  -2.997841e+01
  -5.053552e+01  -5.482050e+01
   1.889073e+01  -1.089660e+02
   8.391389e+01  -4.783362e+01
   9.020842e+01   1.025780e+02
   3.922808e+01   1.513510e+02
  -4.080276e+01   1.075621e+02
  -7.164008e+01  -1.086730e+01
  -4.598984e+01  -6.384928e+01
  -1.247121e+01  -6.781141e+01
   3.739660e+01  -4.959764e+01
   3.920831e+01   3.938497e+01
   1.222729e+01  -9.281283e+00
   9.899090e+00   2.389458e+01
   2.373352e+01  -1.232925e+01
   6.822181e+01   6.287571e+01
   7.359887e+01   6.143720e+01
  -3.104006e+01   2.668300e+01
  -7.427523e+01  -2.218860e+01
  -8.359560e+01  -4.024753e+01
  -4.356953e+01  -3.691815e+01
   7.117693e+01   1.307319e+01
   5.343690e+01  -6.387692e+00
   5.955989e+00   1.397567e+01
  -2.086763e+01   1.233983e+01
   8.694128e-01  -9.654548e+00
   2.063049e+01  -1.447549e+01
  -1.146241e+01   1.282409e+01
  -4.472080e+01   3.335555e+01
  -3.732221e+01  -4.348127e-01
  -1.317812e+01  -4.355433e+01
   6.765202e+01  -7.517003e+01
   1.121010e+02  -4.976673e+01
   1.070315e+02   3.730902e+01
   2.231214e+01   7.362863e+01
  -9.815146e+00   9.258574e+01
  -4.607261e+01   5.123678e+01
  -5.239153e+01   3.511024e+01
  -2.694098e+01  -4.447342e+01
   1.422108e+01  -1.097226e+01
  -1.731823e+01  -2.076229e+01
  -6.440161e+00  -3.179834e+01
  -1.596418e+00  -5.392452e+01
   1.654717e+01  -3.330869e+01
   3.078244e+01  -3.078825e+01
   8.309230e+01   6.690901e+01
  -5.141091e+00   6.756823e+01
  -2.743595e+01   4.197739e+01
  -6.118941e+01  -2.003728e+01
  -3.293195e+01  -5.621780e+01
   3.714443e+01  -4.304393e+01
   5.612449e+01  -1.727787e+00
   5.046821e+01   6.532301e+01
  -3.448061e+01   4.976803e+01
  -3.788168e+01   2.429574e+01
   1.058863e+01   1.556319e+00
   4.228592e+01  -1.773993e+01
  -4.637166e-01   3.353491e+01
  -1.502684e+01   5.486379e+01
  -6.621197e+01   3.981680e+01
  -4.327181e+01   1.985323e+01
  -2.519682e+01  -6.316787e+01
   3.240759e+01  -4.937177e+01
   1.851418e+01  -3.055212e+01
  -5.064715e+00   4.523294e+01
  -2.510705e+01   3.867653e+01
  -2.291127e+01  -1.166669e+00
   3.280553e+00  -8.321917e+00
   8.784170e+00  -3.558017e+00
   2.955905e+01  -2.155645e+01
   5.487719e+01   2.157321e+01
  -9.942486e-02  -1.792103e+01
  -2.520444e+01  -2.654310e+01
   1.039374e+01  -1.703128e+01
   4.629260e+00   3.859374e+01
   1.573722e+01   6.045120e+01
  -3.440332e+01   1.161810e+01
  -1.717555e+01  -6.104294e-01
  -1.385203e+01  -6.348396e+00
   2.122169e+01   1.070202e+01
   4.750187e+01   1.931171e+01
   3.815287e+01   4.386043e+01
  -4.587100e+01   2.099371e+01
  -4.627344e+01   6.667848e+00
  -5.267819e+01  -2.382735e+01
   5.564047e+01  -6.446761e+01
   3.289986e+01  -3.030963e+01
   3.606102e+00  -1.675713e+01
  -1.178784e+01   2.497912e+01
  -2.903568e+01  -1.649257e+01
   2.061208e+01  -2.786012e+01
   5.145247e+01  -1.747861e+01
