
 $NMID
 id='ANONYMOUS ', fmtdat='(2E16.6)'
 volume=1.0
 tramp=1.0
 $END
  -1.437078e+03  -3.550168e+02
  -8.027386e+02  -9.305085e+02
   3.293017e+02  -8.074808e+02
   7.813222e+02  -1.686321e+02
   2.808490e+02   1.009015e+02
  -1.402172e+02   7.870500e+01
  -2.130442e+02  -2.084240e+02
  -8.195905e+00  -3.093687e+02
   3.220171e+02  -1.810656e+02
   3.670061e+02   1.942495e+01
   9.630752e+01   2.996407e+02
  -4.915511e+01   1.852095e+02
  -2.048141e+02  -2.960444e+01
  -2.331121e+01  -1.556745e+02
   1.416296e+02  -1.706360e+02
   2.290704e+02   1.486859e+01
   8.151983e+01   2.282699e+02
  -1.079857e+02   2.289857e+02
  -1.242062e+02   1.254100e+02
  -1.603362e+02   6.500024e+00
  -1.263348e+00  -1.997736e+02
   2.909109e+01  -8.992560e+01
  -9.388604e+00   4.730623e+00
  -6.352568e+01   1.815154e+01
  -2.042704e+02  -6.801888e+01
   2.908391e+01  -2.054248e+02
   2.779022e+02  -1.684692e+02
   3.061292e+02   2.880795e+01
   1.982804e+02   2.548805e+02
  -2.272378e+02   1.215669e+02
  -2.480394e+02  -2.957259e+01
  -1.092014e+02  -1.829506e+02
   1.210556e+02  -1.572435e+02
   2.352257e+02  -6.199094e+01
   1.525012e+02   8.574778e+01
  -1.021513e+01   7.006299e+01
  -5.323350e+01   9.392106e+01
   7.711538e+00  -6.134191e+01
   1.117377e+02  -1.088282e+02
   1.352102e+02   6.401298e+01
   5.217555e+01   3.264196e+02
  -6.258552e+01   2.448271e+02
  -1.592515e+02  -4.210601e+01
  -1.208573e+02  -2.758367e+02
   1.045999e+02  -1.268328e+02
   5.213679e+01   1.431162e+02
  -7.571029e+01   2.454846e+02
  -2.485730e+02   3.233679e+01
  -2.833649e+02  -1.560255e+02
  -8.200772e+01  -1.766466e+02
   1.201791e+02  -1.302357e+02
   2.051551e+02   2.772460e+01
   6.160194e+01   1.148272e+02
  -7.394086e+01   8.390557e+01
  -1.711366e+02  -2.150723e+01
  -7.233955e+01  -5.101550e+01
   3.654865e+01  -1.621744e+01
   1.984299e+01   8.178417e+01
  -1.372133e+02   3.985519e+01
  -9.804772e+01  -1.491859e+01
  -2.218905e+01  -1.175580e+02
   2.273759e+01  -9.854130e+01
   6.573269e+01  -5.867998e+01
   9.381493e+01  -1.301036e+00
   7.215182e+01   4.768891e+01
  -1.043082e+02   1.642262e+02
  -1.154883e+02   1.442738e+02
  -1.329957e+02  -1.300490e+01
  -6.877126e+01  -1.730217e+02
   7.556333e+00  -1.427968e+02
  -2.930930e+01  -4.736893e+01
  -5.926229e+01  -3.219861e+01
   1.861234e+01  -7.278862e+01
   1.049975e+02  -2.437215e+01
   1.275386e+02   3.454508e+01
   7.964227e+01   1.363641e+02
  -7.667511e+01   1.056717e+02
  -7.031814e+01  -4.757493e+01
  -1.200674e+02  -7.825619e+01
   4.325768e+01  -1.290874e+02
   1.153934e+02  -4.695933e+01
   6.531326e+01   1.239220e+01
   8.004771e+01   1.380714e+02
   1.228134e+01   1.001759e+02
  -9.042253e+01   2.181718e+01
  -4.769293e+01   4.065289e+00
  -4.772065e+01   6.601061e+01
  -6.450306e+01  -1.830669e+01
  -1.950790e+02   2.360943e+01
  -1.100073e+02  -1.425057e+02
  -2.322378e+01  -1.804997e+02
   1.427659e+02  -1.917861e+02
   2.562947e+02  -9.245394e+01
   8.543260e+01   3.262756e+01
  -1.789638e+01   1.173811e+02
  -5.641141e+01   7.562992e+01
  -2.337400e+01   3.022579e+01
   7.104314e+01  -2.575175e+01
   7.431468e+01  -1.476782e+01
   3.514247e+01   5.754929e+01
  -6.371877e+01   6.233944e+01
  -6.919104e+01  -3.411847e+01
   2.988650e+00  -8.936694e+01
   8.455278e+01   1.573221e+01
   6.287271e+01   8.881673e+01
  -1.738515e+01   1.332402e+02
  -7.690989e+01   7.743692e+01
  -1.464359e+02  -1.859586e+01
  -1.263729e+02  -1.225458e+02
  -3.324382e+01  -6.670601e+01
   3.358920e+01  -5.697276e+01
   5.549086e+01   1.138704e+01
   4.952511e+01   3.111627e+01
  -3.655025e+01  -2.115568e+01
  -5.923129e+01  -6.535763e+01
   4.626359e+01  -4.136208e+01
   6.845016e+01   2.569447e+00
   1.007979e+01   4.043552e+01
  -3.461807e+01  -1.128528e+01
  -7.050725e+01  -4.210398e+01
   5.513419e+01  -3.649709e+01
   1.469803e+02   1.010739e+01
   8.965797e+01   6.341547e+01
   3.834233e+01   1.046497e+02
  -1.085928e+02   1.162895e+02
  -1.180801e+02   4.630994e+01
  -3.468575e+01  -6.376324e+00
  -1.384856e+01  -6.429199e+01
   3.767967e+01   3.830902e-01
  -3.626941e+01   5.106733e+01
  -8.512209e+01   5.400780e+01
  -9.285891e+01  -4.936001e+01
  -5.733450e+00  -7.202193e+01
   5.550489e+01  -2.805067e+01
   5.295481e+01  -1.014192e+00
   2.106765e+01   2.568545e+01
  -1.016686e+01   7.026650e+00
  -1.630799e+01  -5.052826e+01
   4.371922e+01  -5.597715e+01
   1.218576e+02  -2.914066e+01
   5.871378e+01   3.972610e+01
  -1.566803e+01   1.079822e+02
  -3.953876e+01   3.325835e+01
  -4.257022e+01   1.510023e+01
  -3.793831e+01  -3.036005e+01
   1.042269e+01  -4.106249e+01
   1.211347e+01  -7.807327e+00
  -1.613646e+01   2.840401e+00
  -2.027388e+01  -1.900181e+01
  -6.030757e+00   2.741213e+01
   5.519772e+00  -1.650258e+01
   5.826654e+01   1.546843e+01
   2.000790e+01   9.038835e+01
  -4.361421e+01   6.572353e+01
  -1.187322e+02   2.734093e+01
  -9.494153e+01  -2.358358e+01
  -2.429936e+01  -1.223571e+02
   3.098747e-01  -6.564616e+01
   2.204010e+01   5.559632e+00
   2.539060e+01   2.145680e+01
  -1.289734e+01   1.037466e+01
  -4.065179e+00  -1.926181e+01
   4.209337e+01   2.163210e+01
   5.237290e+01  -1.470521e+01
   3.449774e+00   2.625114e+01
  -2.902898e+01   2.639271e+01
  -4.005215e+01   1.625793e+01
  -9.680347e+00  -5.762845e+01
   6.399037e+01  -1.363055e+01
   7.401947e+01   2.071677e+01
   3.177624e+01   5.783201e+01
  -3.703726e+01   1.101992e+02
  -1.002485e+02   2.219047e+01
  -1.178879e+02  -2.369858e+01
  -8.324150e+01  -6.109133e+01
  -1.303026e+01  -9.052140e+01
   3.441993e+01  -5.712738e+01
   4.524737e+01  -6.165700e+01
   1.274366e+01  -2.385776e+01
   1.537995e+01  -4.229753e+01
   6.598839e+01  -3.430238e+01
   6.617756e+01   2.740308e+01
   5.632785e+00   7.757133e+01
  -3.910965e+01   7.826817e+01
  -8.785767e+01   1.288875e+01
  -5.262221e+01  -5.692941e+01
  -3.740846e+00  -4.764876e+01
   1.555612e+01  -2.861079e+01
   4.120145e+01   1.616434e+01
  -1.133257e+01   1.917468e+01
  -3.483597e+01   2.495707e+01
   1.119816e+01   3.187506e+01
   5.477711e+01  -2.811827e+00
   3.934891e+01   3.288828e+01
  -1.818954e+01   3.601186e+01
  -9.370063e+01   1.639770e+01
  -3.060295e+01  -1.095735e+01
  -1.180188e+01  -4.757289e+01
   4.094849e+01  -2.571335e+01
   7.965443e+01  -5.782956e+00
  -1.298285e+01  -1.480357e+01
  -1.022979e+01  -2.150096e+00
  -1.450018e+01   1.291550e+01
  -2.987249e+00  -6.438531e+00
   3.503487e+01  -4.700151e+01
   1.498452e+01   2.830432e+00
  -8.230389e-01   1.417510e+01
   1.760932e+01   7.158108e-01
   2.554164e+01  -1.248375e+01
   4.588206e+01  -1.345015e+01
   1.248887e+01   4.627964e+01
  -2.626203e+01   6.441712e+01
  -7.784070e+01   5.858962e+01
  -6.810604e+01  -4.584309e+00
  -5.042773e+01  -2.035944e+01
   5.469471e+00  -6.311957e+01
   1.990217e+01  -2.586777e+01
   5.138513e+01  -2.631176e+00
  -3.675208e+01   5.639585e+00
  -6.747402e+01  -1.100508e+01
  -1.899382e+01  -2.731747e+01
   4.981564e+01  -3.817538e+00
   6.240620e+01  -1.472906e+01
   5.396932e+01   4.165272e+00
   1.042608e+01   2.735796e+01
  -8.280847e+00   1.868409e+01
  -5.030048e+00  -1.064073e+01
   3.282084e+00  -3.626580e+00
   5.936802e+01   9.615830e+00
   3.471976e+01   3.582162e+01
  -5.470528e+00   6.029866e+01
   1.567990e+01   2.951420e+01
  -8.121143e+01  -3.308943e+01
   7.141934e+00  -9.457119e+01
   2.357415e+01  -7.425363e+01
   5.297664e+01  -1.131362e+00
   5.035945e+01   6.919019e+01
   5.882210e+00   2.809724e+01
  -6.437819e+00   1.615817e+01
  -1.477799e+01  -4.320454e+01
  -2.001105e+01  -8.229930e+00
  -2.117057e+00  -1.767953e+01
  -2.535164e+01   2.277600e+00
  -4.451973e+01  -5.341953e+01
  -5.181775e+01  -5.161832e+01
   1.809035e+01  -2.031005e+01
   6.377744e+01   1.041966e+01
   5.799722e+01   2.112656e+01
  -3.445638e+00   4.623906e+01
  -3.744953e+01  -1.537591e+01
  -2.790749e+01   1.351100e+01
   1.769503e+01   3.450286e+00
   1.097812e+01   3.456496e+00
   3.140317e+01   1.328612e-01
   8.630985e-01   1.274753e+01
  -3.038495e+01  -1.551118e+01
   1.178136e+01   6.632747e+00
   6.353464e+01   1.309735e+01
   3.470319e+01   3.000051e+01
   1.029473e+01   2.900105e+01
  -7.502544e+01   6.251306e+01
  -4.350184e+01  -1.470363e+01
  -2.337339e+01  -5.141601e+01
  -1.898534e+01  -3.577283e+01
   4.987691e+01  -1.802608e+01
   4.724169e+01  -1.861182e+01
   1.038030e+01   3.016487e+01
  -2.314941e+00  -2.158036e+01
   6.439131e+00  -1.311947e+01
  -1.079670e+00   2.620248e+01
   3.165391e+01   4.351942e+01
   2.036199e+01   2.433785e+01
  -2.973697e+01   4.688990e-01
  -3.164884e+01  -3.784403e+01
  -2.135362e+01  -3.418182e+01
   2.714166e+01   5.284171e+00
   3.900012e+01   2.851669e+01
   1.788932e+01   2.724839e+01
  -2.437408e+01   2.765028e+01
  -7.332299e+01  -1.332284e+01
  -4.559153e+01  -2.216180e+01
   3.275156e+01  -1.658305e+00
   2.053462e+01  -2.099832e+01
  -2.706242e+01   1.839832e+01
  -1.050230e+01   2.418302e+01
  -1.052620e+01  -1.395655e+01
   4.403383e+01  -1.362913e+01
   4.042243e+01  -3.982043e+01
   3.156858e+01  -5.966338e-01
   2.562729e+00   4.168559e+01
  -1.872631e+00   5.768422e+01
  -1.195458e+01  -6.177268e+00
   1.352003e+00  -2.672477e+01
   1.300828e+01  -1.898061e+01
   1.191280e+01  -6.296551e+00
   1.639028e+01  -1.145917e+01
  -3.509864e+00   1.690399e+01
  -1.739772e+01   2.486056e+01
  -4.798019e+01   1.669605e+00
  -1.044683e+01  -2.682141e+01
   2.118529e+01  -3.484120e+00
   7.100405e+00  -3.721511e+00
   2.102171e+00  -6.891688e+00
  -2.019103e+00  -4.125304e+01
   6.243946e+00  -2.197927e+00
   6.677687e+00   2.798539e+01
   2.541275e+00   3.206679e+00
  -1.754420e+01   2.212965e+01
  -2.509237e+01   5.044706e-01
  -1.453215e+01  -2.363177e+01
   1.464757e+01  -1.494108e+01
   3.778961e+01  -5.215868e+00
   7.411584e+01  -8.867661e+00
  -3.072788e+01   1.106969e+01
  -8.617364e+00  -3.698368e+00
  -1.402224e+01  -1.779073e+01
   2.455769e+01   1.096542e-02
   2.419725e+00   1.596333e+01
  -3.941731e+00   1.630175e+01
  -2.715952e+01   1.342134e+01
