
 $NMID
 id='ANONYMOUS ', fmtdat='(2E16.6)'
 volume=1.0
 tramp=1.0
 $END
  -1.545323e+03  -5.429073e+02
  -1.114839e+03  -1.534601e+03
   7.302778e+02  -7.752133e+02
   7.089799e+02  -2.229589e+02
   3.907146e+02   3.361178e+02
  -2.569409e+02   3.228724e+02
  -3.683267e+02  -3.178411e+02
   8.514487e+01  -3.819742e+02
   4.719608e+02  -2.894257e+02
   4.421225e+02   4.557113e+01
   8.356348e+01   4.154549e+02
  -1.893920e+02   3.144290e+02
  -2.691736e+02   6.287162e+01
  -8.958891e+01  -3.486946e+02
   1.701937e+02  -2.446811e+02
   2.579838e+02   9.698092e+01
   7.504299e+01   2.824139e+02
  -1.747488e+02   2.956716e+02
  -2.409583e+02   2.582276e+01
  -1.927729e+02  -1.901731e+02
   1.732337e+01  -1.945891e+02
   1.507280e+02  -9.939661e+01
   1.029170e+02  -2.075869e+01
  -2.457611e+01   5.893429e+01
  -1.859681e+02  -1.073569e+02
  -3.857171e+01  -2.622250e+02
   2.468155e+02  -9.634006e+01
   3.783799e+02   5.143310e+01
   1.644507e+02   3.287115e+02
  -1.701923e+02   1.253251e+02
  -2.929875e+02  -1.093045e+00
  -1.577541e+02  -2.397955e+02
   1.733871e+02  -1.958594e+02
   3.081761e+02  -7.968876e+01
   1.573227e+02   1.248292e+02
   3.430020e+01   1.406049e+02
  -7.759420e+01   1.072746e+02
  -5.953754e+01  -1.288657e+02
   8.327659e+01  -1.596308e+02
   2.270296e+02   6.954704e+01
   1.424931e+01   3.480223e+02
  -9.717028e+01   2.983608e+02
  -2.457151e+02  -2.128059e+01
  -1.933217e+01  -2.808953e+02
   2.237241e+02  -1.915084e+02
   7.382891e+01   1.644241e+02
  -1.146474e+02   2.458033e+02
  -3.082597e+02   1.800510e+00
  -2.506311e+02  -2.676257e+02
  -2.198048e+00  -2.591748e+02
   1.383045e+02  -1.594644e+02
   2.312918e+02   1.017823e+02
   1.514313e+02   1.711695e+02
  -1.292117e+02   1.363025e+02
  -2.081238e+02   4.805352e+01
  -8.705648e+01  -9.369839e+01
   9.082279e+01  -7.460691e+01
   7.264253e+01   9.779655e+01
  -7.829889e+01   5.479662e+01
  -1.445873e+02  -1.604290e+01
  -2.460650e+01  -1.467405e+02
   1.395792e+02  -1.287174e+02
   1.508341e+02   1.366180e+01
   1.175638e+02   9.025221e+01
  -5.344920e+00   1.214401e+02
  -1.276547e+02   1.291361e+02
  -1.705791e+02   6.392440e+01
  -1.726769e+02  -9.457134e+01
  -1.343943e+01  -2.170673e+02
   8.014004e+01  -1.683710e+02
   4.816538e+01  -3.695088e+01
   1.992511e+01   1.114392e+01
  -1.386379e+01  -1.384719e+01
   7.151943e+01  -3.677416e+01
   1.399260e+02   4.910417e+01
   6.857496e+01   1.645715e+02
  -5.614649e+01   5.829884e+01
  -9.712556e+01  -2.722620e+01
  -8.897643e+01  -1.377769e+02
   6.798477e+01  -1.042379e+02
   1.724562e+02   2.892268e+01
   1.062941e+02   7.122385e+01
   3.469854e+01   2.294657e+02
  -2.521057e+01   1.735527e+02
  -1.095684e+02   1.197641e+01
  -7.415282e+01  -1.731215e+00
  -7.634019e+01  -1.168646e+01
  -7.635968e+01   4.094077e+01
  -2.218360e+02  -4.153258e+01
  -1.281354e+02  -1.440270e+02
   1.012723e+01  -1.884579e+02
   1.916308e+02  -1.617386e+02
   1.910610e+02  -7.140999e+01
   1.476273e+02   7.370931e+01
  -1.533049e+01   1.014624e+02
  -8.546472e+01   1.026904e+02
  -2.423229e+01  -1.649631e+01
   2.503024e+01  -1.349614e+01
   7.407794e+01  -3.763440e+00
   1.655330e+01   9.818852e+01
  -4.899929e+01   7.452628e+01
  -3.858713e+01  -5.247677e+01
   4.574070e+01  -6.685659e+01
   7.591780e+01   3.304040e+01
   6.040247e+01   1.097229e+02
   1.875093e+01   1.544322e+02
  -8.079116e+01   6.413110e+01
  -1.481953e+02  -9.840376e+01
  -8.831128e+01  -1.734893e+02
  -4.742412e+01  -6.740193e+01
   6.293665e+01  -4.474335e+01
   7.647590e+01  -1.351726e+01
  -4.325957e+00   2.859887e+01
  -4.134412e+01  -3.942382e+01
  -3.354140e+00  -5.433932e+01
   7.625641e+01  -3.647914e+01
   4.564576e+01  -1.505201e+01
  -1.069916e+00   2.966453e+01
  -3.640378e+01   8.947200e+00
  -1.310958e+01  -2.353626e+01
   8.452918e+01  -2.879996e+01
   1.050193e+02   7.743526e+01
   6.208400e+01   8.401645e+01
  -1.083669e+00   1.347193e+02
  -8.676684e+01   7.225791e+01
  -1.701712e+02  -3.402138e+00
  -6.570125e+01   1.573901e+01
   3.654618e+00  -5.624141e+01
   5.577140e+01   1.487529e+01
  -2.811970e+01   6.181484e+01
  -8.753553e+01  -1.674233e+01
  -1.084575e+02  -5.622926e+01
  -2.724136e+01  -8.670154e+01
   5.376607e+01  -5.696332e+01
   8.556308e+01   1.846070e+00
   3.730061e+01   9.190520e-01
   1.533118e+01   1.789258e+01
  -1.235720e+01  -1.425637e+01
   4.201341e+00  -3.862286e+01
   1.276013e+02  -4.984642e-01
   8.086599e+01   7.915517e+01
   1.017185e+01   1.032385e+02
  -9.404419e+01   2.373554e+01
  -1.048784e+02  -1.571623e+01
  -2.729147e+00  -3.844560e+01
   5.670354e+01  -2.920182e+01
   4.817466e+01  -6.755436e+00
  -2.567787e-01   1.761537e+01
   1.702899e+01   1.434212e+01
   1.196049e+01  -7.609250e+00
   2.318602e+01   3.645609e+01
   4.043230e+01   4.811384e+01
  -1.869225e+01   9.059618e+01
  -5.113510e+01   8.159710e+01
  -1.488350e+02  -8.185988e+00
  -7.928265e+01  -9.197996e+01
  -1.751156e+00  -1.325497e+02
   5.931593e+01  -9.404193e+01
   4.381709e+01   1.292857e+01
   5.773668e+00   4.812158e+01
   2.634543e+01   4.180085e+01
   2.685490e+01   1.635186e+01
   5.527384e+01  -1.223406e-02
   3.824249e+01  -3.100344e+01
  -3.934075e+00  -1.020858e+00
  -2.624110e+01   3.584977e+00
  -8.931505e+00  -8.470260e+00
   3.848671e+01  -3.836066e+01
   9.009892e+01  -2.571418e+01
   5.885239e+01   5.109956e+01
   5.226720e+01   9.229805e+01
  -7.230493e+01   1.118574e+02
  -9.781180e+01   5.041672e+01
  -8.730598e+01  -7.784899e+01
  -4.616497e+01  -9.323854e+01
   6.314581e+01  -9.104843e+01
   7.901946e+01  -5.446326e+01
   3.176879e+01  -2.755073e+01
   1.907991e+01  -3.048822e+01
   5.373904e+01   1.611812e+01
   8.980229e+01   2.209082e+01
   3.083533e+01   5.916473e+01
   2.133091e+01   1.000213e+02
  -5.814498e+01   5.201414e+01
  -6.967746e+01   7.484748e+00
  -5.423448e+01  -5.500016e+01
   3.373132e+01  -4.171292e+01
   3.461669e+01  -3.304711e+01
   4.816695e+01   2.794535e+01
   2.635266e+01  -1.555886e+01
  -6.108060e+00   1.532498e+01
  -8.726405e+00   1.786785e+01
   3.008069e+01  -4.120827e+00
   4.459270e+01   1.746596e+01
  -1.992880e+01   3.089178e+01
  -5.215429e+01   1.099588e+01
  -7.640736e+01  -1.893909e+01
   1.416328e+01  -2.037585e+01
   5.164417e+01  -1.445556e+01
   3.164084e+01   5.905382e+00
   1.167745e+00   2.921761e+01
  -2.778031e+01   7.282780e+00
  -5.502462e+01  -2.411266e+01
   2.630127e+01  -7.617909e+00
  -1.329414e+00  -7.280385e+00
   1.777533e+01   2.374890e+01
   1.168171e+01   1.898685e+01
   1.682765e+00   3.829073e+01
   2.727059e+01  -6.901231e+00
   4.095175e+01   1.940856e+01
  -9.254882e+00   3.290278e+01
  -3.037237e+01   5.164720e+01
  -6.424497e+01   4.051996e+01
  -8.935301e+01   9.316690e+00
  -1.963871e+01  -7.145046e+01
  -1.249037e+01  -3.873966e+01
   3.242969e+01   1.217187e+01
   2.586343e+01   2.120163e-01
  -2.830208e+01  -8.450432e+00
  -5.923997e+01  -7.722777e+00
  -2.072810e+01  -4.622824e+01
   3.584668e+01  -4.490292e+01
   6.597512e+01   2.223905e+01
   5.546179e+01   1.850412e+01
   2.894674e+01   5.785558e+01
  -2.638190e+01   5.498156e+01
   4.940774e-01  -3.236908e+01
   3.017435e+01  -1.653147e+01
   3.733018e+01   1.676469e+01
  -1.826672e+01   5.330590e+01
  -8.653602e+01   9.254869e+01
  -6.559191e+01   3.558298e+01
  -4.999950e+01  -9.023218e+01
   2.551574e+01  -8.348771e+01
   1.786909e+01  -7.020283e+00
   4.070554e+01   5.247166e+01
   2.050839e+01   6.305055e+01
   8.225962e+00   3.724972e+01
  -2.325601e+01  -1.724659e+00
  -1.785809e+01  -4.539251e+01
  -7.354769e+00  -2.308190e+01
   1.011661e+01   6.181016e+00
  -2.317993e+01  -7.173587e+00
  -1.015568e+00  -3.028196e+01
  -2.673292e+00  -9.311730e+01
   3.795576e+01   3.837686e+00
   5.276886e+01   3.240247e+00
   6.707910e+01   6.774355e+01
   2.832706e+01   4.239568e+01
  -4.804793e+01  -7.259280e+00
  -4.015416e+01   2.379765e+01
   1.668987e+01  -1.824985e+01
   2.543578e+01   1.719707e+00
   5.317355e+01  -3.452389e+00
   1.581320e+01  -7.022161e+00
  -3.063978e+01   2.306425e+01
   1.012963e+01   1.322387e+01
   4.013489e+01   1.661100e+01
   3.719294e+01   2.819567e+01
  -3.442106e+01   3.378363e+01
  -6.191722e+01   2.037423e+01
  -8.014155e+01  -5.624453e+01
  -2.587660e+01  -6.582983e+01
   2.015429e+01  -4.908568e+01
   5.781774e+01  -1.077098e+01
   1.088232e+01   4.468476e+01
   2.604260e+00   3.832985e+01
  -7.598804e+00  -2.507558e+00
  -2.885182e+00   5.185710e+00
   1.996440e+00   2.197423e+01
  -2.142445e+01   3.372061e+01
  -8.419826e+00   3.584905e+01
  -8.476519e+00  -9.649347e+00
  -2.449020e+01  -9.055171e+01
  -3.341114e+00  -2.940925e+01
   2.544899e+01  -6.143170e+01
   7.796762e+01   2.796046e+01
   1.144622e+00   5.911373e+01
  -4.176044e+01   4.302196e+01
  -2.686892e+01  -9.874177e+00
  -1.788600e+01  -2.236328e+01
   4.663483e+01  -8.544588e+00
   2.753046e+01  -4.480945e+00
  -2.564887e+01   8.907770e-01
  -2.852335e+01  -1.537118e+01
  -5.290893e-02  -2.298786e+01
   2.378373e+01  -1.845434e+01
   8.079185e+01  -5.192393e+00
   4.258503e+01   1.270874e+01
   7.473051e+00   4.267210e+01
  -7.951206e+00   4.619531e+01
  -1.272203e+01  -4.881462e+00
   2.200727e+01  -3.573450e+01
   2.327091e+01  -1.169693e+01
   3.892262e+01   3.529115e+01
   2.912988e+01   3.661710e+00
  -2.882483e+00   1.497464e+01
  -1.278540e+01   2.645143e+00
  -2.114374e+01  -7.211168e+00
   3.819672e+01  -1.712926e+01
   1.535768e+01  -7.221467e+00
   1.245143e+01  -1.515284e+00
   1.574963e-01  -1.322334e+01
  -7.406680e-01  -5.874446e+01
   6.187037e+00   4.769598e+00
   2.070101e+01   4.683108e+01
  -1.164431e+00   3.081460e+01
  -1.471449e+01  -1.503899e+01
  -4.252599e+01  -4.251062e+01
  -9.088586e+00  -1.662570e+01
   2.241052e+01  -7.783039e+00
   7.200484e+00   1.724289e+01
   2.673567e+01   4.095230e+01
   4.911384e-01   1.725302e+01
  -1.315525e+01  -1.998946e+00
  -1.686778e+01  -1.690167e+01
   3.879956e+01  -9.310281e+00
   2.265757e+01   1.833559e+01
  -1.131771e+01  -5.452855e+00
  -8.296714e+01  -2.240648e+01
