
 $NMID
 id='ANONYMOUS ', fmtdat='(2E16.6)'
 volume=1.0
 tramp=1.0
 $END
   2.677395e+03   4.252399e+02
   1.925122e+03   2.099573e+03
  -7.926883e+02   1.784532e+03
  -1.262609e+03   4.918129e+02
  -7.404997e+02  -3.790885e+02
   2.853764e+02  -3.023750e+02
   5.278482e+02   4.012962e+02
  -2.606892e+01   6.783362e+02
  -5.689926e+02   5.270131e+02
  -6.127766e+02  -1.095829e+02
  -3.465410e+02  -6.513985e+02
   1.071412e+02  -6.340617e+02
   3.844012e+02  -6.035438e+01
   1.201647e+02   5.125051e+02
  -1.382801e+02   4.189393e+02
  -3.882104e+02  -1.014407e+02
  -1.150276e+02  -4.325600e+02
   2.600240e+02  -4.601401e+02
   4.397257e+02  -9.427977e+01
   2.976837e+02   3.038929e+02
   2.810668e+00   3.680741e+02
  -2.055394e+02   1.714723e+02
  -1.224680e+02   2.636546e+01
   9.314902e+01  -4.818882e+01
   2.177173e+02   1.906701e+02
   9.815334e+00   3.131424e+02
  -3.483878e+02   1.539228e+02
  -6.039846e+02  -2.475213e+02
  -2.375836e+02  -4.065276e+02
   2.398372e+02  -2.308413e+02
   4.405082e+02   7.337499e+01
   1.497965e+02   3.696301e+02
  -2.441883e+02   3.073992e+02
  -4.015198e+02   5.093718e+01
  -2.796595e+02  -1.711166e+02
  -5.533260e+01  -2.917158e+02
   9.424323e+01  -1.988732e+02
   9.642079e+01   1.028332e+02
  -1.474694e+02   2.457837e+02
  -2.295825e+02  -1.488508e+01
  -4.012480e+01  -4.727761e+02
   2.430750e+02  -4.689967e+02
   4.315864e+02   4.016431e+01
   9.177146e+01   3.573179e+02
  -2.348313e+02   2.020182e+02
  -1.674901e+02  -2.161474e+02
   1.803163e+02  -3.452574e+02
   3.998249e+02   2.421122e+01
   3.898488e+02   4.052680e+02
   1.620097e+02   4.818325e+02
  -2.637120e+02   1.916823e+02
  -4.086014e+02  -7.691131e+01
  -2.112048e+02  -3.044754e+02
   1.777813e+02  -1.790396e+02
   3.327307e+02  -1.836201e+01
   1.255759e+02   1.172383e+02
  -7.925591e+01   4.201585e+01
  -5.805853e+01  -9.369508e+01
   1.204413e+02  -7.082230e+01
   2.476895e+02   4.572928e+01
   9.387750e+01   2.290285e+02
  -1.636919e+02   2.090951e+02
  -2.564347e+02   6.851551e+00
  -1.539496e+02  -9.670064e+01
   1.054770e+01  -2.332746e+02
   1.839587e+02  -2.684114e+02
   2.512879e+02  -1.338448e+02
   2.644245e+02   1.515068e+02
   1.887200e+01   3.600556e+02
  -8.700427e+01   3.043155e+02
  -5.536693e+01   1.117676e+02
  -2.984167e+01   4.596067e+01
  -8.169299e+01   2.161752e+01
  -1.890801e+02   8.003869e+01
  -1.836199e+02  -8.590801e+01
  -6.092008e+01  -2.254400e+02
   9.202435e+01  -1.195310e+02
   1.404442e+02   1.951230e+01
   1.298808e+02   1.626731e+02
  -3.585701e+01   1.750566e+02
  -1.952486e+02  -1.639319e+01
  -2.013812e+02  -1.137732e+02
  -4.716687e+01  -2.631478e+02
   7.176623e+01  -2.124675e+02
   1.378270e+02  -7.324170e+01
   9.477933e+01  -2.573896e+00
   9.984560e+01   1.238092e+01
   1.609485e+02  -5.528455e+01
   2.558706e+02   3.728347e+01
   2.236940e+02   2.447403e+02
  -9.712274e+00   3.132586e+02
  -3.492522e+02   2.281649e+02
  -3.320696e+02   7.370953e+01
  -2.233425e+02  -1.098974e+02
   7.674328e+00  -1.865881e+02
   1.346089e+02  -1.674426e+02
   3.523083e+01  -2.435775e+01
  -9.192506e+01   3.994939e+01
  -1.376372e+02  -1.435570e+01
  -7.532276e+00  -1.474975e+02
   1.262224e+02  -1.066574e+02
   1.438346e+02   5.575596e+01
  -6.134523e+01   1.435328e+02
  -1.782057e+02  -4.290266e+00
  -1.159720e+02  -1.993995e+02
   3.862967e+01  -2.656540e+02
   1.635950e+02  -9.350373e+01
   2.508873e+02   7.224594e+01
   1.362925e+02   2.026620e+02
   5.271228e+01   1.876631e+02
  -1.130196e+02   1.069386e+02
  -1.107923e+02   2.632649e+01
  -2.328984e+01  -2.555969e+01
   3.848351e+01   2.684994e+01
  -4.258962e+00   7.882506e+01
  -1.134485e+02   5.098633e+01
  -1.304443e+02   7.219690e+00
  -4.783769e+01  -4.909853e+01
   6.616400e+01   2.134734e+01
   2.765184e+01   9.243670e+01
  -1.165349e+02   2.843991e+01
  -1.772744e+02  -3.101553e+01
  -1.594114e+02  -1.404392e+02
  -1.315072e+01  -1.815954e+02
   1.935976e+02  -1.420785e+02
   2.127597e+02  -2.616541e+01
   1.205487e+02   2.196056e+01
  -2.319743e+01   1.032577e+02
  -7.131220e+01  -7.480742e+00
   2.954653e+01  -4.793789e+01
   1.023336e+02  -8.479934e+00
   1.702466e+02   7.789722e+01
   3.298796e+01   1.166789e+02
  -7.927781e+01   8.520946e+01
  -1.332246e+02  -1.559596e+00
  -4.343495e+01  -2.436820e+01
   2.139983e+01  -8.121124e+00
   3.417711e+01   6.049930e+01
  -5.391009e+01   8.256266e+01
  -1.622874e+02  -5.665887e+00
  -9.724783e+01  -1.096352e+02
  -1.663483e+01  -1.657681e+02
   1.427157e+02  -1.102637e+02
   1.586139e+02   3.741563e+01
   3.669625e+00   9.998721e+01
  -4.949983e+01   8.292503e+01
  -6.290096e+01   1.585530e+01
   1.642377e+01  -2.034450e+01
   1.711005e+01  -2.767242e+01
  -2.752108e+01  -2.344420e+01
  -6.065417e+01  -4.572946e+01
  -7.400575e+01  -7.458794e+01
  -3.681495e+01  -9.373127e+01
   1.160005e+02  -9.297607e+01
   1.904246e+02   3.543032e+01
   1.377412e+02   1.716414e+02
   1.555051e+01   1.922659e+02
  -9.401454e+01   1.390461e+02
  -8.142193e+01   2.636807e+01
  -3.384496e+01  -6.496194e+01
  -6.175495e+00  -2.917053e+01
  -1.888973e+01  -1.881295e+01
  -7.445688e+01  -2.269823e+01
  -2.940374e+01  -3.784553e+01
   4.318786e+00  -3.030542e+01
   8.916926e+01  -1.943712e+01
   7.105396e+01   5.837147e+01
  -3.474870e+01   5.855605e+01
  -1.132336e+02   4.402242e+01
  -1.787928e+02  -6.991427e+01
  -7.453139e+01  -1.724270e+02
   1.239522e+02  -1.144866e+02
   2.081982e+02  -6.794910e+01
   1.732887e+02   9.320135e+01
   4.402238e+01   1.488279e+02
  -4.757212e+01   8.041950e+01
  -5.731755e+01   3.947670e+01
  -4.435190e+01   1.940239e+01
  -5.998569e+01   4.353895e+01
  -6.369238e+01   7.282726e+01
  -9.926162e+01  -4.327844e+01
  -7.587318e+01  -1.272332e+02
  -1.261578e+01  -1.603807e+02
   8.123436e+01  -1.119189e+02
   1.107997e+02   1.473630e+01
   5.168008e+01   7.674192e+01
  -8.727028e+00   9.340149e+01
  -5.027850e+01   8.671370e+01
  -3.437777e+01  -6.982540e+00
  -1.294471e+01  -1.075358e+01
   7.333204e+00  -1.857712e+01
  -2.467151e+01  -1.878172e+01
  -5.636678e+01  -2.051812e+01
  -4.441191e+01  -4.673631e+01
   5.640303e+01  -1.356603e+01
   1.108372e+02   1.487139e+01
   1.426557e+02   7.806437e+00
   1.665464e+00   6.685842e+01
  -1.215554e+02   2.101633e+01
  -1.120159e+02  -1.002175e+01
  -1.688120e+01  -1.451694e+01
   8.475102e+01  -4.333102e+01
   5.929389e+01   2.381442e+01
  -3.070822e+01   4.315843e+01
  -5.614674e+01   5.434988e+01
  -3.824897e+01   8.865368e+00
  -1.135467e+01  -7.472129e+01
  -3.525216e+01  -4.118775e+01
  -3.170311e+01   7.315729e+00
  -3.052724e+01  -3.395204e+00
  -3.079447e+01  -7.239010e+01
   2.853956e+01  -1.064960e+02
   1.063302e+02  -9.335212e+01
   1.330709e+02  -2.849219e+01
   6.809757e+01   8.534770e+01
  -3.973565e-01   6.218192e+01
  -9.604457e+01   2.138925e+01
  -2.580535e+01  -3.034654e+01
   5.929005e+01  -1.386142e+01
   1.002140e+02   4.543756e+01
   3.677502e+01   6.822784e+01
  -6.501208e+01   5.083866e+01
  -1.177137e+02   2.460047e+00
  -7.336193e+01  -1.951748e+01
  -4.911029e+01  -4.478545e+01
   2.654331e+01  -5.548087e+01
   4.690085e+01   2.282721e+01
  -4.901783e+01   3.504694e+01
  -3.200603e+01  -1.542225e+01
  -4.928508e+00  -1.004215e+02
   7.320496e+01  -1.265993e+02
   1.227543e+02  -3.892731e+01
   7.186765e+01   9.207446e+01
  -6.338197e+01   1.484235e+02
  -2.993642e+01   6.645282e+01
  -4.456393e+01  -3.363411e+01
  -1.204940e+01  -1.224274e+02
   1.445992e+01  -6.744041e+01
   2.827319e+01   3.350296e+01
   1.647196e+01   3.882434e+01
   2.100502e+01   1.737139e+00
   1.723106e+01  -2.226202e+01
  -7.802398e+00   2.120597e+01
   3.846358e+01   5.558514e+01
  -7.522094e+00   9.290975e+01
  -7.508640e+00  -9.953534e+00
  -8.130353e+01  -2.109105e+01
  -1.094591e+02  -8.484076e+01
  -3.207918e+01  -5.982664e+01
   4.371859e+01  -3.844360e+01
   6.325394e+01  -2.174673e+01
  -1.489528e+00   1.188184e+01
  -3.375497e+01   3.517981e+01
  -4.303653e+01   1.796716e+01
   4.200528e+01   8.354062e+00
  -1.684552e+01   2.522635e+00
  -6.877792e+01  -1.893508e+01
  -8.885623e+01  -3.536860e+01
  -6.086309e-01  -7.277660e+01
   7.742506e+01  -7.781679e+01
   1.443107e+02  -2.963140e+00
   1.377651e+02   2.771373e+01
   2.128789e+01   1.368423e+02
  -4.420417e+01   8.977420e+01
  -9.673550e+01   2.535473e+01
  -3.453119e+01  -3.685528e+01
  -1.580539e+01  -2.937940e+01
   3.706743e+00   2.068856e+01
  -2.222612e+01  -1.617301e+00
  -2.780240e+01  -5.702663e+01
   7.958844e+00  -8.972979e+01
   2.145541e+01  -3.413721e+01
   5.611642e+01   1.549501e+01
   5.157616e+01   7.931194e+01
  -1.712321e+00   4.486034e+01
  -5.847606e+01   3.960635e+01
  -5.939282e+01  -4.657661e+01
  -2.480907e+01  -9.062471e+01
   4.806466e+01  -4.575913e+01
   5.878253e+01   1.092914e+01
   2.513120e+01   5.725497e+01
  -4.216349e+01   3.446529e+01
  -9.943918e+00   2.447812e+01
   3.070507e+01   1.661202e+01
   5.707012e+01  -7.976025e+00
   9.860036e+00   3.151659e+01
  -5.359640e+01   3.715335e+01
  -1.165538e+02   4.212755e+01
  -3.766077e+01  -3.649388e+01
  -7.938678e+00  -6.520705e+01
   4.153958e+01  -9.216074e+01
   2.638757e+01   2.001197e+01
   1.192197e+01   5.599664e+01
  -1.395470e+00   3.397870e+01
  -5.326620e+01  -3.206552e+00
  -1.190177e+01  -3.637350e+01
   1.087745e+01   2.698571e+01
   3.700020e+01  -1.987971e+00
   2.417553e+01   3.960056e+01
   2.399163e+01   1.328473e+01
  -3.483378e+01  -2.213427e+01
  -4.526401e-01   2.390507e+01
  -1.175131e+01   4.505083e+01
  -2.955778e+01   3.355818e+01
  -3.290086e+01   2.369690e+01
  -4.023490e+01  -4.597530e+01
   1.484070e+00  -3.646795e+01
   2.768315e+01   2.507038e-01
   4.316459e+01   5.012362e+01
  -1.808199e+01   5.111533e+01
  -3.301415e+01   4.106043e+01
  -5.355026e+01  -1.520211e+01
  -2.202108e+01  -5.097618e+01
   1.201345e+01  -3.404189e+01
   3.682355e+01  -7.306040e-01
   1.621623e+01   1.594662e+01
  -5.013044e+01   1.540687e+01
  -2.245041e+01  -1.547357e+01
   1.644734e+01  -5.066492e+00
   7.997612e+01  -6.122044e+00
