
 $NMID
 id='ANONYMOUS ', fmtdat='(2E16.6)'
 volume=1.0
 tramp=1.0
 $END
  -3.291062e+03   3.440234e+02
  -2.037524e+03  -1.241599e+03
  -3.587037e+02  -1.808797e+03
   1.232641e+03  -1.139748e+03
   9.497012e+02  -3.585103e+02
   3.039215e+01   5.025516e+01
  -3.075524e+02  -4.669415e+01
  -3.328545e+01  -5.446120e+02
   3.445668e+02  -6.894627e+02
   5.933538e+02  -2.760596e+02
   5.333126e+02   4.846423e+02
  -6.227987e-01   6.139559e+02
  -2.367066e+02   1.654547e+02
  -2.006044e+02  -3.623362e+02
   7.821345e+01  -5.274145e+02
   3.976001e+02  -1.165173e+02
   2.886279e+02   3.855851e+02
  -5.311226e+01   5.222833e+02
  -3.552386e+02   2.541236e+02
  -3.773167e+02  -1.372674e+02
  -1.789656e+02  -3.128730e+02
   6.401738e+01  -2.155887e+02
   6.009627e+01  -1.276680e+02
  -1.458432e+02  -5.781430e+01
  -2.575640e+02  -2.065419e+02
  -5.130955e+01  -2.943111e+02
   3.312382e+02  -1.732985e+02
   4.790495e+02   2.559640e+02
   1.741991e+02   2.223916e+02
  -3.296086e+02   2.527562e+02
  -4.952056e+02  -1.098849e+02
  -2.256948e+02  -3.369101e+02
   2.298762e+02  -3.546124e+02
   3.694372e+02  -1.473703e+02
   2.908568e+02   1.097770e+02
   1.163480e+02   2.980347e+02
  -2.988371e+01   1.884641e+02
   2.002730e+01  -6.871671e+01
   1.679061e+02  -1.468357e+02
   2.229987e+02   1.628202e+02
   2.479882e+01   3.803496e+02
  -2.017426e+02   3.600446e+02
  -2.807079e+02   7.869490e+00
  -1.182219e+02  -1.981132e+02
   1.389990e+02  -9.339125e+01
   1.848181e+02   2.045528e+02
  -8.629450e+01   3.922227e+02
  -3.876053e+02   6.512963e+01
  -4.595054e+02  -2.527047e+02
  -1.585913e+02  -4.704689e+02
   2.259376e+02  -2.149809e+02
   5.858510e+02   3.203802e+01
   3.396905e+02   1.669386e+02
   3.803473e+01   1.871526e+02
  -2.302610e+02   1.243384e+02
  -2.013140e+02  -8.707316e+00
   4.139927e+00  -3.532706e+01
   6.080878e+01   1.759055e+01
  -6.012846e+01   8.152133e+01
  -1.596232e+02  -1.157412e+01
  -1.159731e+02  -1.681158e+02
   1.512039e+02  -2.436499e+02
   3.218828e+02  -1.631183e+02
   2.551688e+02   8.974624e+01
   2.891217e+01   3.184659e+02
  -3.011741e+02   3.587361e+02
  -3.114108e+02   1.845648e+02
  -2.246698e+02  -1.585188e+02
  -4.838188e+01  -3.085772e+02
   1.382138e+01  -2.741341e+02
   1.383908e+01  -1.509726e+02
  -7.500418e-01  -7.911441e+01
   1.549745e+02  -7.536402e+01
   1.602365e+02  -1.076826e+02
   1.928310e+02   1.049891e+02
   7.708756e+01   1.990486e+02
  -9.543127e+01   1.698759e+02
  -1.690387e+02  -2.282325e+01
  -1.548307e+02  -1.872030e+02
   3.526642e+01  -2.207244e+02
   2.236352e+02  -7.308638e+01
   2.749777e+02   1.346032e+02
   1.530720e+02   2.880565e+02
  -1.630494e+01   2.530949e+02
  -1.377472e+02   1.772732e+02
  -1.195375e+02   8.167838e+01
  -1.645756e+02   5.916038e+01
  -2.551809e+02   7.163250e+01
  -3.478541e+02  -6.603069e+01
  -3.229590e+02  -1.881027e+02
   9.004029e+01  -3.844169e+02
   3.359997e+02  -3.891236e+02
   4.642240e+02  -1.282199e+02
   2.025383e+02   4.559896e+01
   5.253655e+01   2.388029e+02
  -6.421913e+01   1.477398e+02
   2.307770e+00   4.442679e+01
   8.404043e+01  -5.394019e+01
   8.047016e+01   2.393786e+01
  -3.912053e+01   1.352907e+02
  -1.073687e+02   1.338246e+02
  -9.515028e+01  -5.539645e+01
   7.177125e+00  -1.505483e+02
   1.417735e+02   1.614608e+00
   1.693600e+02   2.151893e+02
  -2.809356e+01   3.394916e+02
  -1.754522e+02   1.869989e+02
  -3.104737e+02  -6.655748e+01
  -2.669009e+02  -2.402534e+02
  -5.059331e+01  -2.424256e+02
   1.153017e+02  -1.162407e+02
   1.497887e+02  -2.787120e+01
   2.270497e+01   1.484947e+01
  -6.425352e+01  -6.395180e+01
  -1.927807e+01  -1.264302e+02
   1.344461e+02  -4.178713e+01
   1.557774e+02   1.426356e+01
   7.441407e+00   4.616476e+01
  -5.852674e+01   2.517371e+00
  -1.802370e+01  -9.321565e+01
   1.161570e+02  -8.544190e+01
   3.422290e+02   1.151419e+01
   2.380615e+02   1.579140e+02
   2.795776e+01   2.338265e+02
  -1.913397e+02   2.172205e+02
  -2.358018e+02   9.326709e+01
  -1.329962e+02  -1.466778e+01
   3.659186e+01  -5.901142e+01
   7.169300e+01  -7.766757e+00
  -4.927185e+01   6.629315e+01
  -1.997223e+02   2.410175e+01
  -1.863122e+02  -7.084198e+01
  -7.965622e+01  -1.907036e+02
   6.573017e+01  -1.149673e+02
   1.296316e+02  -2.058347e+00
   4.586385e+01   1.071972e+01
  -3.664586e+01   1.468854e+01
  -2.108549e+01  -9.989395e+01
   6.568806e+01  -7.351115e+01
   1.617601e+02  -1.365373e+01
   1.432200e+02   1.569227e+02
   1.391997e+01   2.213490e+02
  -1.288045e+02   1.100585e+02
  -1.421304e+02   1.964965e+01
  -4.242815e+01  -8.624191e+01
   6.798395e+01  -6.873977e+01
   6.184354e+01  -5.704346e+01
  -1.925430e+01   6.565619e+00
  -3.901954e+01   1.062801e+01
   1.481517e+01  -1.144415e+01
   9.044808e+01   8.620931e+00
   1.106662e+02   8.978947e+01
   4.725486e+00   1.900267e+02
  -1.443993e+02   1.240878e+02
  -1.970135e+02   4.284894e+01
  -1.641271e+02  -1.856957e+02
  -3.428760e+01  -2.334729e+02
   6.525801e+01  -1.239983e+02
   1.037229e+02  -4.339543e+01
   1.063448e+02   2.411666e+01
   1.631903e+01   4.765242e+01
   3.426819e+01  -2.582016e+01
   7.902497e+01  -1.662109e+01
   3.641343e+01   4.586833e+01
  -5.403865e+01   1.277948e+02
  -1.053643e+02   7.821566e+01
  -1.146628e+02  -4.071007e+01
   3.361996e+01  -1.240561e+02
   1.867720e+02  -8.954317e+01
   2.017506e+02   9.133965e+01
   1.252861e+02   1.753402e+02
  -6.955900e+01   2.519036e+02
  -1.857791e+02   5.915940e+01
  -2.548784e+02  -5.747043e+01
  -6.820014e+01  -1.847104e+02
   5.170732e+01  -1.096272e+02
   6.095244e+01  -9.447034e+01
   4.426531e+01  -4.003636e+01
   5.910045e+01  -5.990870e+01
   8.078261e+01  -6.227426e+01
   1.204179e+02   2.431983e+00
   1.447742e+02   1.311031e+02
   4.779832e+01   2.352059e+02
  -1.137548e+02   1.721579e+02
  -1.591139e+02   7.724957e+00
  -1.008801e+02  -1.023371e+02
   1.989611e-01  -1.260074e+02
   9.375023e+01  -6.976567e+01
   8.956678e+01   1.171195e+01
  -2.689983e+00   6.500448e+01
  -4.967037e+01   3.598154e+01
   2.509194e+01   2.049254e+01
   9.799864e+01   1.961452e+01
   7.007906e+01   5.313010e+01
  -5.677876e+01   1.800270e+01
  -1.576968e+02   9.148404e+00
  -1.463468e+02  -7.145023e+01
   9.213917e+00  -8.043359e+01
   1.284433e+02  -8.256696e+01
   8.386411e+01  -7.853272e+00
   6.313182e+01   6.310201e+01
  -5.665916e+01   1.182235e+01
  -6.006149e+01  -4.317734e-02
   7.863581e+00  -5.891051e+01
   1.738169e+01  -7.619690e+01
   7.941514e+01  -1.801207e+01
   3.027200e+01   2.801537e+01
   5.186149e+01  -5.189873e+00
   5.659047e+01  -1.148244e+01
   5.482626e+01  -1.615095e+01
   3.482365e+01   8.262703e+01
   1.889490e+01   1.231044e+02
  -8.898653e+01   1.481094e+02
  -1.669021e+02   6.060546e+01
  -1.093835e+02  -4.025727e+01
  -3.436169e+01  -1.074269e+02
   7.963485e+01  -3.907454e+01
   6.158750e+01   4.434243e-01
  -5.713001e+01   5.883283e+00
  -1.243680e+02  -1.721307e+01
  -4.968970e+01  -1.035619e+02
   5.477082e+01  -1.056808e+02
   1.818017e+02  -5.999483e+01
   1.423110e+02   2.335505e+01
   2.323720e+01   6.956812e+01
  -2.800457e+01   4.063865e+01
  -4.487036e+01   6.142624e+00
   2.599428e+01  -1.223654e+01
   9.493379e+01   6.290805e+00
   4.758536e+01   1.062063e+02
  -5.690066e+01   1.579789e+02
  -1.259186e+02   5.570237e+01
  -1.437391e+02  -7.042322e+01
  -1.886553e+01  -1.992740e+02
   7.704779e+01  -1.172885e+02
   1.025187e+02  -9.239647e+00
   5.266892e+01   8.220047e+01
   1.130983e+01   9.828211e+01
  -9.435237e+01   3.713504e+01
  -3.499037e+01  -3.317282e+01
  -5.391786e-01   1.804839e+00
  -6.424074e+00   3.792397e+00
  -3.753949e+01   9.021273e-01
  -4.226617e+01  -8.380225e+01
  -7.037661e+01  -8.143786e+01
   4.825705e+01  -7.052410e+01
   1.355328e+02   3.471026e+01
   1.192438e+02   3.127878e+01
   8.997605e+00   3.297340e+01
  -8.122886e+01   1.949697e+01
  -7.416598e+01   2.755559e+01
  -3.220554e+01   7.183760e+00
   2.483941e+01  -1.739682e+01
   1.657978e+01   6.839141e+00
  -2.125237e+01   4.256103e+00
  -3.997643e+01   2.835699e+01
   6.703367e+01   1.251603e+01
   1.127735e+02  -1.219749e+00
   1.425326e+01   9.050012e+01
  -8.621517e+01   1.102183e+02
  -1.421847e+02   2.222119e+01
  -1.421225e+02  -1.513130e+01
  -4.738942e+01  -1.178689e+02
   4.345396e+01  -1.358094e+02
   9.473548e+01  -4.537300e+01
   7.642460e+01   3.468866e+01
   3.633055e+01   5.790779e+01
  -9.195440e-01   2.042759e+01
   2.227046e+01   1.824121e+01
   2.944846e+01   5.374661e+01
  -9.417635e-01   9.410650e+01
  -1.139995e+01   8.433793e+01
  -8.178998e+01   6.753572e+00
  -6.239399e+01  -8.893007e+01
  -5.755501e+00  -9.673489e+01
   5.767194e+01  -5.083318e+01
   7.849114e+01   4.111512e+01
   6.870914e+01   9.593345e+01
  -1.551069e+01   7.687594e+01
  -7.431233e+01  -1.763825e+01
  -3.786347e+01  -5.771088e+01
   4.335965e+01  -7.945790e+01
   3.374996e+01  -7.783760e-03
   9.122890e-02  -1.632111e+01
  -3.746995e+01   2.010650e+01
   1.156690e+01   2.896053e+00
   6.990880e+01  -7.124434e+01
   1.296884e+02  -6.561099e+01
   7.495755e+01   3.600204e+00
  -1.213294e+01   9.040744e+01
  -2.619753e+01   7.419404e+01
  -5.139125e+01   3.320574e+01
  -2.129580e+01  -5.703448e+01
  -9.832519e+00  -4.055925e+01
   4.626558e+01  -2.643351e+01
   3.700757e+01   2.169678e+01
   1.169462e+01   3.600574e+01
  -3.087521e+01   1.323179e+01
  -1.498240e+01   8.602357e+00
  -1.774029e+01   9.984918e+00
   3.575871e+00   7.029628e+00
   3.257290e+01   1.184975e+01
  -2.005954e+01  -2.332517e+01
  -4.928758e+00  -6.099326e+01
   2.546521e+01  -2.018346e+01
   5.387456e+01   3.883655e+00
   2.474199e+01   5.220258e+01
  -2.384764e+01   2.052043e+01
  -4.933897e+01  -2.978870e+01
   1.051076e+01  -3.941721e+01
   5.377572e+01  -1.945226e+01
   7.823638e+01   2.371479e+01
   3.956632e+01   2.241956e+00
  -2.968077e+01   4.895010e+00
  -9.285513e+01   1.456902e+01
  -1.598095e+01   3.501842e+01
   1.966520e+01  -6.148741e+00
   3.681975e+01   2.249222e+00
  -1.823978e+01  -4.203928e+00
  -6.687246e+01   3.230160e+01
