
 $NMID
 id='ANONYMOUS ', fmtdat='(2E16.6)'
 volume=1.0
 tramp=1.0
 $END
   9.876680e+02   1.255960e+02
   1.016069e+03   4.388608e+02
   3.277169e+00   9.270816e+02
  -3.118976e+02   4.276205e+02
  -3.528111e+02   2.715028e+02
  -1.000116e+02  -1.023183e+02
   4.534423e+01   8.930226e+01
   5.920101e+01   3.058559e+01
  -1.557905e+02   1.538696e+02
  -1.899908e+02   6.296139e+01
  -1.852656e+02  -9.427130e+01
  -1.931419e+00  -2.011681e+02
   6.847974e+01  -6.005363e+01
   1.198705e+02   2.859387e+02
  -8.548720e+01   2.179965e+02
  -3.650544e+01   3.036742e+01
  -6.855053e+01  -2.093138e+02
   1.201431e+02  -2.654764e+02
   1.458588e+02  -1.920521e+02
   2.343642e+02   5.136724e+01
   4.519757e+01   7.863492e+01
  -7.069235e+01   1.246688e+02
  -6.966870e+00   1.145670e+01
   4.142744e+01   3.517347e+01
   1.703880e+02   1.786723e+02
  -5.687485e+01   1.663235e+02
  -2.202268e+02   1.705184e+01
  -2.118945e+02  -9.465076e+01
  -5.622452e+01  -1.164382e+02
   1.732263e+02  -5.524025e+01
   1.742176e+02   1.412947e+02
  -2.113861e+01   1.527304e+02
  -9.392130e+01   5.256092e+01
  -2.412512e+02   5.220428e+01
  -1.597616e+02  -5.705334e+01
   8.307607e+00  -5.450631e+01
  -1.274888e+01  -5.296434e+01
  -5.975652e+01   2.524204e+01
  -1.075887e+02  -1.120451e+01
  -1.014752e+02  -1.170953e+02
   5.911638e+00  -2.359779e+02
   1.144492e+02  -2.221069e+02
   1.233504e+02   2.131390e+01
   1.330395e+01   1.187403e+02
  -7.638876e+01  -1.870305e+01
  -1.890779e+01  -8.686550e+01
   5.681467e+01  -1.914941e+02
   2.262504e+02   1.248897e+01
   1.568765e+02   1.849354e+02
  -6.911507e+00   7.921260e+01
  -1.288073e+02   1.366707e+02
  -1.810164e+02  -4.682407e+00
  -1.642341e+02  -1.152100e+02
  -4.974534e+00  -1.069101e+02
   7.939268e+01  -3.646102e+01
   9.385693e+01  -2.664833e+00
  -1.938736e+01  -1.513859e+01
   3.874412e+01  -6.068583e+00
   4.802276e+01   1.230943e+01
   1.256012e+02   9.101633e+01
   1.732141e+01   7.069937e+01
  -1.884901e+01   7.439482e+01
  -1.408268e+02   1.970199e+01
  -1.147628e+02  -3.907190e+01
   5.019400e+00  -1.444477e+02
   1.628580e+02  -1.449201e+02
   1.747486e+02  -2.441663e+01
   6.442159e+01   5.088619e+01
   4.220022e+01   1.338504e+02
   1.533823e+01   1.564745e+02
  -5.454227e-01   9.067270e+01
  -3.259914e+01   6.929572e+01
  -7.916101e+01   7.871425e+01
  -9.230286e+01   1.134248e+01
  -9.489422e+01  -8.008495e+01
  -3.850950e+01  -1.176671e+02
   9.463738e+01  -5.241371e+01
   1.026152e+02   4.623695e+01
   8.239165e+01   1.056015e+02
  -4.744696e+01   1.185183e+02
  -9.814293e+01   1.731195e+01
  -1.332285e+02  -8.205569e+01
  -4.244102e+01  -1.296346e+02
   3.918273e+01  -6.927982e+01
   1.857703e+01  -5.246319e+01
   3.590667e+01  -3.075081e+01
   7.649102e+01  -4.269015e+01
   1.195069e+02   1.912086e+01
   2.201321e+02   6.535706e+01
   1.156845e+02   9.587407e+01
  -2.475131e+01   1.665456e+02
  -1.701453e+02   1.807793e+02
  -1.921346e+02   8.927637e+01
  -1.631205e+02  -6.014391e+01
   3.239910e+01  -9.836423e+01
   5.127056e+01  -8.383404e+01
   2.142249e+01  -1.280268e+00
  -9.245818e+01   7.197047e+00
  -7.367078e+01  -4.367636e+01
   2.706193e+01  -5.281934e+01
   2.901147e+01  -2.212688e+01
   8.320384e+01   1.917897e+01
  -3.355182e+01   5.497048e+01
  -4.895126e+01  -6.145969e+00
  -3.073445e+01  -8.024805e+01
   7.854254e-01  -1.296732e+02
   8.201761e+01  -9.866749e+01
   2.282304e+02   3.487680e+01
   1.591807e+02   1.227192e+02
   2.097561e+01   9.935184e+01
  -7.339793e+01   5.353931e+01
  -6.151340e+01   5.538263e+00
  -1.386841e+01  -4.396482e+00
   2.112117e+01   4.415007e+01
  -7.585653e-01   6.032986e+01
  -3.284930e+01   7.885462e+00
  -6.207906e+01  -2.255426e+01
  -1.616967e+01  -2.472129e+01
   5.402941e+01   2.243997e+00
   5.015862e+01   3.365890e+01
  -8.974891e+01   4.937719e+01
  -1.045262e+02  -4.343851e+01
  -9.697443e+01  -8.592217e+01
  -4.921424e+01  -1.177109e+02
   8.251693e+01  -9.412971e+01
   1.039082e+02  -4.917317e+01
   5.263415e+01   9.657417e+00
   3.068547e+00   2.086353e+01
  -2.523638e+01  -8.728561e+00
   1.266487e+01  -2.428713e+01
   9.097231e+01   3.036913e+00
   7.131391e+01   3.822468e+01
   1.511475e+01   8.538112e+01
  -7.309312e+01   2.459019e+01
  -2.753583e+01  -1.819490e+00
  -2.259741e+01  -9.980983e+00
  -6.146981e+00   9.968052e-01
   3.015195e+01   2.308035e+01
  -2.915525e+01   5.838436e+01
  -9.623087e+01   4.457654e-01
  -1.303509e+02  -6.034830e+01
  -2.832178e+01  -5.020459e+01
   7.858501e+01  -4.585191e+01
   9.603962e+01   5.224982e+00
   2.911091e+01   4.270028e+01
  -1.411334e+01   3.955626e+01
  -3.338699e+01   2.485158e+01
  -1.848093e+01  -2.577153e+01
   2.635307e+01  -9.829626e+00
  -3.404291e+01  -4.238572e+00
  -1.837876e+01  -1.641306e+01
  -5.522230e+01  -6.648292e+01
  -3.891311e+01  -8.462040e+01
   6.209509e+01  -7.960956e+01
   1.070854e+02  -4.569002e+01
   8.339636e+01   5.853966e+01
   5.876996e+01   1.288965e+02
  -4.995837e+01   6.174909e+01
  -4.783730e+01   2.706372e+01
  -4.920908e+01  -4.451234e+01
  -2.094208e+00  -1.482992e+01
  -9.086550e+00  -1.658245e+01
  -4.544151e+01   1.125114e+01
  -4.070436e+01  -5.909298e+01
   3.573300e+01  -6.471523e+01
   3.870437e+01  -4.233609e+01
   4.573121e+01   1.475384e+01
   5.199753e+00   4.880147e+01
  -5.831629e+01   4.766830e+01
  -4.680487e+01  -5.728415e+01
  -3.936119e+01  -9.773555e+01
   7.316671e+01  -4.031452e+01
   1.050329e+02  -1.552573e+01
   7.316426e+01  -7.812704e-01
   4.211527e+01   9.186735e+01
  -1.545601e+01   2.786575e+01
  -6.785069e+01   5.048182e+01
  -4.133285e+01   3.826225e+01
  -2.201345e+01   3.755531e+01
  -4.718722e+01   6.212248e+01
  -9.011254e+01  -3.682110e+01
  -5.197686e+01  -7.402686e+01
  -2.667730e+01  -1.446545e+02
   5.078637e+01  -4.988399e+01
   8.900874e+01   2.083376e+01
   5.460472e+01   5.287328e+01
   1.063150e+01   9.187827e+01
  -2.900523e+01   2.490582e+01
  -1.164432e+01  -7.095062e+00
  -3.449001e+01  -2.925685e+01
   2.438025e+01  -9.940527e+00
  -3.403406e+01  -2.916070e+01
  -3.587030e+01  -1.517545e+01
  -1.322779e+01  -2.021663e+01
   3.522568e+01  -3.713891e+01
   7.727991e+01   2.186386e-01
   8.057999e+01   3.433635e+01
  -1.339166e+01   3.403262e+01
  -5.481699e+01   3.879750e+01
  -7.274914e+01   1.518934e+01
  -1.421452e+01  -1.305329e+01
   3.265335e+01  -8.699202e+00
   5.211540e+01   2.446390e+01
   3.849125e+01   6.052982e+01
  -3.178576e+01   3.558056e+01
  -3.176830e+01  -3.693035e-01
  -5.821081e+00  -1.678368e+01
  -2.900772e+01  -1.818817e+01
  -5.116760e+01   3.699548e+01
  -4.464780e+01   2.037298e+01
  -3.056217e+01  -3.391495e+01
   5.562367e+00  -8.812056e+01
   6.464891e+01  -5.574914e+01
   3.701220e+01   1.879647e+01
   4.410360e+01   3.513655e+01
   3.104706e+01   1.899062e+01
  -4.529633e+01   2.008684e+01
  -5.021824e+01   2.775417e+00
   2.785739e+01   3.796684e+00
   5.916148e+01  -2.657630e+01
   3.404943e+01   7.529815e+01
  -6.562952e+01   7.879731e+01
  -1.306688e+02   1.625393e+01
  -7.767787e+01  -9.371834e+00
  -3.627432e+01  -1.401765e+01
   5.005335e+01  -4.511317e+01
   1.948062e+01   2.067080e+01
  -1.291246e+01   2.608907e+00
  -3.164699e+01  -6.370289e+00
  -7.399631e+00  -6.179505e+01
   3.001094e+01  -7.518450e+01
   6.079050e+01  -4.939585e+01
   4.027378e+01   3.857636e+01
  -1.594494e+01   6.115317e+01
  -1.905316e+01   7.533935e+01
  -2.121733e+01   3.679211e-01
  -2.073741e+01  -3.018532e+01
   1.479647e+01  -4.721428e+01
   2.568870e+01   2.698206e+00
   4.465205e+01   1.604097e+01
  -1.758176e+01   7.708520e+00
  -1.341735e+01  -3.256571e+01
   3.596927e+01  -9.157276e+00
   3.172532e+01   4.299405e+01
   3.226075e+01   4.100323e+01
  -1.729250e+01  -1.836843e+01
  -5.942966e+01  -4.013404e+01
  -5.050139e+01  -2.522729e+01
   1.155028e+01  -2.196611e+01
   4.373996e+01  -1.656929e+01
   4.846421e+01   6.649674e+00
   1.131744e+01   9.919838e+00
  -1.104261e+01   1.526800e+01
  -8.904193e+00  -1.074859e+01
   4.895581e-01   5.976926e-01
   4.099068e+00  -4.740299e+01
  -4.499872e+01   1.756494e+01
  -3.853810e+01   2.136953e+00
  -2.709352e+01  -1.974850e+01
   3.070249e+01  -5.966914e+01
   1.054052e+02  -8.747995e+01
   5.205639e+01  -2.522420e+01
  -5.523852e+00   6.952493e+01
  -4.100978e+01   1.003497e+02
  -6.345102e+01   5.360647e+01
  -3.204294e+01  -2.045123e+01
   1.530024e+01  -1.635042e+01
   7.148888e+00   2.493738e+01
   8.298794e+00   2.058975e+01
  -1.975149e+01  -5.664090e+01
   1.867318e+01  -2.778543e+01
  -1.657197e+01  -3.697295e+01
   4.609873e+01  -3.028940e+01
   1.989067e+01   4.093169e+01
  -1.171894e+01   6.184358e+01
  -3.850488e+01   1.386702e+01
  -4.533373e+01  -3.462009e+01
  -6.944363e+00  -5.743179e+01
   3.698429e+01  -1.668078e+01
   1.477917e+01  -1.170022e+00
  -1.392768e+01   3.921515e+01
  -1.122363e+01   1.315797e+01
  -1.905187e+01  -1.062636e+01
   3.306342e+00  -1.638110e+01
   2.070470e+01  -3.349264e+01
   1.323648e+01   4.383602e+01
  -4.727924e+00   4.469199e+01
  -6.446693e+01  -4.141981e+00
  -2.525168e+01  -3.444332e+00
   1.277573e+00  -6.001895e+01
   1.086737e+01   2.624097e-02
   1.581985e+01  -1.279028e+01
  -2.122331e+00   1.841792e+01
   2.132510e+00   2.075500e+01
   4.842663e+00  -2.176060e+01
   2.221071e+01  -1.528660e+01
   4.993214e+00  -2.655181e+01
  -1.484445e+00  -1.608142e+01
   3.321080e+01  -1.096858e+01
   3.340690e+01  -4.292166e+01
  -6.842328e+00   2.803163e+00
  -2.450943e+01  -4.710745e+00
   1.679074e+01   1.393542e+00
   4.833463e+01  -1.278675e+01
  -1.256020e+01   3.195607e+01
  -1.619347e+01  -1.706808e+01
  -2.368017e+01  -4.179258e+01
   1.572682e+01  -7.321243e+01
   6.146736e+00  -7.530939e+00
   7.096357e+00   2.177352e+01
  -3.912380e+01   3.597001e+01
  -5.070233e+01   2.258094e+00
  -3.417955e+01  -1.228003e+01
   3.630173e+01  -2.300094e+01
   4.564691e+01   6.601098e+00
  -1.982285e+01   1.129441e+01
  -3.084323e+01   9.030986e+00
   9.471279e+00   2.643118e+00
  -8.760593e+00   1.666059e+01
   4.701642e+01  -2.560634e+01
