
 $NMID
 id='ANONYMOUS ', fmtdat='(2E16.6)'
 volume=1.0
 tramp=1.0
 $END
   2.426130e+03   2.005800e+02
   1.160959e+03   1.705400e+03
  -3.669331e+02   1.588871e+03
  -1.095160e+03   7.441760e+02
  -6.768341e+02  -6.003403e+01
  -2.361501e+01  -2.011048e+02
   3.100204e+02   1.043539e+02
  -3.725321e+01   4.957925e+02
  -3.359958e+02   2.680410e+02
  -4.994337e+02  -9.339004e+01
  -1.815938e+02  -4.603000e+02
   8.132797e+00  -3.705561e+02
   2.814690e+02  -9.355257e+01
   1.060089e+02   2.786316e+02
  -8.829749e+01   3.847050e+02
  -3.248219e+02  -1.516540e+01
  -1.697146e+02  -3.737127e+02
   1.478664e+02  -4.017559e+02
   3.975005e+02  -1.092053e+02
   2.449882e+02   2.012562e+02
   4.685906e+01   2.583122e+02
  -1.399975e+02   1.105703e+02
  -6.027376e+01   7.167583e+01
   1.540509e+02   9.421246e+01
   7.667902e+01   2.725921e+02
  -1.071230e+02   2.808190e+02
  -3.695661e+02   2.113372e+01
  -4.703432e+02  -1.854573e+02
  -1.340496e+02  -3.275375e+02
   1.887746e+02  -4.815259e+01
   3.178769e+02   1.263172e+02
   1.459044e+01   2.637379e+02
  -2.513456e+02   2.553052e+02
  -2.965961e+02   1.154539e+00
  -2.367490e+02  -1.780516e+02
  -5.502501e+01  -2.683467e+02
   5.552846e+01  -1.260307e+02
  -2.978790e+01   5.273877e+01
  -1.355719e+02   1.574856e+02
  -1.228027e+02  -1.299842e+02
   8.323186e+01  -2.786789e+02
   2.575930e+02  -3.013278e+02
   2.993073e+02   9.283848e+01
  -6.305668e+01   2.071905e+02
  -1.408773e+02   6.270917e+01
  -7.336190e+01  -1.669039e+02
   1.583694e+02  -2.955477e+02
   2.710483e+02   7.536570e+01
   2.939440e+02   3.076250e+02
   7.379467e+01   3.871538e+02
  -2.290866e+02   1.687335e+02
  -3.548260e+02  -1.152296e+02
  -1.666801e+02  -2.035569e+02
   6.876052e+01  -1.686667e+02
   1.868686e+02   1.250598e+01
   1.232233e+02   6.979316e+01
   5.225081e+00  -6.335417e-01
  -5.489296e+01  -1.307384e+01
   7.169402e+01  -2.619165e+01
   1.179209e+02   9.515739e+01
   6.679405e+01   1.574334e+02
  -9.141304e+01   1.609795e+02
  -2.834871e+02   8.030886e+00
  -1.838407e+02  -8.994421e+01
   6.679568e+01  -2.208254e+02
   1.911275e+02  -2.039404e+02
   2.325594e+02  -4.117121e+00
   1.695636e+02   1.514330e+02
  -6.146222e+00   2.768146e+02
  -1.128597e+02   2.425777e+02
  -5.561626e+01   1.475635e+02
  -3.779154e+01   9.725919e+01
  -1.023129e+02   4.608091e+01
  -1.424354e+02  -3.302772e+01
  -1.514584e+02  -1.368914e+02
   2.905751e+01  -2.061943e+02
   1.426397e+02  -1.094439e+02
   9.325396e+01   5.399778e+01
   3.016097e+01   2.269123e+02
  -7.468860e+01   1.853184e+02
  -1.447865e+02   1.810385e+01
  -1.617788e+02  -8.479680e+01
  -5.072509e+01  -2.417484e+02
   4.299922e+01  -1.798082e+02
   1.352816e+02  -8.938241e+01
   1.303516e+02  -2.056580e+00
   1.149683e+02  -1.389573e+00
   2.037537e+02   9.096666e+00
   2.667450e+02   1.565284e+02
   2.076683e+02   2.830326e+02
  -1.257352e+02   3.295226e+02
  -2.838149e+02   2.306188e+02
  -3.898620e+02  -3.704620e+00
  -1.894830e+02  -1.393998e+02
   2.609517e+01  -2.193584e+02
   1.014499e+02  -1.342003e+02
  -1.105607e+01  -1.977853e+01
  -7.375672e+01   2.349126e+01
  -7.672913e+01  -7.473921e+01
   1.684610e+01  -1.141748e+02
   7.348766e+01  -6.295388e+01
   1.028036e+02   6.280616e+01
  -1.491277e+01   8.318804e+01
  -1.118385e+02   4.246941e-01
  -1.440315e+02  -1.646016e+02
   1.120972e+02  -2.399780e+02
   1.789946e+02  -1.258670e+02
   2.604448e+02   1.107411e+02
   1.294246e+02   3.175274e+02
   2.870572e+01   1.930448e+02
  -1.502494e+02   5.977991e+01
  -1.390887e+02  -3.834743e+01
  -3.760791e+01  -3.680353e+01
   3.433818e+01   1.034230e+02
  -4.266284e+01   5.487652e+01
  -8.976932e+01   1.736920e+01
  -8.419638e+01  -4.548083e+01
  -3.093499e+01  -5.699929e+01
   5.094301e+01   1.662833e+01
   5.655101e+01   7.924768e+01
  -1.395787e+02   1.719163e+01
  -1.797324e+02  -2.301101e+01
  -1.859917e+02  -1.256844e+02
   4.845200e+00  -2.042049e+02
   1.978971e+02  -1.180640e+02
   1.860340e+02  -4.108816e+01
   8.345042e+01   6.998976e+01
  -3.188990e+01   2.669760e+01
  -9.444570e+01  -1.898317e+01
   6.166299e+01  -1.443928e+01
   1.462774e+02   2.110349e+00
   1.135502e+02   7.832451e+01
   2.904910e+01   1.547404e+02
  -1.332917e+02   5.671241e+01
  -9.318747e+01   5.883277e+00
  -3.847609e+01   8.302697e+00
   1.265033e+01   3.413329e+01
   3.113757e+01   8.953538e+01
  -7.808276e+01   7.837723e+01
  -1.346570e+02  -4.251988e+01
  -1.137826e+02  -9.525037e+01
   4.368903e-01  -1.493452e+02
   1.114527e+02  -5.305111e+01
   1.095321e+02   2.544968e+01
   1.177453e+01   7.911979e+01
  -2.293430e+01   4.552588e+01
  -7.968499e+01   1.232911e+01
   8.513143e+00  -3.692726e+01
   1.250438e+01  -1.083348e+01
  -2.765418e+00  -1.386660e+01
  -6.365633e+01  -2.704160e+01
  -6.753953e+01  -7.281139e+01
   1.528539e+01  -1.156482e+02
   1.018521e+02  -7.462210e+01
   1.494562e+02   5.630894e+01
   1.007206e+02   1.534515e+02
   1.740556e+01   2.035770e+02
  -1.054826e+02   9.377889e+01
  -1.065826e+02  -8.470601e+00
  -5.504163e+01  -8.473867e+01
  -1.965223e+01  -2.804010e+01
  -3.005289e+01  -3.485600e+01
  -4.904193e+01   9.406503e-01
  -1.625025e+01  -4.107589e+01
   3.399433e+01  -4.002436e+01
   6.681225e+01  -9.754252e+00
   4.133794e+01   4.329882e+01
  -3.826178e+01   1.031249e+02
  -1.352526e+02   4.256475e+01
  -1.485008e+02  -7.580888e+01
  -7.531797e+00  -1.430976e+02
   9.574464e+01  -1.363169e+02
   1.601073e+02  -7.533528e+00
   1.818778e+02   9.027509e+01
   2.136040e+01   1.226011e+02
  -5.697595e+01   9.041990e+01
  -6.790971e+01   5.717164e+01
  -6.197330e+01   2.386328e+01
  -7.440924e+01   4.001634e+01
  -5.803978e+01   3.588785e+01
  -5.530106e+01  -7.736737e+01
  -7.177854e+01  -1.238784e+02
   3.217812e+01  -1.605285e+02
   1.000742e+02  -9.181967e+01
   8.956913e+01   3.730766e+01
   8.423427e+01   1.289374e+02
   3.755186e+01   1.137386e+02
  -6.623941e+01   5.668201e+01
  -3.213286e+01  -2.372640e+01
  -1.020998e+00  -1.552687e+01
   2.201523e+01  -3.021696e+01
  -1.582371e+01   4.957757e-01
  -2.904472e+01  -4.392679e+01
  -4.833556e+00  -4.810023e+01
   3.949530e+01  -4.251998e+00
   1.021528e+02   2.383841e+01
   1.039333e+02   4.973252e+01
  -4.699312e+01   7.357415e+01
  -1.300599e+02   3.397578e+01
  -1.077896e+02  -4.287347e+01
  -4.135456e+01  -6.248415e+01
   7.225760e+01  -1.297413e+01
   3.030459e+01   3.274044e+01
   4.620425e+00   6.641135e+01
  -3.530314e+01   3.443222e+01
  -4.892111e+01   4.203543e+00
  -3.803133e+01  -6.274298e+01
  -2.557293e+01  -3.144732e+01
  -3.232601e+01  -9.850294e+00
  -6.332455e+01  -1.942213e+01
  -1.959089e+01  -7.548458e+01
   4.433511e+01  -1.180992e+02
   1.083271e+02  -1.033369e+02
   1.365156e+02   4.870510e+00
   8.959899e+01   7.947166e+01
  -2.719017e+01   1.016418e+02
  -6.063980e+01   3.558421e+01
  -4.488900e+01  -2.357174e+01
   2.660791e+01   8.014519e+00
   5.503226e+01   7.340187e+01
   5.854640e+01   7.782384e+01
  -3.689902e+01   7.798427e+01
  -1.253632e+02  -3.015737e+01
  -1.262336e+02  -2.067899e+01
  -1.332960e+01  -8.335419e+01
   5.397324e+01  -2.452781e-01
   5.580572e+01   3.180706e+01
  -3.614517e+01   1.447705e+01
  -4.841323e+01  -2.036691e+01
  -1.992364e+01  -1.218028e+02
   7.091440e+01  -9.653400e+01
   1.061027e+02  -4.512671e+01
   8.488085e+01   7.711286e+01
  -3.931534e+00   1.384001e+02
  -6.570690e+01   9.173587e+01
  -5.949166e+01  -1.224158e+01
   1.785686e+01  -8.615371e+01
   9.848459e+00  -9.755864e+01
   2.474199e+01   3.448866e+00
   5.354263e+01   6.968229e-01
  -2.302218e+01   2.702211e+00
  -9.270863e+00  -6.110881e+00
   2.420958e+01   3.882547e+00
   5.097625e+01   4.322785e+01
  -1.567010e+01   7.137878e+01
  -3.576245e+01   2.531272e+01
  -7.704722e+01  -5.506400e+01
  -7.051883e+01  -7.507846e+01
  -2.528134e+01  -4.684815e+01
   2.883047e+01   4.886257e+00
   6.198032e+01   1.809547e+01
   1.020846e+01   1.404701e+01
  -3.094981e+01   1.210477e+01
  -1.292410e+01   1.945278e+01
   1.465547e+01  -1.848446e+00
  -1.117712e+01  -2.459497e+01
  -5.824903e+01   8.905723e+00
  -4.020678e+01  -5.850838e+01
   2.345560e+01  -7.937461e+01
   7.233322e+01  -7.296655e+01
   1.397354e+02  -2.430708e+01
   8.562168e+01   5.821334e+01
  -1.470992e+01   1.387496e+02
  -7.969306e+01   9.693800e+01
  -1.197733e+02   2.200116e+01
  -6.343747e+01  -3.560781e+01
  -3.220247e+01  -6.224780e+01
   1.892566e+01   2.320055e+01
  -1.083786e+00  -1.041440e+01
  -1.200225e+01  -5.802349e+01
  -3.997831e+01  -7.530909e+01
   4.497333e+01  -3.480077e+01
   5.565758e+01   3.554387e+01
   4.900825e+01   5.362765e+01
  -5.906594e+01   9.880890e+01
  -5.557863e+01   1.431804e+01
  -2.328855e+01  -1.002393e+02
  -1.057226e+01  -9.155527e+01
   7.742750e+01  -8.970088e+00
   7.802915e+01   1.879940e+01
   4.762921e+01   5.111658e+01
  -4.970543e+01   7.306822e+01
  -2.085201e+01   2.325124e+01
   2.758972e+01  -2.148664e+01
  -1.456917e+01   6.301725e+00
   2.471014e+01   5.250815e+01
  -6.750363e+01   2.803295e+01
  -9.063976e+01   4.469053e+00
  -2.932086e+01  -3.338140e+01
  -1.531768e+01  -3.520541e+01
   4.743159e+01  -5.977469e+01
   4.680467e-02  -3.160818e+01
  -1.293579e+01   2.180924e+01
  -4.841205e+01   3.981104e+01
  -6.171123e+00  -2.433618e+01
  -3.109320e+00  -3.881065e+01
   1.113337e+01  -2.993338e+01
   9.786062e+00   6.802605e+00
   2.356478e+01   2.865834e+01
   2.169051e+01   1.851574e+01
   7.943712e+00  -1.000986e+01
   2.630465e+01  -8.693048e-01
   1.266160e+01   4.486930e+01
  -1.113398e+00   1.966025e+01
  -4.435166e+01   1.396538e+01
   8.214156e+00  -9.388870e+00
   1.787691e+01  -3.188392e+01
   6.334844e+01  -2.178534e+01
   2.761599e+01   3.027778e+01
   5.566679e+00   6.046979e+01
  -8.044101e+01   3.548447e+01
  -7.223222e+01  -4.387138e+01
  -4.393788e+01  -4.546981e+01
  -5.493592e+00  -8.528866e+00
   4.107738e+01  -1.669805e+01
   1.221363e+01  -1.240056e+01
  -1.490337e+01   3.218226e-01
  -3.560640e+01  -1.463247e+01
   2.569970e+01  -1.347121e+01
   2.565840e+01   1.253715e+01
