
 $NMID
 id='ANONYMOUS ', fmtdat='(2E16.6)'
 volume=1.0
 tramp=1.0
 $END
  -2.672172e+03   1.554833e+02
  -1.338610e+03  -1.264213e+03
  -2.547067e+02  -1.414070e+03
   8.054568e+02  -8.584239e+02
   5.732318e+02  -7.810458e+01
  -4.374332e+01   2.546894e+02
  -3.767390e+02  -1.293940e+01
   7.805517e+00  -5.370977e+02
   2.776110e+02  -4.567898e+02
   4.925872e+02  -1.115977e+02
   2.085972e+02   3.606349e+02
  -1.018450e+02   5.547910e+02
  -3.469370e+02   2.307966e+02
  -3.194377e+02  -2.449905e+02
   1.409735e+02  -4.353311e+02
   3.219433e+02  -1.320137e+01
   2.416676e+02   3.433058e+02
  -1.692442e+02   5.050992e+02
  -3.346607e+02   1.747505e+02
  -3.735357e+02  -1.252443e+02
  -1.325063e+02  -2.731766e+02
   6.050608e+01  -2.098932e+02
   5.690898e+01  -4.935412e+01
  -1.269920e+02  -7.453007e+01
  -2.074579e+02  -1.341150e+02
  -3.894401e+01  -2.774338e+02
   3.211012e+02  -2.177867e+02
   3.932386e+02   4.771396e+01
   8.594052e+01   2.663374e+02
  -2.606928e+02   2.018087e+02
  -4.647030e+02   4.456759e+01
  -1.674786e+02  -2.295790e+02
   2.131962e+02  -2.898670e+02
   3.171288e+02  -1.982875e+02
   2.245457e+02   1.311427e+02
   5.369213e+01   2.454245e+02
  -1.480501e+01   9.373933e+01
   6.012530e+00  -9.093115e+01
   5.582436e+01  -1.453572e+02
   2.474120e+02   1.075701e+02
   8.227732e+01   3.642453e+02
  -1.076944e+02   3.368331e+02
  -2.402266e+02   1.139474e+01
  -1.601432e+02  -2.253361e+02
   1.492628e+02  -1.034622e+02
   1.635933e+02   1.844152e+02
  -7.952022e+00   2.451442e+02
  -3.140690e+02   4.893350e+01
  -4.409749e+02  -2.239182e+02
  -1.156240e+02  -2.852114e+02
   2.457255e+02  -2.313128e+02
   3.848348e+02   3.388036e+01
   2.846837e+02   2.638734e+02
  -1.914881e+00   1.646313e+02
  -2.313266e+02   8.458076e+01
  -1.775289e+02  -1.565284e+01
  -1.228371e+01  -1.516602e+01
   7.325540e+01   6.179168e+01
  -7.525133e+01   6.163968e+01
  -2.107256e+02  -4.540686e+01
  -6.395697e+01  -1.496733e+02
   1.360155e+02  -1.561957e+02
   2.621641e+02  -1.181457e+02
   1.704723e+02   9.007729e+01
   1.810043e+01   2.121552e+02
  -2.081530e+02   2.939029e+02
  -2.516110e+02   1.297670e+02
  -1.532791e+02  -9.089028e+01
  -7.826791e+01  -3.059203e+02
   9.109948e+01  -1.862508e+02
   9.692117e+00  -1.237105e+02
   1.193534e+01  -4.563040e+01
   9.228235e+01  -7.844549e+01
   1.693634e+02  -9.248355e+01
   2.003934e+02   8.806171e+01
   8.012712e+01   2.049575e+02
  -6.216799e+01   1.381930e+02
  -1.247832e+02  -4.297512e+00
  -1.172624e+02  -1.920481e+02
   2.538225e+01  -1.604220e+02
   1.675949e+02  -9.148147e+00
   2.433943e+02   1.141910e+02
   1.109893e+02   1.697721e+02
  -2.576170e+01   2.470876e+02
  -1.673200e+02   1.582959e+02
  -7.958179e+01   3.699532e+01
  -9.299124e+01   4.515260e+01
  -1.903173e+02   6.208178e+01
  -2.442522e+02  -7.147406e+00
  -1.757842e+02  -1.547661e+02
   4.720532e+01  -3.371998e+02
   2.382031e+02  -3.120277e+02
   3.383864e+02  -1.055168e+02
   2.142602e+02   8.774950e+01
   4.780623e+01   2.055695e+02
  -5.994098e+01   1.643201e+02
   1.050767e+01   3.430431e+01
   7.914671e+01  -5.808233e+01
   1.120204e+02  -1.546563e+01
   1.715524e+01   1.155094e+02
  -6.749902e+01   1.099136e+02
  -6.388860e+01  -3.494753e+01
  -1.809766e+01  -1.526078e+02
   1.264415e+02   3.883792e+00
   7.256134e+01   1.955610e+02
   4.037752e+01   2.114095e+02
  -1.204093e+02   1.403005e+02
  -2.549198e+02  -4.491619e+01
  -2.222559e+02  -1.637207e+02
  -2.530386e+01  -1.950620e+02
   1.030327e+02  -1.111210e+02
   1.325199e+02   3.240156e+00
   3.487325e+01   2.995779e+01
  -1.632682e+01  -2.568025e+01
  -2.922519e+00  -8.326646e+01
   1.190157e+02  -4.459856e+01
   1.237984e+02   1.079599e+01
  -2.575908e+00   5.822423e+01
  -2.308187e+01  -7.462273e+00
  -1.481654e+01  -8.169427e+01
   1.092287e+02  -4.849297e+01
   2.468087e+02   1.542808e+01
   1.898286e+02   9.279212e+01
   1.350819e+01   2.115670e+02
  -1.490517e+02   2.004668e+02
  -1.979470e+02   3.579314e+01
  -9.315009e+01  -1.401626e+01
   2.707305e+01  -5.997556e+01
   4.105749e+01   1.532270e+01
  -3.736101e+01   5.989203e+01
  -9.538900e+01   6.833033e+00
  -1.365712e+02  -4.888996e+01
  -2.981321e+01  -9.088520e+01
   8.003340e+01  -1.079260e+02
   6.238973e+01  -2.918081e+01
   3.086041e+01   1.449807e+01
  -2.218118e+01  -5.629212e+00
  -2.573736e+01  -7.311934e+01
   4.602362e+01  -7.172461e+01
   1.712740e+02  -3.929231e+01
   1.446706e+02   1.009897e+02
   4.250578e+00   1.512376e+02
  -9.921494e+01   1.288531e+02
  -1.194981e+02   2.096748e+01
  -7.419720e+01  -5.813704e+01
   2.642013e+01  -7.418129e+01
   8.104302e+01  -1.099908e+01
  -3.420735e+01   4.907107e+00
  -1.391499e+01  -9.395775e+00
   3.433194e+01  -1.994946e+01
   6.171721e+01   1.939741e+01
   4.002528e+01   5.894630e+01
   3.526306e+00   1.144976e+02
  -9.055298e+01   1.062007e+02
  -1.376864e+02   5.473677e+01
  -1.289071e+02  -1.153125e+02
  -1.739949e+01  -1.688706e+02
   4.537592e+01  -1.361256e+02
   9.117961e+01  -4.003294e+01
   5.903557e+01   3.908439e+01
   3.119450e+01   2.592270e+01
   2.659040e+01  -2.972930e+01
   7.264927e+01   1.179541e+01
   6.457051e+01   3.750918e+01
  -4.246227e+01   8.945555e+01
  -9.294484e+01   8.156442e+01
  -7.341611e+01  -2.660695e+01
   1.588504e+01  -7.284510e+01
   9.243946e+01  -5.614471e+01
   1.452993e+02   6.344801e+01
   1.014435e+02   1.313337e+02
  -8.887141e+01   1.551310e+02
  -2.058889e+02   4.331424e+01
  -1.642421e+02  -8.376837e+01
  -8.243408e+01  -1.125425e+02
   1.086181e+01  -1.054519e+02
   7.145264e+01  -4.691976e+01
   6.205208e+01  -6.411010e+01
   4.386391e+01  -5.097077e+01
   6.420678e+01  -5.264878e+01
   1.195899e+02  -6.666864e+00
   8.411660e+01   8.213319e+01
   5.313512e+00   1.603534e+02
  -1.060690e+02   1.440139e+02
  -1.333336e+02  -1.312411e+01
  -1.162651e+02  -1.143634e+02
   2.075378e+01  -1.428092e+02
   6.175074e+01  -5.259935e+01
   2.884340e+01   3.716924e+01
   5.234130e+00   3.498713e+01
  -2.731257e+01   5.646399e+01
   2.978989e+01  -1.675526e+01
   4.024381e+01  -3.896385e+00
   1.031055e+01   4.043180e+01
  -3.109314e+01   4.031882e+01
  -1.423645e+02   2.895882e+01
  -1.187210e+02  -5.527775e+01
   2.138607e+01  -8.056386e+01
   9.408221e+01  -2.878641e+01
   8.880052e+01  -2.005045e+01
   4.485463e+01   4.533272e+01
  -5.171303e+01   2.958651e+01
  -3.910166e+01  -9.013849e+00
  -1.851674e+00  -5.953389e+01
   4.837962e+01  -5.356184e+01
   4.259932e+01  -2.184949e+01
   5.826524e+01   3.360198e+01
   4.128686e+01   2.305715e+01
   1.901876e+01  -6.429816e+00
   7.083671e+01  -5.630276e+00
   4.614785e+01   5.052249e+01
   1.081504e+01   1.034242e+02
  -7.581198e+01   1.073463e+02
  -1.201828e+02   1.707645e+01
  -6.322858e+01  -5.460101e+01
  -1.952159e+01  -9.849762e+01
   5.359539e+01  -3.385605e+01
   5.861201e+01   1.753179e+01
  -3.624570e+01   1.581405e+01
  -1.059043e+02  -3.040264e+01
  -6.488579e+01  -1.006516e+02
   3.850035e+01  -1.057503e+02
   1.390093e+02  -4.680625e+01
   1.189071e+02   1.873758e+01
   1.706959e+01   4.083611e+01
  -4.564798e+01   4.115796e+01
   6.601917e+00  -3.379558e-01
   4.076646e+00  -3.502733e+01
   9.460860e+01   7.068563e+00
   4.811173e+01   4.961989e+01
  -1.560839e+01   1.032716e+02
  -1.215192e+02   6.343711e+01
  -9.767516e+01  -5.572501e+01
   4.804761e+01  -1.098299e+02
   6.006056e+01  -1.115912e+02
   8.063331e+01  -2.034818e+00
   4.828700e+01   6.065809e+01
  -5.640458e+00   7.399148e+01
  -7.419553e+01   1.507023e+01
  -4.614956e+00  -9.506494e+00
  -7.239684e+00  -8.034632e+00
   5.904249e+00   2.296199e+01
  -3.699282e+01  -4.068692e+01
  -3.002177e+01  -5.972926e+01
  -4.698941e+01  -7.950892e+01
   5.770282e+01  -3.111694e+01
   8.825821e+01   2.587807e+01
   1.195504e+02   2.760361e+01
  -1.292253e+01   2.153714e+01
  -5.677569e+01   3.717755e+01
  -6.962960e+01  -2.368688e+01
  -2.105229e+01  -1.393393e+01
   2.003945e+01   1.651049e+01
   4.125755e+01  -1.098331e+00
   6.350353e+00   2.629963e+01
   1.603021e+01   6.067357e+00
   4.749136e+01  -1.381202e+01
   7.073952e+01   3.344355e+01
   4.260636e+01   5.172626e+01
  -6.743801e+01   9.743690e+01
  -8.570607e+01   1.178273e+01
  -1.018466e+02  -7.772756e+01
  -2.041425e+01  -7.754439e+01
   5.322250e+01  -1.004867e+02
   5.515847e+01  -5.819571e+01
   4.771243e+01   2.603501e+01
   2.675671e+01   1.789820e+01
  -5.669408e+00  -5.242365e+00
  -2.664071e+01  -1.655869e+01
   2.864928e+01   5.629922e+00
   2.780023e+01   7.252765e+01
  -2.947814e+01   6.638430e+01
  -6.687175e+01  -1.304867e+00
  -5.178860e+01  -8.969062e+01
   1.390709e+01  -8.287576e+01
   5.009153e+01   2.054573e+00
   1.150830e+02   6.319483e+01
   9.649803e+00   7.768778e+01
  -3.067183e+01   5.165220e+01
  -8.045680e+01   1.415373e+01
  -3.248653e+01  -5.686594e+01
   1.640243e+01  -4.873969e+01
   3.119289e+01  -1.636068e+01
  -3.566119e+01   3.502012e+01
  -4.373497e+01   7.685808e+00
  -1.182734e+01  -2.075626e+00
   5.387267e+01  -5.779630e+01
   8.728202e+01  -5.819312e+01
   3.436160e+01   1.800443e+01
  -4.133765e+01   6.186231e+01
  -3.687875e+01   3.036743e+01
  -9.166942e+00  -1.550747e-02
  -1.873409e+01  -3.155623e+01
   4.670910e+01  -5.961844e+01
  -2.164272e+00  -6.112988e+00
   3.700463e+01   5.297390e+01
  -3.504114e+01   6.301207e+00
  -3.474425e+01  -2.490600e+01
  -3.849754e+01  -7.409457e+00
  -2.247633e+01   1.146825e+01
   9.205065e+00   8.427991e+00
  -1.732457e+01  -1.790230e+01
  -6.151373e+00  -1.429828e+01
   1.659639e+01  -4.832557e+01
   3.557998e+01   4.312703e+00
   2.104442e+01   1.623906e+01
   8.701361e+00   1.653469e+01
  -2.999452e+01   1.452046e+01
  -3.292036e+01  -2.924011e+01
  -4.323470e+01  -6.107859e+01
   4.736427e+01  -6.789326e+01
   6.997951e+01   3.083051e+01
   3.851808e+01   7.598006e+01
  -3.777541e+00   4.677746e+01
  -5.068624e+01   3.199492e+01
  -2.600481e+01   2.391272e+01
   3.012826e+01   1.106578e+01
   8.556905e+00   1.858063e+01
  -3.048846e+01   1.401529e+01
  -6.408497e+01  -1.076944e+01
