
 $NMID
 id='ANONYMOUS ', fmtdat='(2E16.6)'
 volume=1.0
 tramp=1.0
 $END
  -2.602848e+03  -1.187951e+02
  -1.749989e+03  -1.833174e+03
   4.742904e+02  -1.723687e+03
   1.208539e+03  -8.270693e+02
   8.009294e+02   2.872862e+02
  -1.119672e+02   3.621859e+02
  -4.836799e+02  -2.502770e+02
  -7.393394e+01  -6.156007e+02
   6.332957e+02  -4.658296e+02
   6.239596e+02   7.254412e+01
   2.894278e+02   6.166542e+02
  -1.039407e+02   6.335128e+02
  -3.428641e+02   1.337546e+02
  -1.711492e+02  -4.460477e+02
   1.866343e+01  -3.778203e+02
   3.718174e+02   5.302047e+01
   1.433469e+02   4.547483e+02
  -1.942146e+02   3.558498e+02
  -4.198046e+02   1.719955e+02
  -3.281409e+02  -2.660942e+02
  -1.204930e+01  -3.071036e+02
   1.894060e+02  -2.202821e+02
   1.089626e+02  -3.098557e+01
  -9.529942e+01  -4.072428e+00
  -2.451960e+02  -1.548690e+02
  -3.674645e+00  -3.173661e+02
   3.289273e+02  -1.739989e+02
   5.821255e+02   1.564665e+02
   2.381614e+02   4.058005e+02
  -2.529004e+02   2.119643e+02
  -4.163087e+02  -8.975752e+01
  -1.535346e+02  -3.510415e+02
   1.951383e+02  -2.481306e+02
   3.713590e+02  -4.330138e+01
   2.512024e+02   1.572984e+02
   9.840517e+01   2.753820e+02
  -4.610209e+01   1.849982e+02
  -6.713900e+01  -5.998314e+01
   1.363620e+02  -2.152478e+02
   2.159248e+02   6.712907e+01
   5.890184e+01   3.989519e+02
  -1.861476e+02   4.697064e+02
  -3.793474e+02  -6.289626e+01
  -8.756999e+01  -3.384273e+02
   2.174623e+02  -1.642405e+02
   1.686052e+02   2.188606e+02
  -1.200767e+02   3.454153e+02
  -3.612318e+02  -2.972125e+01
  -3.495509e+02  -3.644252e+02
  -1.821691e+02  -4.410766e+02
   2.091327e+02  -2.777888e+02
   3.763168e+02   4.990758e+01
   2.149399e+02   2.393298e+02
  -1.177412e+02   2.137372e+02
  -3.194882e+02   2.476358e+01
  -1.434004e+02  -1.028446e+02
   6.241949e+01  -7.173136e+01
   3.976425e+01   6.735614e+01
  -1.059793e+02   9.928280e+01
  -2.530159e+02  -6.535827e+01
  -5.742755e+01  -1.962531e+02
   1.777515e+02  -2.134609e+02
   2.825316e+02  -4.763038e+00
   1.718716e+02   1.075538e+02
  -4.138141e+01   2.119128e+02
  -1.651745e+02   2.797913e+02
  -2.405961e+02   9.635947e+01
  -2.322053e+02  -2.095021e+02
  -3.769797e+01  -2.671330e+02
   1.406559e+02  -3.005996e+02
   3.473238e+01  -1.299718e+02
   4.700811e+01  -4.696778e+01
   9.867543e+01  -3.511458e+01
   1.756859e+02   4.044765e+00
   1.851691e+02   1.166092e+02
   7.930345e+01   1.988194e+02
  -7.122364e+01   1.071257e+02
  -1.402261e+02  -6.045083e+00
  -9.944539e+01  -1.890309e+02
   2.119936e+01  -1.925299e+02
   2.423378e+02  -6.028845e+01
   1.992384e+02   1.538038e+02
   1.609618e+01   2.619005e+02
  -8.577905e+01   1.651799e+02
  -1.471099e+02   9.209055e+01
  -1.105779e+02   2.754413e+01
  -1.074219e+02   5.070575e+01
  -1.983885e+02   2.421921e+01
  -2.771266e+02  -7.171433e+01
  -2.094410e+02  -2.883608e+02
  -9.409128e+00  -3.357559e+02
   3.453164e+02  -2.752606e+02
   3.971020e+02  -1.139787e+02
   2.467312e+02   1.049525e+02
   1.981086e+01   1.771801e+02
  -1.048035e+02   1.426283e+02
  -2.784531e+01   2.150456e+01
   4.379265e+01  -1.083431e+01
   1.341456e+02   4.235160e+01
   4.823307e+01   1.474089e+02
  -1.221738e+02   1.308413e+02
  -1.319597e+02  -7.577450e+01
   5.641439e+01  -1.239264e+02
   1.330719e+02   4.988481e+00
   1.536650e+02   1.737022e+02
  -5.012218e+00   2.860679e+02
  -1.653360e+02   1.516823e+02
  -2.492967e+02  -1.023614e+02
  -1.452877e+02  -2.097804e+02
  -7.682724e+01  -2.361465e+02
   1.306994e+02  -1.070205e+02
   1.016549e+02  -1.383578e+01
   3.663221e+01   3.562225e+01
  -3.222540e+01  -3.811648e+01
  -3.749069e+01  -1.230907e+02
   1.156713e+02  -6.158252e+01
   1.180231e+02   2.291572e+01
   2.856831e+01   2.200773e+01
  -7.760149e+01   4.994228e+01
  -3.035283e+01  -6.359266e+01
   1.292826e+02  -2.251808e+01
   2.102776e+02   4.193742e+01
   1.958265e+02   1.279613e+02
   1.702013e-01   1.957330e+02
  -1.460640e+02   2.102595e+02
  -2.452842e+02   8.496583e+01
  -1.392066e+02  -3.095913e+01
   2.679121e+01  -6.314728e+01
   7.437528e+01   1.260416e+01
  -5.523922e+00   3.271727e+01
  -1.570796e+02   1.177584e+01
  -1.734748e+02  -5.500171e+01
  -4.135933e+01  -1.441923e+02
   8.349780e+01  -7.159048e+01
   1.020016e+02   2.433726e+01
   3.151635e+01   2.601534e+01
  -2.374950e+01   6.643065e+00
  -3.270785e+01  -5.816792e+01
   5.635933e+01  -7.700064e+01
   1.496439e+02   8.405184e+00
   1.287547e+02   1.356958e+02
   1.497010e+01   1.821632e+02
  -1.526012e+02   1.103057e+02
  -1.242488e+02  -1.627856e+01
  -3.786775e+01  -8.465842e+01
   6.377920e+01  -6.793926e+01
   7.703150e+01  -2.109298e+01
  -7.747185e-01   1.275416e+01
  -2.887524e+01   4.990435e+00
   3.952743e+01  -1.971246e+01
   7.144809e+01   1.574108e+00
   8.141394e+01   1.066575e+02
  -1.991031e+01   1.176271e+02
  -9.453731e+01   1.102712e+02
  -1.899221e+02  -2.753867e+01
  -1.544846e+02  -1.408645e+02
  -6.855939e+01  -1.505606e+02
   8.994625e+01  -1.370378e+02
   8.577293e+01  -9.748276e+00
   6.888835e+01   5.938830e+01
   3.056808e+01   3.125286e+01
   4.766769e+01  -6.432873e-02
   7.131564e+01   1.104786e+01
   3.819154e+01   3.724006e+01
   1.283015e+00   7.337557e+01
  -1.267397e+02   7.407235e+01
  -7.879890e+01  -4.887114e+01
   2.433741e+01  -9.259041e+01
   1.335091e+02  -4.358450e+01
   1.357449e+02   6.778774e+01
   5.355596e+01   2.013413e+02
  -1.275690e+02   1.623156e+02
  -1.864969e+02   8.183035e+01
  -2.246579e+02  -6.961230e+01
  -4.410782e+01  -1.935191e+02
   1.097632e+01  -9.635742e+01
   5.372347e+01  -4.083854e+01
   7.082260e+01  -3.021750e+01
   3.833486e+01  -3.630346e+01
   6.592752e+01  -3.889041e+01
   7.210777e+01   3.341551e+01
   6.771571e+01   1.064856e+02
   1.225924e+01   1.757154e+02
  -6.337317e+01   1.435536e+02
  -1.195140e+02   5.115471e+00
  -8.995938e+01  -1.202463e+02
  -1.794883e+01  -1.233308e+02
   6.497395e+01  -5.302932e+01
   3.796492e+01  -1.003341e+01
  -3.243737e+00  -2.117257e+00
  -5.447987e+01   2.832881e+01
   2.110167e+01   2.604246e+00
   6.193711e+01   3.455838e+01
   2.078253e+01   2.315988e+01
  -5.153344e+01   1.965914e+01
  -8.777298e+01  -2.554591e+01
  -1.163547e+02  -3.576797e+01
   2.669070e+01  -6.419041e+01
   1.159412e+02  -6.502000e+01
   1.039081e+02  -4.060905e+00
   5.534740e+01   2.647150e+01
  -2.863609e+01   4.139329e+01
  -4.557306e+01  -1.828615e+01
  -3.259760e+00  -4.559460e+01
   3.366884e+01  -6.079380e+01
   5.546247e+01   2.418363e+01
   1.974168e+01   8.245454e+01
   3.796691e+01   2.887836e+01
   5.240424e+01   1.590984e+01
   1.971979e+01   1.638180e+01
   2.783453e+01   8.723328e+01
  -2.137714e+01   1.579568e+02
  -1.158356e+02   9.993624e+01
  -1.290771e+02   5.593009e+01
  -8.456812e+01  -1.088581e+02
  -6.666798e+00  -8.551482e+01
   8.736629e+01  -2.160513e+01
   3.026409e+01   1.341187e+01
  -5.225738e+01   2.013966e+01
  -6.622608e+01  -6.117740e+01
  -7.605118e+01  -7.146038e+01
   2.925542e+01  -5.481343e+01
   1.450188e+02  -3.100391e+01
   1.061683e+02  -1.929071e+01
   5.128343e+01   4.265259e+01
  -6.442514e+01   5.522741e+01
  -3.035923e+01  -4.845044e+00
   4.869510e+01  -2.693378e+01
   6.230197e+01   5.872014e+00
   4.424028e+01   8.174379e+01
  -7.145406e+01   1.228474e+02
  -1.094899e+02   9.722794e+00
  -6.331022e+01  -1.107306e+02
   1.498206e+01  -1.338078e+02
   5.189252e+01  -8.611034e+01
   8.180110e+01   2.611329e+01
   1.852377e+01   9.014879e+01
  -3.879021e+01   7.391032e+01
  -2.571897e+01  -3.891202e+00
  -3.599747e+01  -9.921090e+00
  -4.470834e+01  -2.485849e+01
  -8.569798e+00  -2.036206e+00
  -3.771968e+01  -1.769689e+01
  -3.365764e+01  -4.926287e+01
  -1.909213e-03  -1.082677e+02
   2.325474e+01  -2.812771e+00
   8.172837e+01   2.511632e+01
   9.634181e+01   4.934913e+01
  -1.470595e+01   5.677115e+01
  -7.041718e+01  -8.684395e-01
  -3.394687e+01   1.111681e+01
   1.990444e+01  -2.556834e+01
   2.963824e+01  -1.825274e+01
   3.330071e+01  -2.114398e+01
  -8.187385e+00  -6.663556e+00
   5.483214e+00   1.121781e+01
   3.181027e+01  -1.213318e+01
   4.869975e+01   2.026638e+01
   2.174533e+01   4.912807e+01
  -8.995637e+01   8.075734e+01
  -1.607232e+02   3.176186e+01
  -1.189033e+02  -4.791515e+01
  -1.644912e+01  -1.071517e+02
   6.889239e+01  -8.688003e+01
   1.000844e+02  -2.918738e+01
   3.913480e+01   1.156026e+01
  -3.969850e+00   5.441599e+01
   9.139107e+00   5.262503e+00
   2.924584e+01   2.437906e+01
   2.692712e+01   1.109937e+01
  -3.253041e+01   5.893784e+01
  -3.350800e+01   3.894518e+01
  -5.655875e+01  -2.709640e+00
  -4.030751e+01  -6.335729e+01
  -1.060410e+01  -7.383253e+01
   4.291280e+01  -3.881724e+01
   7.265157e+01   6.543578e+01
  -2.672164e+00   1.120689e+02
  -6.545517e+01   3.130984e+01
  -6.915960e+01  -2.083840e+01
  -3.586338e+01  -2.555953e+01
   2.514489e+01  -6.047960e+01
   1.837602e+01  -2.449588e+01
  -3.304780e+01  -2.769952e+01
  -8.155406e+01   7.521458e+00
  -2.966171e+00  -4.507644e+01
   4.904514e+01  -3.885119e+01
   1.082016e+02  -5.952504e+01
   5.429511e+01   5.216738e+01
  -5.314461e+00   4.182306e+01
  -4.648807e+01   8.682314e+01
  -2.147487e+01   1.427858e+01
  -2.800570e+00  -5.676972e+01
   5.266911e+00  -4.035460e+01
   6.368102e+01   1.215788e+01
   1.030801e+01   5.813650e+01
   7.827166e-02   1.608333e+01
  -3.861959e+01  -3.988431e+00
  -3.954612e+01  -1.273891e+01
  -9.067976e+00  -1.643463e+01
  -4.676568e+00   1.383329e+01
   8.095362e+00   8.374848e-01
   3.014237e+01  -7.081533e+00
   9.617262e-01  -2.329451e+01
   1.967241e+01  -8.423166e+00
   2.379773e+01   3.262468e+01
  -7.318229e+00   5.274140e+01
  -1.274913e+01   2.507509e+00
  -6.439529e+01  -1.767900e+01
  -1.818919e+01  -4.795548e+01
   3.214596e+01  -7.237169e+00
   4.598734e+01   1.212568e+01
   1.971600e+01   6.111575e+01
  -1.228180e+01   2.366074e+01
  -6.017256e+01  -1.688035e+01
   5.274879e+00   7.373415e+00
   9.065824e+00  -3.039631e+01
   2.990824e+01   1.362337e+01
  -4.183574e+01   5.506687e+00
  -8.030818e+01   1.627060e+01
