
 $NMID
 id='ANONYMOUS ', fmtdat='(2E16.6)'
 volume=1.0
 tramp=1.0
 $END
  -2.931956e+03   5.114232e+02
  -2.080529e+03  -1.802107e+03
   1.113249e+02  -1.936795e+03
   1.230791e+03  -1.152603e+03
   1.028555e+03   9.791312e+01
  -1.112774e+02   3.005042e+02
  -3.545056e+02  -2.531857e+01
  -1.483038e+02  -7.014041e+02
   4.963581e+02  -5.181834e+02
   6.026991e+02  -6.425667e+01
   4.696723e+02   5.800193e+02
   4.944527e+01   6.883695e+02
  -2.568496e+02   1.413235e+02
  -2.092361e+02  -4.492993e+02
   2.790704e+01  -6.349606e+02
   4.278956e+02  -7.300968e+01
   2.832130e+02   4.175542e+02
  -1.288446e+02   5.558527e+02
  -4.437667e+02   1.888735e+02
  -3.699403e+02  -2.352777e+02
  -7.868642e+01  -3.555806e+02
   1.222704e+02  -2.059043e+02
   9.130657e+01  -6.790940e+01
  -1.465637e+02  -5.061035e+01
  -2.960285e+02  -2.082159e+02
  -1.799127e+01  -3.396219e+02
   3.649364e+02  -1.896319e+02
   5.719549e+02   1.553027e+02
   2.992708e+02   4.086527e+02
  -2.832787e+02   2.349145e+02
  -5.226257e+02  -6.690623e+01
  -2.160474e+02  -3.446740e+02
   2.158759e+02  -3.297597e+02
   3.821786e+02  -5.267652e+01
   3.693228e+02   1.666782e+02
   1.208793e+02   3.390001e+02
  -4.204232e+01   2.014130e+02
  -4.906681e+01  -1.186386e+02
   1.190817e+02  -2.018344e+02
   2.658946e+02   6.611414e+01
   6.313074e+01   5.140680e+02
  -2.447949e+02   4.331391e+02
  -3.723901e+02  -5.573943e+01
  -1.476840e+02  -3.250064e+02
   1.817696e+02  -1.483840e+02
   2.224576e+02   2.079862e+02
  -5.194494e+01   3.347560e+02
  -3.692713e+02   5.351386e+01
  -4.571415e+02  -3.800871e+02
  -1.392173e+02  -4.861412e+02
   2.352816e+02  -2.716181e+02
   5.083073e+02  -3.134524e+00
   2.882291e+02   2.256607e+02
  -1.282762e+02   2.255546e+02
  -2.659361e+02   7.151879e+01
  -2.112345e+02  -5.403461e+01
  -5.629215e+00  -2.526861e+01
   5.976961e+01   6.797678e+01
  -6.542074e+01   4.745482e+01
  -1.921037e+02  -3.445522e+01
  -1.100300e+02  -1.640015e+02
   1.832194e+02  -2.533589e+02
   2.827677e+02  -1.152054e+02
   2.384708e+02   1.074214e+02
  -2.040890e+00   2.585390e+02
  -2.203901e+02   3.134667e+02
  -3.048834e+02   1.473395e+02
  -2.305723e+02  -9.497426e+01
  -3.671486e+01  -3.600972e+02
   9.017092e+01  -3.097260e+02
   5.526807e+01  -1.246465e+02
   4.432197e+01  -4.210967e+01
   1.120386e+02  -6.342988e+01
   1.769631e+02  -1.050549e+02
   2.164332e+02   1.035524e+02
   9.826690e+01   2.498655e+02
  -5.589634e+01   2.106574e+02
  -1.862386e+02  -2.585746e+01
  -1.282689e+02  -2.199267e+02
  -9.209208e+00  -2.163338e+02
   2.069326e+02  -7.992870e+01
   2.671411e+02   1.676024e+02
   2.026131e+02   2.559271e+02
  -2.198790e+01   2.807231e+02
  -1.445784e+02   1.503957e+02
  -1.478641e+02   1.030669e+02
  -1.159572e+02   4.971575e+01
  -2.294539e+02   4.108215e+01
  -3.181544e+02  -7.050958e+01
  -3.194823e+02  -2.501044e+02
   1.378648e+01  -4.457421e+02
   3.300006e+02  -3.870925e+02
   4.409979e+02  -1.819356e+02
   2.609820e+02   4.418735e+01
   4.251582e+01   1.827575e+02
  -7.947582e+01   2.034494e+02
  -4.791583e+00   1.913368e+01
   8.242125e+01  -6.373204e+01
   1.091528e+02   5.394872e+01
   1.986127e+00   1.443451e+02
  -8.252343e+01   1.245211e+02
  -1.122599e+02  -6.944755e+01
   2.844876e+01  -1.369993e+02
   1.646927e+02  -1.017269e+01
   1.741215e+02   1.967912e+02
   1.171205e-01   2.795347e+02
  -1.736556e+02   1.984913e+02
  -2.841492e+02  -9.722044e+01
  -2.610477e+02  -2.139441e+02
  -8.705143e+01  -2.550941e+02
   1.349897e+02  -1.448070e+02
   1.532723e+02  -3.167459e+01
   1.241493e+01   9.862255e+00
  -4.474456e+01  -2.546536e+01
  -2.404001e+01  -1.396200e+02
   1.392237e+02  -5.257527e+01
   1.628673e+02   3.423496e+01
  -2.067351e+00   3.573952e+01
  -6.055350e+01  -1.337547e+01
  -4.366585e+01  -7.723424e+01
   1.560082e+02  -7.275836e+01
   2.763759e+02  -1.844563e+01
   2.607670e+02   1.414444e+02
   1.942128e+01   2.467352e+02
  -1.942112e+02   2.499055e+02
  -2.481835e+02   1.114381e+02
  -1.628335e+02  -2.451165e+01
   2.110279e+01  -1.012352e+02
   5.628357e+01  -7.305836e+00
  -7.832472e+01   7.632856e+01
  -1.414338e+02   3.833618e+01
  -1.882064e+02  -1.045687e+02
  -5.028364e+01  -1.812019e+02
   9.177757e+01  -1.299059e+02
   1.231374e+02  -7.582758e+00
   2.916375e+01   2.687318e+01
  -3.300158e+01  -6.243561e+00
  -1.471927e+01  -7.915820e+01
   6.278780e+01  -6.505499e+01
   1.625830e+02  -2.364786e+01
   1.657111e+02   1.305990e+02
   4.300497e-01   2.030665e+02
  -1.163007e+02   1.573999e+02
  -1.449509e+02   8.672670e+00
  -4.235902e+01  -4.676848e+01
   4.771244e+01  -9.271482e+01
   6.682746e+01  -1.430981e+01
  -1.064736e+00   3.083085e+01
  -3.764683e+01   1.854193e+01
   2.256164e+01  -2.757930e+01
   8.104471e+01   6.480162e+00
   8.652351e+01   8.372876e+01
   1.604830e+01   1.573195e+02
  -1.063643e+02   1.573944e+02
  -2.367523e+02   3.262512e+01
  -1.987037e+02  -1.625344e+02
  -1.788145e+01  -2.302066e+02
   9.226604e+01  -1.697174e+02
   1.200222e+02  -5.190427e+01
   8.083198e+01   1.654474e+01
   3.155700e+01   5.602131e+01
   6.295865e+01  -2.046690e+01
   7.542325e+01   2.628443e+00
   6.522090e+01   5.132300e+01
  -1.112508e+01   1.046882e+02
  -1.140517e+02   6.448478e+01
  -9.108112e+01  -1.793925e+01
   6.956134e+00  -1.080534e+02
   1.729170e+02  -1.108070e+02
   1.849182e+02   4.682946e+01
   7.233260e+01   1.954056e+02
  -1.072629e+02   1.982808e+02
  -2.230521e+02   1.176122e+02
  -2.338650e+02  -6.640111e+01
  -6.565151e+01  -1.427201e+02
  -1.240332e+01  -1.319000e+02
   9.378439e+01  -8.633759e+01
   7.142766e+01  -7.846136e+01
   7.029922e+01  -9.657210e+01
   5.758060e+01  -8.177888e+01
   9.088134e+01   2.529871e+01
   1.292056e+02   1.361493e+02
   4.627301e+01   1.569775e+02
  -4.708146e+01   1.788161e+02
  -1.594684e+02  -3.919450e+01
  -1.555819e+02  -9.521779e+01
  -2.012138e+01  -1.202742e+02
   9.257939e+01  -8.901698e+01
   3.954464e+01   2.199514e+01
  -1.340593e+01   4.487785e+01
   8.871136e-01   4.888573e+01
   2.635817e+01   2.933930e+01
   6.084845e+01   3.613302e+01
   7.359056e+01   5.461248e+01
  -4.756417e+01   3.369086e+01
  -1.184109e+02  -1.676949e+01
  -1.498356e+02  -6.720724e+01
  -8.938794e+00  -7.034378e+01
   9.704291e+01  -4.889110e+01
   1.464381e+02  -5.298761e+00
   2.021525e+01   2.758173e+01
  -6.627481e+01   1.786617e+01
  -6.325997e+01  -2.979454e+01
  -1.206603e+01  -8.935574e+01
   1.305441e+01  -4.883673e+01
   6.065016e+01   1.183582e+01
   5.880418e+01   3.555807e+01
   2.913260e+01   3.113760e+01
   2.598087e+01   1.000212e+01
   8.306076e+01   1.705796e+01
   3.059298e+01   8.663844e+01
  -2.292309e+01   1.176948e+02
  -1.004694e+02   1.379322e+02
  -1.249531e+02   5.370978e+01
  -1.187925e+02  -7.405849e+01
  -2.497906e+01  -1.262672e+02
   1.029167e+02  -5.185965e+01
   6.772295e+01  -1.676846e+01
  -5.394724e+01   1.203458e+01
  -1.376745e+02  -1.002557e+01
  -8.562417e+01  -9.186516e+01
   8.051134e+01  -1.133502e+02
   1.775205e+02  -3.414399e+01
   1.310500e+02   2.544561e+01
   3.775817e+01   4.345378e+01
  -2.288002e+01   4.698189e+01
  -2.231503e+01   2.653261e+01
   3.050755e+01  -1.575345e+01
   9.311069e+01   1.338464e+01
   4.059271e+01   1.146147e+02
  -6.329349e+01   1.524609e+02
  -1.617691e+02   7.695016e+01
  -1.327201e+02  -7.415001e+01
  -2.587456e+01  -1.624761e+02
   9.941470e+01  -1.302476e+02
   1.279197e+02   9.622020e+00
   5.512913e+01   1.090314e+02
  -8.781123e+00   1.269951e+02
  -5.119327e+01   2.846251e+01
  -2.083352e+01  -1.497752e+01
  -2.670300e+01   2.151023e+01
  -3.587352e+01   2.974419e+01
  -3.440969e+01  -4.050952e+01
  -4.293238e+01  -8.011072e+01
  -1.941876e+01  -9.256738e+01
   5.281191e+01  -2.566950e+01
   1.438576e+02   3.714994e+01
   1.016006e+02   5.951423e+01
   2.174800e+01   5.512692e+01
  -8.544025e+01   4.818828e+00
  -2.803882e+01  -1.901975e+01
  -2.238510e+01   1.276413e+01
   3.146595e+01  -2.288926e+01
   2.340556e+01  -2.386647e+01
  -8.717362e+00   3.789314e+00
  -5.446154e+00  -7.614781e+00
   9.425766e+01   3.422424e+00
   9.540875e+01  -1.853348e+00
   8.299109e+00   7.752914e+01
  -7.293912e+01   1.195832e+02
  -1.742866e+02   6.157013e+01
  -1.704431e+02  -3.552961e+01
  -1.635561e+01  -1.384414e+02
   6.754453e+01  -1.332253e+02
   8.480750e+01  -8.883384e+01
   6.779811e+01   2.214062e+01
   3.398807e+01   3.902650e+01
  -3.264514e+00   1.497103e+01
   2.233289e+01   3.054312e+01
   2.668094e+01   2.571780e+01
   7.334260e+00   7.082867e+01
  -3.704739e+00   7.630564e+01
  -6.770882e+01   4.854010e+00
  -6.447106e+01  -9.715952e+01
  -2.307759e+00  -1.030997e+02
   6.137905e+01  -3.310253e+01
   9.786501e+01   3.619528e+01
   2.921349e+01   8.321076e+01
  -5.604202e+01   5.276217e+01
  -1.004449e+02   2.373263e+01
  -5.126395e+01  -6.521614e+01
   5.431665e+01  -6.230556e+01
   2.215812e+01  -1.101621e+01
  -2.146404e+01  -3.058149e+00
  -5.215417e+01   2.874907e+01
  -7.397446e+00  -2.727398e+01
   7.023905e+01  -6.168180e+01
   1.052542e+02  -6.386914e+01
   7.394627e+01   3.671860e+01
  -3.064356e+01   8.442808e+01
  -3.233630e+01   1.072413e+02
  -4.093383e+01   5.364885e+00
  -2.705541e+01  -7.315480e+01
   2.676576e+01  -2.202966e+01
   3.724466e+01   1.145399e+01
   3.448969e+00   5.063380e+01
  -2.802915e+00   4.832315e+01
  -2.711140e+01  -2.676625e+00
  -1.227740e+01   8.130095e+00
  -2.513354e+01  -6.396093e+00
   5.253430e+01   1.291785e+01
   7.622324e+00   2.354480e+01
  -8.733900e+00  -4.104478e+01
  -5.477609e-01  -4.918815e+01
   1.152486e+01  -2.394063e+01
   5.050604e+01   6.308703e+01
   2.076523e+01   6.553907e+01
  -1.663020e+01   7.238286e+00
  -7.012390e+01   3.375006e+00
  -2.013632e-01  -7.496797e+01
   4.123619e+01  -5.013351e+01
   8.600740e+01   1.596427e+01
   3.498505e+01   3.461609e+01
  -2.133737e+01   1.551764e+01
  -7.938433e+01   1.467039e+01
  -1.428511e+01   2.854996e+00
   1.059238e+01   6.197627e+00
   2.583825e+01   1.956331e+01
  -2.720703e+01   5.623454e+01
  -6.724439e+01   7.403048e+00
