
 $NMID
 id='ANONYMOUS ', fmtdat='(2E16.6)'
 volume=1.0
 tramp=1.0
 $END
   1.519015e+03   3.214318e+02
   1.308443e+03   1.282261e+03
  -2.589682e+02   1.122649e+03
  -8.155948e+02   4.239730e+02
  -4.806475e+02  -4.220034e+02
   2.470225e+02  -2.680593e+02
   4.564684e+02   2.162937e+02
  -8.994685e+01   4.490115e+02
  -4.258424e+02   3.023554e+02
  -5.505833e+02  -4.382950e+01
  -1.877259e+02  -4.017760e+02
   1.838987e+02  -3.925341e+02
   2.856863e+02  -6.399809e+01
   1.722904e+02   3.282367e+02
  -9.557930e+01   2.803363e+02
  -2.906758e+02  -4.054686e+01
  -1.495041e+02  -2.750353e+02
   1.491548e+02  -2.871294e+02
   3.445869e+02  -5.078488e+01
   2.417763e+02   1.959019e+02
  -2.800946e+01   2.112396e+02
  -1.271090e+02   1.299095e+02
  -8.009180e+01  -3.466146e+00
   2.150287e+01  -2.706205e+01
   1.489737e+02   7.050775e+01
   4.461169e+01   2.133665e+02
  -2.222027e+02   1.596500e+02
  -3.775515e+02  -5.579255e+01
  -2.255174e+02  -3.199844e+02
   2.334969e+02  -1.301162e+02
   2.855752e+02   4.253966e+01
   1.821250e+02   2.553760e+02
  -1.236925e+02   1.737813e+02
  -3.101951e+02   6.341105e+01
  -1.480110e+02  -7.516017e+01
  -5.012985e+01  -1.606617e+02
   6.569842e+01  -1.284574e+02
   5.777403e+01   9.303612e+01
  -9.016034e+01   2.204685e+02
  -1.584786e+02  -4.072295e+01
  -9.485209e+01  -3.081072e+02
   1.019895e+02  -3.062345e+02
   2.529811e+02   3.872569e+00
   4.595417e+01   2.569064e+02
  -1.825728e+02   1.459007e+02
  -1.255567e+02  -1.387776e+02
   8.730325e+01  -2.614666e+02
   2.718339e+02  -1.194990e+01
   2.615581e+02   2.296427e+02
   7.661644e+01   2.796143e+02
  -1.536276e+02   1.627119e+02
  -3.031176e+02  -6.702576e+01
  -9.637299e+01  -1.352103e+02
   3.177899e+01  -1.964261e+02
   1.989140e+02  -1.516056e+01
   1.030249e+02   8.414486e+01
  -8.719693e+01   4.060537e+01
  -8.311459e+01  -8.301294e+01
   3.466796e+01  -8.237559e+01
   1.667563e+02   1.485094e+01
   3.849976e+01   1.223246e+02
  -1.295826e+02   1.209459e+02
  -1.840530e+02  -1.685270e+00
  -1.218077e+02  -4.935953e+01
   3.155556e+01  -1.095981e+02
   1.547538e+02  -1.237678e+02
   1.637904e+02  -3.295202e+01
   1.398384e+02   1.342311e+02
   4.175142e+01   2.396123e+02
  -1.113641e+02   2.056231e+02
  -6.408411e+01   8.978479e+01
  -1.174923e+01   3.274995e+00
  -2.631900e+01   5.399620e+01
  -1.063148e+02   2.564833e+01
  -1.411837e+02  -4.204087e+01
  -6.988327e+01  -1.404966e+02
   4.381419e+01  -8.840234e+01
   1.105584e+02   2.426982e+01
   9.310055e+01   1.386644e+02
  -4.379301e+01   1.213053e+02
  -1.791739e+02   5.434296e+01
  -1.282717e+02  -1.152109e+02
  -4.944378e+01  -1.899040e+02
   8.676300e+01  -1.819515e+02
   1.247563e+02  -3.013404e+01
   4.483443e+01   1.294937e+01
   6.117369e+01  -4.948795e+00
   8.602199e+01  -3.336044e+01
   1.963447e+02   6.396113e+01
   1.301974e+02   1.389615e+02
   1.150906e+01   2.456418e+02
  -1.691076e+02   1.330686e+02
  -2.537960e+02   4.124855e+01
  -1.989032e+02  -6.292682e+01
  -1.854810e+00  -1.492836e+02
   4.909141e+01  -1.422641e+02
   5.912970e+01  -3.060567e+01
  -4.850123e+01   3.103051e+01
  -9.875816e+01  -1.159392e+01
  -4.880869e+01  -9.300034e+01
   1.026322e+02  -6.015449e+01
   5.161440e+01   1.771686e+01
  -2.878125e+01   9.964683e+01
  -8.880639e+01   1.128388e+01
  -1.083285e+02  -1.338230e+02
  -2.774183e+01  -1.833703e+02
   1.280739e+02  -5.225936e+01
   1.331706e+02   1.341954e+01
   1.203148e+02   1.257641e+02
   2.600471e+01   1.204909e+02
  -6.679351e+01   8.413391e+01
  -8.158807e+01   3.039801e+01
  -7.014853e+00  -3.091535e+01
   3.778123e+01   2.139920e+01
  -8.158036e-01   2.087750e+01
  -3.908824e+01   5.066172e+01
  -4.800616e+01  -1.509503e+01
  -9.253178e+00  -5.245489e+00
   4.105498e+01   7.166701e+00
   1.587270e+01   5.541698e+01
  -1.099409e+02   1.504252e+01
  -1.329119e+02  -1.731142e+01
  -9.014977e+01  -1.194739e+02
  -2.241044e+01  -1.055049e+02
   9.699801e+01  -9.026765e+01
   1.526688e+02  -3.167131e+00
   5.837563e+01  -2.212848e+00
  -1.036764e+01   4.281324e+01
  -4.395965e+01  -7.502230e+00
   2.367079e+01  -5.276131e+01
   9.502735e+01  -4.291900e+00
   8.540057e+01   7.228807e+01
   5.685713e+01   8.519186e+01
  -4.234814e+01   5.725242e+01
  -7.995177e+01  -1.858973e+01
  -2.679606e+01  -1.078387e+01
  -5.653601e+00  -1.991590e+01
   7.001760e+00   5.179487e+01
  -1.267111e+01   5.997657e+01
  -1.299224e+02  -1.555092e+01
  -1.584759e+02  -3.780889e+01
   1.913209e+01  -1.302427e+02
   1.115476e+02  -6.745466e+01
   6.886410e+01   2.597993e+01
  -1.795601e+01   3.920324e+01
  -5.206140e+01   5.943021e+01
  -5.352874e+01  -1.444616e+00
  -1.855055e+01  -1.005228e+01
   1.565886e+01   3.256784e+00
  -7.847687e+00   2.445574e+01
  -5.558122e+01  -2.619405e+01
  -3.472806e+01  -3.868653e+01
   9.410371e+00  -9.290912e+01
   3.850912e+01  -6.208541e+01
   1.538935e+02  -2.697011e+01
   1.096962e+02   5.906605e+01
   4.234094e+01   1.642400e+02
  -7.159533e+01   8.472942e+01
  -5.410936e+01  -2.594062e+01
  -4.668392e+01  -2.479556e+01
  -1.275681e+01   9.514901e+00
  -2.193196e+01   1.116986e+01
  -2.502647e+01  -3.022816e+00
  -1.346004e+00  -3.381522e+01
   3.651971e+01  -3.248182e+01
   6.064613e+01  -3.991670e+01
  -1.086041e+00   2.998515e+01
  -2.601091e+01   5.636761e+01
  -1.115543e+02   5.888406e+01
  -8.158339e+01  -6.126961e+01
  -2.585726e+01  -1.077154e+02
   7.789640e+01  -1.375167e+02
   9.357776e+01  -5.323170e+01
   1.162585e+02   6.260412e+01
   5.421684e+01   9.169591e+01
  -1.239771e+01   5.353764e+01
  -7.734698e+01   5.133613e+01
  -5.286544e+01   2.082222e+01
  -3.907112e+01   2.629112e+01
  -4.355525e+01   1.596365e+01
  -9.387618e+01  -8.251209e+00
  -9.837102e+00  -7.697161e+01
  -2.118712e+01  -1.120811e+02
   4.172367e+01  -8.214730e+01
   8.743999e+01  -2.540275e+00
   2.914980e+01   5.853223e+01
  -1.328713e+01   6.437363e+01
  -3.365885e+01   6.333530e+01
  -5.844326e+01  -9.641241e+00
  -3.321351e+00  -2.435247e+01
   9.085955e+00  -5.593201e+00
  -2.357541e+01  -5.488557e+00
  -2.964026e+01  -2.728962e+01
  -4.384965e+01  -1.685810e+01
   2.589907e+01  -2.338768e+01
   5.216723e+01   3.946618e+01
   7.203160e+01   1.767026e+01
  -1.561657e+01   3.518447e+01
  -6.560715e+01   9.184527e+00
  -7.884793e+01   1.415079e+01
  -1.330579e+01   1.687558e+00
   3.436296e+01  -2.510087e+00
   4.615036e+01  -1.963881e+01
  -1.602280e+01   2.678697e+01
  -3.638568e+01   4.630977e+01
  -5.774285e+01  -9.295087e+00
  -1.759703e+01  -1.941934e+01
  -1.125648e+01  -2.409991e+01
  -2.976888e+01  -1.574746e+01
  -3.612927e+01  -3.048200e+01
   1.868113e+01  -5.746883e+01
   4.793675e+01  -1.118293e+02
   6.682285e+01  -6.831003e+01
   1.014061e+02  -8.381802e+00
   4.611088e+01   8.406544e+01
  -4.835097e+00   5.352140e+01
  -4.941486e+01   2.192566e+01
  -2.898006e+01   2.712299e+01
   4.025876e+01  -6.562601e+00
   5.509361e+01  -2.441948e+01
   4.958145e+01   4.695062e+01
  -1.912450e+01   5.822809e+01
  -9.966591e+01   2.328235e+01
  -5.013460e+01  -3.149718e+01
  -5.653584e+01  -2.707766e+01
   4.929670e+01  -3.833430e+01
   9.117554e+00   1.341162e+01
  -2.074567e+01   4.259725e+01
  -3.513747e+01  -1.076836e+01
  -1.731740e+00  -6.616902e+01
   7.185278e+01  -7.595344e+01
   4.806852e+01  -4.290728e+01
   6.228206e+01   9.416283e+01
  -1.888341e+01   8.675962e+01
  -1.973379e+01   5.001702e+01
  -6.644286e+01  -3.860130e+00
  -3.110173e+01  -5.242276e+01
  -1.360626e+01  -3.630923e+01
   9.373589e-01  -1.600501e+01
   1.567154e+01   2.854562e+01
   3.873021e+01  -4.617856e+00
   1.780782e+00  -1.335706e+00
   2.618051e+01  -1.507361e+00
   1.936223e+01   5.264923e+01
   1.577389e+01   3.700478e+01
  -3.707352e+01  -2.539260e+01
  -4.516133e+01  -4.041471e+01
  -7.368095e+01  -3.483074e+01
  -2.010731e+01  -2.604496e+01
   1.344867e+01  -1.637678e+01
   5.898936e+01  -2.715369e+00
   1.046389e+01   1.418490e+01
  -3.517824e+01   1.037385e+01
  -9.451963e+00   2.427186e+01
   3.672655e+01   3.901054e+00
   5.731833e+00  -1.036357e+01
  -4.214620e+01  -1.922706e+01
  -4.005166e+01  -1.552075e+01
  -3.394628e+00  -4.953747e+01
   3.679375e+01  -4.781813e+01
   8.872588e+01  -4.703719e+01
   9.020921e+01   2.640236e+01
   1.359885e+01   7.172306e+01
  -5.125290e+01   6.337462e+01
  -6.276044e+01   1.872718e+01
  -5.254604e+01  -2.804947e+01
  -1.918584e+01  -2.014112e+01
  -4.419853e+00   6.916622e+00
  -6.423926e+00  -1.028006e+00
   2.323212e+00  -3.127374e+01
   1.371897e+01  -4.393884e+01
   2.985277e+01  -3.271169e+01
   5.136189e+01   2.490067e+01
   3.475248e+01   7.636485e+01
  -8.704992e+00   1.720205e+01
  -7.583623e+01   8.293620e+01
  -5.412721e+01  -6.361490e+01
  -1.489727e+00  -6.028650e+01
   6.184884e+01  -3.470763e+01
   6.034628e+01   6.308682e+00
   2.939169e+01   3.137073e+01
  -4.892603e+01   2.905401e+01
  -1.481235e+01   5.152107e+01
   9.629949e+00   1.231036e+01
   1.432377e+01   1.096379e+01
  -1.141431e+01   3.578856e+01
  -4.234828e+01   1.079163e+01
  -6.245626e+01   3.154443e+01
  -4.283595e+01  -9.330055e+00
   2.657624e+01  -6.245390e+01
  -4.804902e+00  -1.712996e+01
   4.115229e-01  -2.629004e+01
  -9.085934e+00   4.943968e+01
  -2.764862e+01   3.652854e+01
  -1.998947e+01  -2.748473e+01
   1.412525e+01  -3.483262e+01
   1.416795e+01  -4.575413e+01
   2.965865e+01   6.671515e+00
   2.394296e+01   4.309743e+00
   9.389809e+00   1.545079e+01
  -1.799612e+01  -1.226879e+01
   1.740281e+01   1.797171e+01
  -8.381404e+00   2.756305e+01
  -6.506875e+00   1.791793e+01
  -1.843016e+01  -1.630928e+01
  -1.742712e+01  -4.992396e+01
  -6.039206e+00  -4.875171e+01
   3.465320e+01   8.351021e+00
   4.481213e+01   1.578291e+01
   3.697734e+01   3.332678e+01
  -4.644758e+01   1.863523e+01
  -4.838422e+01  -1.515866e+01
  -2.312301e+01  -2.483455e+01
   5.464612e+01  -1.046990e+01
   4.033897e+01  -1.171670e+01
  -1.024527e+01   1.225872e+01
   9.602747e-02   1.003082e+01
  -1.976978e+01  -1.925630e+01
   3.870888e+01  -2.754207e+01
   7.810220e+01   1.105870e+01
