
 $NMID
 id='ANONYMOUS ', fmtdat='(2E16.6)'
 volume=1.0
 tramp=1.0
 $END
   3.059143e+03   1.461002e+02
   1.733021e+03   1.825385e+03
  -3.442361e+02   1.853646e+03
  -1.330270e+03   9.344505e+02
  -8.762813e+02  -2.135881e+02
   1.648802e+02  -2.207299e+02
   3.265680e+02   2.101396e+02
   1.541023e+02   5.637509e+02
  -4.670272e+02   4.610428e+02
  -6.347246e+02   9.987029e+00
  -2.205011e+02  -5.652812e+02
  -5.171119e+01  -6.559238e+02
   2.572971e+02  -5.008891e+01
   1.384880e+02   4.021975e+02
  -4.061945e+01   5.053461e+02
  -4.137891e+02   5.859063e+01
  -2.832174e+02  -4.862624e+02
   2.607240e+02  -4.574323e+02
   3.792907e+02  -1.194249e+02
   3.468724e+02   2.538349e+02
   1.404887e+00   3.317370e+02
  -1.502425e+02   1.804970e+02
  -1.130984e+02   4.970835e+01
   1.313621e+02   1.452313e+01
   2.199241e+02   2.271013e+02
   1.531252e+01   3.056604e+02
  -3.534655e+02   1.773343e+02
  -5.318548e+02  -2.391724e+02
  -2.740605e+02  -4.472366e+02
   3.020716e+02  -1.448780e+02
   4.264257e+02   1.063744e+02
   1.272732e+02   2.994022e+02
  -2.168263e+02   2.987731e+02
  -4.097037e+02   2.495774e+01
  -2.924029e+02  -1.794642e+02
  -1.045194e+02  -2.829312e+02
   5.999391e+01  -1.848555e+02
  -1.455785e+01   6.941180e+01
  -1.771923e+02   2.487752e+02
  -2.197111e+02  -8.024676e+01
   2.765373e+01  -3.897912e+02
   3.566779e+02  -4.219948e+02
   3.370360e+02   3.221498e+00
   5.131021e+01   3.674940e+02
  -2.043600e+02   1.753453e+02
  -1.809498e+02  -2.514472e+02
   1.027887e+02  -3.542586e+02
   3.864977e+02  -4.407924e+01
   4.227252e+02   4.411762e+02
   1.255270e+02   4.276001e+02
  -2.255698e+02   2.358489e+02
  -3.627917e+02  -5.527357e+01
  -3.053170e+02  -2.407247e+02
   7.688355e+01  -2.135187e+02
   2.736447e+02   3.447364e+01
   1.869010e+02   9.111680e+01
  -3.907027e+01   2.218316e+01
  -4.644262e+01  -7.109765e+01
   1.410122e+02  -5.294453e+01
   1.698584e+02   9.815884e+01
   6.019815e+01   1.309723e+02
  -1.758356e+02   2.279385e+02
  -3.209283e+02   9.893540e+01
  -1.895707e+02  -1.008292e+02
   7.947499e+01  -2.287925e+02
   2.119099e+02  -2.795469e+02
   2.905712e+02  -9.513089e+01
   2.208539e+02   1.769730e+02
   2.446367e+01   3.092838e+02
  -7.924491e+01   2.789649e+02
  -2.037835e+01   1.177074e+02
  -4.162017e+01   2.601395e+01
  -1.027346e+02   9.032962e+01
  -1.957347e+02   2.980865e+01
  -1.722534e+02  -1.406887e+02
  -5.506836e+01  -2.148464e+02
   1.033392e+02  -1.312660e+02
   1.611667e+02   1.804639e+01
   1.218097e+02   2.282701e+02
  -4.460213e+01   1.708825e+02
  -2.490819e+02   5.510020e+01
  -2.717462e+02  -1.502115e+02
  -1.233439e+02  -2.988186e+02
   4.360623e+01  -2.446149e+02
   1.549387e+02  -8.846264e+01
   1.300673e+02  -5.853612e+01
   8.993844e+01  -4.961922e+01
   2.031718e+02  -5.651258e+01
   3.329507e+02   6.628805e+01
   2.951519e+02   3.454960e+02
  -2.043596e+01   3.612953e+02
  -3.670794e+02   3.137382e+02
  -4.351421e+02   2.082046e+02
  -2.336843e+02  -1.522483e+02
  -3.038419e+01  -1.991069e+02
   1.165302e+02  -1.441226e+02
   2.548441e+01  -4.855417e+01
  -7.925923e+01   5.870751e+01
  -1.145631e+02  -5.145114e+01
  -1.509299e+01  -1.569916e+02
   1.122554e+02  -1.321682e+02
   1.290208e+02   7.181705e+01
  -7.891383e+01   1.166735e+02
  -1.656823e+02  -3.578061e+00
  -1.267349e+02  -2.098830e+02
   3.685291e+01  -2.547072e+02
   2.022716e+02  -1.751998e+02
   2.670655e+02   1.062037e+02
   2.103727e+02   2.149704e+02
   5.967772e+01   2.350591e+02
  -1.211816e+02   1.312747e+02
  -1.275929e+02  -1.414420e+01
  -6.654942e+00  -2.529261e+01
   3.794965e+01   4.218002e+01
  -2.992272e+01   8.678683e+01
  -1.533121e+02   2.434342e+01
  -1.304100e+02  -2.564360e+01
  -4.307046e+01  -2.676356e+01
   5.970374e+01   5.487425e+00
   1.064520e+01   6.099777e+01
  -1.537100e+02   6.519790e+01
  -2.748066e+02  -1.457148e+00
  -1.858842e+02  -1.452259e+02
   4.520402e+00  -2.548116e+02
   1.795501e+02  -1.883867e+02
   2.413830e+02  -8.279861e+01
   1.299582e+02   6.983488e+01
  -3.135607e+00   9.438005e+01
  -7.908570e+01  -1.598523e+01
   3.329950e+01  -7.653744e+01
   1.689948e+02  -1.684645e+01
   1.317635e+02   1.105441e+02
   1.950635e+01   1.482138e+02
  -8.676090e+01   1.547250e+02
  -1.127557e+02  -1.553032e+01
  -1.920465e+01  -5.861798e+00
   2.062952e+01   5.702072e+00
   3.575491e+01   9.513239e+01
  -3.337489e+01   1.030011e+02
  -1.876294e+02   9.628804e-01
  -1.401982e+02  -1.056806e+02
   7.269638e+00  -1.723552e+02
   1.354894e+02  -1.447738e+02
   1.391777e+02   7.607783e+00
   2.469265e+01   8.119140e+01
  -8.259339e+01   5.466358e+01
  -7.018597e+01   4.408904e+01
  -2.869816e+01  -2.812622e+01
   3.154453e+01  -2.795018e+01
  -4.184870e+01   4.743344e+00
  -7.382438e+01   2.746537e+01
  -6.316017e+01  -1.127904e+02
   7.732669e+00  -1.323860e+02
   1.035129e+02  -9.383169e+01
   1.971899e+02  -8.967749e+00
   1.796610e+02   1.744757e+02
   4.357907e+01   2.024072e+02
  -1.349562e+02   1.435584e+02
  -9.660913e+01  -4.329468e+00
  -7.632958e+01  -1.987942e+01
  -1.744657e+01  -6.624465e+01
  -4.673711e+01   1.399928e+01
  -4.229924e+01   2.979666e+00
  -6.359843e+01  -7.182999e+01
  -8.357445e+00  -8.988487e+01
   1.043539e+02  -4.610005e+01
   7.473930e+01   4.707792e+01
  -4.986707e+01   1.000018e+02
  -1.645506e+02   7.121556e+01
  -1.524537e+02  -4.944171e+01
  -4.568232e+01  -1.922346e+02
   1.168463e+02  -2.037335e+02
   2.581112e+02  -5.248102e+01
   2.220379e+02   8.203977e+01
   5.627780e+01   1.770671e+02
  -9.913578e+00   1.384428e+02
  -6.397959e+01   4.313450e+01
  -8.413128e+01   5.971177e+01
  -5.492677e+01   5.674162e+01
  -8.042629e+01   7.886449e+01
  -1.197440e+02  -6.004080e+01
  -1.071881e+02  -1.274413e+02
  -1.478858e+01  -1.665947e+02
   7.072518e+01  -1.399563e+02
   1.590257e+02  -5.080256e+00
   1.315559e+02   1.107328e+02
   3.737193e+01   1.095946e+02
  -6.616722e+01   9.131308e+01
  -5.114692e+01  -3.341735e+01
  -2.238399e+01  -7.739100e+01
   3.300614e+01  -4.268367e+01
   5.631760e+00  -3.153075e+01
  -4.714466e+01  -1.491283e+01
  -3.822926e+01  -6.100152e+01
   8.950009e+01  -3.774062e+01
   9.457504e+01   4.310344e+01
   1.064571e+02   5.051531e+01
  -1.026163e+01   8.001819e+01
  -1.149087e+02   4.557092e+01
  -1.728498e+02   1.840207e+01
  -1.577553e+01  -2.458724e+01
   4.526754e+01  -3.818974e+01
   6.066561e+01  -1.648000e+01
   1.658139e+01   6.923052e+01
  -2.776810e+01   7.159827e+01
  -4.313937e+01  -2.076832e+01
  -2.015806e+01  -2.249911e+01
  -2.394585e+01  -2.642381e+01
  -4.246567e+01   1.491141e+01
  -5.950883e+01   3.133426e+00
  -2.184584e+01  -8.019158e+01
   2.462360e+01  -1.181689e+02
   1.038808e+02  -1.152419e+02
   1.699765e+02  -4.108186e+01
   1.006073e+02   1.005378e+02
  -3.606651e+01   1.107171e+02
  -8.372145e+01   4.724779e+01
  -3.386906e+01  -1.548325e+00
   4.888549e+01   7.156574e+00
   1.233281e+02   2.111889e+01
   7.494235e+01   7.024494e+01
  -7.315945e+01   1.077849e+02
  -1.851000e+02   4.881577e+01
  -1.146411e+02  -1.174403e+01
  -3.345298e+01  -7.827983e+01
   5.532600e+01  -5.936377e+01
   4.852370e+01  -5.022667e+00
  -4.543002e+01   4.472776e+01
  -5.517763e+01  -3.593522e+01
  -1.085930e+01  -9.996579e+01
   8.516020e+01  -1.362020e+02
   1.572583e+02  -6.446283e+01
   7.304174e+01   7.824342e+01
   2.552308e+01   1.567478e+02
  -7.836235e+01   1.108905e+02
  -6.285122e+01  -1.252100e+01
  -3.819968e+01  -1.128469e+02
  -2.315544e+01  -7.245702e+01
   1.679643e+01   6.486284e+00
   1.576060e+01   3.194082e+01
   1.214970e+01   1.274104e+01
   9.308403e-01   1.787838e+00
   2.562683e+01   2.211898e+01
   4.647304e+01   7.259889e+01
   2.541650e+00   1.001930e+02
  -3.740399e+01   4.634236e+01
  -9.518147e+01  -2.469534e+01
  -1.220042e+02  -6.685919e+01
  -1.761375e+00  -3.768716e+01
   5.860767e+01   3.073819e+00
   5.718468e+01  -6.146246e+00
   1.517384e+01   3.514264e+01
  -5.055030e+01   1.436906e+01
  -2.499506e+01   5.518253e+00
   4.730270e+00  -2.657026e+01
   1.460986e+01  -2.647285e+01
  -6.061353e+01  -9.900811e+00
  -8.440472e+01  -1.457683e+01
   1.010855e+01  -1.008805e+02
   8.275948e+01  -6.946772e+01
   1.456685e+02  -4.157974e+01
   1.427167e+02   5.271448e+01
   1.075911e+01   1.572529e+02
  -9.451325e+01   9.323512e+01
  -1.238871e+02   4.322698e+01
  -4.168199e+01  -5.853315e+01
  -2.422569e+01  -3.351231e+01
   7.094567e+00  -1.054286e+01
  -1.458007e+01  -2.286474e+01
  -8.263273e+00  -4.836318e+01
  -2.060362e+01  -8.064297e+01
   1.297241e+01  -8.754525e+01
   5.477906e+01  -1.308473e+01
   7.414544e+01   1.085823e+02
  -4.389677e+00   7.609734e+01
  -5.934413e+01   1.150011e+01
  -9.098922e+01  -6.889537e+01
  -3.287180e+01  -9.067152e+01
   5.137547e+01  -5.410396e+01
   8.751850e+01   3.887245e+01
   2.628145e+01   2.439923e+01
  -5.973999e+01   4.085178e+01
  -4.761572e+01   2.882885e+01
   5.916627e+01   2.485959e+01
   7.992818e+01   2.454036e+01
   2.948708e+01   5.137913e+01
  -1.088432e+02   3.395739e+01
  -1.035790e+02   3.070926e+01
  -3.919297e+01  -5.805586e+01
   3.390130e+01  -4.400098e+01
   3.772392e+01  -8.914028e+01
   3.008977e+01   1.909808e+01
  -2.604317e+01   5.970043e+01
  -2.665398e+01   2.388440e+01
  -2.367006e+01   6.294851e+00
  -2.579266e+01  -2.804698e+01
   1.228803e+01  -5.237120e+01
   3.280506e+01   9.559664e-01
   1.896795e+01   2.415277e+01
   2.653589e+01   1.489453e+01
  -3.299002e+01  -1.757917e+01
   1.536971e+01  -2.966611e+01
  -1.352620e+01   4.531138e+01
  -3.609161e+01   4.625660e+01
  -1.639145e+00   2.934155e+01
  -3.220599e+01  -5.488344e+01
   1.545525e-01  -4.662151e+01
   2.294277e+00  -1.854833e+01
   8.061454e+01   2.252150e+01
   1.676149e+01   4.887502e+01
  -6.365617e+01   8.081571e+00
  -6.385314e+01  -4.378651e+01
  -3.576664e+01  -7.439506e+01
   7.149215e+00  -5.212139e+01
   6.422928e+01   3.622594e+00
   2.089197e+01   7.224913e+00
  -3.777197e+01   2.322493e+01
  -1.932125e+01  -3.368948e+01
   2.869309e+01  -7.985574e+00
   4.101072e+01  -1.938837e+01
