
 $NMID
 id='ANONYMOUS ', fmtdat='(2E16.6)'
 volume=1.0
 tramp=1.0
 $END
  -2.382003e+03  -7.745697e+01
  -1.593611e+03  -1.203500e+03
   2.542237e+02  -1.479712e+03
   1.163855e+03  -9.699307e+02
   7.429689e+02  -3.532308e+01
  -3.163264e+01   2.443985e+02
  -4.419705e+02   1.123115e+01
  -1.168663e+02  -4.865068e+02
   3.441347e+02  -5.214785e+02
   4.523222e+02  -2.180980e+01
   3.409481e+02   4.903255e+02
   7.909081e+01   5.637227e+02
  -3.637844e+02   2.039472e+02
  -1.887034e+02  -2.988604e+02
   2.915958e+01  -5.221055e+02
   3.639620e+02  -3.170510e+01
   1.530982e+02   3.829970e+02
  -1.334766e+02   5.336252e+02
  -4.002372e+02   2.633208e+02
  -3.609560e+02  -2.023687e+02
  -3.601124e+01  -2.831977e+02
   1.260679e+02  -2.288717e+02
   8.871955e+01  -6.917204e+01
  -9.977450e+01  -6.029663e+01
  -1.970025e+02  -1.576536e+02
  -1.044207e+01  -2.332035e+02
   2.942853e+02  -1.622996e+02
   4.003975e+02   2.260077e+02
   1.792888e+02   3.131832e+02
  -1.353533e+02   2.941948e+02
  -4.088362e+02  -2.289587e+01
  -1.889579e+02  -2.952822e+02
   1.830094e+02  -2.460381e+02
   3.637943e+02  -1.087124e+02
   2.734813e+02   1.571497e+02
   1.054668e+02   1.880529e+02
  -2.179820e+01   1.621498e+02
  -8.227666e-01  -1.050208e+02
   1.155622e+02  -1.504799e+02
   1.582249e+02   2.233463e+00
   7.571739e+01   3.451175e+02
  -1.962193e+02   4.369731e+02
  -2.848700e+02   6.727741e+01
  -1.603943e+02  -2.033988e+02
   1.255653e+02  -1.167976e+02
   2.377539e+02   1.857882e+02
  -8.579103e+01   3.320406e+02
  -2.801891e+02   7.320250e+01
  -3.437662e+02  -2.963098e+02
  -1.537167e+02  -4.423755e+02
   2.365219e+02  -2.110645e+02
   4.394680e+02   7.395373e+00
   2.886150e+02   1.825923e+02
  -6.572969e+01   2.028057e+02
  -2.088713e+02   7.696577e+01
  -1.606720e+02  -3.984370e+01
  -1.118948e+01  -2.447862e+01
   1.135834e+02   3.437369e+01
  -2.077334e+01   5.974127e+01
  -1.596938e+02  -2.554655e+01
  -5.958565e+01  -1.710730e+02
   1.700722e+02  -1.787104e+02
   2.559323e+02  -6.877310e+01
   1.883557e+02   1.050494e+02
  -9.540609e+01   2.468419e+02
  -1.871853e+02   2.986996e+02
  -2.398315e+02   1.462813e+02
  -1.666923e+02  -1.402303e+02
  -1.559402e+01  -2.986650e+02
   8.175558e+00  -2.342533e+02
   5.693792e+01  -1.485832e+02
   4.979035e+01  -7.126420e+01
   9.054470e+01  -9.537415e+01
   1.425922e+02  -4.884918e+01
   2.102571e+02   8.744481e+01
   7.355121e+01   1.723783e+02
  -9.434086e+01   1.262427e+02
  -1.414046e+02  -8.732888e+00
  -8.322333e+01  -1.807126e+02
   1.095669e+01  -1.657901e+02
   1.755554e+02  -7.634169e+01
   2.920644e+02   1.044511e+02
   1.303285e+02   2.276240e+02
  -2.817308e+01   2.156870e+02
  -1.421212e+02   1.258847e+02
  -1.001165e+02   4.289620e+01
  -1.005730e+02   2.154958e+01
  -1.918125e+02   4.556641e+01
  -2.907504e+02  -6.431655e+01
  -1.698957e+02  -2.162115e+02
  -3.501597e+00  -3.584527e+02
   3.001572e+02  -2.548787e+02
   3.711771e+02  -1.145753e+02
   1.710480e+02   4.640420e+01
   4.082780e+01   1.752472e+02
  -6.952469e+01   1.416346e+02
  -1.663764e+01   2.367615e+01
   9.698325e+01  -4.437324e+01
   1.047146e+02   5.791943e+01
   3.510196e+01   1.329947e+02
  -6.199891e+01   1.193916e+02
  -6.992551e+01  -2.830868e+01
   5.187484e+00  -1.190303e+02
   1.286866e+02   1.295293e+01
   1.023752e+02   2.091274e+02
  -1.773609e+01   2.442750e+02
  -1.667638e+02   1.257726e+02
  -2.576961e+02  -7.093144e+01
  -1.468767e+02  -2.042340e+02
  -7.085588e+01  -1.951655e+02
   1.174110e+02  -9.414769e+01
   1.302003e+02  -2.338594e+01
   4.591722e+01   4.069664e+01
  -3.564445e+01  -4.829872e+01
   1.663133e+00  -6.070583e+01
   9.537816e+01  -4.245150e+01
   1.128072e+02   2.495525e+01
   2.322618e+01   3.408193e+01
  -6.155393e+01  -2.083768e+01
   1.422250e+01  -7.540707e+01
   1.296818e+02  -7.840228e+01
   2.581199e+02   8.723925e+00
   2.029601e+02   1.100784e+02
   1.186316e+01   1.791843e+02
  -1.116520e+02   1.779467e+02
  -1.516801e+02   4.867756e+01
  -7.945073e+01  -2.827801e+01
  -1.470028e+01  -5.947768e+01
   3.420494e+01  -5.796387e+00
  -2.292375e+01   4.579019e+01
  -1.240042e+02   3.456873e+01
  -1.640893e+02  -1.089473e+02
  -2.853861e+01  -1.862427e+02
   3.192144e+01  -1.032946e+02
   9.888805e+01  -1.154014e+01
   3.956140e+01  -1.777304e-01
  -3.706350e+01  -4.189380e+01
  -1.506892e+01  -9.117009e+01
   7.698610e+01  -5.993969e+01
   1.581243e+02  -3.151298e+01
   1.398422e+02   8.427448e+01
  -4.221836e+00   1.202283e+02
  -8.921467e+01   1.081059e+02
  -1.382239e+02  -3.026048e+00
  -5.689279e+01  -6.265023e+01
   4.001616e+01  -5.141135e+01
   8.764060e+01  -2.792935e+01
  -2.599402e+01   1.324035e+01
  -3.273342e+01  -1.415207e+01
   2.368188e+01  -3.644508e+01
   5.121970e+01   4.830741e+01
   5.693227e+01   3.926660e+01
  -2.547329e+01   1.330804e+02
  -8.464708e+01   1.019442e+02
  -2.077111e+02   4.100570e+00
  -1.226233e+02  -1.169896e+02
  -1.263496e+01  -1.461028e+02
   7.834345e+01  -1.584077e+02
   8.019580e+01  -1.975359e+01
   9.755346e+01   3.274363e+01
   4.755350e+01   4.708177e+01
   3.401022e+01  -8.057449e+00
   3.698583e+01  -4.185768e+00
   8.605760e+01   6.848107e+01
  -1.384188e+01   7.905301e+01
  -1.203000e+02   5.690470e+01
  -6.636619e+01  -1.582058e+01
   1.288026e+01  -1.034339e+02
   1.528916e+02  -8.166842e+01
   1.631626e+02   2.913419e+01
   7.905081e+01   1.586725e+02
  -6.546651e+01   1.535618e+02
  -1.714403e+02   1.009125e+02
  -1.981852e+02  -1.052206e+02
  -4.736056e+01  -9.363593e+01
   2.899879e+01  -9.242855e+01
   8.764756e+01  -5.571756e+01
   8.789284e+01  -4.068222e+01
   3.270646e+01  -8.648780e+01
   3.873447e+01  -4.794996e+01
   7.545655e+01   3.741747e+01
   4.240192e+01   1.092935e+02
   1.211976e+01   1.244962e+02
  -5.086058e+01   1.667669e+02
  -1.025304e+02  -1.646147e+01
  -7.723853e+01  -5.033128e+01
  -2.320631e+01  -1.332701e+02
   6.475268e+01  -7.197796e+01
   2.771238e+01   1.189589e+01
  -8.862173e+00   4.048186e+01
  -9.427861e-01   2.024233e+01
   2.706537e+01  -8.398408e-01
   7.109833e+01  -7.237724e+00
   2.759415e+01   3.269604e+01
  -4.699020e+01   2.559302e+01
  -1.311929e+02   4.243793e+00
  -1.248013e+02  -8.283337e+01
  -8.216272e+00  -5.500951e+01
   1.118301e+02  -3.016698e+01
   9.927523e+01  -1.741696e+01
   4.746153e+01   4.253934e+01
  -6.088239e+01   1.650289e+01
  -7.024731e+01   1.912542e+01
  -1.326065e+01  -2.853852e+01
   3.529609e+01  -3.581023e+01
   3.929810e+01  -7.547155e+00
  -1.544149e+01   4.442246e+01
   3.775429e+01   4.133531e+01
   1.594672e+01   1.241558e+01
   4.129462e+01   2.564815e+01
   1.680822e+01   4.032335e+01
  -3.569761e+01   9.375583e+01
  -9.629214e+01   9.934081e+01
  -1.259891e+02   8.736318e+00
  -8.393584e+01  -7.480814e+01
   5.415205e+00  -8.124583e+01
   6.507648e+01  -2.656423e+01
   2.819076e+01   2.198305e+01
  -4.545440e+01  -2.055391e+00
  -9.933456e+01  -3.323999e+01
  -8.223237e+01  -9.625610e+01
   7.220636e+01  -1.087386e+02
   1.352934e+02  -1.505410e+01
   1.305802e+02   4.889210e+01
  -1.698342e+01   8.283644e+01
  -2.858019e+01   1.456163e+01
  -1.928837e+01   1.918334e+01
   3.551820e+01  -2.521056e+01
   8.039500e+01   3.269569e+01
   1.984682e+01   9.929930e+01
  -4.998392e+01   1.033924e+02
  -1.144757e+02   5.059761e+01
  -1.186775e+02  -5.476131e+01
   5.527310e+00  -1.515651e+02
   6.256323e+01  -1.085307e+02
   1.111690e+02  -2.960325e-01
   4.127250e+01   4.724191e+01
   2.278575e+01   5.318885e+01
  -4.465981e+01   1.473322e+01
  -3.902710e+01  -2.372070e+01
  -2.144952e+01   1.432952e+00
   1.473206e+01   1.201788e+01
  -1.011620e+01  -1.643945e+01
  -3.785295e+01  -8.227618e+01
  -4.184777e+00  -7.242017e+01
   6.209851e+01  -3.818524e+01
   1.149493e+02   2.226153e+00
   7.884014e+01   5.773252e+01
   3.521911e+01   3.433967e+01
  -6.970430e+01  -4.411776e+00
  -4.481277e+01   6.311619e+00
  -2.955303e+01  -1.549500e+01
   2.020551e+01   1.901430e+01
   4.523542e+00  -2.059433e+01
  -4.493130e+00   6.372543e+00
  -5.920641e+00   1.903871e+01
   4.506510e+01  -5.014429e-01
   6.973911e+01   1.784738e+01
  -6.178310e+00   5.148702e+01
  -7.978076e+01   9.248889e+01
  -1.295266e+02   6.191934e+01
  -9.349479e+01  -7.178236e+01
  -2.198948e+00  -1.261136e+02
   4.385583e+01  -9.196317e+01
   6.542473e+01  -4.657017e+01
   5.980606e+01   3.032971e+01
   2.649950e+01   4.766210e+01
  -3.212959e+01   1.086019e+01
   1.932105e+00  -7.303543e+00
   2.751294e+01   3.549561e+01
   1.300013e+01   7.178296e+01
  -1.762756e+01   3.000598e+01
  -8.856578e+01  -1.484321e+01
  -3.305962e+01  -6.551471e+01
   4.080432e+01  -9.498963e+01
   5.669457e+01  -1.896869e+01
   8.918065e+01   3.411299e+01
   3.094646e+01   4.591319e+01
  -4.616826e+01   4.004395e+01
  -6.087937e+01   5.953077e+00
  -3.654426e+01  -3.203227e+01
   3.379660e+01  -5.427144e+01
   3.817760e+01  -7.041730e+00
  -2.791693e+01   3.253619e+01
  -3.534934e+01   2.024889e+01
  -5.966290e-01  -9.409773e+00
   4.526068e+01  -5.235667e+01
   1.083456e+02  -3.295921e+01
   5.042709e+01   2.947688e+01
   1.382714e+01   7.483770e+01
  -5.643167e+01   4.930272e+01
  -2.063688e+01  -7.848323e+00
   9.137820e+00  -3.542165e+01
   2.643832e+01  -4.730343e+01
   5.237923e+00   1.539306e+01
   2.739178e+01   1.908136e+01
  -1.778755e+01   1.791490e+01
  -3.815397e+01  -1.937819e+01
  -2.906482e+01  -2.922501e+01
  -2.604156e+01  -1.078743e+01
   1.665529e+01   1.059619e+01
  -1.594503e+01   1.171264e+01
   1.135549e+01  -3.385716e+01
   2.720915e+00  -2.746407e+01
   6.072407e+00  -2.455022e+01
   2.758853e+01   1.276333e+01
   9.231496e+00   6.207689e+01
  -4.655920e+01   5.872035e+00
  -2.714602e+01  -2.741682e+01
  -2.621103e+01  -5.426204e+01
   5.846211e+01  -3.637811e+01
   5.792604e+01   4.307483e+01
   3.422483e+01   5.443957e+01
  -1.077409e+01   3.853311e+01
  -5.441006e+01   3.089376e+01
  -3.448076e+01   2.840559e+01
   2.917262e+01   9.258568e+00
   2.170852e+01   5.558004e+00
  -2.035901e+01   2.928571e+01
  -4.151942e+01  -1.600423e+01
