
 $NMID
 id='ANONYMOUS ', fmtdat='(2E16.6)'
 volume=1.0
 tramp=1.0
 $END
   2.058169e+03  -1.760016e+00
   1.505506e+03   1.114521e+03
  -1.221042e+01   1.462085e+03
  -9.613358e+02   7.972395e+02
  -5.019999e+02   6.031907e+01
   1.229811e+02  -2.613718e+02
   3.514409e+02   1.806235e+00
   5.058911e+01   4.673187e+02
  -3.146447e+02   4.372971e+02
  -4.555459e+02   1.193964e+02
  -1.764370e+02  -3.400506e+02
   3.038544e+01  -5.041255e+02
   3.918754e+02  -1.934415e+02
   2.278228e+02   3.053188e+02
  -8.389274e+01   4.602446e+02
  -2.743605e+02   3.221632e+01
  -1.488328e+02  -3.284529e+02
   1.187726e+02  -5.228691e+02
   3.814489e+02  -2.184593e+02
   3.224140e+02   1.334427e+02
   2.636135e+01   2.579642e+02
  -9.107755e+01   1.712438e+02
  -5.254669e+01   5.949855e+01
   1.132025e+02   1.511677e+01
   2.059061e+02   1.188850e+02
   2.516174e+01   2.435136e+02
  -2.668868e+02   2.121369e+02
  -3.403850e+02  -6.559307e+01
  -8.489554e+01  -1.938063e+02
   2.631391e+02  -2.534553e+02
   4.363425e+02  -7.099121e+01
   1.720090e+02   2.306926e+02
  -1.712558e+02   2.937006e+02
  -3.051636e+02   1.002778e+02
  -2.398557e+02  -9.179825e+01
  -1.029734e+02  -2.369352e+02
   2.561537e+01  -1.382605e+02
  -8.922955e+00   9.585155e+01
  -7.417918e+01   1.672854e+02
  -2.287565e+02  -4.178841e+01
  -8.817414e+01  -3.406985e+02
   9.327276e+01  -3.511724e+02
   2.345385e+02   1.116709e+00
   1.640228e+02   2.239699e+02
  -8.863114e+01   1.257390e+02
  -1.550446e+02  -2.000949e+02
   1.003844e+01  -2.689829e+02
   2.685994e+02  -2.812193e+01
   4.048095e+02   2.363776e+02
   1.631089e+02   3.324346e+02
  -1.961957e+02   2.316909e+02
  -3.726464e+02  -2.710541e+01
  -2.274998e+02  -2.477732e+02
   4.196834e+01  -1.274278e+02
   2.353952e+02  -7.125519e+01
   1.527987e+02   1.094368e+01
  -1.116502e+01   2.854510e+01
  -7.891704e+01  -4.966074e+01
   7.480955e+01  -5.531325e+01
   2.092280e+02   7.046193e+01
   1.020973e+02   1.624759e+02
  -1.296613e+02   1.642947e+02
  -2.447227e+02   5.962266e+01
  -1.638729e+02  -8.317397e+01
   1.172075e+01  -2.120409e+02
   9.623878e+01  -2.527041e+02
   2.206953e+02  -1.413984e+02
   1.637999e+02   7.970940e+01
   8.080245e+01   2.620745e+02
  -3.832977e+01   1.617714e+02
  -2.749036e+01   9.988862e+01
  -2.357189e+01   2.608726e+01
  -6.691557e+01   7.969234e+01
  -1.209157e+02   1.214376e+02
  -1.771729e+02  -1.059754e+02
  -9.265790e+01  -1.581000e+02
   2.198339e+01  -1.495056e+02
   1.113175e+02   1.942343e+01
   1.285730e+02   1.898645e+02
   1.984829e+01   1.640835e+02
  -1.623595e+02  -9.932187e-01
  -2.354950e+02  -1.256958e+02
  -9.819191e+01  -1.752331e+02
   2.326404e+01  -2.266336e+02
   1.439272e+02  -8.238557e+01
   7.866811e+01  -3.526447e+01
   7.773694e+01  -4.583855e+01
   1.612468e+02  -2.359992e+01
   2.207562e+02   8.538301e-01
   1.522663e+02   1.864036e+02
  -1.678052e+01   3.041824e+02
  -1.984137e+02   2.577025e+02
  -2.601440e+02   1.360760e+02
  -1.975510e+02  -5.013613e+01
  -3.416571e+01  -1.675004e+02
   5.385787e+01  -1.267693e+02
   3.164950e+01  -8.847648e+00
  -1.072371e+02   7.143241e+01
  -8.932325e+01   7.967120e+00
  -1.838702e+01  -1.099168e+02
   5.966953e+01  -9.783203e+01
   7.955120e+01   2.575244e+01
   4.566599e+00   1.160658e+02
  -7.948133e+01   8.358011e+00
  -7.531117e+01  -1.556238e+02
  -5.413401e+01  -2.317482e+02
   1.148544e+02  -1.390708e+02
   2.335142e+02   2.873156e+01
   1.610198e+02   1.564693e+02
   8.650366e+01   1.605401e+02
  -8.592166e+01   8.112595e+01
  -1.389920e+02   8.046141e+00
  -7.831403e+00  -2.440219e+01
   4.873294e+01   3.369777e+01
   1.324176e+01   9.650718e+01
  -7.421086e+01   4.770036e+01
  -9.717034e+01  -1.528920e+01
  -5.665485e+01  -5.568412e+01
   3.477137e+01   2.289358e+00
  -1.417667e+01   6.228853e+01
  -1.100344e+02   4.463349e+01
  -2.297948e+02  -1.834922e+01
  -1.776938e+02  -7.268735e+01
  -2.806065e+01  -1.718261e+02
   1.137640e+02  -2.104701e+02
   1.664816e+02  -4.883567e+01
   8.418106e+01  -1.527016e+01
  -1.944700e+01   6.159836e+01
  -2.979465e+01   4.446979e+00
   3.063271e+01  -6.084603e+01
   1.137942e+02  -3.233997e+01
   1.234653e+02   2.744700e+01
   5.440182e+01   1.098709e+02
  -5.080513e+01   9.090840e+01
  -9.907416e+01   1.073786e+01
  -2.126834e+01  -1.472934e+01
   2.992974e+01   1.460888e+00
   1.652276e+01   8.244736e+01
  -6.241059e+01   6.656991e+01
  -1.330736e+02  -1.385213e+01
  -1.460426e+02  -8.537235e+01
  -1.358794e+01  -1.315729e+02
   9.903683e+01  -1.094179e+02
   8.940313e+01   8.143767e+00
   5.317417e+01   3.383836e+01
  -2.678196e+01   5.998370e+01
  -7.331337e+01   2.845288e-01
   1.623460e+01  -5.120642e+01
   2.756940e+01   3.685892e+00
  -8.093696e+00   1.518456e+01
  -7.771911e+01  -1.327823e+01
  -4.728625e+01  -5.498231e+01
  -6.958215e+00  -8.946943e+01
   4.813509e+01  -1.174263e+02
   1.610082e+02  -4.572085e+01
   1.153063e+02   1.104627e+02
   1.479696e+00   1.539076e+02
  -4.193569e+01   1.675984e+02
  -5.670161e+01   1.755024e+01
  -4.957210e+01  -4.257695e+01
  -2.987072e+01  -1.047925e+01
  -4.141407e+01   2.885082e+01
  -4.658668e+01   3.085337e+01
  -6.716265e+01  -2.247652e+01
   2.671257e+01  -5.384241e+01
   8.585838e+01  -6.152925e+01
   4.999349e+01   2.592117e+00
  -9.749695e+00   6.703846e+01
  -1.024759e+02   5.250492e+01
  -1.457443e+02  -4.069180e+01
  -5.768155e+01  -1.397477e+02
   4.758881e+01  -1.529997e+02
   1.713350e+02  -6.828598e+01
   1.558247e+02   6.928795e+01
   7.078433e+01   1.205577e+02
  -1.198547e+01   8.316788e+01
  -4.470399e+01   6.863519e+01
  -5.284622e+01   7.786732e+01
  -3.247917e+01   4.051846e+01
  -3.747086e+01   3.980137e+01
  -6.623711e+01  -1.118670e+01
  -8.331648e+01  -8.377577e+01
  -4.724175e+01  -1.431013e+02
   3.889036e+01  -1.391097e+02
   1.161318e+02   6.036519e+00
   4.364749e+01   8.600700e+01
  -1.171275e+01   1.012790e+02
  -5.621337e+01   8.080628e+01
  -4.103066e+01  -2.856822e+01
  -1.021682e+01  -4.589547e+01
   2.267624e+01  -1.271642e+01
  -1.331371e+01  -2.765234e+01
  -4.024012e+01  -3.382779e+00
  -3.778104e+01  -6.166677e+01
   2.059566e+01  -3.465086e+01
   1.202893e+02   3.815643e+00
   1.152705e+02   4.450606e+01
  -1.693612e+01   5.005353e+01
  -8.844410e+01   3.397338e+01
  -1.052487e+02   1.339467e+01
  -4.254431e+01  -3.127191e+01
   3.747746e+01  -1.539044e+01
   7.395243e+01   3.457258e+00
   9.990205e+00   4.316242e+01
  -5.152440e+01   3.059589e+01
  -2.442923e+01  -2.719455e+01
  -6.270825e+01  -2.092476e+01
  -1.303883e+01  -2.637178e+01
  -2.441179e+01   1.268304e+01
  -3.899783e+01  -6.566888e-01
  -3.349003e+01  -2.844021e+01
  -3.268864e+00  -6.927565e+01
   8.137181e+01  -1.024023e+02
   8.813700e+01  -2.048248e+01
   6.812357e+01   3.450174e+01
   7.463629e-01   9.108802e+01
  -6.695792e+01   3.546748e+01
  -4.829610e+01   1.376016e+01
   5.406049e+01  -6.041717e-02
   9.607884e+01   4.470808e+01
   6.452763e+01   7.304061e+01
  -5.645930e+01   7.947779e+01
  -1.191910e+02   9.154714e+00
  -8.154590e+01  -5.626388e+00
  -4.046490e+00  -7.510205e+01
   2.660549e+01  -2.537321e+01
   1.797277e+01  -8.686581e+00
  -8.296554e+00   3.109102e+01
  -6.900263e+01  -4.367650e+00
  -4.028648e+01  -5.714475e+01
   3.607946e+01  -1.189455e+02
   1.201251e+02  -6.958997e+01
   8.849563e+01   3.017615e+01
   1.898668e+01   1.108526e+02
  -4.081566e+01   1.243022e+02
  -7.758023e+01   1.739755e+00
  -6.173635e+01  -7.544225e+01
  -5.032690e+00  -6.623497e+01
   6.849217e+01  -2.001200e+01
   4.269345e+01   1.670566e+01
   3.276234e+00  -1.760193e+01
  -2.349511e+01  -1.586055e+01
   4.348541e+01   6.596248e+00
   2.566091e+01   4.698878e+01
   1.860163e+01   5.771924e+01
  -4.044487e+01   1.784364e+01
  -1.004112e+02  -1.130428e+01
  -7.459568e+01  -3.892157e+01
  -1.856548e+01  -5.131684e+01
   3.532900e+01  -1.882013e+01
   5.732450e+01   2.840225e+00
   2.352603e+01   1.759227e+01
  -2.997983e+01   6.725721e+00
  -2.726349e+01   6.613393e+00
  -1.892090e+00  -1.129094e+01
  -3.643650e+00  -9.152267e+00
  -8.996725e+00   2.358482e+01
  -7.553751e+01  -3.455172e+00
  -3.096689e+01  -5.583756e+01
   1.027746e+02  -9.627627e+01
   8.293202e+01  -6.719447e+01
   1.044650e+02   6.149096e+01
   1.881647e+01   9.120828e+01
  -5.927095e+01   1.007996e+02
  -5.433461e+01   6.521307e+01
  -5.674876e+01   5.271641e+00
  -4.390933e+01  -4.246275e+01
  -1.717942e+01  -1.656781e+01
  -7.544552e+00   7.979505e+00
  -3.063446e+01  -2.550093e+01
  -3.360016e+01  -9.662402e+01
   1.975198e+01  -3.989997e+01
   2.115142e+01   1.692028e+01
   5.086262e+01   1.015752e+02
   2.476779e+01   7.207903e+01
  -4.172801e+01   1.091608e+01
  -1.061137e+02  -4.509939e+01
  -1.227656e+01  -5.895419e+01
   3.569403e+01  -3.923748e+01
   5.539738e+01   2.578023e+00
   4.133984e+01   4.573418e+01
  -3.228530e+01   1.670301e+01
  -1.799926e+01   3.897244e+01
   1.961740e+00   6.256073e+00
   4.820278e+01  -1.778321e+01
   4.101654e+01   2.139622e+01
  -2.663052e+01   5.126086e+01
  -6.736286e+01   2.126985e+01
  -6.633448e+01  -1.040667e+01
   9.404536e-01  -5.502133e+01
   3.014979e+01  -1.977839e+01
   3.168390e+01  -2.435362e+01
   1.152177e+01   4.566839e+01
  -3.664919e+01   3.205861e+01
  -1.145700e+01   7.940259e+00
  -3.979630e+01  -1.269948e+01
   2.141514e+00  -2.521974e+01
   1.526625e+01   4.040452e+00
  -1.754064e+01   9.935031e-02
   1.309145e+01   7.651649e+00
   2.446893e+00  -7.575546e+00
   5.770614e+00   5.933890e+00
  -1.645538e+01   2.809902e+01
   3.972669e+01   2.895098e+01
  -2.222235e+01   7.485712e+00
  -1.733534e+01  -1.756445e+01
  -2.859208e+01  -4.309540e+01
   1.986230e+01   1.703062e+00
   4.282078e+01   4.586947e+01
   2.825415e+01   4.315361e+01
  -4.061978e+01   2.443364e+01
  -7.587735e+01  -6.696858e+00
  -1.671449e+01  -3.752978e+01
   2.770958e+01  -3.061920e+01
   4.662195e+01  -1.255301e+01
   2.036006e+01  -1.431081e+01
   1.374720e+01   2.862142e+00
  -5.655160e+00   1.004046e+01
   2.919983e+01   7.194719e+00
   3.841178e+01   2.812834e+01
