
 $NMID
 id='ANONYMOUS ', fmtdat='(2E16.6)'
 volume=1.0
 tramp=1.0
 $END
  -9.158655e+02   4.045898e+02
  -7.415527e+02  -3.866389e+02
  -3.959291e+01  -1.031624e+03
   5.946070e+02  -3.257966e+02
   2.830047e+02   1.167286e+02
  -2.261618e+02   1.690581e+02
  -2.424436e+02  -5.220261e+01
   5.037994e+01  -3.292425e+02
   3.038749e+02  -2.233791e+02
   2.273791e+02  -4.976048e+01
   1.992809e+02   1.473732e+02
   2.200187e+01   1.421592e+02
  -1.176062e+02   5.281644e+01
  -1.682676e+02  -1.860326e+02
   2.453031e+01  -1.193434e+02
   1.244603e+02  -4.412291e+01
   1.388126e+02   7.072602e+01
  -7.588455e+01   2.264280e+02
  -1.496688e+02   1.244438e+02
  -1.740852e+02  -6.610957e+00
  -1.502229e+01  -1.275247e+02
   4.475312e+01  -7.993001e+01
   4.629625e+01  -3.331545e+01
  -1.780050e+01   5.492567e+01
  -1.240415e+02  -8.809517e+01
  -9.083831e+01  -1.166957e+02
   7.233496e+01  -1.430014e+02
   2.340170e+02  -3.637277e+01
   1.765525e+02   8.498010e+01
  -7.150107e+01   1.204216e+02
  -2.613773e+02  -8.651489e+01
  -1.396931e+02  -1.562346e+02
   4.561616e+01  -1.346078e+02
   1.281293e+02  -7.586448e+01
   1.559359e+02   3.784137e+01
   2.436441e+01   5.503735e+01
  -7.860477e+01   9.315826e+01
   2.346288e+01  -3.548978e+01
   6.585709e+00  -1.864935e+02
   5.379763e+01   7.325976e+01
   4.629300e+01   1.887819e+02
  -1.561700e+01   2.312878e+02
  -9.365076e+01   4.475992e+01
  -1.490773e+02  -1.469863e+02
   8.413865e+01  -1.455588e+02
   1.485522e+02   9.413227e+01
   6.296790e+01   2.038634e+02
  -1.655611e+02   7.520135e+01
  -1.457546e+02  -1.029187e+02
   3.932434e+00  -1.431880e+02
   1.142529e+02  -1.221825e+02
   1.451204e+02   2.454221e+01
   1.153190e+02   6.882518e+01
   9.062015e+00   1.234919e+02
  -1.562006e+02   9.142113e-01
  -8.532634e+01  -4.661974e+01
   1.198327e+01  -5.767923e+01
   8.202273e+01   3.073827e+01
  -1.460181e+01   7.039787e+01
  -9.526980e+01   2.594453e+01
  -4.266198e+01  -1.029634e+02
   5.240959e+01  -7.448511e+01
   6.662179e+01  -7.470333e+01
   5.153544e+01   1.597748e+01
   2.550090e+01   3.328911e+01
  -1.596254e+02   7.716177e+01
  -1.176434e+02   4.197828e+01
  -1.159475e+02  -3.929736e+01
  -7.176623e+01  -1.156703e+02
   4.060544e+00  -8.894831e+01
  -1.523283e+01  -3.599474e+01
   4.028080e+00   1.290449e+01
  -8.182985e+00  -5.138587e+01
   4.302650e+01  -1.860121e+01
   8.966320e+01  -2.372955e+01
   5.925106e+01   5.195998e+01
  -1.541890e+01   6.905664e+01
  -4.546055e+01   1.681304e+00
  -7.798238e+01  -4.844894e+01
   3.054249e+01  -8.210806e+01
   4.054785e+01  -8.286348e+01
   1.145455e+02   3.196692e+01
   8.483656e+01   4.166927e+01
  -7.539204e+00   6.296656e+01
   1.161820e+00   6.469250e+01
   4.190831e-01  -1.344041e+01
  -6.016426e+01   3.471987e+01
  -8.064533e+00   4.195236e+01
  -1.048998e+02  -2.995676e+00
  -1.153620e+02  -2.216686e+01
  -7.386714e+01  -1.046675e+02
   8.129520e+01  -1.215327e+02
   1.571707e+02  -5.880651e+01
   1.462256e+02   1.271468e+01
  -1.011185e+01   7.321661e+01
  -3.480732e+01   1.247909e+02
  -2.143819e+01   1.169906e+01
   6.100833e+00  -1.271284e+01
   4.263528e+01  -1.736795e-01
   7.120895e+01   2.243938e+01
  -7.237175e+01   3.621983e+01
  -2.349622e+01   4.200538e+00
   2.065133e+01  -7.055268e+01
   4.286236e+01  -8.946785e-02
   1.480903e+01   3.838621e+01
   3.826832e+01   9.605497e+01
  -3.544140e+01   5.532522e+01
  -1.130339e+02   2.591012e+01
  -1.101031e+02  -9.644556e+01
  -3.392848e+01  -5.797125e+01
   1.108976e+01  -4.285527e+01
   3.348495e+01  -5.064430e+01
   6.058206e+00   2.845003e+00
  -1.992263e+01   9.045283e+00
  -5.133396e+01  -7.678536e+00
   1.230483e+01  -2.813266e+01
   3.755602e+01  -1.477978e+01
   3.767225e+01   2.166630e+01
  -2.788383e+01  -5.601248e+00
  -2.638112e+01  -2.154612e+01
   2.685226e+01  -3.143437e+01
   9.883405e+01  -2.424673e+01
   6.863719e+01   7.538311e+01
   2.608870e+01   4.023100e+01
  -1.094537e+02   7.957168e+01
  -5.066713e+01   4.910772e+01
  -3.465668e+01  -7.685155e+00
  -2.964683e+00  -1.245838e+01
   1.578537e+00   2.113183e+01
  -6.215978e-01   1.562486e+01
  -6.384524e+01  -1.606255e+01
  -1.041825e+02  -7.721373e+00
  -5.126995e+01  -4.335724e+01
   4.590888e+01  -2.896433e+01
   6.639927e+00  -1.375746e+01
   1.949253e+01  -4.361430e+00
  -1.032733e+01   8.727423e+00
  -8.022802e+00  -1.637798e+01
   1.924498e+01  -5.536015e+01
   5.527495e+01  -3.634998e+01
   7.177666e+01   9.534836e+00
   2.834344e+01   5.088282e+01
  -8.982196e+00   2.419513e+01
  -5.274713e+01   4.877944e+01
  -2.468320e+01  -3.538422e+01
   2.702678e+01  -2.826414e+01
   1.153554e+01   2.181730e+01
  -1.321373e+01  -1.036346e+01
  -1.840303e+00  -3.069138e+00
   1.850456e+01  -3.064522e+01
   2.860900e+01   1.348838e+01
   1.781241e+01   1.641667e+01
   1.813334e+01   3.505696e+01
  -2.124267e+01   9.692746e+01
  -9.741447e+01   1.819070e+00
  -5.797600e+01  -2.006154e+01
  -3.350353e+01  -3.432260e+01
   3.643005e-01  -5.426019e+01
   3.659113e+01  -1.659147e+01
   3.667966e+01   2.598616e+01
   4.367752e+01  -7.696270e+00
   1.051168e+01  -2.642459e+01
   3.559011e+01   2.572142e+00
  -5.188460e+00   2.326661e+01
  -1.284693e+01   4.358645e+01
  -5.639283e+01   3.402412e+01
  -4.141850e+01   1.690201e+01
   6.808934e-02  -3.187683e+01
   5.816484e+01  -3.573784e+01
   1.887051e+01   1.843740e+01
   8.296395e+01   5.557476e+01
  -3.476686e+00   6.694460e+01
  -9.896850e+01   7.632723e+01
  -8.390417e+01   2.970890e+00
  -5.729936e+01  -2.480497e+01
  -1.878679e+01  -1.843871e+01
   2.260342e+01  -3.134718e+01
   1.017344e+00  -6.321283e+01
   1.541351e+01  -1.857600e+01
   2.950906e+01  -1.886417e+01
   5.200784e+01   3.195698e+00
   3.125779e+01   2.029469e+01
  -5.566054e-01   7.106223e+01
   2.744959e+00   7.887242e+01
  -6.545097e+01  -1.702208e+01
  -4.139160e+01  -1.162000e+01
  -5.154920e+00  -6.102030e+01
   2.560887e+01  -3.441651e+01
   4.839164e+00   1.979852e+01
   7.288316e+00  -3.283372e+01
  -1.505748e+01   3.632229e+01
  -1.536492e+01  -2.164510e+01
   3.894956e+01   3.034478e+00
   2.660221e+01   1.804453e+01
  -2.261702e+01   5.918511e+01
  -4.625187e+01  -4.453937e+00
  -4.263575e+01   1.452493e+01
  -7.741832e+00  -1.111300e+00
   3.536297e+01  -1.383854e+01
   4.602572e+01  -1.738500e+01
   7.959070e+00   5.225036e+00
  -2.117779e+01   2.054870e+00
  -2.598898e+01   1.340247e+01
   8.616136e+00  -4.389696e+00
  -9.678156e+00  -4.199220e+01
  -2.391875e+01   6.895379e+00
   1.020006e+01   3.349253e+01
   3.206858e+01   1.490116e+01
   4.365681e+01  -5.662729e+00
   3.735155e+01   2.586773e-01
  -1.415473e+01   2.681019e+01
  -7.026192e+00   4.046607e+01
  -5.882651e+01   3.805201e+01
  -2.641912e+01   1.527808e+01
  -1.280758e+01  -1.583194e+01
  -1.454543e+01  -6.548640e+01
   3.170070e+01  -2.547799e+01
   3.742914e+01   1.478326e+01
  -1.076558e+01   1.014165e+01
  -7.006560e+01   3.929408e+01
  -8.355853e+00  -4.928746e+01
   1.302778e+01  -1.534032e+01
   5.421379e+01   1.585199e+00
   3.705911e+01   1.351977e+01
   4.562072e+01   1.604783e+01
  -6.928470e+00   3.852296e+01
   1.690848e+01   5.864123e+00
  -6.004583e+00  -5.586813e-01
   2.625698e+01   1.228468e+01
   2.618506e+01   3.968446e+01
  -3.634983e+01   7.684351e+01
  -2.556997e+01   2.474523e+01
  -3.337391e+01  -5.743176e+01
  -1.196953e+01  -2.451333e+01
   2.299815e+00  -4.395719e+01
   3.433968e+01  -8.481046e+00
   1.196124e+01   4.044879e+01
   2.194535e+01   3.375624e+01
  -1.694688e+01  -4.836870e-01
  -4.164129e+00  -4.368951e+01
  -3.861347e+01  -2.113321e+01
   7.322741e-01  -6.303892e+00
  -3.366004e+01   3.972680e+01
  -2.919057e+01  -2.528076e+01
  -5.011007e+01  -3.911116e+01
   2.278331e+01  -8.170211e+00
   3.171397e+01   2.901726e+01
   3.934485e+01  -4.077818e+00
   2.251961e+01   3.832024e+01
  -2.473861e+01   4.844787e+00
  -4.178445e+01   3.777673e+00
   4.153306e+00  -5.095440e+00
   1.978066e+01  -2.211749e+01
   2.871886e+00  -1.825496e+01
   2.070502e+01  -8.918660e+00
  -3.915064e+01  -7.990035e+00
   5.561471e+00   9.589357e+00
   3.982816e+01   4.261524e+00
   2.360929e+01  -7.370195e-01
  -2.022088e+01   2.244486e+01
  -6.856035e+01   4.117412e+01
  -5.401854e+01  -1.529331e+01
  -5.809271e+01  -2.114378e+01
   1.190339e+01  -4.130102e+01
   1.289436e+01   1.709272e+00
   4.937139e+01   3.275937e+01
  -5.146141e-01   3.618249e+01
   4.860240e+00  -1.152982e+01
   2.466069e+00  -5.638648e+00
  -1.059825e+01  -9.420710e+00
   2.674534e+01   2.389652e+01
   8.984644e+00   2.215519e+00
  -2.106359e+01  -1.286768e+01
  -1.530479e+01  -2.757572e+01
  -7.218713e+00  -1.055165e+01
   6.247538e+00  -4.409410e+01
   2.637436e+01  -7.821659e-01
  -4.804327e+00   2.639098e+01
  -7.255594e+00   1.098567e+01
  -4.161020e+01  -8.777493e-01
  -2.655462e+01  -2.225740e+01
   2.924871e+01  -1.329110e+01
   1.021297e+01   2.970188e+00
   5.503457e+00   7.708938e+00
  -2.992490e+01   1.729264e+01
   1.393401e+01  -3.723363e+01
   9.147582e+00   3.613109e-01
   3.574271e+01  -5.106998e+01
   1.398128e+01   4.157467e+00
   4.202118e+01  -1.242968e+00
   2.047625e+00   2.675439e+00
  -1.471839e+01   1.424869e+01
  -2.454884e-01  -3.365263e-01
   2.191854e-01  -1.760222e+00
   6.981896e+00  -1.363798e+00
  -5.820258e-01  -5.436057e+00
  -1.277923e+01   4.445831e+01
   1.412390e-01   2.206366e+01
  -1.791318e+01   9.734042e+00
   1.385264e+01  -3.769253e+00
  -5.925031e+00  -3.095552e+00
   1.428831e+00  -7.613361e+00
   4.002421e+01  -3.472198e+00
  -3.663766e+00  -1.885495e+01
   1.351995e+01  -3.522466e+00
   1.876527e+01   7.376624e+00
   3.728896e+01   1.932441e+01
  -6.423774e+00  -3.225848e+00
  -4.395700e+01  -2.910920e+01
   5.703420e-01  -2.988502e+01
  -1.739662e-01  -3.642680e+01
   1.893248e+01  -4.821769e-01
   1.839743e+01  -1.647688e+01
  -2.186416e+01   2.638134e+01
  -4.506165e+01  -6.052272e+00
   3.080397e+01   2.579597e+01
  -1.418956e+00   5.772710e+00
   3.247547e+01   6.489166e+00
  -3.427489e+01  -1.267452e+01
  -2.888808e+01  -1.432627e+01
