
 $NMID
 id='ANONYMOUS ', fmtdat='(2E16.6)'
 volume=1.0
 tramp=1.0
 $END
  -2.242842e+03  -3.735471e+02
  -1.298570e+03  -9.857417e+02
   1.492382e+02  -1.298991e+03
   7.119108e+02  -7.988076e+02
   7.579628e+02  -1.795850e+02
   1.001217e+02   3.040701e+01
  -1.991779e+02   2.786980e+00
  -1.152801e+01  -3.868224e+02
   3.460724e+02  -2.638159e+02
   4.391293e+02  -3.993216e+01
   3.559599e+02   2.867412e+02
   1.659097e+01   4.786971e+02
  -2.093116e+02   1.034173e+02
  -1.183800e+02  -2.809040e+02
   1.222667e+02  -3.241012e+02
   3.105406e+02  -5.816570e+01
   1.467880e+02   3.705424e+02
  -1.701696e+02   5.493884e+02
  -3.566483e+02   2.966307e+02
  -3.075321e+02  -5.701723e+01
  -1.144452e+02  -2.374570e+02
   8.598418e+01  -1.645289e+02
   2.463865e+01  -5.764727e+01
  -1.317427e+02  -5.314132e+01
  -2.146001e+02  -2.336103e+02
   3.743218e+01  -2.343945e+02
   3.992686e+02  -1.774428e+02
   3.428676e+02   9.140183e+01
   8.565295e+01   2.514144e+02
  -2.410824e+02   1.082237e+02
  -3.609264e+02  -1.845255e+02
  -1.736955e+02  -3.269213e+02
   2.319205e+02  -3.025647e+02
   2.956843e+02  -1.084462e+02
   2.203513e+02   7.749982e+01
   6.841994e+01   1.796842e+02
  -4.662701e+01   1.011390e+02
   6.625172e+01  -8.552770e+01
   1.310254e+02  -9.658792e+01
   1.615879e+02   1.581618e+02
  -5.508591e+01   3.810943e+02
  -1.598926e+02   2.822738e+02
  -1.767268e+02  -3.061075e+01
  -1.175077e+02  -2.279367e+02
   5.074715e+01  -9.428030e+01
   1.216100e+02   3.012260e+02
  -1.402999e+02   3.141868e+02
  -3.145749e+02   9.381296e+01
  -3.530591e+02  -3.003467e+02
  -5.977100e+01  -3.674598e+02
   2.399894e+02  -1.717420e+02
   3.906975e+02   9.556201e+01
   2.511244e+02   1.524686e+02
  -3.570510e+01   1.069046e+02
  -2.592161e+02   6.729830e+01
  -1.424295e+02   2.099051e+00
  -2.203014e+01   3.767201e+00
   6.327899e+01   2.974242e+01
  -1.086062e+02   6.461756e+01
  -1.032932e+02  -5.355018e+01
  -6.890243e+01  -1.368546e+02
   7.739339e+01  -1.723495e+02
   2.191315e+02  -1.290586e+02
   1.921146e+02   7.436176e+01
  -4.517162e+00   2.588942e+02
  -2.320259e+02   2.200689e+02
  -3.542339e+02   1.257197e+02
  -1.228755e+02  -8.283431e+01
  -8.422759e+01  -2.046780e+02
   4.679552e+01  -1.532288e+02
   1.405012e+01  -1.431466e+02
   4.829276e+01  -1.069695e+02
   1.058706e+02  -9.503472e+01
   2.296102e+02   1.240565e+01
   1.304742e+02   1.372723e+02
   7.660127e+01   1.916983e+02
  -8.390814e+01   1.468331e+02
  -1.443254e+02  -5.172193e+01
  -3.171646e+01  -1.308067e+02
   2.912200e+01  -1.768913e+02
   1.655270e+02  -3.097235e+01
   2.338779e+02   1.481862e+02
   1.261595e+02   2.266289e+02
  -2.656475e+01   2.361862e+02
  -1.210973e+02   1.044254e+02
  -8.880210e+01   8.416774e+01
  -1.109221e+02   5.889596e+01
  -1.958286e+02  -3.471334e+01
  -2.509336e+02  -6.405568e+01
  -2.445599e+02  -2.088449e+02
  -7.420337e+00  -2.688692e+02
   2.426722e+02  -2.132030e+02
   3.657259e+02  -1.233703e+02
   1.766514e+02   5.097418e+01
   2.910542e+01   1.585686e+02
  -9.575303e+01   1.392425e+02
  -2.194147e+01   2.045122e+01
   9.900647e+01  -3.365943e+01
   7.635491e+01   1.875910e+01
   1.570686e+01   1.048589e+02
  -1.344280e+02   1.149137e+02
  -7.976184e+01  -3.657259e+01
   2.447456e+01  -6.750535e+01
   1.375645e+02   1.941352e+01
   7.088048e+01   1.431672e+02
  -2.063796e+01   1.671268e+02
  -1.446415e+02   1.450044e+02
  -2.527198e+02  -4.431670e+01
  -1.926286e+02  -2.090126e+02
  -5.326703e+01  -1.915973e+02
   1.001792e+02  -1.190725e+02
   8.546258e+01   2.810248e+01
   2.272339e+01   3.382658e+01
  -4.951818e+01  -6.992545e+01
   2.480850e+01  -5.494828e+01
   6.846736e+01  -3.953458e+01
   1.383737e+02   4.198306e+01
   9.952090e+00   1.551848e+01
  -7.461390e+01  -3.839376e+01
  -3.088758e+01  -5.446917e+01
   8.030797e+01  -3.650568e+01
   2.188870e+02   9.404563e+00
   1.955699e+02   1.231619e+02
  -1.013582e+01   1.394874e+02
  -2.033239e+02   1.876699e+02
  -1.701807e+02   7.407173e+01
  -7.238707e+01  -6.812918e+01
   3.801779e+01  -2.899137e+01
   2.272935e+01   7.520925e+00
  -7.847206e+01   6.119657e+01
  -1.102666e+02   1.438106e+01
  -1.187905e+02  -7.961060e+01
  -4.163572e+01  -1.228130e+02
   9.478281e+01  -8.705358e+01
   8.652639e+01   6.130877e+00
   4.482539e+01   6.265223e+01
  -1.121374e+01  -3.510278e+01
  -1.292190e+01  -6.190618e+01
   7.217966e+01  -1.027460e+02
   1.747500e+02  -1.180283e+01
   6.605060e+01   8.277154e+01
  -1.673059e+01   1.357593e+02
  -1.117344e+02   1.237832e+02
  -1.324171e+02   2.538278e+01
  -3.970327e+01  -4.631975e+01
   6.086650e+01  -8.992540e+01
   6.982329e+01   3.132834e+00
  -1.187982e+01  -8.763074e+00
  -1.658159e+01   8.612903e+00
  -4.624818e+00  -5.692846e+01
   6.092418e+01  -1.077649e+01
   9.312002e+01   5.437885e+01
  -2.113745e+01   1.459464e+02
  -9.456302e+01   1.317479e+02
  -1.877248e+02   1.635600e+01
  -1.171256e+02  -9.764267e+01
  -2.342533e+01  -1.131844e+02
   7.743825e+01  -1.172473e+02
   9.089719e+01  -1.087533e+01
   9.564039e+01   9.297986e+00
   4.313624e+01   1.384352e+01
   2.655391e+01  -2.767226e+01
   8.350410e+01   2.904901e+01
   5.626328e+01   6.731290e+01
  -3.041512e+01   5.605546e+01
  -7.229597e+01   1.628458e+01
  -8.633919e+01  -2.434310e+01
   1.536961e+01  -7.483503e+01
   1.246035e+02  -6.943652e+01
   1.337166e+02   5.211534e+01
   5.650012e+01   2.200807e+02
  -1.199683e+02   1.487867e+02
  -1.734970e+02   2.957456e+01
  -1.543800e+02  -8.117527e+01
  -4.400043e+01  -8.558022e+01
   2.423504e+01  -1.035432e+02
   7.627720e+01  -3.061907e+01
   2.717440e+01  -3.979455e+01
   4.265891e+01  -6.607084e+01
   7.835622e+01  -8.030283e+01
   6.822019e+01   2.758391e+01
   6.183177e+01   1.018664e+02
  -5.157719e+00   2.038221e+02
  -4.490378e+01   1.110696e+02
  -1.204333e+02  -3.456197e+01
  -8.770949e+01  -1.164452e+02
   1.107812e+01  -9.734767e+01
   2.276505e+01  -4.987005e+01
   6.418143e+01   5.650415e+00
  -3.876903e+00   5.001682e+01
  -2.899748e+00   2.031701e+01
  -3.675599e+00   2.406598e+01
   5.147025e+01   1.090496e+01
   3.836434e+01   3.625819e+01
  -5.005146e+01   3.004415e+01
  -1.453217e+02  -2.160754e+01
  -1.221313e+02  -7.422765e+01
   5.215408e+00  -9.329053e+01
   9.683127e+01  -4.595870e+01
   7.921073e+01   1.978434e+00
   1.689280e+01   4.484362e+01
  -4.636094e+01   2.269309e+01
  -8.486432e+01   8.194591e+00
  -1.596928e+01  -4.229333e+01
   4.141620e+01  -4.826005e+01
   4.033790e+01  -1.249630e+01
   4.907249e+01   3.782880e+01
   5.770217e+01   3.905954e+01
   4.300502e+01   4.642365e+00
   4.230843e+01   1.563299e+01
  -1.371667e+01   3.364247e+01
  -3.760900e+01   8.320338e+01
  -9.427759e+01   1.282240e+02
  -1.291204e+02   2.533531e+01
  -7.594267e+01  -7.424522e+01
  -1.407722e+00  -9.709915e+01
   3.015241e+01  -5.811125e+01
   6.731461e+01   1.252055e+01
  -3.538247e+01   3.569011e+01
  -1.008107e+02  -1.404819e+01
  -5.213394e+01  -6.840747e+01
   7.309391e+01  -5.441737e+01
   1.675318e+02  -2.426800e+01
   1.124650e+02   5.020148e+01
   2.871246e+01   6.083550e+01
  -5.153752e+01   5.277198e+01
  -3.493581e+01  -2.058182e+01
   6.414802e+01   8.289736e+00
   6.174757e+01  -4.120866e+00
   2.797617e+01   7.877224e+01
  -4.567242e+01   1.228565e+02
  -7.898121e+01   7.808646e+01
  -7.176587e+01  -4.393735e+01
  -3.317680e+01  -1.211650e+02
   6.418181e+01  -1.067854e+02
   6.752190e+01   1.236864e+01
   2.257872e+01   9.581317e+01
  -2.855229e+01   8.051869e+01
  -4.827870e+01   3.117395e+01
  -2.974655e+01  -3.111583e+01
  -1.789629e+01   1.450262e+01
   7.946642e+00  -1.957678e+01
  -2.575909e+01  -1.198547e+01
  -5.940088e+01  -7.635433e+01
  -3.240801e+01  -9.120230e+01
   3.415345e+01  -7.303446e+01
   9.676468e+01   3.241891e+01
   1.096367e+02   4.135902e+01
   9.311882e+00   3.798357e+01
  -8.769252e+01   9.899166e+00
  -6.529280e+01  -4.308706e+01
  -4.478720e+01  -9.686587e+00
   3.592952e+01  -3.398036e+00
   1.205437e+01  -1.890851e+01
   1.427067e+00   4.807896e+00
  -4.985736e+00  -1.778938e+00
   3.797104e+01  -7.810017e+00
   7.059666e+01   1.207068e+01
   1.400118e+01   4.799177e+01
  -6.340860e+01   9.059151e+01
  -1.301239e+02   5.481781e+01
  -8.829295e+01  -3.844482e+01
  -1.150345e+01  -1.139954e+02
   3.957500e+01  -1.043863e+02
   6.470681e+01  -6.543331e+01
   8.362511e+01   2.433429e+01
   1.930701e+01   2.211735e+01
  -2.668158e+01   1.511688e+01
   4.396940e+01   2.134641e+01
   1.990282e+01   3.331571e+01
   7.222135e+00   1.066220e+02
  -1.962782e+01   3.927912e+01
  -3.938190e+01   1.715870e+01
  -5.348301e+01  -5.396526e+01
  -4.276999e-01  -8.952141e+01
   7.281347e+01  -2.742515e+01
   5.826149e+01   6.608528e+01
   1.008769e+01   8.810714e+01
  -5.794769e+01   5.489449e+01
  -4.868403e+01  -3.358991e+01
  -1.468086e+01  -5.980772e+01
   4.833374e+01  -3.638287e+01
   8.079884e+00  -1.221127e+00
  -2.291618e+01  -6.037041e+00
  -4.999102e+01   2.918442e+01
  -5.573498e+00  -9.690534e+00
   3.434808e+01  -4.227260e+01
   4.665983e+01  -8.631562e+01
   3.814831e+01   1.086852e+01
   1.020651e+01   3.328996e+01
  -1.985096e+01   8.396373e+01
  -4.792114e+01   3.397641e+00
  -2.755639e+00  -3.986144e+01
   2.627283e+01  -4.407396e+01
   1.753477e+01   1.979592e+01
   2.294937e+01   4.164517e+01
   1.525250e+01   3.877051e+01
  -2.291190e+01   8.265185e+00
  -2.638385e+01  -8.342323e+00
  -8.735493e+00  -5.878953e+00
   3.075503e+00   1.492538e+01
   3.445066e+01   1.731343e+01
   1.829265e+01   3.553063e+00
  -3.949452e+01  -4.546311e+01
   2.132063e+01  -3.432357e+01
   5.582134e+01   2.961993e+01
  -6.420749e+00   3.943232e+01
  -4.363848e+01   3.995396e+01
  -2.685880e+01  -5.057399e+00
  -1.848841e+01  -4.601147e+01
   5.437485e+01  -2.190332e+01
   8.748126e+01   1.650185e+01
   4.803881e+01  -6.059002e+00
  -5.712817e+00   4.932217e+01
  -5.972851e+01   1.809481e+01
  -1.759370e+01   1.204132e+01
   1.006581e+01  -1.058156e+01
   3.439356e+01   1.760687e+01
  -2.423750e+01  -8.946862e+00
  -4.198209e+01   1.593023e+01
