
 $NMID
 id='ANONYMOUS ', fmtdat='(2E16.6)'
 volume=1.0
 tramp=1.0
 $END
  -3.169169e+03  -1.898673e+02
  -1.956859e+03  -2.081391e+03
  -7.375808e+01  -1.986598e+03
   1.287869e+03  -1.008114e+03
   8.676062e+02   1.388920e+02
  -5.589090e+01   3.430849e+02
  -3.202446e+02  -1.877484e+02
  -2.013349e+02  -5.102993e+02
   4.766100e+02  -5.116871e+02
   6.431762e+02  -3.115622e+01
   2.693164e+02   5.988150e+02
  -3.681081e+00   5.995290e+02
  -2.961902e+02   9.773060e+01
  -2.156543e+02  -3.200455e+02
   1.181742e+02  -5.255075e+02
   4.085074e+02  -5.706492e+01
   3.023807e+02   5.007920e+02
  -2.499076e+02   5.195729e+02
  -3.891288e+02   1.295970e+02
  -3.844417e+02  -1.629616e+02
  -7.287483e+01  -3.262178e+02
   9.009390e+01  -2.121523e+02
   9.927099e+01  -6.479194e+01
  -1.308520e+02  -5.897247e+01
  -2.422391e+02  -2.122298e+02
   5.838879e-02  -2.756593e+02
   3.781207e+02  -1.573163e+02
   5.856980e+02   1.688116e+02
   2.622618e+02   4.370996e+02
  -2.295374e+02   1.403727e+02
  -3.726896e+02  -6.569787e+01
  -1.964591e+02  -2.460928e+02
   2.485317e+02  -3.099074e+02
   4.112010e+02  -9.338229e+01
   2.935437e+02   1.957410e+02
   4.123691e+01   2.583528e+02
  -1.435442e+01   2.004192e+02
  -1.547481e+01  -9.107989e+01
   1.478841e+02  -2.207299e+02
   2.229049e+02   8.054586e+01
   7.540297e+01   4.299890e+02
  -2.784797e+02   4.468434e+02
  -3.603591e+02   1.492232e+01
  -1.206650e+02  -3.369526e+02
   2.457145e+02  -1.601884e+02
   2.284150e+02   2.477087e+02
  -7.082728e+01   4.173746e+02
  -3.443016e+02   4.044293e+00
  -4.254560e+02  -3.695968e+02
  -1.159896e+02  -3.594317e+02
   3.028079e+02  -2.725309e+02
   4.115125e+02  -1.107883e+01
   2.554453e+02   1.998289e+02
  -9.253190e+01   2.242831e+02
  -2.670550e+02   2.291132e+01
  -1.998962e+02  -6.813853e+01
   1.082769e+00  -7.224060e+01
   6.342516e+01   9.343736e+01
  -1.183486e+02   5.187158e+01
  -1.954475e+02  -3.005363e+01
  -8.121889e+01  -1.236951e+02
   1.342520e+02  -1.919782e+02
   2.979469e+02  -1.573146e+02
   2.230874e+02   6.757654e+01
  -3.757901e+01   2.259792e+02
  -2.334804e+02   2.644042e+02
  -2.865395e+02   1.158544e+02
  -1.771123e+02  -1.614615e+02
  -6.608717e+01  -3.401320e+02
   1.067707e+02  -2.720948e+02
   1.031711e+01  -1.629035e+02
   4.341920e+01  -5.256532e+01
   1.199475e+02  -1.070020e+02
   2.203554e+02  -1.226865e+01
   1.770996e+02   1.172659e+02
   7.101497e+01   1.857115e+02
  -6.458077e+01   1.495155e+02
  -1.808729e+02  -4.993758e-01
  -1.068661e+02  -2.208199e+02
   1.742156e+01  -1.962588e+02
   2.536290e+02  -5.944542e+01
   2.590672e+02   1.444495e+02
   1.388591e+02   2.843531e+02
  -5.583764e+01   1.868115e+02
  -1.891450e+02   1.348376e+02
  -1.518677e+02   4.410632e+01
  -1.123528e+02   4.947036e+01
  -2.658498e+02   2.300676e+01
  -3.483813e+02  -8.072985e+01
  -3.423261e+02  -3.249915e+02
  -2.120472e+01  -4.481670e+02
   2.880606e+02  -3.452022e+02
   4.165144e+02  -1.610919e+02
   2.559270e+02   9.750504e+01
   4.706540e+01   2.199892e+02
  -5.936143e+01   1.852852e+02
  -4.737732e+01   1.592670e+01
   7.591803e+01  -4.694051e+01
   1.078914e+02   6.513035e+01
  -8.196783e+00   1.688217e+02
  -9.978271e+01   9.099576e+01
  -1.343473e+02  -4.426993e+01
   1.740585e+01  -8.350575e+01
   1.471092e+02  -8.402891e+00
   1.258673e+02   2.660193e+02
  -3.183596e+01   2.978131e+02
  -1.464231e+02   1.863791e+02
  -2.988686e+02  -7.198370e+01
  -2.624009e+02  -2.172564e+02
  -7.715724e+01  -2.199671e+02
   1.081506e+02  -1.209630e+02
   1.368166e+02  -3.326576e+01
   4.526470e+01  -6.750364e+00
  -5.844224e+01  -5.061003e+01
   2.046859e+01  -9.264420e+01
   1.473240e+02  -7.220737e+01
   9.728176e+01   3.084873e+01
   3.174036e+01   5.515919e+00
  -6.909898e+01  -5.076151e+00
  -2.873256e+01  -4.987141e+01
   1.093708e+02  -7.286323e+01
   2.544681e+02   1.793919e+01
   1.711282e+02   1.097880e+02
   1.729439e+01   2.712398e+02
  -1.795982e+02   1.650997e+02
  -1.959317e+02   8.801240e+01
  -1.474681e+02  -5.810613e+01
   9.032374e+00  -9.435506e+01
   5.988990e+01   2.506562e+01
  -2.955089e+01   6.539283e+01
  -1.853984e+02   4.162174e+01
  -1.365970e+02  -1.195635e+02
  -1.580969e+01  -1.712033e+02
   5.541725e+01  -9.930791e+01
   1.146896e+02   9.849664e+00
   6.880013e+01   2.190775e+01
  -4.909830e+01  -3.933522e+01
  -3.536888e+01  -7.303184e+01
   8.900172e+01  -1.077297e+02
   2.024497e+02  -7.916491e-02
   1.545958e+02   1.311231e+02
   1.308702e+00   1.565508e+02
  -7.780818e+01   9.575735e+01
  -1.625380e+02   1.215991e+00
  -4.056709e+01  -6.011626e+01
   7.663499e+01  -6.216203e+01
   5.970193e+01  -3.381119e+01
   3.837859e+01   1.956664e+01
  -4.919341e+01   2.353557e+01
   2.239807e+01  -4.333795e+01
   1.026140e+02   1.021124e+01
   8.991660e+01   8.884159e+01
   2.492916e+01   1.815077e+02
  -1.128509e+02   1.206595e+02
  -2.077299e+02  -2.063649e+01
  -1.713950e+02  -1.026629e+02
  -7.881801e+01  -2.061168e+02
   8.686724e+01  -1.163024e+02
   1.110857e+02  -1.651694e+01
   8.708240e+01   5.625347e+01
   2.831246e+01   5.046044e+01
   4.545572e+01  -1.645076e+01
   4.741243e+01   2.006184e+01
   3.941305e+01   4.439557e+01
  -1.803116e+01   7.118690e+01
  -1.104749e+02   6.482080e+01
  -7.934052e+01  -3.031000e+01
   5.955184e+00  -1.140979e+02
   1.607280e+02  -8.872497e+01
   1.703921e+02   5.392117e+01
   6.179801e+01   1.930196e+02
  -1.130306e+02   1.458598e+02
  -2.315559e+02   5.939783e+01
  -2.125318e+02  -1.090565e+02
  -7.282607e+01  -1.387632e+02
   7.399396e+00  -1.259840e+02
   6.106882e+01  -3.809349e+01
   8.438539e+01  -4.006574e+01
   4.296297e+01  -6.256422e+01
   7.185039e+01  -6.039326e+01
   1.234251e+02  -9.438806e+00
   8.182674e+01   1.255094e+02
   2.290039e+01   1.807950e+02
  -8.196848e+01   1.469114e+02
  -1.488828e+02  -7.805423e+00
  -1.167568e+02  -8.408588e+01
  -2.699209e+01  -1.365655e+02
   5.841076e+01  -7.999378e+01
   5.302151e+01   8.635939e+00
   3.571080e+01   5.646874e+01
  -2.729168e+00   5.567455e+01
   2.198437e+01   7.072403e+00
   8.527012e+01  -1.303764e+01
   5.201511e+01   4.431956e+01
  -3.215776e+01   5.086211e+01
  -1.108768e+02   9.695120e+00
  -9.768955e+01  -3.429735e+01
  -1.069675e+01  -1.002453e+02
   8.419673e+01  -5.038620e+01
   1.355177e+02  -1.167643e+01
   1.991316e+01   3.866157e+01
  -3.595612e+01   2.300975e+01
  -4.957035e+01  -2.891343e+00
  -1.458803e+01  -6.307962e+01
   1.567091e+01  -4.559844e+01
   5.106533e+01  -3.108135e+00
   2.764980e+01   7.822065e+01
   4.056742e+01   2.457795e+01
   3.481428e+01   1.298680e+00
   7.532600e+01  -1.951253e+01
   3.864167e+01   8.690596e+01
  -4.171375e+01   1.023174e+02
  -9.682676e+01   1.194303e+02
  -1.215635e+02   2.938273e+01
  -1.010170e+02  -8.892460e+01
  -2.431514e+01  -8.642913e+01
   1.047342e+02  -4.344810e+01
   3.465142e+01  -1.152762e+01
  -8.487871e+01   2.457312e-01
  -1.486367e+02  -3.351696e+01
  -6.935987e+01  -7.914156e+01
   7.846547e+01  -9.032940e+01
   1.419033e+02   1.112316e+01
   1.271975e+02   3.965694e+00
   2.333836e+01   7.067080e+01
  -7.432585e+01   4.556944e+01
  -5.460630e+01   1.122812e+01
   2.339645e+01  -3.814341e+01
   6.462018e+01   3.550379e+00
   5.791639e+01   9.074496e+01
  -8.358644e+01   1.235337e+02
  -1.229017e+02   7.357921e+01
  -5.701143e+01  -8.753322e+01
  -3.046899e+01  -1.555496e+02
   8.909584e+01  -1.035393e+02
   9.080725e+01   2.708723e+01
   3.108931e+01   7.764133e+01
  -1.349761e+01   5.903890e+01
  -5.256724e+01  -8.808814e+00
  -3.720301e+01  -3.599230e+01
   8.404979e+00  -2.647932e+01
   1.812163e+01   5.179228e+00
  -8.453324e+00  -1.497639e+01
  -7.823537e+01  -7.074980e+01
  -8.753080e+00  -7.747613e+01
   6.009574e+01  -5.656633e+01
   9.692131e+01   4.211684e+01
   1.221766e+02   8.317562e+01
   7.280907e+00   3.080486e+01
  -6.177281e+01   6.769454e+00
  -6.284186e+01  -1.121657e+01
  -4.965578e+00  -2.656708e+00
   2.529902e+01   8.619774e+00
   1.502333e+00   2.038373e+00
  -4.661485e+00   2.169001e-02
   1.818265e+01  -2.149121e+00
   5.395258e+01   1.084462e+00
   6.763165e+01   5.094640e-01
   1.194156e+01   6.724563e+01
  -1.025901e+02   8.148556e+01
  -1.648815e+02   7.594747e+01
  -1.228803e+02  -6.198990e+01
  -1.111710e+01  -1.565849e+02
   3.065320e+01  -1.359648e+02
   1.073101e+02  -7.033603e+01
   3.133452e+01   1.242861e+01
   1.641776e+01   5.482842e+01
  -6.545718e+00   2.129769e+01
   1.604865e+01   1.413755e+01
   1.738783e+01   4.481712e+01
  -1.580746e+00   9.938638e+01
  -3.120212e+01   4.538834e+01
  -8.271937e+01  -1.174348e+01
  -6.965785e+01  -9.875989e+01
   9.196473e+00  -8.911670e+01
   7.256220e+01  -1.767318e+01
   7.732933e+01   3.404477e+01
  -7.556400e+00   7.240316e+01
  -3.852934e+01   1.000969e+02
  -8.557733e+01   8.105011e-01
  -4.042422e+01  -6.635682e+01
   2.312728e+01  -5.437649e+01
   3.745417e+01  -2.920414e+01
  -3.936797e+01   2.423205e+01
  -4.616423e+01  -1.290611e+01
  -4.389727e+01  -3.569992e+01
   7.870075e+01  -6.747253e+01
   1.089769e+02  -7.374532e+01
   5.788556e+01   2.339212e+01
  -4.091390e+01   9.163056e+01
  -7.180008e+01   7.835343e+01
  -4.143487e+01  -1.839765e+01
  -1.634239e+01  -5.713358e+01
   4.539377e+01  -3.617187e+01
   4.656713e+01  -9.980672e+00
   3.272855e+01   6.257323e+01
   8.260274e-01   4.480556e+01
  -7.238264e+01  -7.063969e-02
  -3.347924e+01  -4.800550e+01
  -8.991860e+00  -7.380000e+00
   1.045690e+01   2.431163e+00
  -1.776230e+01   6.272343e+00
  -1.160725e+00  -1.318197e+01
  -4.559350e+00  -3.008275e+01
  -3.035325e+00  -1.053096e+00
   3.415243e+01   2.223028e+01
   1.583259e+01   5.541003e+01
  -4.065554e+01   4.015357e+01
  -6.430158e+01  -8.902011e+00
  -1.171445e+01  -4.048638e+01
   7.006598e+01  -9.250591e+00
   8.054391e+01   4.211434e+01
   3.287077e+01   5.550498e+01
  -1.308095e+01   5.913373e+01
  -5.982453e+01   3.663693e+01
  -9.769659e+00  -1.887710e+01
   9.338752e+00   9.120367e+00
   1.560095e+01   2.656458e+01
  -2.090002e+01   1.374984e+01
  -5.543561e+01   6.989685e+00
