
 $NMID
 id='ANONYMOUS ', fmtdat='(2E16.6)'
 volume=1.0
 tramp=1.0
 $END
  -1.666489e+03   2.248991e+02
  -1.417465e+03  -1.244246e+03
   3.882686e+01  -1.249278e+03
   1.028516e+03  -5.626969e+02
   6.030617e+02   5.080988e+02
  -2.184278e+02   3.223694e+02
  -4.801565e+02  -1.312081e+02
   1.339171e+02  -4.166830e+02
   3.836591e+02  -2.643763e+02
   4.875032e+02   1.210524e+02
   2.168512e+02   4.370251e+02
  -1.760645e+02   3.846944e+02
  -3.343915e+02   1.036861e+02
  -2.201699e+02  -3.468058e+02
   5.986356e+01  -3.379396e+02
   2.817985e+02  -2.366974e+01
   1.838503e+02   3.282301e+02
  -1.331003e+02   3.806863e+02
  -4.500006e+02   8.123173e+01
  -2.812432e+02  -2.101200e+02
  -2.422249e+01  -2.419149e+02
   1.325150e+02  -1.687391e+02
   9.448307e+01  -3.078818e+01
  -7.700083e+01   9.708636e+00
  -1.525334e+02  -1.197826e+02
  -6.408609e+01  -2.216116e+02
   2.400324e+02  -2.141745e+02
   4.121710e+02   6.898566e+00
   1.697668e+02   2.834168e+02
  -2.081430e+02   1.649508e+02
  -2.453006e+02  -9.941763e+01
  -1.266791e+02  -2.494832e+02
   9.519683e+01  -2.605915e+02
   3.058170e+02  -7.594963e+01
   2.311762e+02   1.040614e+02
   2.094022e+01   2.005939e+02
  -1.057274e+02   1.492550e+02
  -4.949751e+01  -1.002243e+02
   7.456993e+01  -1.697638e+02
   1.729290e+02   1.027739e+02
   7.871555e+01   3.068623e+02
  -1.168095e+02   3.275462e+02
  -2.597718e+02   2.951394e+01
  -3.620354e+01  -2.514612e+02
   1.477633e+02  -1.212828e+02
   1.705430e+02   1.739768e+02
  -4.470883e+01   2.901200e+02
  -3.051479e+02   8.067170e+01
  -2.571813e+02  -2.412489e+02
  -4.555299e+01  -3.330021e+02
   2.055223e+02  -1.364790e+02
   3.540935e+02   1.011608e+02
   1.613951e+02   2.148260e+02
   2.299014e+01   1.611985e+02
  -2.315821e+02  -1.399541e+01
  -1.189758e+02  -7.163036e+01
   6.242809e+01  -5.241867e+01
   7.605151e+01   3.969364e+01
  -1.555223e+01   1.121024e+02
  -2.003993e+02  -2.230996e+01
  -8.174182e+01  -1.784891e+02
   7.390312e+01  -1.495186e+02
   1.617061e+02  -3.591863e+01
   1.094086e+02   7.767054e+01
  -7.382748e+01   1.581500e+02
  -1.382494e+02   7.702952e+01
  -2.057474e+02   6.797246e+00
  -1.696356e+02  -1.023142e+02
  -7.228084e+01  -2.140415e+02
   1.139402e+02  -2.206611e+02
   4.765532e+01  -1.168586e+02
   2.600792e+01  -3.098377e+01
   4.232147e+01  -5.595623e+01
   1.153475e+02  -2.958436e+01
   1.530957e+02   3.531454e+01
   7.323267e+01   1.569533e+02
  -1.205851e+01   9.963239e+01
  -1.218975e+02  -2.839253e+01
  -2.912492e+01  -1.334313e+02
   2.520247e+01  -1.114517e+02
   1.398595e+02  -1.023015e+02
   1.199802e+02   1.135044e+02
   9.210007e+01   2.113251e+02
  -1.153498e+02   1.302262e+02
  -1.334694e+02   6.253294e+01
  -1.048391e+02   1.721577e+01
  -8.009755e+01   4.313206e+01
  -1.102979e+02   4.079331e+01
  -2.631695e+02  -7.792739e+01
  -1.663673e+02  -1.055800e+02
   2.225840e+01  -2.333941e+02
   1.855034e+02  -2.345048e+02
   2.759615e+02  -2.980510e+01
   1.727547e+02   6.417406e+01
   1.043867e+01   1.603709e+02
  -1.799348e+01   1.453148e+02
  -4.543362e+01   2.816122e+01
   7.376066e+01  -1.698998e+01
   1.007909e+02  -8.586272e+00
   6.274791e+01   1.003506e+02
  -1.111647e+02   3.621401e+01
  -7.498570e+01  -3.192438e+01
   2.399246e+01  -7.625504e+01
   6.477871e+01  -7.652324e+00
   8.494443e+01   1.451286e+02
   7.815769e+00   2.534261e+02
  -1.167715e+02   1.568247e+02
  -1.778397e+02  -1.804414e+01
  -1.603835e+02  -1.263669e+02
  -4.518282e+01  -1.415858e+02
   2.455605e+01  -1.128854e+02
   6.286225e+01  -2.082940e+01
   1.716247e+01  -9.451051e-03
   5.601094e-01  -5.986927e+01
  -9.111397e+00  -4.675690e+01
   6.064162e+01  -8.320093e+01
   9.088149e+01   1.710420e+01
   4.982052e+00   9.471986e+00
  -2.405922e+01   3.514106e+01
  -2.403530e+01  -4.154859e+01
   7.845508e+01  -2.649579e+01
   1.471530e+02   4.553390e+01
   8.706358e+01   1.130895e+02
   1.564283e+01   1.368031e+02
  -1.392930e+02   9.132144e+01
  -1.525207e+02   4.907286e+01
  -7.562283e+01   3.796880e+00
   8.186775e+00  -3.900164e+01
   7.119038e+01  -1.510634e+01
  -3.996077e+01   2.390499e+01
  -1.061442e+02  -1.499107e+01
  -1.106864e+02  -7.370887e+01
  -4.248519e+01  -1.201757e+02
   5.936359e+01  -7.450055e+01
   1.151709e+02  -1.709722e+01
   1.708055e+01   3.596957e+01
   6.147132e+00  -9.020647e+00
   2.155658e+00  -5.634944e+01
   3.640234e+01  -6.395465e+01
   1.195390e+02   1.284336e+01
   1.223377e+02   9.972217e+01
   1.829721e+01   1.081928e+02
  -1.124526e+02   8.367355e+01
  -9.405650e+01   9.779460e+00
  -9.141713e+00  -5.082855e+01
   7.671437e+01  -5.484952e+01
   3.358336e+01   2.694780e+00
   3.199839e+00  -8.810022e-02
  -9.322212e+00  -6.441065e+00
   3.387259e+01  -2.516357e+00
   4.414509e+01   4.725179e+00
   3.782000e+01   2.204410e+01
   1.052127e+01   7.942642e+01
  -5.358570e+01   8.830787e+01
  -1.298946e+02  -3.608094e+01
  -1.053639e+02  -6.798661e+01
  -4.853957e+01  -1.467451e+02
   7.431308e+01  -8.988377e+01
   7.701501e+01  -2.267552e+00
   4.409616e+01   5.680009e+01
   3.572089e+01   1.080407e+01
   3.226369e+01  -5.584189e+00
   2.925431e+01   3.044579e+01
   4.019330e+00   4.612745e+01
  -3.322066e+00   5.790283e+00
  -8.501942e+01   3.479512e+01
  -4.765879e+01  -6.008867e+00
   3.264934e+01  -4.875877e+01
   1.007875e+02  -5.770420e+01
   9.097041e+01   3.910444e+01
   4.576825e+01   1.047159e+02
  -8.724572e+01   1.010083e+02
  -1.323271e+02   4.625012e+01
  -1.127690e+02  -4.000202e+01
  -6.859564e+01  -8.552625e+01
   2.163816e+01  -6.846607e+01
   5.793457e+01  -5.792224e+01
   4.069753e+01  -2.703842e+01
   7.086584e+01  -4.382014e+01
   2.318936e+01  -1.500230e+01
   9.875691e+01   5.546213e+00
   6.535309e+01   8.847464e+01
  -1.581859e+01   1.552221e+02
  -4.280321e+01   9.049806e+01
  -8.835393e+01   2.158580e+01
  -5.657599e+01  -7.915768e+01
  -4.409491e+00  -7.402557e+01
   5.865378e+01  -3.840879e+01
   5.353380e+01   2.145375e+01
   7.782303e+00   2.832127e+01
  -7.070730e+00   1.296074e+01
   8.402933e+00   9.931120e+00
   4.392217e+01   1.885939e+01
   4.439253e+01  -1.177251e+01
  -2.739311e+01   3.097990e+01
  -7.361570e+01  -1.011289e+01
  -1.008380e+02  -4.574167e+01
   1.794334e+01  -6.331450e+01
   5.296733e+01  -3.579526e+00
   7.285044e+01   8.914132e-01
   2.894225e+01   7.520822e+00
  -2.245679e+01   2.241804e+01
  -6.142194e+01   5.074701e+00
  -1.267823e+01  -4.595578e+01
   1.772010e+01  -6.541734e+01
   4.288266e+01  -9.224111e+00
   3.258872e+01   4.781366e+01
   5.552419e+00   2.592983e+01
   2.331273e+01   2.723912e+01
   1.467073e+01   5.213758e+00
   1.907990e+01   1.252898e+01
  -4.383572e+01   8.554200e+01
  -5.075799e+01   4.545734e+01
  -1.329801e+02   1.564281e+01
  -7.735574e+01  -6.842737e+01
   4.028852e+00  -7.700872e+01
   6.900222e+01  -3.097065e+01
   4.672869e+01  -5.209302e+00
  -4.252756e+01   2.495757e+01
  -7.581985e+01  -2.819699e+01
  -1.788584e+01  -5.777073e+01
   3.309642e+01  -8.266373e+01
   1.086476e+02  -7.220397e+00
   9.390275e+01  -5.902732e+00
   4.330795e+01   2.924754e+01
  -4.274394e+01   4.438341e+01
  -3.402506e+01  -2.293104e+00
   1.777856e+01  -2.515757e+01
   5.811132e+01   6.508078e+00
   3.624729e+00   6.961183e+01
  -7.254904e+01   8.017745e+01
  -8.837405e+01  -2.311250e+00
  -4.416016e+01  -7.134812e+01
  -2.480911e+01  -1.097057e+02
   4.794756e+01  -5.703328e+01
   5.564051e+01  -1.465092e+00
   1.430486e+01   5.660440e+01
  -2.327277e+01   7.356209e+01
  -7.785697e+00   1.878586e+01
  -4.796900e+00  -2.069121e+01
  -1.384826e+01  -1.336300e+01
  -1.775635e+00   9.396312e-01
  -2.654963e+01  -1.829262e+01
  -1.278813e+01  -5.246698e+01
  -2.303264e+01  -3.117354e+01
   7.279834e+01   2.755802e+00
   8.404730e+01   2.492156e+01
   7.752546e+01   4.469879e+01
  -1.893397e+01   5.119914e+01
  -4.937261e+01   1.861551e+01
  -6.955906e+01   1.221681e+01
  -1.409476e+01  -3.994972e+01
   2.910180e+01  -3.895305e+00
   1.155704e+01  -1.926062e+01
  -3.336978e+01  -1.437654e+01
   2.511580e+01   3.142029e+00
   3.881224e+01   2.430408e+01
   4.081859e+01   2.486776e+01
  -1.087414e+01   4.931474e+01
  -3.825179e+01   6.591898e+01
  -1.073764e+02   2.575163e+01
  -8.389482e+01  -2.890890e+01
  -5.970427e+01  -1.231471e+02
   3.598955e+01  -6.159077e+01
   6.934709e+01  -3.758798e+01
   5.377431e+01   1.199575e+01
  -1.095609e+01   1.253650e+01
  -2.415557e+00   2.327394e+01
  -1.734617e+01   3.005083e+01
  -2.040931e+01   2.197853e+01
   9.453348e+00   5.560056e+01
  -2.769710e+01   2.441042e+01
  -4.073192e+01  -3.343314e+01
  -1.731138e+01  -8.135209e+01
  -1.314668e+01  -3.766850e+01
   5.766925e+01  -5.191000e+01
   3.187070e+01   3.387854e+01
   8.704430e+00   5.878470e+01
  -5.605633e+01   1.591641e+01
  -6.544213e+01  -2.563223e+01
  -1.957169e+01  -2.501928e+01
   3.432302e+01  -2.294747e+01
   5.600904e-01  -1.855221e+01
  -6.580085e+00  -2.067983e+01
  -4.085445e+01   9.980294e+00
   8.755636e+00  -2.420758e+01
   3.836833e+01  -2.786563e+01
   3.282937e+01  -3.328400e+01
   4.835952e+01   3.165711e+01
  -3.336807e+00   2.942273e+01
  -2.416201e+01   3.434309e+01
  -4.630748e+00   4.894621e+01
   8.573020e+00  -3.722602e+01
   1.869424e+01  -2.111098e+01
   2.520333e+01  -1.176075e+01
  -2.142679e+01   1.441499e+01
  -4.638868e+00   4.260727e+01
  -1.578376e+01  -1.736465e+01
  -3.634054e+01  -2.048248e+01
   7.880668e+00   1.373029e+00
  -2.788257e+00   1.917714e+01
   3.687256e+00  -1.457534e+01
   1.022105e+01  -1.854069e+01
   2.855430e+00  -5.823033e+00
   2.132884e+01   6.048654e+00
   2.742157e+01   4.578031e+01
   1.663148e+01   2.948664e+01
  -3.702103e+01   2.038844e+00
  -3.863437e+01  -4.787299e+01
   5.775314e+00  -4.757079e+01
   6.910423e+00  -2.091715e+01
   6.221805e+01  -1.143817e+01
   3.667446e+01   7.902848e+00
  -3.131323e+01   1.728953e+01
  -5.228700e+01   1.205192e+01
   4.803182e+00   9.676109e-01
   2.331889e+01  -1.162677e+01
   4.643639e+01   2.773093e+01
  -1.137554e+01  -2.298267e+00
  -9.738359e+01   1.189775e+01
