
 $NMID
 id='ANONYMOUS ', fmtdat='(2E16.6)'
 volume=1.0
 tramp=1.0
 $END
   2.077757e+03   5.511936e+02
   1.313589e+03   1.324316e+03
  -2.373476e+02   1.414948e+03
  -8.762761e+02   6.918430e+02
  -7.876980e+02   2.901277e+02
  -2.936517e+01  -1.240185e+02
   1.542160e+02   7.740205e+01
  -1.954851e+01   2.245244e+02
  -1.527862e+02   2.809094e+02
  -3.662133e+02  -4.300089e+00
  -2.204924e+02  -3.025266e+02
  -8.631583e+01  -3.188277e+02
   1.388730e+02  -5.276060e+01
   4.469068e+01   2.744972e+02
  -1.198991e+02   2.980018e+02
  -2.527152e+02   4.804782e+01
  -1.885581e+02  -3.407025e+02
   1.031917e+02  -3.211417e+02
   2.653756e+02  -1.104094e+02
   3.241390e+02   1.373823e+02
   1.153310e+02   2.482838e+02
  -4.651990e+01   1.389960e+02
  -1.684070e+01   5.582330e+01
   1.721179e+02   1.054925e+02
   1.050632e+02   2.171386e+02
  -5.568931e+01   2.069385e+02
  -3.175750e+02   6.903282e+00
  -4.547587e+02  -2.329008e+02
  -7.203529e+01  -2.276336e+02
   2.013671e+02  -6.186988e+01
   2.170244e+02   1.168506e+02
   9.241797e+00   1.730512e+02
  -2.103273e+02   1.590786e+02
  -3.118314e+02   2.511158e+01
  -1.892483e+02  -1.784808e+02
  -6.905478e+00  -2.064046e+02
   3.399807e+01  -1.104411e+02
  -1.068116e+02  -2.747942e+01
  -1.535015e+02   1.236847e+02
   3.606370e+00  -1.382277e+02
   1.388175e+02  -2.584637e+02
   2.275240e+02  -2.932722e+02
   2.727053e+02   8.450358e+01
   3.499001e+01   2.224272e+02
  -1.152822e+02   6.813600e+01
   3.140608e+01  -1.765099e+02
   1.331187e+02  -1.337166e+02
   2.740204e+02   2.585117e+01
   2.330958e+02   3.068117e+02
   9.183700e+01   3.155209e+02
  -2.129913e+02   1.381249e+02
  -2.633462e+02  -1.214596e+02
  -1.544425e+02  -1.833845e+02
   5.584884e+01  -1.422716e+02
   1.750916e+02  -1.833352e+01
   1.218695e+02   5.165721e+01
   6.456184e+01  -3.007985e+01
  -3.962734e+01  -2.206145e+01
   5.922448e+01   6.133313e+00
   1.246551e+02   5.826877e+01
   5.062243e+01   1.405543e+02
  -6.540781e+01   1.676529e+02
  -2.400259e+02   5.242864e+01
  -1.994562e+02  -7.486152e+01
   2.939459e+01  -2.238489e+02
   2.124079e+02  -2.032275e+02
   1.840655e+02  -1.787724e+01
   1.640867e+02   1.320616e+02
   5.529841e+00   2.372669e+02
  -6.098583e+01   2.251896e+02
  -3.074061e+01   8.692194e+01
   5.726999e+00   1.018428e+02
  -1.268930e+02   1.043818e+02
  -2.082043e+02  -4.434926e+01
  -1.517739e+02  -1.499447e+02
  -1.108674e+01  -1.546745e+02
   1.090114e+02  -1.032386e+02
   8.346162e+01   9.388757e+01
   6.874734e+01   2.355055e+02
  -8.895301e+01   1.305165e+02
  -1.525297e+02  -9.066117e+00
  -2.137809e+02  -1.214853e+02
  -6.987934e+01  -2.389758e+02
   2.397291e+01  -1.285183e+02
   1.135559e+02  -7.924319e+01
   1.387355e+02  -2.665747e+01
   9.485456e+01  -2.955470e+01
   2.145068e+02   3.056468e+01
   2.829416e+02   1.531533e+02
   2.367419e+02   2.514547e+02
  -5.530167e+01   3.205907e+02
  -3.094356e+02   2.146029e+02
  -3.271896e+02  -3.122725e+01
  -1.502764e+02  -1.166727e+02
   4.904418e+01  -1.586961e+02
   8.818653e+01  -8.805514e+01
  -2.927354e+00  -3.146671e+01
  -5.377733e+01   6.184342e+00
  -7.717126e+01  -9.183854e+00
  -1.016962e+01  -7.796156e+01
   5.572658e+01  -3.140102e+01
   1.011932e+02   6.565930e+01
  -5.319788e+01   6.961125e+01
  -1.334302e+02  -3.316816e+01
  -1.125557e+02  -1.753141e+02
   2.795719e+01  -2.470404e+02
   1.629336e+02  -1.521926e+02
   2.376263e+02   6.172287e+01
   1.356598e+02   2.401870e+02
   3.270120e+01   2.143268e+02
  -1.270445e+02   6.976532e+01
  -8.870867e+01  -1.316661e+01
  -4.798610e+01  -2.655671e+01
   4.096096e+01   7.642887e+01
  -2.085252e+01   9.648343e+01
  -9.521664e+01   5.341300e+01
  -7.002229e+01  -7.563816e+01
   9.551680e+00  -6.817563e+01
   6.614803e+01  -9.768506e+00
   2.709018e+01   4.971284e+01
  -1.276282e+02   5.727898e+01
  -2.471971e+02  -5.751520e+01
  -1.419479e+02  -1.344912e+02
  -2.218678e+01  -2.298769e+02
   2.148425e+02  -1.064611e+02
   2.110235e+02  -9.398060e+00
   6.805959e+01   8.074203e+01
  -3.707273e+01   3.778818e+01
  -4.836812e+01  -2.315890e+01
   5.640197e+01  -1.352691e+01
   1.194773e+02   2.980711e+01
   1.029480e+02   7.454778e+01
   1.387784e+01   1.491107e+02
  -1.037209e+02   7.048777e+01
  -9.393842e+01   1.050198e+01
  -1.830987e+01  -3.819087e+00
   1.932709e+01  -2.502301e+00
   1.440549e+01   9.033083e+01
  -5.230039e+01   8.666217e+01
  -1.630413e+02  -4.737610e+01
  -1.203440e+02  -9.020576e+01
   8.411914e+00  -1.045419e+02
   1.218327e+02  -5.020818e+01
   7.444018e+01   6.358536e+01
   6.030849e+01   8.840909e+01
  -7.396422e+01   3.432148e+01
  -5.029266e+01   4.306511e+01
  -8.093052e-01   1.024055e+01
   4.937247e+01   9.325152e+00
  -3.697932e+00   2.178065e+01
  -7.538014e+01  -2.944016e+01
  -6.745008e+01  -7.837826e+01
   1.114400e+01  -1.024014e+02
   1.046269e+02  -1.121731e+02
   1.924449e+02   7.172348e+01
   1.112110e+02   1.512070e+02
   3.330042e+01   1.176293e+02
  -9.442517e+01   1.104973e+02
  -8.056767e+01  -2.991330e+01
  -4.281006e+01  -5.012762e+01
  -1.108288e+01  -2.902966e+01
  -4.785916e+01   1.193921e+01
  -7.744773e+01   1.676564e+01
  -3.597524e+01  -8.221399e+01
   2.876433e+01  -4.515167e+01
   1.080579e+02  -3.970733e+01
   7.453148e+01   3.084510e+01
  -4.284292e+01   9.701158e+01
  -1.230619e+02   5.295559e+01
  -1.153545e+02  -1.093929e+02
   2.222166e+01  -1.659379e+02
   1.162419e+02  -1.375959e+02
   1.724794e+02  -3.101713e+01
   1.538079e+02   6.637453e+01
   5.335452e+01   1.624626e+02
  -6.343322e+01   1.000377e+02
  -5.922522e+01   3.239474e+01
  -4.104887e+01   2.552914e+01
  -7.491344e+01   5.631499e+01
  -6.972169e+01   6.018389e+01
  -1.133497e+02  -5.061414e+00
  -5.400971e+01  -1.209286e+02
   3.356745e+01  -1.403654e+02
   8.614249e+01  -1.069649e+02
   9.923635e+01   1.446794e+01
   2.246774e+01   1.085710e+02
  -1.955536e+01   1.213464e+02
  -1.850773e+01   6.733350e+01
  -3.736728e+01  -1.562519e+01
  -1.339426e+01  -2.180530e+01
   4.973340e+01  -1.646616e+01
  -7.216738e-01   1.195045e+01
  -4.760633e+01  -2.038446e+01
  -1.868592e+01  -3.122993e+01
   2.940578e+01  -2.949693e+01
   9.822278e+01   9.884895e+00
   8.559173e+01   3.066468e+01
  -3.288840e+01   7.400254e+01
  -9.923789e+01   3.533780e+01
  -1.205927e+02   4.291010e-01
  -1.868668e+01  -1.392014e+01
   6.014753e+01  -3.857902e+01
   2.861352e+01   1.476120e+01
   1.311094e+01   4.341105e+01
  -5.651293e+01   6.569092e+01
  -4.202906e+01   1.333952e+01
  -7.428001e+01  -3.504086e+01
  -4.819651e+01  -1.179107e+01
  -4.781897e+01  -4.570277e+00
  -2.270429e+01  -4.601486e-01
  -4.386865e+01  -4.204759e+01
   1.959779e+01  -9.679044e+01
   1.236273e+02  -6.526435e+01
   1.781217e+02   1.440682e+01
   6.928367e+01   1.039491e+02
  -4.476850e+01   8.172204e+01
  -8.304344e+01   3.261866e+01
  -2.876930e+01   1.469640e+01
   4.204295e+01  -3.355072e+01
   9.334020e+01   3.255313e+01
   5.349187e+01   5.828777e+01
  -6.820075e+01   2.613852e+01
  -1.315396e+02  -2.835832e+00
  -9.700534e+01  -3.910309e+01
  -4.530173e+01  -6.425207e+01
   7.705606e+01  -4.966666e+00
   4.491620e+01   3.355348e+01
  -2.837511e+01   9.125490e-01
  -4.179367e+01  -2.675054e+01
  -1.093259e+01  -8.961281e+01
   1.179513e+01  -1.045677e+02
   8.938218e+01  -3.490486e+01
   6.858377e+01   9.439853e+01
   2.660107e+00   1.436535e+02
  -5.717679e+01   7.392569e+01
  -7.493817e+01  -3.304904e+01
  -2.612439e+01  -8.894900e+01
   3.828024e+01  -5.941623e+01
   2.756538e+01   4.606054e+00
   2.074638e+01   2.432343e+01
   2.124282e+01  -4.320827e+00
   1.364070e+01   1.359341e+01
   3.493460e+01  -1.063211e+01
   2.857174e+01   6.544221e+01
  -1.708569e+01   6.699848e+01
  -5.489325e+01   2.262858e+01
  -8.579392e+01  -1.457412e+01
  -6.305625e+01  -5.803921e+01
  -9.671365e+00  -6.599219e+01
   3.616621e+01   1.311587e+01
   3.685156e+01   2.707375e+01
   2.919670e+01   1.749666e+01
  -4.597641e+01  -1.826773e+01
  -7.739416e+00  -1.163684e+01
   4.645602e+00  -1.853757e+01
  -2.876434e+01   1.848649e+00
  -5.506458e+01   1.703207e+01
  -7.564860e+01  -4.212970e+01
  -7.749280e+00  -7.396125e+01
   6.610591e+01  -7.750670e+01
   1.368969e+02  -2.231572e+01
   1.201909e+02   5.607836e+01
   1.877220e+01   1.139397e+02
  -6.023609e+01   9.307466e+01
  -1.187210e+02   2.502687e+01
  -5.121103e+01  -2.196513e+01
  -3.947728e+01  -4.510742e+01
  -2.207970e+01  -3.993696e+00
  -2.833131e+01   5.991601e+00
  -2.509142e+01  -2.728468e+01
   2.192425e+00  -8.867884e+01
   5.554764e+01  -3.961377e+01
   6.843398e+01   2.513449e+01
   5.837246e+01   5.062674e+01
  -1.000015e+01   8.893887e+01
  -6.054410e+01   3.645353e+01
  -7.445623e+01  -9.150100e+01
  -2.615315e+01  -7.263644e+01
   3.024700e+01  -2.182798e+01
   7.869797e+01   1.973788e+01
   9.092710e+00   7.140272e+01
  -2.587962e+01   7.647080e+01
  -2.474195e+01   5.905133e+01
   4.350064e+01  -8.574805e+00
   4.503474e+01   1.316006e+01
   1.047342e+01   4.058714e+01
  -5.852615e+01   2.027757e+01
  -7.799607e+01   2.544647e+01
  -3.785332e+01  -2.263237e+01
   3.509826e+01  -4.648218e+01
   6.122155e+01  -6.435848e+01
   1.166952e+01  -2.885679e+01
  -2.879315e+01   1.912180e+01
  -3.039578e+01   3.778170e+01
  -1.932624e+01   1.501122e+01
  -2.265947e+01  -4.177067e+01
   2.592360e+01  -4.255446e+01
   2.703614e+01   4.946334e+00
   9.066332e+00   4.433569e+01
   7.302194e+00   1.483412e+01
  -9.270375e-01   2.172670e+00
   3.513749e+01   1.369484e+01
   1.302569e+01   3.455053e+01
   1.793454e+01   1.782144e+01
  -2.982567e+01   9.107861e+00
  -6.170128e+01  -7.594923e+00
   8.585061e+00  -6.013368e+01
   2.673202e+01  -1.748519e+01
   1.683491e+01   1.721238e+01
  -4.232733e+00   2.489576e+01
  -5.220291e+01   1.894710e+01
  -5.915310e+01  -4.082165e+01
  -3.407044e+01  -3.908375e+01
   2.293802e+01  -2.180533e+01
   6.605815e+01   9.006713e+00
   4.110318e+00  -1.557783e-01
  -4.719989e+01   8.001098e+00
  -2.480018e+01   3.338156e+01
   2.263974e+01  -1.578610e+01
   3.848109e+01  -2.885821e+00
