
 $NMID
 id='ANONYMOUS ', fmtdat='(2E16.6)'
 volume=1.0
 tramp=1.0
 $END
   2.100129e+03  -4.294374e+02
   1.229111e+03   7.428882e+02
  -8.068838e+01   1.232612e+03
  -8.159756e+02   6.840366e+02
  -6.949492e+02   4.435619e+01
   3.071776e+01  -1.476895e+02
   3.673853e+02   1.133524e+01
   1.102698e+02   2.605359e+02
  -1.571449e+02   4.009195e+02
  -3.820282e+02   6.484809e+01
  -2.853250e+02  -2.650344e+02
  -1.091508e+02  -4.253902e+02
   1.981144e+02  -1.730345e+02
   2.380858e+02   2.794779e+02
   2.302069e+01   3.285406e+02
  -2.601995e+02   9.062947e+01
  -1.405506e+02  -2.920262e+02
   2.032372e+01  -3.768777e+02
   3.604184e+02  -2.498318e+02
   3.222206e+02   1.483310e+02
   2.481049e+01   1.523519e+02
  -8.805516e+01   1.526759e+02
  -8.361675e+01   2.634379e+01
   1.042542e+02   7.624439e+01
   1.422014e+02   1.933179e+02
  -1.040078e+01   2.497570e+02
  -2.737945e+02   1.132203e+02
  -3.676668e+02  -1.676502e+02
  -1.559726e+02  -2.856799e+02
   8.528038e+01  -2.204287e+02
   4.074633e+02   6.146290e+01
   1.904505e+02   2.282656e+02
  -1.704380e+02   1.333534e+02
  -3.294405e+02   8.793157e+01
  -2.246027e+02  -1.201239e+02
  -1.023020e+02  -1.120884e+02
  -1.694796e+01  -1.424711e+02
  -5.654808e+01   6.459738e+01
  -1.399872e+02   1.102525e+02
  -8.622633e+01  -2.969755e+01
  -1.015127e+02  -2.450501e+02
   2.305954e+02  -3.882604e+02
   1.834982e+02  -3.739392e+01
   9.488129e+01   1.733975e+02
  -1.037914e+02   8.978603e+01
  -1.914610e+02  -1.322225e+02
   8.114932e+01  -2.372325e+02
   2.303160e+02  -7.715476e+01
   2.750488e+02   2.110385e+02
   1.437677e+02   2.902496e+02
  -2.239472e+02   1.768531e+02
  -3.559108e+02  -1.040702e+01
  -2.535237e+02  -1.161441e+02
   5.558102e+01  -1.624705e+02
   1.587680e+02  -1.160888e+02
   1.350267e+02   2.036483e+01
  -6.768170e+00   9.659689e-01
  -7.868872e+01  -2.800969e+01
   2.857038e+01  -5.691667e+01
   1.429187e+02   2.799238e+01
   8.239184e+01   1.055322e+02
  -1.173519e+02   1.678251e+02
  -2.316535e+02   8.506138e+01
  -1.732620e+02  -2.867772e+01
   2.409928e+01  -2.441784e+02
   1.359434e+02  -2.263615e+02
   1.815329e+02  -1.112121e+02
   1.778900e+02   1.079663e+02
  -3.065340e+00   2.612181e+02
   1.142199e+01   1.622515e+02
  -4.600307e+01   1.023354e+02
  -3.740227e+01   5.368807e+01
  -1.069103e+02   4.999661e+01
  -1.162951e+02   5.486607e+01
  -1.860276e+02  -7.692587e+01
  -6.058139e+01  -1.669580e+02
   4.720912e+01  -1.112183e+02
   1.108680e+02   9.517736e+00
   5.530099e+01   1.649444e+02
  -7.873342e+00   1.089444e+02
  -1.467027e+02   3.657565e+01
  -2.282686e+02  -5.746957e+01
  -1.132988e+02  -1.310672e+02
   2.150704e+01  -1.966110e+02
   7.826400e+01  -1.387995e+02
   1.039163e+02  -4.329208e+01
   1.056672e+02  -3.382350e+01
   1.281653e+02  -2.100104e+01
   2.416329e+02   6.057436e+01
   1.950871e+02   1.791916e+02
  -9.568014e+01   3.353111e+02
  -1.771783e+02   2.161963e+02
  -2.956373e+02   9.004731e+01
  -1.408952e+02  -5.327314e+01
  -6.387631e+01  -1.056320e+02
   3.016864e+01  -7.669818e+01
   9.179539e+00  -3.364373e+01
  -5.594188e+01   5.605514e+01
  -8.263371e+01  -4.758088e+01
  -3.566896e+01  -9.663707e+01
   5.111721e+01  -1.179858e+02
   8.156338e+01   4.365044e+01
  -2.510463e+01   9.059914e+01
  -8.146160e+01  -8.161115e+00
  -8.225791e+01  -1.535376e+02
   3.391756e+01  -2.394171e+02
   7.557228e+01  -9.563545e+01
   2.086870e+02   4.395845e+01
   1.309717e+02   1.744302e+02
   5.846321e+01   1.629450e+02
  -6.982985e+01   1.157065e+02
  -7.905060e+01   1.822408e+01
  -3.636651e+01  -6.930027e+00
   3.176562e+01   4.454247e+01
  -1.044419e+01   5.371099e+01
  -6.143054e+01   3.304458e+01
  -5.352364e+01   8.843015e+00
  -6.182127e+00  -3.430262e+01
   6.481963e+01   1.811743e+01
   1.838702e+01   5.214330e+01
  -8.833727e+01   8.722741e+01
  -1.942325e+02  -9.992755e+00
  -1.812378e+02  -5.581285e+01
  -3.458262e+00  -1.785953e+02
   1.238569e+02  -1.416202e+02
   1.386547e+02  -8.393245e+01
   5.947972e+01   1.491497e+01
  -1.899879e+00   2.128201e+01
  -3.934824e+01  -1.191693e+01
   2.925845e+01  -2.991688e+01
   8.307072e+01  -3.603324e+01
   9.455781e+01   4.041089e+01
   5.481776e-01   1.088831e+02
  -2.265094e+01   9.727682e+01
  -5.865986e+01  -4.205589e+00
  -2.636415e+01   6.345886e+00
   3.259406e+01   1.271470e+00
   1.655037e+01   1.022009e+02
  -5.743908e+01   8.234929e+01
  -1.264055e+02   1.510927e+01
  -1.380354e+02  -1.201969e+02
  -2.388839e+01  -1.051939e+02
   3.721685e+01  -1.116441e+02
   1.097736e+02  -1.862372e+01
   3.473530e+01   4.999140e+01
  -6.179839e+01   6.744389e+01
  -6.945593e+01   5.525214e+00
   5.546930e+00   5.995739e+00
   1.560159e+01   2.973285e-02
  -1.887252e+01   5.162793e+01
  -5.614995e+01   8.606219e+00
  -6.165745e+01  -3.073440e+01
   1.240696e+01  -8.073141e+01
   8.441376e+01  -1.109793e+02
   1.486697e+02  -3.047184e+01
   9.157559e+01   1.148561e+02
  -2.589345e+01   1.458088e+02
  -9.710169e+01   1.467668e+02
  -9.078018e+01   2.791597e+01
  -5.739669e+01  -4.654010e+00
  -4.524627e+01  -3.001600e+01
  -4.834374e+01   7.038618e+00
  -2.335979e+01   1.558535e+01
  -1.709124e+01  -4.433873e+01
   4.625060e+01  -7.210457e+01
   8.823791e+01  -2.640575e+01
   4.428761e+01   2.178856e+01
  -1.251920e+01   9.360377e+01
  -1.309499e+02   6.971628e+01
  -1.675183e+02  -2.456317e+01
  -3.793612e+01  -1.150444e+02
   5.184756e+01  -1.629240e+02
   1.528492e+02  -6.300978e+01
   1.643691e+02   4.872214e+01
   2.229938e+01   1.071268e+02
  -2.525801e+01   1.049651e+02
  -6.842436e+01   4.301401e+01
  -7.337275e+01   2.476072e+01
  -4.016012e+01   4.623785e+01
  -4.047401e+01   2.181923e+01
  -1.081992e+02  -5.350645e+00
  -7.033601e+01  -8.588653e+01
  -3.571946e+01  -1.092875e+02
   3.747474e+01  -1.168271e+02
   8.299641e+01  -2.474860e+01
   5.202831e+01   6.213874e+01
   1.968203e+01   8.641324e+01
  -6.334258e+01   6.790025e+01
  -4.291141e+01  -4.757987e+00
  -2.953860e+00  -2.854648e+01
   2.661120e+00  -5.204547e+01
  -2.277832e+01   5.717464e+00
  -4.567907e+01   1.443098e+01
  -4.600029e+01  -4.008755e+01
   4.586805e+01  -2.808722e+01
   9.053907e+01  -4.283874e+00
   1.032778e+02   3.140474e+01
   4.868616e+00   4.851955e+01
  -8.993073e+01   5.082941e+01
  -1.202963e+02   1.839531e+01
  -1.954298e+01  -1.758344e+01
   4.196242e+01  -6.109804e+00
   3.468895e+01   2.649685e+01
   4.191711e+00   2.660639e+01
  -4.081118e+01   6.230114e+01
  -2.422108e+01  -1.102045e+01
  -2.502791e+01  -1.935253e+01
  -5.174074e+01  -1.659638e+01
  -6.144796e+01  -1.626893e+01
  -5.619625e+01   1.362745e+00
  -3.143439e+01  -4.282904e+01
   2.074498e+01  -1.014727e+02
   1.020690e+02  -1.007005e+02
   9.864408e+01  -2.863533e+01
   9.507669e+01   5.032664e+01
   6.578225e+00   8.428884e+01
  -6.153817e+01   6.996221e+01
  -3.070093e+01   1.057276e+01
   5.267744e+01  -7.405825e+00
   6.851954e+01   3.101921e+01
   4.510321e+01   4.117178e+01
  -6.323817e+01   5.574794e+01
  -1.078082e+02   1.324618e+01
  -1.107809e+02  -7.150015e+01
  -3.040685e+01  -5.775298e+01
   3.374822e+01  -2.545729e+01
   4.890960e+01  -8.069980e+00
  -4.369422e+01   3.241219e+01
  -5.792271e+01  -2.855180e+00
  -5.124773e+01  -6.791355e+01
   8.805148e+01  -1.244850e+02
   9.820995e+01  -5.587882e+01
   1.014759e+02   6.103731e+01
   3.296727e+01   1.129294e+02
  -5.050038e+01   8.698944e+01
  -9.070672e+01  -5.687081e+00
  -3.228856e+00  -4.241023e+01
  -1.054820e+01  -6.838752e+01
   2.784421e+01  -2.062552e+00
   3.885583e+01   2.313011e+01
   1.147820e+01   1.774418e+01
  -9.015322e+00   4.518401e+00
   3.848195e+01  -3.448438e+00
   3.886580e+01   7.199674e+01
   9.480910e-01   4.608014e+01
  -6.409581e+01   3.861982e+01
  -7.761454e+01  -1.059761e+01
  -6.603393e+01  -2.790106e+01
  -1.871125e+01  -2.607154e+01
   2.898619e+01   3.354024e+00
   3.222278e+01   4.387009e+00
  -1.966216e-01   2.286944e+01
  -2.551300e+01  -7.981817e-01
   8.937442e+00  -2.631791e+01
  -6.590865e+00  -1.248303e+01
   2.408807e+00   1.499449e+01
  -3.384713e+01  -1.246211e+01
  -5.726148e+01  -6.281877e+00
  -1.045390e+01  -4.626474e+01
   8.522710e+01  -6.794825e+01
   7.571088e+01  -5.261091e+01
   8.296171e+01   6.012600e+01
  -5.152196e+00   8.398806e+01
  -5.416259e+01   8.517831e+01
  -5.854872e+01   5.800762e+01
  -7.304292e+01  -2.287698e+01
  -2.892055e+01  -3.478825e+01
   3.043656e+00  -2.186641e+01
  -7.220710e+00   1.188595e+01
  -4.245727e+01  -3.095320e+01
  -3.219824e+01  -4.904237e+01
   3.972481e+01  -5.711122e+01
   7.751403e+01  -1.915204e+00
   6.699662e+01   6.401090e+01
  -7.909030e+00   4.330864e+01
  -3.937734e+01   2.739153e+01
  -7.529542e+01  -3.242558e+01
  -3.831171e+01  -4.172439e+01
   4.228924e+01  -3.571286e+01
   3.274105e+01  -6.058480e+00
   1.989403e+01   3.514977e+01
  -6.279946e+01   3.322170e+01
  -1.665088e+01   1.313933e+01
   2.170155e+01  -2.097728e+01
   5.250646e+01  -2.348756e+01
   1.375969e+01   3.391466e+01
  -3.836559e+01   1.547413e+01
  -7.174117e+01   4.425767e+01
  -3.407011e+01  -4.432873e+00
  -5.881935e+00  -5.005455e+01
   4.781472e+01  -4.199086e+01
   3.289586e+01  -9.524916e+00
  -1.174090e+00   3.302440e+01
  -3.586602e+01   5.732362e+01
   1.890647e+01   6.481758e-01
   2.426117e+01  -4.928691e+01
   1.357103e+01  -4.766796e+01
   6.555096e+00   9.888468e-01
   8.515790e-01   8.813274e+00
   1.389700e+01   3.377678e+01
  -1.786729e+01   1.634720e+01
   3.261128e+01  -1.788679e+01
  -3.603694e+00   2.657119e+01
  -9.960223e+00   2.938264e+01
  -1.265368e+01   2.601744e+01
  -2.523761e+01  -2.962231e+01
  -1.297414e+01  -3.136969e+01
   2.452113e+01  -2.169470e+01
   5.183282e+01   9.996326e+00
   5.006129e+01   4.130757e+01
  -3.029214e+01   2.531241e+01
  -6.630476e+01  -3.318775e+01
  -1.499912e+01  -3.839808e+01
   3.430176e+01  -1.908350e+01
   6.112411e+01  -6.831509e+00
   2.117170e+01   2.676704e+00
  -2.741128e+01   2.422642e+01
  -4.315257e+00   1.257327e+01
  -1.852210e+00   6.725070e+00
   4.812005e+01   6.582088e+00
