
 $NMID
 id='ANONYMOUS ', fmtdat='(2E16.6)'
 volume=1.0
 tramp=1.0
 $END
  -1.641791e+03   7.026092e+01
  -9.661734e+02  -6.161378e+02
  -3.900831e+00  -1.038946e+03
   6.667962e+02  -6.523904e+02
   3.571342e+02  -1.933339e+02
   4.434410e+00   1.718596e+02
  -1.847185e+02  -7.176151e+01
  -9.039887e+01  -1.607307e+02
   2.014783e+02  -3.567747e+02
   3.108004e+02  -1.187356e+02
   7.166726e+01   1.439042e+02
   1.714862e+01   3.259012e+02
  -1.891627e+02   1.087597e+02
  -1.696119e+02  -2.105654e+02
  -1.239104e+01  -3.160710e+02
   1.559095e+02  -3.074650e+01
   1.622926e+02   2.358618e+02
  -9.289833e+00   3.873620e+02
  -2.500244e+02   7.720176e+01
  -2.046317e+02  -1.284331e+02
  -5.521128e+01  -1.624883e+02
   6.750764e+01  -9.031503e+01
   4.625380e+01  -3.328176e+01
  -8.558427e+01  -4.756586e+00
  -1.500745e+02  -8.333324e+01
   2.219410e+01  -1.691549e+02
   2.470359e+02  -1.656436e+02
   2.250269e+02   1.485322e+02
   4.541629e+00   7.432528e+01
  -2.333199e+02   1.251470e+02
  -3.220749e+02  -2.181369e+01
  -1.661380e+02  -1.772061e+02
   9.826600e+01  -1.266104e+02
   2.156572e+02  -6.025718e+01
   1.674536e+02   5.147696e+01
   7.442554e+01   1.693191e+02
  -1.506367e+01   1.018047e+02
   5.614593e+01   1.067125e+01
   6.275854e+01  -8.891837e+01
   1.074610e+02   2.475853e+01
   7.109993e+01   2.248996e+02
  -1.243828e+02   2.388051e+02
  -1.264493e+02  -1.838771e-01
  -5.307695e+01  -1.477294e+02
  -8.005671e+00  -4.076427e+01
   8.058649e+01   1.234332e+02
  -4.134074e+01   1.937463e+02
  -2.278430e+02   3.441025e+01
  -2.301439e+02  -1.212104e+02
  -1.068394e+02  -1.659402e+02
   1.438525e+02  -1.467004e+02
   3.021870e+02  -5.948678e+01
   1.502243e+02   1.528763e+02
  -3.844686e+01   8.622079e+01
  -1.211272e+02   3.077260e+01
  -1.215427e+02  -5.319982e-01
   2.488970e+01  -1.745553e+01
   3.031131e+01  -1.644986e+00
  -2.818586e+01   6.961994e+01
  -1.241865e+02  -2.379414e+01
  -5.582518e+01  -1.278636e+02
   1.136451e+02  -9.799027e+01
   2.122818e+02  -1.892904e+01
   1.256491e+02   2.415461e+01
  -3.421211e+01   1.638357e+02
  -1.119067e+02   2.625453e+02
  -1.371120e+02   1.077268e+02
  -9.759939e+01  -8.784293e+01
  -2.662384e+01  -1.868818e+02
  -3.801969e+01  -1.074012e+02
  -1.325565e+01  -8.092520e+01
   2.982521e+01  -3.861770e+01
   5.671637e+01  -4.072480e+01
   8.661639e+01  -2.791049e+01
   8.707292e+01   6.777423e+01
   7.762827e+01   8.600411e+01
  -4.448413e+01   1.231609e+02
  -9.032245e+01  -3.338561e+01
  -9.424350e+01  -9.084861e+01
  -2.217591e-01  -1.382124e+02
   1.103946e+02   2.368217e+01
   1.879810e+02   8.766070e+01
   1.014435e+02   9.690264e+01
  -2.497957e+00   1.519368e+02
  -6.996764e+01   7.033185e+01
  -6.497417e+01   5.335830e+01
  -7.878264e+01   2.275795e+01
  -1.298226e+02   3.005687e+01
  -2.210725e+02   2.252732e+01
  -9.366767e+01  -1.037376e+02
   5.762626e+01  -1.961294e+02
   1.677545e+02  -1.991553e+02
   1.751377e+02  -8.590786e+01
   1.525782e+02   2.932711e+01
   5.459926e+01   1.257875e+02
  -2.371849e+01   1.049129e+02
   1.945604e+01  -1.550793e+01
   7.208537e+01  -1.439388e+01
   2.424015e+01   1.472597e+01
   8.376018e-01   8.074548e+01
  -1.852974e+01   8.295827e+01
  -6.859850e+01  -6.673585e+00
  -2.866478e+01  -8.544152e+01
   6.690491e+01  -1.334478e+01
   6.557275e+01   1.071461e+02
   2.916165e+01   2.019987e+02
  -6.847602e+01   1.224804e+02
  -1.560972e+02  -3.384309e+01
  -1.198581e+02  -9.424545e+01
  -3.681687e+01  -8.442501e+01
   8.569870e+01  -6.216433e+01
   8.368904e+01  -1.379616e+01
   1.921944e+01   1.552975e+01
  -3.034430e+01  -3.752202e+01
   6.512574e+00  -5.872070e+01
   5.133031e+01  -4.073951e+01
   7.777621e+01  -1.825919e+01
   6.071470e+00   1.592821e+01
  -1.191721e+01  -3.131015e+00
   2.576113e-01  -3.559057e+01
   6.986069e+01  -7.583941e+01
   1.639651e+02   1.147876e+01
   1.300271e+02   1.248532e+01
   1.688219e+01   7.472692e+01
  -1.141994e+02   1.504831e+02
  -1.027051e+02   4.957190e+01
  -9.375298e+01  -1.264955e+01
   6.767050e+00  -4.944210e+01
   7.853706e+00  -1.186447e+01
  -2.554494e+01   2.483036e+01
  -6.768206e+01   5.291339e+01
  -8.787865e+01  -5.012705e+01
  -3.554660e+01  -8.492501e+01
   2.923133e+00  -8.201388e+01
   4.424995e+01  -3.375250e+01
   1.080255e+01   2.078977e+00
  -2.716228e+01  -3.305436e+01
  -9.126457e+00  -6.826136e+01
   2.714495e+01  -5.753472e+01
   1.042758e+02   3.980638e+00
   9.101921e+01   5.636291e+01
   1.503951e+01   1.011728e+02
  -7.062652e+01   8.136271e+01
  -9.256764e+01  -3.148543e+00
  -1.785822e+01  -3.418162e+01
   2.839615e+01  -3.920882e+01
   3.920922e+01  -1.486555e+01
   6.877793e+00   1.827657e+01
  -3.635599e+01  -2.255484e+01
   3.281053e+01  -2.191155e+01
   3.717807e+01  -8.321657e+00
   3.539774e+01   2.907904e+01
  -2.406200e+01   5.364534e+01
  -6.916596e+01   1.152064e+02
  -1.052448e+02   2.206898e+01
  -6.815468e+01  -7.538049e+01
  -2.152739e+01  -1.073031e+02
   5.341329e+01  -1.055526e+02
   3.764974e+01  -2.249087e+01
   5.939515e+01   3.095611e+01
   4.306415e+01   8.666948e+00
   2.791479e+01  -1.395286e+01
  -3.616196e+00  -5.546757e+00
   3.872119e+01   2.450800e+01
  -4.025155e+01   6.726904e+01
  -8.979769e+01   1.735479e+01
  -3.818265e+01  -1.460480e+01
  -9.034526e+00  -5.842210e+01
   1.080047e+02  -3.937371e+01
   1.147598e+02   5.207620e+01
   6.223723e+01   6.324357e+01
  -2.839306e+01   1.215455e+02
  -1.361452e+02   5.611636e+01
  -9.093839e+01  -7.529375e+01
  -1.818684e+01  -1.057670e+02
   1.026173e+01  -7.947217e+01
   7.441142e+01  -4.777630e+01
   4.672575e+01  -7.470089e+01
   3.280459e+01  -4.818073e+01
   3.645739e+01  -3.416562e+01
   2.648670e+01   1.894038e+01
   7.103451e+01   6.388407e+01
   1.681946e+01   1.170213e+02
  -9.297861e+00   7.363111e+01
  -8.451310e+01  -1.882120e+01
  -5.764003e+01  -5.534467e+01
   5.872012e+00  -6.882317e+01
   5.452622e+01  -3.766243e+01
   5.031660e+01   8.253752e+00
  -1.494416e+01  -6.330283e+00
  -5.228418e+00   2.428473e+01
   7.594628e+00  -1.108930e+00
   2.872444e+01  -2.610555e+00
   9.147504e+00   5.343211e+01
  -3.555548e+01   2.251100e+01
  -1.016482e+02  -1.980671e+01
  -8.691989e+01  -3.547714e+01
   2.808084e+01  -1.508301e+01
   4.723582e+01  -3.343593e+01
   4.270522e+01   7.167075e+00
   2.218521e+01   3.260958e+01
  -2.460961e+01   2.510362e+01
  -3.701903e+01   4.787480e+00
  -4.442750e+01  -5.145509e+01
   1.538954e+01  -4.120292e+01
   3.866801e+01  -2.781665e+01
   3.663565e+01   2.566809e+01
   3.982658e+01   1.610753e+01
   3.787774e+01  -9.021131e+00
   3.729461e+01   6.329521e+00
  -8.762572e+00   4.240739e+01
  -6.514614e+00   8.098607e+01
  -7.512447e+01   8.721326e+01
  -1.046726e+02   1.877295e+01
  -7.088861e+01  -8.707260e+00
   5.416747e+00  -6.024252e+01
   5.754390e+01  -1.628432e+01
   3.857557e+01   1.153858e+01
  -3.008802e+01   7.680222e+00
  -6.708375e+01  -3.651899e+01
  -2.560565e+01  -3.803071e+01
   2.460667e+01  -7.332477e+01
   6.511112e+01  -1.131691e+01
   9.550554e+01   3.132307e+01
   7.194682e+00   4.174756e+01
  -1.030302e+01   1.916395e+01
  -1.288299e+01   8.301478e+00
   1.843036e+01  -2.399338e+01
   7.733226e+01  -4.406440e+00
   2.907044e+01   4.514454e+01
   2.169572e+00   1.064595e+02
  -5.807706e+01   4.210865e+01
  -5.084082e+01   6.598745e+00
  -4.285510e+00  -9.447174e+01
   4.285374e+01  -9.940234e+01
   5.955060e+01   1.093094e+01
   2.616225e+01   6.538793e+01
  -3.220502e-01   5.743830e+01
  -2.840815e+01  -1.046365e-02
  -2.381442e+01  -1.268542e+01
   2.802483e+00  -3.275375e+01
   1.767718e+01   1.545502e+01
  -2.145586e+01  -9.631060e+00
  -1.087279e+01  -7.287027e+00
  -2.062534e+01  -5.064482e+01
   4.330090e+01  -4.152030e+01
   7.954891e+01   1.132543e+01
   9.819374e+01   9.048476e+00
   2.792181e+01   1.664469e+01
  -3.506222e+01   1.449330e+01
  -1.071986e+01  -2.098935e+00
  -4.219734e+00  -2.187373e+00
   2.047358e+01  -2.022919e+01
   2.122834e+01  -3.752803e+01
  -7.350761e+00  -1.033662e+01
  -9.308998e-01  -2.722182e+01
   3.059167e+01  -1.322978e+01
   5.016974e+01   1.587532e+01
   1.277327e+01   6.978145e+01
  -6.221763e+01   6.833630e+01
  -6.863555e+01   2.484432e+01
  -5.516845e+01  -4.145692e+01
  -1.834874e+01  -9.243680e+01
   5.318860e+01  -6.516591e+01
   4.720656e+01  -3.004438e+01
   6.334077e+01   4.196071e+00
   3.895122e+01  -2.237934e+01
   7.079749e+00   2.469136e+01
   1.053848e+01  -3.301583e+01
   9.014253e-01   1.581015e+00
   2.547695e+01   4.915396e+01
  -5.312936e+00   2.625861e+01
  -4.726443e+01  -2.061582e+01
  -1.466253e+01  -7.885384e+01
   5.616741e+00  -4.322462e+01
   1.431285e+01  -2.844126e+01
   8.965121e+01   1.408091e+01
   4.288076e+01   2.860605e+01
  -5.697072e+01   5.767011e+00
  -3.452226e+01  -1.535399e+01
  -2.014368e+01  -1.521752e+01
   1.644297e+01  -1.797763e+01
   3.172507e+01  -1.803976e+01
   2.567659e-01  -2.938762e-01
  -2.593695e+01  -2.472189e+00
  -1.378650e+00  -1.452386e+01
   4.224212e+01  -2.498914e+01
   9.212161e+01  -2.419848e+01
   4.527673e+01   1.912181e+01
   1.842917e+01   5.257024e+01
  -4.719082e+01   2.719905e+01
  -5.104424e+01   8.628901e+00
   4.504200e+00  -3.483441e+01
   5.770835e+01  -2.107577e+01
  -6.524481e+00  -5.061459e+00
   3.243744e+00   1.361964e+01
  -5.682545e+00   2.205772e+01
   1.207447e+01   3.274011e+00
  -3.995625e+01   1.187935e+01
  -6.885295e+00   2.568691e-01
   4.819939e+00   7.884037e+00
  -2.600842e+01  -1.427085e+01
  -7.643910e+00  -3.348153e-01
   1.448676e+01  -3.236588e+01
   1.731630e+01   8.870555e+00
   8.615345e+00   9.665338e+00
   3.426930e+00   1.709408e+01
  -3.310728e+01  -5.218281e+00
  -2.712462e+01   2.490335e+01
   7.049586e+00  -3.690788e+01
   2.022311e+01  -4.493616e+01
   5.033609e+01   3.571491e-01
   3.627617e+00   5.156833e+01
  -1.604591e+01   3.763421e+01
  -2.998848e+01  -2.629893e-01
  -1.814736e+01   1.140713e+01
   1.415965e+01  -1.900691e+01
   1.114858e+01  -1.683025e+01
  -2.503786e+01   3.449718e+01
  -5.062143e+01  -7.898569e+00
