
 $NMID
 id='ANONYMOUS ', fmtdat='(2E16.6)'
 volume=1.0
 tramp=1.0
 $END
  -1.426456e+03   9.911674e+01
  -7.618242e+02  -3.728904e+02
   7.921335e+01  -8.706061e+02
   4.966118e+02  -5.161931e+02
   3.946482e+02  -5.536204e+01
  -6.179029e+01   2.118050e+02
  -2.503994e+02   6.663554e+01
  -1.104519e+01  -1.894397e+02
   1.953823e+02  -2.108403e+02
   1.856618e+02  -5.534460e+01
   2.132287e+02   1.232836e+02
   2.067290e+01   1.808216e+02
  -7.189447e+01   6.582738e+01
  -2.172760e+02  -1.951480e+02
   6.104908e+01  -2.690596e+02
   1.154204e+02  -6.968172e+01
   1.158014e+02   5.459056e+01
  -8.938102e+01   2.202451e+02
  -1.864321e+02   1.695196e+02
  -1.612165e+02  -3.528152e+01
   5.842795e+00  -1.275562e+02
   1.875257e+01  -1.188724e+02
   7.211870e+01  -6.188844e+01
  -4.545111e+00   6.611975e+01
  -1.188218e+02  -2.744016e+01
  -1.204688e+01  -1.275914e+02
   1.057011e+02  -1.679589e+02
   2.410196e+02   7.840127e+00
   7.781627e+01   3.603499e+01
  -1.137197e+02   1.797532e+02
  -1.909288e+02   1.237727e+01
  -5.619974e+01  -1.527753e+02
   8.006446e+01  -1.884375e+02
   1.852934e+02  -4.724463e+01
   1.693154e+02   2.022770e+01
   5.947293e+01   1.470739e+02
  -2.415058e+01   9.898763e+01
   3.003803e+01  -6.453245e+01
   1.119196e+01  -8.097436e+01
   9.372289e+01  -2.824658e+01
   1.614288e+02   1.947531e+02
  -1.062011e+01   1.690415e+02
  -1.645211e+02   1.198283e+02
  -2.304041e+01  -1.572056e+02
   2.790830e+01  -6.990874e+01
   9.831888e+01   9.963607e+01
   1.189508e+01   1.577068e+02
  -1.473683e+02   5.721165e+01
  -1.777559e+02  -1.166478e+02
   1.496267e+00  -1.198020e+02
   4.728999e+01  -1.412314e+02
   2.423802e+02   2.942312e+01
   1.419459e+02   1.038231e+02
   4.061245e+01   9.058776e+01
  -1.165607e+02   3.112557e+01
  -8.552579e+01  -1.369211e+01
   1.318819e+01  -1.094124e+00
   3.831893e+01  -8.406036e+00
  -4.101389e+01   6.122782e+01
  -8.889656e+01   2.116231e+01
  -9.851170e+01  -6.607402e+01
   2.104382e+01  -8.989860e+01
   8.323241e+01  -7.952501e+01
   4.540429e+01   1.414878e+01
   1.933121e+01   1.165491e+02
  -6.037514e+01   6.601476e+01
  -1.261579e+02   8.344256e+01
  -7.875819e+01   6.021246e+00
  -8.455084e+01  -8.628207e+01
   3.116774e+01  -1.099002e+02
   7.760043e+00  -5.442009e+01
   9.273839e+00  -1.345378e+01
   2.533457e+01  -4.415333e+01
   1.071338e+02  -4.127547e+01
   6.492852e+01   1.009693e+01
   3.374627e+01   6.210622e+01
  -3.087272e+01   9.472241e+01
  -8.948693e+01  -9.210126e+00
  -8.269533e+01  -6.349057e+01
  -2.581434e+01  -8.567334e+01
   6.266939e+01  -1.764938e+01
   9.887181e+01   3.106247e+01
   7.933940e+01   6.214812e+01
  -1.510563e+01   6.574206e+01
  -6.699445e+01   5.734726e+01
  -1.472914e+01   4.655341e+01
  -1.113706e+01   3.883725e+01
  -5.769632e+01   1.332165e+01
  -1.160912e+02   3.015049e+00
  -1.226570e+02  -4.011439e+01
  -2.450952e+01  -4.541412e+01
   9.152887e+01  -1.587748e+02
   1.140077e+02  -1.027504e+02
   1.243015e+02  -2.953890e+01
   2.894659e+01   7.595591e+01
  -2.530234e+01   1.087102e+02
  -1.195164e+01  -3.212984e+01
   5.548060e+01  -1.090461e+01
   1.729255e+01  -3.888777e+01
   5.087094e+01   4.295602e+01
  -5.274587e+01   2.207434e+01
  -4.694816e+01  -3.456242e+00
  -2.352957e+00  -4.416907e+01
   7.034620e+01  -1.576199e+01
   2.922204e+01   4.168243e+01
  -5.921860e+00   7.598468e+01
  -4.943572e+01   8.167726e+01
  -1.087172e+02   2.391102e+00
  -1.140979e+02  -4.600258e+01
  -3.381731e+01  -5.850134e+01
   3.445330e+00  -6.509603e+01
   2.982276e+01  -4.051177e+01
   5.484701e+00   2.049840e+01
  -5.892089e+00  -5.217702e+00
  -9.557416e+00  -1.147312e+01
  -2.001370e+01  -3.426580e+01
   2.665100e+01  -3.265012e+01
   1.856806e+01   1.799445e+01
  -3.118118e+01   5.137679e+00
  -8.791366e+00  -4.165808e+01
   4.452652e+01  -3.934147e+01
   8.672313e+01  -3.328788e+01
   1.165330e+02   4.588615e+01
   5.884630e+01   6.270783e+01
  -5.847891e+01   1.070415e+02
  -4.978284e+01   5.755369e+01
  -5.244545e+01  -1.129554e+01
  -1.027701e-01  -2.348113e+01
   1.011698e+01   4.263260e+00
  -1.154753e-01   3.869677e+01
  -7.269986e+01   3.280916e+01
  -4.738405e+01  -5.519768e+00
  -4.303413e+01  -1.068991e+01
   1.619068e+01  -6.319029e+01
   3.444592e+01  -1.009123e+01
   2.664292e+01   3.379884e+01
  -1.728226e+01  -3.130515e+01
   1.765799e+01  -4.251005e+01
   3.933576e+01  -5.012724e+01
   4.439614e+01  -3.002513e+01
   3.125173e+01   1.755180e+01
   3.633977e+01   6.612395e+01
  -2.665639e+01   6.050289e+01
  -5.593179e+01   3.736438e+01
  -3.358535e+01  -1.450762e+01
   2.614702e+00  -3.785280e+01
   2.156418e+01   1.100228e+01
   8.289414e+00   1.745707e+01
  -6.579330e+00  -1.167185e+01
   9.264517e+00  -1.633537e+01
   4.489658e+01   2.654552e+01
   7.006569e+00   7.106768e+00
   1.287047e+01   3.119340e+01
  -9.582057e+00   1.147471e+02
  -8.496402e+01   1.911675e+01
  -7.685696e+01  -6.157311e+01
  -3.983069e+01  -2.521674e+01
  -2.197422e+00  -9.019359e+01
   7.613287e+01  -6.464196e+01
   3.945115e+01   2.785601e+01
   2.318172e+01   6.420896e+00
   3.182091e+01  -2.029450e+00
   3.811510e+01   1.680745e+01
   1.915233e+01   2.125411e+01
  -1.898685e+01   2.337457e+01
  -3.814486e+01  -1.686932e+00
  -2.003872e+01   6.683291e+00
   1.121232e+01  -4.724580e+01
   5.114280e+01  -3.380970e+01
   6.049654e+01   3.274796e+01
   4.207737e+01   6.006601e+01
  -2.113267e+01   8.016167e+01
  -9.709630e+01   3.548305e+01
  -4.700838e+01   2.578284e+00
  -3.771017e+01  -7.312488e+01
   4.893977e+00  -4.734073e+01
   1.345371e+01  -3.260527e+01
   1.692741e+01   1.387728e+01
   2.216940e+01  -8.300506e+00
   3.236393e+01  -1.961440e+01
  -6.435299e+00   2.919193e+01
   4.724411e+01   4.218967e+01
   2.703650e+01   7.854162e+01
  -2.043654e+01   5.753500e+01
  -6.301952e+01   3.469840e+01
  -3.810953e+01  -4.896276e+01
   4.423299e+00  -7.209525e+01
   1.072711e+01  -4.135626e+01
   1.711751e+01  -1.054663e+01
   5.569208e+00   1.140059e+01
   2.180132e+00  -3.322225e-01
   3.651828e+01   1.169714e+01
   3.625706e+01  -1.118353e+01
   5.645328e+01   1.474463e+01
  -2.867121e+01   3.328287e+01
  -6.269602e+01  -8.175535e+00
  -5.273192e+01  -3.587623e+01
  -1.298053e+01  -4.981786e+01
   4.927684e+01   3.294067e+01
   2.191974e+01  -9.965334e+00
   2.056357e+01   1.130807e+01
   1.490652e+01   4.265106e+01
  -3.151361e+01   1.711079e+01
  -2.303855e+01  -3.073684e+01
   1.288006e+01  -3.626660e+01
  -3.022975e+00  -1.790260e+01
   4.311128e+01   1.372922e+01
   8.853887e+00   3.791774e+01
   1.396046e+01   1.570430e+01
   3.145213e+01  -1.819620e+01
   2.448010e+01  -9.770008e+00
  -1.504657e+01   2.488821e+01
  -2.964541e+01   7.009662e+01
  -4.801401e+01   1.742594e+01
  -3.733059e+01   1.728711e+01
  -1.866257e+01  -3.531097e+01
   6.331448e+00  -2.794860e+01
   5.727602e+01  -1.738616e+01
  -1.716428e+01  -8.743590e+00
  -3.724094e+01   3.396742e+01
   4.414875e+00  -1.176563e+01
   3.362382e+01  -3.281267e+01
   6.826030e+01  -5.863995e-01
   3.919215e+01  -5.304089e+00
   1.288567e+01   4.267452e+01
  -3.612650e+01   3.013296e+01
  -7.397745e-01   6.000156e+00
   2.034919e+01  -1.645548e+01
   3.282010e+01  -1.057776e+01
  -1.479388e+01   6.410599e+01
  -1.517639e-01   2.805272e+01
  -5.704708e+01   4.608372e+01
  -5.828698e+01  -3.251647e+01
  -4.291063e+01  -5.262914e+01
  -1.661646e+01  -2.731973e+01
   2.775118e+01  -1.338845e+01
   1.735160e+01   5.826499e+01
   1.139072e+01  -1.584052e-01
   2.359818e-02   1.374023e+01
  -1.923046e+01  -2.054660e+01
  -1.428786e+01  -4.630483e+01
   2.235434e+01   3.892528e+00
  -4.310915e+01   8.525066e+00
  -1.912914e+01  -4.408507e+01
  -3.674841e+01  -3.096369e+01
   2.338852e+01  -2.320796e+01
   5.522268e+01  -2.013146e+00
   6.404815e+01   2.102186e+01
   1.493692e+01   2.092123e+01
  -2.874555e+01   3.389278e+01
  -1.365175e+01   3.012762e+00
  -2.959611e+01  -2.740788e+01
   4.055906e+01  -1.236144e+01
   1.315611e+01   1.483738e+00
  -7.834794e+00  -4.037862e+00
  -6.702599e+00  -5.146434e+00
   1.917741e+01  -1.009603e+01
   2.685425e+01  -6.743599e+00
  -2.012210e+01   3.664819e+01
  -3.528710e+01   4.439887e+01
  -4.926548e+01   3.896781e+01
  -3.522294e+01  -1.871649e-01
  -2.184586e+01  -6.329187e+01
   2.367846e-01  -5.534589e+01
   6.600178e+01  -3.319669e+01
   3.056105e+01   2.366122e+00
  -2.119798e+01  -8.973390e+00
  -1.005404e+01   2.501279e+00
   6.144924e+00  -3.749617e+01
   1.841796e+00  -8.718561e+00
  -1.615927e+00   4.196494e+01
   2.823767e+00   2.476398e+01
  -3.437167e+01   2.703974e+01
  -3.524206e+01  -4.509565e+01
  -9.969004e+00  -2.198273e+01
   2.375028e+01  -2.209725e+01
   7.245400e+01  -1.277820e+01
  -1.251532e+01   3.676590e+01
  -3.571591e+01  -9.186010e+00
  -3.892368e+01  -7.906425e+00
   1.065430e+01  -1.036511e+01
   3.075500e+01  -1.480947e+01
  -2.263613e+00  -1.019757e+01
  -1.209106e+00   2.912976e+01
  -2.274310e+01   2.179117e+01
   2.257911e+01  -5.355414e+00
   2.299272e+01  -1.693640e+01
   2.400690e+01  -2.219305e+01
   2.775595e+01   2.907562e+01
   1.314230e+01   2.890943e+01
   8.775339e-01  -6.165102e+00
   6.890649e+00  -2.481928e+01
   5.281128e+00  -1.005720e+01
   6.435431e+00  -3.193366e+01
   1.701183e+00  -3.609880e-01
  -2.350942e+00   3.368020e+01
  -2.228677e+01   1.237374e+01
   1.202352e+01   7.231306e+00
  -7.780881e+00  -1.678370e+00
   8.779529e+00  -1.137110e+01
  -1.068807e+01   3.496040e+01
   1.913443e+01  -1.071850e+01
   8.643037e+00   2.150156e+01
  -1.787501e+01  -1.348663e+01
   6.699770e+00   2.218604e+00
   1.792821e+01   2.051985e+01
   9.259845e+00  -2.227908e+01
  -2.076606e+01   3.131662e+01
  -3.513813e+01  -1.979724e+01
  -1.451624e+01  -2.981951e+01
  -9.841823e+00  -2.053570e+01
   5.005277e+01   4.745657e+00
   1.832494e+01   1.241492e+01
  -5.709762e+00   2.163475e+01
  -2.982184e+01   6.380978e+00
   1.749897e+01   2.664998e+00
   8.719272e+00  -8.225979e+00
  -5.832239e+00  -2.134503e+01
  -5.709975e+00   2.814531e+00
  -1.466759e+01   3.104078e+01
