
 $NMID
 id='ANONYMOUS ', fmtdat='(2E16.6)'
 volume=1.0
 tramp=1.0
 $END
  -1.692165e+03  -3.864028e+02
  -1.545355e+03  -1.248651e+03
  -6.338949e+00  -1.229000e+03
   8.315672e+02  -8.636039e+02
   6.991348e+02  -3.900428e+02
   5.059598e+01   9.571477e+01
  -1.146342e+02  -1.151152e+01
  -3.342054e+01  -2.900696e+02
   2.474118e+02  -3.589052e+02
   3.970890e+02  -5.988357e+01
   2.509908e+02   3.710145e+02
   1.123297e+02   3.420245e+02
  -1.387680e+02   6.220718e+01
  -1.023045e+02  -2.757874e+02
   4.734324e+01  -2.671481e+02
   2.396520e+02  -1.017253e+02
   2.341629e+02   3.215500e+02
  -5.064482e+01   3.491847e+02
  -2.043208e+02   1.668644e+02
  -3.390467e+02  -8.430574e+01
  -1.287608e+02  -2.373376e+02
   1.723443e+01  -1.156382e+02
   9.188410e+00  -6.946269e+01
  -1.388666e+02  -1.030338e+02
  -1.388058e+02  -2.245624e+02
   3.626956e+01  -2.263961e+02
   3.218344e+02  -6.894252e+01
   4.589478e+02   1.462262e+02
   1.102589e+02   1.628002e+02
  -2.462675e+02   4.091897e+01
  -2.092129e+02  -7.583814e+01
  -2.907661e+01  -1.673715e+02
   2.340941e+02  -2.634745e+02
   2.989162e+02  -5.296420e+01
   2.469046e+02   1.117172e+02
  -8.015557e+00   2.209689e+02
   1.092161e+01   1.038275e+02
   7.949896e+01  -4.430319e+00
   1.722127e+02  -1.116884e+02
   3.911019e+01   7.009822e+01
  -1.258754e+02   3.544308e+02
  -2.331199e+02   2.725235e+02
  -2.438482e+02  -4.271559e+01
  -8.675189e+01  -2.315691e+02
   9.062177e+01  -6.974563e+01
   1.820294e+01   1.696847e+02
  -1.108186e+02   1.959699e+02
  -2.606806e+02  -2.217207e+01
  -3.277382e+02  -3.045132e+02
  -1.173869e+02  -3.668277e+02
   1.358684e+02  -1.829527e+02
   2.779610e+02   1.115001e+02
   2.412145e+02   1.585325e+02
   1.310101e+01   1.331689e+02
  -1.992559e+02   7.298493e+01
  -1.327816e+02  -2.010964e+01
  -2.084322e+01   1.494305e+01
   9.328227e+00   2.378883e+01
  -4.747814e+01  -1.229246e+01
  -1.547616e+02  -3.798614e+01
  -5.591268e+01  -8.616032e+01
   1.069839e+02  -2.304148e+02
   2.350663e+02  -7.207425e+01
   1.827620e+02   8.255070e+01
   2.154809e+01   2.199125e+02
  -2.395893e+02   2.111338e+02
  -2.342890e+02   8.807667e+01
  -1.839088e+02  -1.391024e+02
  -2.300975e+01  -2.617295e+02
  -2.622284e+01  -1.785391e+02
  -6.236418e-01  -1.208617e+02
  -4.545156e+00  -1.117728e+02
   1.247265e+02  -1.442310e+02
   1.791378e+02   3.246983e+01
   1.384816e+02   1.239156e+02
   2.823870e+01   1.544616e+02
  -1.124975e+02   1.420700e+02
  -1.081164e+02  -3.849395e+01
  -5.360555e+01  -2.313914e+02
   1.009392e+02  -1.440834e+02
   1.301604e+02  -3.948353e+01
   2.351888e+02   1.273219e+02
   1.142046e+02   2.297596e+02
  -3.263729e+01   1.667492e+02
  -6.503997e+01   8.440375e+01
  -9.281134e+01   6.365508e+01
  -9.279473e+01   3.912791e+01
  -2.109045e+02  -2.606233e+01
  -3.123274e+02  -8.399413e+01
  -2.427106e+02  -1.737362e+02
  -6.271232e-01  -3.356358e+02
   2.889557e+02  -2.618617e+02
   2.871279e+02  -5.533562e+01
   1.706550e+02   8.897550e+01
  -5.561789e+01   1.538735e+02
  -7.787702e+01   1.114602e+02
  -1.315053e+01   2.990548e+01
   1.087320e+02  -1.986730e+01
   1.001038e+02  -1.842624e-01
   3.358898e+00   1.116636e+02
  -4.366206e+01   4.306697e+01
  -9.133670e+01  -6.640813e+01
   4.743566e+01  -8.692774e+01
   1.384343e+02   1.175224e+01
   8.656373e+01   1.702934e+02
  -2.334718e+01   2.579218e+02
  -1.939406e+02   1.390360e+02
  -2.298963e+02  -4.442425e+01
  -1.245163e+02  -1.488129e+02
  -6.302793e+01  -1.928055e+02
   8.815635e+01  -9.009082e+01
   1.226397e+02  -2.689469e+00
   1.335486e+01   3.717258e+01
  -3.461810e+01  -6.140091e+01
   3.472858e+01  -1.098039e+02
   1.095325e+02  -2.764371e+01
   7.930949e+01  -8.034897e+00
  -2.591532e+01   4.305102e+01
  -8.199069e+01   1.447795e+01
  -5.326912e+01  -6.258584e+01
   1.073274e+02  -6.947728e+01
   2.310020e+02   7.224039e+01
   1.638106e+02   1.345219e+02
  -1.391021e+01   1.988441e+02
  -1.473761e+02   1.163753e+02
  -1.862687e+02   3.967842e+01
  -1.026493e+02  -4.654095e+01
   3.792308e+01  -3.325850e+01
   4.306876e+01   2.381748e+01
  -4.567794e+01   5.363081e+01
  -1.354243e+02   4.006235e+00
  -1.252066e+02  -6.240288e+01
  -1.234861e+01  -1.393702e+02
   8.371279e+01  -2.903318e+01
   7.411786e+01   1.270410e+01
   1.310572e+01   4.420553e+00
  -3.724673e+01  -5.303686e+01
  -5.325082e+01  -1.092655e+02
   4.890471e+01  -8.765977e+01
   1.426511e+02   1.518715e+01
   9.902567e+01   1.022961e+02
  -5.684506e+00   1.372926e+02
  -1.085419e+02   1.049848e+02
  -1.411840e+02  -2.093226e+01
  -3.186485e+01  -6.810087e+01
   2.394097e+01  -4.895563e+01
   4.589452e+01  -9.609969e+00
  -2.854535e+01   1.689721e+01
  -4.558067e+01   2.763146e+01
   4.353183e-01  -3.147999e+00
   5.455170e+01   6.141360e+00
   8.970509e+01   4.631749e+01
   2.472233e+01   1.132612e+02
  -1.255846e+02   1.205200e+02
  -1.486702e+02   1.893110e+01
  -1.072919e+02  -1.543879e+02
  -4.041064e+01  -1.131350e+02
   7.322440e+01  -1.006313e+02
   6.934041e+01   9.056570e+00
   4.383936e+01   2.788112e+01
   3.031981e+01   2.513974e+01
   4.010105e+01   1.733899e+01
   7.619067e+01  -8.821992e+00
   2.536257e+01   4.802482e+01
  -2.196168e+01   7.702901e+01
  -7.347664e+01   7.452855e+01
  -9.901668e+01  -2.578153e+01
  -4.563672e+00  -8.897833e+01
   1.094469e+02  -3.340998e+01
   1.349012e+02   7.094692e+01
   3.130479e+01   1.500586e+02
  -1.015130e+02   1.268095e+02
  -1.572711e+02   5.723592e+01
  -1.716722e+02  -6.819059e+01
  -9.498156e+01  -1.188190e+02
   2.271874e+01  -6.739872e+01
   5.071849e+01  -6.611439e+01
   1.879315e+01  -5.315932e+01
   6.760672e+01  -8.509353e+01
   7.463783e+01  -6.988435e+01
   7.811829e+01   1.539699e+01
   7.872159e+01   1.065138e+02
   1.865224e+01   1.462915e+02
  -1.030811e+02   1.031742e+02
  -1.241121e+02   3.009376e+01
  -8.395352e+01  -8.195115e+01
  -3.050355e-01  -7.852330e+01
   3.616385e+01  -6.426042e+01
   4.801225e+01   2.223608e+01
  -2.320231e+00   4.104862e+01
  -3.954323e+01  -1.768304e+01
   6.382001e+00  -7.482405e+00
   4.886261e+01   1.110830e+01
   4.291026e+01   2.273452e+01
  -6.325432e+01   2.763480e+01
  -1.217546e+02  -3.073889e+01
  -7.311143e+01  -4.633349e+01
   1.290088e+01  -5.875808e+01
   1.034694e+02  -5.108283e+01
   1.178902e+02  -2.706019e+01
   1.519567e+01   5.978436e+01
  -6.554811e+01   4.702588e+01
  -3.614804e+01  -7.465281e+00
  -2.291143e+01  -6.454127e+01
   3.460594e+01  -6.636418e+01
   6.549458e+01  -7.263351e+00
   5.724279e+01  -3.314304e+00
   5.697872e+01   5.690526e+00
   4.958777e+01   2.146997e+00
   7.549818e+01   8.741515e+00
   4.005997e+01   4.856839e+01
  -8.786184e+00   1.177889e+02
  -9.236335e+01   1.054833e+02
  -1.519993e+02   2.269683e+01
  -1.186114e+02  -6.337893e+01
   3.374094e+01  -8.854917e+01
   5.160811e+01  -4.266320e+01
   1.462183e+01   1.624902e+01
  -4.288899e+01   1.614699e+01
  -8.987935e+01  -1.632334e+01
  -5.385069e+01  -7.093372e+01
   6.371627e+01  -5.750643e+01
   9.509438e+01   9.194007e-01
   1.058237e+02   2.249702e+01
   5.237470e+01   3.129875e+01
  -4.673654e+01   1.949645e+01
  -5.445738e+01  -3.377053e+01
   3.098012e+01  -8.040805e+00
   6.005134e+01   4.829425e+00
   1.472386e+01   1.000856e+02
  -5.534731e+01   9.903823e+01
  -7.427737e+01   1.227397e+01
  -5.326368e+01  -5.239886e+01
  -6.035714e+00  -1.331556e+02
   7.423506e+01  -1.221258e+02
   5.327669e+01   1.690045e+01
   3.217163e+01   7.770772e+01
  -2.105464e+01   5.368723e+01
  -5.349632e+01  -1.403758e+01
  -2.093082e+01  -2.609406e+01
  -2.156298e+01   1.079503e+01
  -1.066508e+01   2.204734e+01
  -4.878807e+01  -2.844517e+01
  -3.632629e+01  -9.070524e+01
  -2.888894e+01  -7.308082e+01
   3.957957e+01  -4.791476e+01
   8.353330e+01   2.259009e+01
   7.659624e+01   4.911054e+01
  -2.823405e+00   2.904440e+01
  -1.272173e+01   3.280204e+01
  -5.637057e+01  -3.380097e+01
  -2.363821e+01  -1.277882e+00
   3.733928e+01  -1.766530e+01
   3.390860e+00  -6.789326e+00
   1.100107e+00   9.638406e-02
   2.112848e+01  -1.329177e+00
   6.001235e+01  -6.799733e+00
   7.253966e+01   1.712639e+01
   2.304033e+01   5.273185e+01
  -8.113468e+01   5.913510e+01
  -1.165266e+02   3.694715e+01
  -9.636728e+01  -2.037571e+01
  -4.460610e+01  -8.835564e+01
   6.406436e+01  -1.210622e+02
   7.549341e+01  -6.670035e+01
   4.862465e+01   3.008685e+01
   2.213496e+01   2.141818e+01
  -2.550981e+01  -1.567104e+01
   1.259956e+01   1.669306e+01
   5.476946e+01   5.053342e+01
   8.771414e+00   7.145121e+01
  -2.017634e+01   3.547146e+01
  -8.263510e+01  -3.214628e+01
  -5.977696e+01  -7.153043e+01
   8.830778e+00  -5.495028e+01
   6.686973e+01  -1.184999e+01
   5.098618e+01   4.380492e+01
   6.965755e+00   7.028332e+01
  -2.015786e+01   4.190249e+01
  -5.767976e+01   3.408791e+01
  -2.823707e+01  -8.428132e+01
   4.774849e+01  -4.907440e+01
   1.466597e+01  -2.721637e+01
  -2.371193e+01  -8.745654e+00
  -6.603354e+01   1.194122e+01
  -1.934955e+01  -1.620939e+01
   4.627624e+01  -3.215715e+01
   7.286019e+01  -5.492811e+01
   2.821605e+01   5.749725e+01
  -8.528989e+00   5.451392e+01
  -7.436792e+01   5.870380e+01
  -3.898409e+01   3.070213e+01
   1.811289e+01  -2.969904e+01
   1.808111e+01  -2.983325e+01
  -5.132001e+00  -7.400424e+00
  -3.230547e+00   8.949834e+00
  -1.067483e+01   2.738226e+01
  -4.735921e+01   8.950386e+00
  -2.875782e+01  -1.873033e+01
  -1.015202e+00  -3.536542e-01
   2.175266e+01   5.495943e+00
  -2.600895e+01   1.118617e+01
   3.942287e+00  -2.911014e+01
  -2.428582e+01  -3.208774e+01
   3.361448e+01  -3.517362e+01
   5.896445e+01   4.025926e+01
   2.647827e+01   8.012315e+01
  -1.177693e+01   9.207270e+00
  -2.787286e+01  -1.989558e+01
  -2.327597e+01  -3.344343e+01
   5.062074e+01  -2.350316e+01
   5.385379e+01   1.883683e+01
   3.292447e+01   3.743857e+01
  -3.250086e+01   4.412241e+01
  -6.603059e+01   7.018627e+00
  -3.254781e+01  -1.189196e+01
   2.905426e+01  -1.054779e+01
   2.130341e+01  -2.313046e+01
  -1.018978e+01   9.502230e+00
  -6.272990e+01   5.239778e+01
