
 $NMID
 id='ANONYMOUS ', fmtdat='(2E16.6)'
 volume=1.0
 tramp=1.0
 $END
   1.170912e+03   1.901188e+02
   6.983779e+02   2.093820e+02
  -1.465013e+02   7.264186e+02
  -5.578934e+02   3.887630e+02
  -3.665792e+02   1.339799e+02
  -2.664934e+01  -1.790372e+02
   1.495615e+02  -4.901002e+01
   7.996832e+01   1.254718e+02
  -1.770313e+02   2.204668e+02
  -1.370938e+02   1.238192e+02
  -1.016532e+02  -4.932681e+01
  -5.660079e+01  -2.002540e+02
   6.998306e+01  -7.378984e+01
   1.258231e+02   1.118991e+02
  -6.858530e+01   2.453072e+02
  -7.826532e+01   2.705009e+01
  -1.169098e+02  -1.158113e+02
   8.063633e+01  -1.602447e+02
   1.342908e+02  -1.431498e+02
   1.116528e+02   5.138054e+01
   3.238695e+01   6.265828e+01
   1.342755e+01   1.107825e+02
  -2.433592e+01   5.490538e+01
   5.949073e+01  -4.857351e+00
   1.046174e+02   3.269787e+01
  -1.301122e+01   7.054297e+01
  -1.338899e+02   6.760706e+01
  -1.291028e+02  -9.506714e+00
  -7.913247e+01  -8.289219e+00
   1.205087e+02  -1.146880e+02
   1.621519e+02  -1.658476e+00
   4.557802e+01   1.154682e+02
  -1.145702e+02   1.516250e+02
  -1.818919e+02   3.466737e+01
  -1.519863e+02  -1.011236e+01
  -8.056238e+01  -1.256715e+02
   9.555376e+00  -8.055839e+01
   1.466286e+01   6.484620e+01
   1.513971e+00   7.200035e+01
  -4.889126e+01   1.205046e+01
  -8.808578e+01  -1.435224e+02
   9.864952e+00  -1.143872e+02
   1.240293e+02  -4.038476e+01
   2.109112e+01   1.101439e+02
  -1.832314e+01   1.264948e+01
  -5.985716e+01  -1.107444e+02
   2.445866e+01  -1.168422e+02
   1.132615e+02  -2.019842e+01
   1.331821e+02   1.075773e+02
   1.195734e+01   1.062510e+02
  -4.104922e+01   1.157386e+02
  -1.736498e+02  -2.947041e+01
  -1.172023e+02  -1.175850e+02
   2.030755e+00  -5.327298e+01
   7.633747e+01  -4.435176e+01
   7.194725e+01   2.100096e+01
  -7.809547e-01   5.609060e+00
  -3.423794e+01  -4.210669e+00
   4.400928e+01  -1.444639e+01
   8.664490e+01  -5.490081e+01
   5.134176e+01   7.970189e+01
  -1.476767e+01   3.841132e+01
  -9.900445e+01   2.641502e+01
  -6.621870e+01  -4.841577e+01
   4.417513e+01  -6.774612e+01
   3.589737e+01  -1.326128e+02
   1.455450e+02  -6.100762e+01
   3.465799e+01   3.202656e+01
   3.158058e+01   5.197938e+01
   4.254849e+01   3.703398e+01
  -1.959299e+01   6.658778e+01
   3.857067e-01   3.050382e+01
  -2.451536e+01   2.832933e+01
  -8.147051e+01  -1.015920e+01
  -3.601566e+01  -5.835259e+01
  -2.667068e+01  -4.494854e+01
   2.937582e+01  -9.165596e+01
   7.327953e+01   1.799790e+01
   2.377734e+01  -4.966470e-01
   1.070404e+01   8.156434e+01
  -4.203418e+01   4.165187e+01
  -1.008692e+02  -3.558150e+01
  -3.892012e+01  -8.602415e+01
   9.835304e+00  -7.266153e+01
   8.330897e+01  -1.374071e+01
   3.872688e+01  -2.416129e+01
   2.858704e+01  -8.241414e+00
   7.427683e+01   5.015691e+01
   1.283791e+02   3.159245e+00
   7.530922e+01   9.647439e+01
   1.048143e+01   7.790901e+01
  -7.160883e+01   1.373159e+02
  -1.487804e+02   7.352668e+01
  -6.851671e+01  -4.326800e+01
  -1.862376e+01  -6.653552e+01
   1.438248e+01  -1.050001e+02
   9.715071e+00   2.154488e+01
  -3.574369e+01   2.861976e+01
  -1.456721e+01   8.316834e+00
  -8.579535e+00  -2.041985e+01
   4.088538e+01  -3.807580e+01
   3.053625e+01   5.610453e+00
   1.058012e+01   2.753748e+01
  -6.164932e+01  -1.333356e+01
  -2.339355e+01  -3.920154e+01
   2.004233e+01  -7.601537e+01
   4.465015e+01  -5.780389e+01
   1.407315e+02   6.827152e+01
   9.855415e+01   6.509671e+01
   6.294502e+00   9.453455e+01
  -3.562601e+01   2.165105e+01
  -4.886706e+01  -9.358295e-01
  -1.012246e+01  -3.566343e+01
   3.936703e+01   3.571645e+01
   1.535472e+01  -9.195529e-01
   2.191203e+01   3.050042e+01
  -4.904049e+01   9.475827e+00
  -1.050759e+01  -1.257097e+01
   2.595333e+01  -2.098744e+00
   2.983000e+01   2.900296e+01
  -6.121401e+01   2.993276e+01
  -8.170330e+01   1.005225e+00
  -8.402076e+01  -5.389735e+01
  -1.662466e+01  -7.331693e+01
   4.992985e+01  -8.883709e+01
   7.460245e+01  -8.673060e+01
   4.104685e+01   1.766065e+01
  -1.685762e+00  -1.287173e+01
  -1.902142e+01  -1.615468e+01
   1.794010e+01  -3.959888e+01
   7.806271e+01  -2.018372e+01
   4.985015e+01   5.621345e+01
   3.746616e+00   5.654645e+01
  -9.482864e+00   3.170168e+01
  -2.797362e+01  -3.285269e+01
  -1.168863e+01   7.674340e+00
   5.967358e+00  -1.121792e+01
  -6.306513e+00   7.793445e+00
  -3.356518e+01   3.601184e+01
  -5.351350e+01   3.879121e+01
  -4.039384e+01   2.128525e+01
   8.337647e+00  -2.112727e+01
  -1.990593e+00  -7.225166e+01
   5.762427e+01  -2.127101e+01
  -8.701210e+00   4.292404e+01
  -3.812601e+00   5.038730e+01
  -3.206104e+01  -4.155650e+00
   1.776393e+01  -9.908579e+00
   4.070548e+00   6.880555e-01
   1.253534e+01  -7.022330e+00
  -1.051818e+01   5.224487e+00
  -2.526297e+01  -1.766926e+01
   2.129114e+01  -5.202537e+01
   3.930716e+01  -8.927596e+01
   6.428420e+01  -1.647094e+01
   3.120924e+01   6.329994e+01
   4.240358e+01   3.472434e+01
  -1.470333e+01   6.176170e+01
  -5.438030e+01   2.229974e+01
  -3.367265e+01  -1.345635e+01
  -7.094218e+00  -1.157528e+01
  -7.932105e+00  -3.524825e+00
  -3.790540e+01   4.881302e+00
  -2.814795e+00  -2.393932e+01
   4.039373e+01  -4.591524e+01
   9.592031e+00  -2.479880e+01
   4.457598e+01   7.523253e+00
   8.051694e+00   3.879622e+01
  -7.657944e+01   3.421987e+01
  -6.291569e+01  -2.682764e+01
  -2.447117e+01  -5.360844e+01
   2.592576e+01  -7.196615e+01
   8.940793e+01  -2.493272e+01
   8.836785e+01   8.257875e+00
   1.538462e+01   2.726389e+01
  -2.007681e+01   3.032592e+01
  -1.061470e+01   2.389730e+01
   2.299222e+01   1.008391e+01
  -3.151283e+01   3.704377e+01
  -2.369134e+01   5.629862e+00
  -5.962701e+00  -2.026733e+01
  -3.036248e+01  -3.592353e+01
  -2.155997e+01  -1.097378e+02
   2.659613e+01  -1.213466e+01
   3.010567e+01  -3.130290e+01
   3.622497e+01   4.451794e+01
   8.595915e+00   7.782392e+01
  -2.491461e+00   2.296832e+01
  -4.760648e+00  -3.374177e+01
  -2.103941e+01  -2.756470e+01
   5.924632e+00   1.771034e+00
  -3.363599e+01   1.075825e+01
  -2.724651e+01  -7.019055e+00
  -1.057342e+01  -2.819805e+01
   3.377187e+01  -1.050347e+01
   5.887054e+01   4.576502e+00
   4.069531e+01   2.526558e+01
  -8.652192e+00   1.652899e+01
  -3.630177e+01   6.611252e+00
  -5.161075e+01   1.595892e+01
  -1.858845e+01  -2.225743e+01
   1.486662e+01  -1.881188e+01
   4.896176e+01  -5.262258e+00
   3.156606e+00   1.488219e+01
  -1.165013e+01   2.388561e+01
  -1.870431e+01   4.087736e+01
   1.205024e+01  -2.231677e+01
  -1.070736e+01  -1.834058e+01
   8.715332e+00  -9.681780e+00
  -1.506541e+01  -2.125232e+01
  -3.595643e+01  -2.064751e+01
   1.419903e+01  -4.030311e+01
   4.660238e+01  -6.783316e+01
   3.197385e+01  -2.976319e+01
   7.284022e+01  -4.882687e+00
   2.932575e+01   4.569266e+01
  -4.470053e+01   1.860746e+01
   7.295346e-01   2.183933e+01
   3.619906e+01  -1.146778e+01
  -1.115191e+00  -7.266586e+00
  -3.967863e-01   1.841612e+01
  -2.272360e+01   1.106406e+01
  -4.677187e+01   6.613559e+00
  -3.331129e+01  -4.449443e+01
  -3.259031e+00  -2.881759e+01
   6.107551e+00  -3.782533e+01
   1.185789e+00   3.007156e+00
  -9.344036e+00   8.841339e+00
  -5.549549e+01   2.376161e+01
   8.115155e+00  -4.130343e+01
  -4.609049e+00  -1.811426e+01
   3.241930e+01  -3.214188e+01
   2.017087e+01   2.986609e+01
   6.749271e-01   3.977702e+01
   1.283184e+01   3.780185e+01
  -2.171934e+01   1.123967e+01
   8.736913e-01  -7.551571e+01
  -2.898730e+01  -3.061550e+01
   7.698990e-01  -3.694147e+00
   1.052799e+01   1.758667e+01
  -1.869503e+01   2.612575e+01
   1.256482e+00  -1.449940e+00
  -6.776236e+00  -8.149018e+00
  -1.217840e+00   5.023422e+01
  -8.903127e-01   4.644265e+01
  -2.483494e+01   1.759980e+01
  -3.468894e+01  -2.121818e+01
  -5.048791e+01  -3.215012e+01
  -6.773152e+00  -3.730041e+01
   2.962298e+01  -3.844711e+01
   6.008802e+01  -1.059774e+01
   1.327648e+01   5.852952e+00
  -2.010923e+01   6.645429e+00
  -1.733072e+00   3.371956e+00
  -2.104950e+01  -3.805297e+00
   7.834076e+00   1.875376e+01
   9.616208e+00   7.302994e+00
  -1.857007e+01   1.983856e+01
  -1.528281e+01  -5.606921e+00
   3.351005e+01  -5.661265e+01
   7.642037e+01  -5.316207e+01
   1.657550e+01   1.516883e+01
  -5.061577e+00   6.478259e+01
  -6.474729e+00   3.803545e+01
  -1.959435e+01   1.489575e+01
  -3.001966e+01   6.271822e+00
  -1.223054e+01  -1.864716e+01
   3.646026e+01  -1.005364e+01
  -7.724540e+00  -1.734079e+00
  -7.881824e+00  -6.644780e+00
  -3.914806e+01  -2.439531e+01
   4.891325e+00   2.702519e+00
   1.014566e+01  -2.399874e+01
   3.499767e+01   2.232503e+01
   9.422455e+00   2.774712e+01
  -1.063326e+01   7.977536e+00
  -5.804992e+01  -4.539115e+00
  -2.961698e+01  -2.946678e+01
   3.964024e+01  -1.736734e+01
   5.367048e+01   1.586123e+01
  -3.612614e-01   3.180755e+01
  -1.756810e+01   8.431233e-01
   6.081242e+00  -1.302199e+01
  -1.742756e+01   1.961676e+01
   7.684474e+00   5.116864e+00
  -2.366707e+01  -2.594699e-01
  -1.825156e+01   2.391429e+01
  -1.429056e+01   1.329346e+00
  -2.621076e+01  -1.814155e+01
  -2.128794e+01   5.058037e-01
   8.017210e+00  -3.011500e+01
   1.686285e+01   1.345808e+01
   1.163774e+01   3.938354e+01
  -1.234368e+01  -5.500741e+00
  -3.436422e+01  -2.079713e+01
  -2.282538e+00  -4.105128e+01
   1.921668e+01   5.993175e-01
   1.804438e+01   4.082465e+00
   5.583680e+00  -2.188433e+01
  -2.159186e+01   2.149956e+01
  -6.202064e+00   1.069140e+01
  -2.881789e+01   3.095499e+01
   2.214753e+01   4.761929e+00
  -8.005848e+00   3.724954e+00
   1.092020e+01   2.997842e+01
  -3.493558e+01  -7.818558e+00
  -2.077862e+00  -2.449427e+01
  -3.573545e+00  -1.892883e+01
   1.993184e+01   2.976164e+01
   2.378727e+01   1.237042e+01
  -2.479845e+00   2.093706e+01
  -4.457568e+01   1.474611e+01
  -8.152543e+00  -1.441470e+01
   3.788251e+01  -7.788051e+00
  -3.519963e+00  -6.457162e+00
  -3.096080e-01  -2.022791e+01
   1.718431e+01   2.767684e+01
  -1.745361e+01  -1.593504e+01
   3.118624e+01  -3.381956e+01
   2.513795e+01  -6.351878e+00
