
 $NMID
 id='ANONYMOUS ', fmtdat='(2E16.6)'
 volume=1.0
 tramp=1.0
 $END
   2.501263e+03  -2.470869e+01
   1.608051e+03   1.056019e+03
   9.183032e+01   1.688663e+03
  -7.369226e+02   8.597522e+02
  -6.978735e+02   6.573124e+01
  -7.379186e+01  -1.368085e+02
   2.111158e+02   4.798039e+01
  -3.509056e+00   4.431706e+02
  -4.890177e+02   6.234827e+02
  -4.540158e+02   4.149306e+01
  -3.435897e+02  -4.941987e+02
   1.413622e+02  -4.697055e+02
   1.398236e+02  -1.325860e+02
   1.912996e+02   2.935725e+02
  -5.149085e+01   3.407684e+02
  -2.498160e+02   5.144760e+01
  -2.223902e+02  -2.726216e+02
   1.586294e+02  -4.703092e+02
   3.427280e+02  -1.485502e+02
   3.239387e+02   1.575443e+02
   5.590623e+01   2.754177e+02
  -1.280135e+02   2.037876e+02
  -1.446005e+01   6.938876e+01
   1.915859e+02   1.019056e+02
   2.269300e+02   2.916963e+02
  -8.435810e+01   3.138962e+02
  -4.372814e+02   5.024511e+01
  -4.801172e+02  -1.579899e+02
  -1.388760e+02  -2.463030e+02
   3.071380e+02  -4.619150e+01
   4.288824e+02   2.213069e+02
   1.246276e+02   3.739565e+02
  -2.225332e+02   2.489092e+02
  -3.968650e+02   1.021152e+02
  -2.605244e+02  -9.704870e+01
  -1.389038e+01  -2.020048e+02
   3.158122e+01  -1.393151e+02
  -3.643080e+01   8.868114e+01
  -1.882316e+02   1.524985e+02
  -1.608349e+02  -2.049775e+02
   1.242570e+01  -3.863099e+02
   1.403880e+02  -3.848707e+02
   2.033342e+02   3.288421e+01
   3.375416e+01   2.352228e+02
  -1.072585e+02   1.183015e+02
  -6.384562e+01  -2.459244e+02
   1.252110e+02  -3.024581e+02
   3.971219e+02  -7.427197e+01
   3.432262e+02   3.479310e+02
   1.704466e+02   4.493119e+02
  -1.993706e+02   2.163518e+02
  -4.352287e+02  -1.183505e+02
  -2.021751e+02  -2.230812e+02
   5.120947e+01  -1.660594e+02
   2.450307e+02  -2.248884e+01
   1.677184e+02  -9.350130e-01
   1.062257e+01   7.422536e+00
  -3.266871e+01  -5.169178e+01
   5.880698e+01   1.131516e+01
   1.674486e+02   5.679579e+01
   1.154807e+02   1.492434e+02
  -9.550692e+01   1.808479e+02
  -2.979422e+02   9.140533e+01
  -1.906956e+02  -1.174823e+02
   6.759742e+01  -2.415235e+02
   2.679395e+02  -3.842520e+02
   3.359518e+02  -8.197889e+01
   1.740681e+02   1.306302e+02
  -1.198245e+01   2.183045e+02
  -3.459233e+01   2.327032e+02
  -3.813996e+01   1.064828e+02
  -1.445102e+01   9.439329e+01
  -1.378410e+02   1.062423e+02
  -1.739258e+02   1.914186e+01
  -1.721730e+02  -9.915115e+01
  -6.366854e+01  -1.667851e+02
   1.200336e+02  -1.228876e+02
   1.278778e+02   1.159605e+02
   7.515698e+01   1.796140e+02
  -7.582967e+01   1.749502e+02
  -1.975741e+02   3.233118e+01
  -2.733475e+02  -1.805311e+02
  -1.361637e+02  -2.732251e+02
   8.487996e+01  -2.009905e+02
   1.012462e+02  -1.278814e+02
   9.537360e+01  -7.129933e+01
   1.468530e+02  -2.531420e+01
   2.518610e+02  -4.651062e+01
   3.424675e+02   1.188400e+02
   2.281333e+02   2.195372e+02
  -1.980043e+00   3.801633e+02
  -2.863793e+02   3.125907e+02
  -3.902598e+02   1.478445e+02
  -1.703946e+02  -7.722250e+01
   1.839380e+01  -2.086218e+02
   5.955030e+01  -1.456937e+02
   4.569397e+00  -3.216510e+01
  -1.137760e+02   7.705457e+00
  -8.555796e+01  -3.683534e+01
  -8.274880e+00  -7.222041e+01
   1.161386e+02  -7.411122e+01
   4.182732e+01   2.519178e+01
  -6.510341e+01   1.090536e+02
  -1.453301e+02   1.747758e+01
  -9.719122e+01  -1.733942e+02
   1.614497e+01  -2.461432e+02
   2.202404e+02  -1.604585e+02
   2.861971e+02   7.165874e+01
   2.176916e+02   1.778119e+02
   2.457588e+01   2.288623e+02
  -9.950627e+01   7.481622e+01
  -1.131703e+02   8.385278e+00
  -5.755465e+01  -1.145983e+01
   4.347890e+01   5.099071e+01
  -9.423158e+00   8.012627e+01
  -1.210126e+02   4.547017e+01
  -8.818804e+01  -2.679629e+01
  -5.629809e+00  -6.892455e+01
   5.979363e+01   1.625622e+01
   1.819013e+01   8.219660e+01
  -1.440233e+02   4.700098e+01
  -2.730298e+02  -1.783254e+01
  -2.024915e+02  -1.713509e+02
  -1.751589e+01  -2.066228e+02
   2.089725e+02  -1.692188e+02
   2.102812e+02  -4.042365e+01
   9.885740e+01   1.292509e+01
  -5.459892e+01   2.260069e+01
  -4.271629e+01  -1.415997e+01
   4.746033e+01  -7.472287e+01
   1.171320e+02   1.606507e+01
   1.511062e+02   7.037401e+01
   4.435482e+01   1.716383e+02
  -1.001856e+02   1.031529e+02
  -8.604444e+01   6.809680e+00
  -3.094854e+01  -1.557435e+01
   2.471431e+01   3.053247e+01
  -1.016639e+01   1.081208e+02
  -6.980129e+01   8.795532e+01
  -1.651456e+02   1.096093e+00
  -1.428700e+02  -1.314139e+02
   3.747855e-01  -1.468568e+02
   1.576368e+02  -7.364667e+01
   1.565096e+02   2.321991e+01
   4.396830e+01   6.228817e+01
  -6.255113e+01   5.340212e+01
  -7.779486e+01   1.340827e-01
   9.142790e+00  -2.929961e+01
   5.687686e+00  -2.620520e+01
   1.931376e+00  -1.060692e+01
  -4.586710e+01   4.335647e+01
  -1.242861e+02  -4.162596e+01
   8.332969e+00  -1.391846e+02
   1.041646e+02  -1.085104e+02
   1.870661e+02  -2.556836e+01
   1.444594e+02   1.374135e+02
   4.330690e+00   1.474672e+02
  -7.130640e+01   1.260499e+02
  -8.377865e+01   2.678121e+01
  -9.540277e+01  -2.841657e+01
  -3.603209e+01  -1.813340e+01
  -5.259803e+01  -4.971011e+00
  -6.048275e+01   1.220839e+01
  -7.608757e+01  -5.357551e+01
   2.718630e+01  -1.189055e+02
   7.580861e+01  -7.833567e+01
   1.011859e+02   6.135993e+01
  -4.052525e+01   7.824543e+01
  -1.640494e+02   7.706770e+01
  -1.708445e+02  -7.677407e+01
  -1.008167e+01  -1.918370e+02
   1.457499e+02  -1.673836e+02
   2.120348e+02  -3.418979e+01
   1.990164e+02   9.618989e+01
   8.740385e+01   1.109171e+02
  -3.757457e+01   9.759595e+01
  -6.925492e+01   4.352843e+01
  -3.059416e+01   2.399266e+01
  -4.790939e+01   9.578898e+01
  -8.229266e+01   5.978621e+01
  -8.920280e+01  -5.833827e+01
  -4.764495e+01  -1.102868e+02
  -4.637615e+00  -2.130838e+02
   1.125342e+02  -1.400040e+02
   1.632641e+02  -3.090861e+00
   9.093747e+01   8.455442e+01
   2.610534e+00   1.357621e+02
  -7.794484e+01   6.286663e+01
  -6.276249e+01  -2.987278e+01
  -2.810227e+00  -3.887115e+01
   1.367688e+00  -2.744412e+01
  -1.463211e+01   4.641234e+00
  -8.276041e+01  -2.718035e+00
  -3.167726e+01  -2.238660e+01
   5.770416e+01  -4.124466e+01
   1.436557e+02   1.118558e+01
   1.069575e+02   8.917754e+01
  -2.727908e+00   4.857642e+01
  -1.276416e+02   2.017940e+01
  -1.192437e+02   1.656099e+01
  -3.044612e+01  -3.748680e+01
   4.786118e+01  -2.159556e+00
   7.305598e+01   1.360972e+01
   1.492585e+01   8.525197e+01
  -5.333782e+01   2.561168e+01
  -4.353066e+01  -1.944287e+01
  -5.925602e+01  -4.386711e+01
  -4.546766e+01  -5.795994e+01
  -5.326617e+01   1.468041e+01
  -3.969081e+01   3.427492e+00
  -2.135237e+01  -4.210732e+01
   2.120831e+01  -9.536149e+01
   1.008914e+02  -1.260507e+02
   1.527125e+02  -1.443055e+01
   8.676731e+01   1.061816e+02
   1.725233e+01   1.160204e+02
  -1.047701e+02   3.997609e+01
  -6.079527e+01  -3.161710e+00
   3.200370e+01  -2.688126e+01
   9.939279e+01   5.216437e+01
   4.426505e+01   8.831583e+01
  -5.611677e+01   1.128554e+02
  -1.622475e+02   2.751629e+01
  -1.154268e+02  -5.438564e+01
  -4.931189e+01  -6.948003e+01
   8.372724e+01  -4.433926e+01
   2.024782e+01   8.751912e+00
  -5.935392e+01   2.609707e+01
  -5.151945e+01  -2.738645e+01
  -3.458317e+01  -9.526580e+01
   4.797127e+01  -1.115322e+02
   1.157395e+02  -3.568427e+01
   8.693903e+01   9.004178e+01
   3.206576e+01   1.346729e+02
  -2.255349e+01   9.953300e+01
  -9.375863e+01  -2.101208e+01
  -4.116203e+01  -1.010988e+02
   2.553063e+01  -9.269235e+01
   5.863637e+01  -1.882967e+01
   2.695842e+01   2.959307e+01
   1.809640e+01  -3.088410e+01
   2.309314e+01  -1.572759e+01
   2.495298e+01   7.813231e+00
   7.826992e+01   7.804905e+01
   2.870203e+01   8.824287e+01
  -4.118288e+01   3.576763e+01
  -1.411707e+02  -2.595284e+01
  -7.267032e+01  -5.810115e+01
   9.324779e-01  -4.391503e+01
   5.162847e+01  -2.640548e+01
   7.523820e+01  -7.962603e+00
   2.055588e+01  -8.840204e+00
  -2.470274e+01   4.482152e+01
  -2.981835e+01   1.114282e+01
  -7.188671e+00   1.501041e+01
  -6.609963e+00  -3.595157e+01
  -2.821409e+01   3.692167e+01
  -8.464525e+01  -2.795304e+00
  -3.475395e+00  -6.847860e+01
   1.020733e+02  -1.140563e+02
   1.488420e+02  -6.357601e+01
   1.124119e+02   4.490884e+01
   1.203596e+01   8.385540e+01
  -5.140307e+01   1.160921e+02
  -7.567596e+01   7.560548e+01
  -5.732885e+01  -2.274354e+01
  -1.569784e+01  -5.806333e+01
   1.266184e+01  -1.344258e-01
  -9.290536e+00  -1.798468e+01
  -5.240533e+01  -3.764445e+01
  -3.533006e+01  -5.386315e+01
  -2.499975e-01  -4.415529e+01
   7.411652e+01   9.400241e-01
   6.774808e+01   5.951926e+01
   1.628331e+01   1.353897e+02
  -4.211292e+01   2.673127e+01
  -9.799224e+01  -4.930068e+01
  -3.338100e+01  -9.678880e+01
   5.777121e+01  -5.048201e+01
   5.609697e+01  -2.945176e+01
   5.016461e+01   7.179630e+01
  -2.771342e+01   6.657812e+01
  -4.030795e+01   1.146489e+01
   7.514627e+00  -3.309456e+01
   3.702069e+01  -9.995235e+00
  -9.065635e+00   2.602075e+01
  -8.357481e+01   5.065551e+01
  -8.372013e+01   4.898937e+01
  -5.413452e+01  -3.554740e+01
   3.454960e+00  -5.665376e+01
   4.798477e+01  -6.160799e+01
   6.972502e+01  -2.987231e+01
   1.901186e+00   2.858614e+01
  -5.122428e+00   3.964586e+01
  -2.228809e+01  -3.118229e+01
  -1.282898e+01  -6.834316e+01
  -7.484678e+00  -4.274964e+01
   2.600790e+01  -1.227100e+01
   4.365015e+01   4.121764e+01
   3.611171e+01   6.522283e+00
  -1.408346e+01  -1.780965e+01
  -1.872774e+01  -1.627158e+01
  -6.331692e-01   3.446522e+01
   3.053129e+01   4.037660e+01
  -7.115442e+00   1.170081e+01
  -3.349926e+01  -2.007641e+01
  -1.641718e+01  -6.492108e+01
   2.377972e+01  -2.886334e+01
   2.753470e+01   2.820106e+01
   1.047362e+01   6.528727e+01
  -4.968644e+01  -1.089434e+00
  -5.380644e+01  -1.745879e+01
  -1.513613e+01  -8.645211e+00
   3.087314e+01  -5.810130e+01
   4.037712e+01  -3.479252e+01
   3.112277e+01  -1.623648e+00
  -3.717467e+01  -2.551067e+01
  -2.736762e+01  -1.354711e+01
   2.678271e+01   9.734273e+00
   2.599620e+01   1.694690e+01
