
 $NMID
 id='ANONYMOUS ', fmtdat='(2E16.6)'
 volume=1.0
 tramp=1.0
 $END
   2.227445e+03  -7.159755e+02
   1.671108e+03   1.323905e+03
  -1.363705e+02   1.719802e+03
  -8.114802e+02   1.226546e+03
  -6.950897e+02   3.842596e+02
  -3.711893e+01  -2.643073e+02
   3.421910e+02  -2.056912e+01
   9.852244e+01   4.683240e+02
  -2.654753e+02   6.234194e+02
  -5.595893e+02   2.392192e+02
  -2.991661e+02  -4.486726e+02
  -4.574435e+01  -4.276671e+02
   2.275270e+02  -1.752316e+02
   2.902079e+02   2.276392e+02
  -2.303036e+01   4.479516e+02
  -3.454173e+02   4.821702e+01
  -3.001674e+02  -3.885245e+02
   7.083896e+01  -4.819431e+02
   3.476702e+02  -3.775948e+02
   4.331843e+02   1.024716e+02
   8.961455e+01   2.762919e+02
  -7.595639e+01   2.538700e+02
  -4.205288e+01   8.094687e+01
   1.482014e+02   1.015966e+02
   2.987349e+02   1.565459e+02
  -3.427069e+01   2.604608e+02
  -3.499975e+02   2.290419e+02
  -4.991690e+02  -1.834930e+02
  -1.708414e+02  -3.345872e+02
   1.089203e+02  -2.455941e+02
   4.837105e+02  -2.904899e+01
   2.252813e+02   2.419893e+02
  -2.179304e+02   2.258262e+02
  -3.479648e+02   1.626765e+02
  -3.127753e+02  -1.057623e+02
  -5.367248e+01  -2.121495e+02
  -3.145244e+01  -1.748819e+02
   1.160519e+01   2.685907e+01
  -1.740642e+02   1.002150e+02
  -1.658578e+02  -9.939774e+01
  -1.440836e+01  -3.794327e+02
   2.062008e+02  -3.974666e+02
   2.615867e+02   2.477677e+01
   1.040850e+02   2.032493e+02
  -1.214090e+02   8.442136e+01
  -1.227302e+02  -1.964550e+02
   5.329562e+01  -3.479290e+02
   3.289258e+02  -1.009480e+02
   3.439324e+02   2.798917e+02
   1.494594e+02   3.935091e+02
  -2.589954e+02   2.477182e+02
  -4.700476e+02  -7.297487e+01
  -2.766093e+02  -7.851347e+01
   3.333726e+01  -1.729583e+02
   2.249984e+02  -1.254494e+02
   2.150563e+02   4.348313e+00
   3.144128e+01   2.389755e+01
  -3.685174e+01  -2.947417e+00
   6.644769e+01  -4.232508e+01
   1.948872e+02  -3.030170e+01
   9.817212e+01   1.643304e+02
  -1.395465e+02   2.126839e+02
  -2.759370e+02   1.557442e+02
  -2.153296e+02  -4.525312e+01
  -5.322877e+01  -3.148537e+02
   2.237716e+02  -2.970745e+02
   2.294437e+02  -2.186070e+02
   2.065490e+02   9.329878e+01
   5.605287e+01   3.353667e+02
   3.649744e+00   2.749573e+02
  -3.124112e+00   1.764886e+02
  -2.789989e+01   8.055903e+01
  -1.403587e+02   9.857954e+01
  -1.208695e+02   7.232948e+01
  -2.521799e+02  -9.717354e+01
  -8.328994e+01  -1.848189e+02
   3.554689e+01  -1.537203e+02
   1.591538e+02  -5.827738e+00
   1.558079e+02   1.651798e+02
  -5.931596e-01   1.941657e+02
  -2.079683e+02   6.527208e+01
  -2.415038e+02  -6.823134e+01
  -1.491033e+02  -2.641697e+02
  -1.716745e+01  -2.384191e+02
   1.342127e+02  -1.565178e+02
   1.469390e+02  -7.110212e+01
   9.088720e+01  -7.721777e+01
   2.145080e+02  -3.964405e+01
   3.660104e+02   4.374247e+01
   2.617699e+02   2.726329e+02
  -4.051254e+01   4.150439e+02
  -3.395759e+02   3.967590e+02
  -4.247333e+02   1.706959e+02
  -2.591812e+02  -1.714977e+01
  -1.526710e+01  -2.128855e+02
   9.879569e+01  -1.769913e+02
   6.499147e-02  -4.726774e+01
  -5.318737e+01   4.112112e+01
  -1.180661e+02  -5.938120e+01
  -3.438169e+01  -1.214464e+02
   6.292602e+01  -9.600268e+01
   1.092746e+02   4.702523e+01
   1.147997e+01   9.352926e+01
  -1.655803e+02  -1.392505e+01
  -1.409762e+02  -2.058007e+02
  -1.453793e+01  -3.499265e+02
   2.115497e+02  -1.810640e+02
   3.373291e+02  -6.615174e+00
   2.292994e+02   1.819153e+02
   4.514078e+01   2.236943e+02
  -1.240937e+02   1.225229e+02
  -1.685404e+02   1.724257e+01
  -3.767587e+01  -3.694876e+01
   4.941006e+01   1.735166e+01
   1.673160e+01   1.175031e+02
  -1.113638e+02   6.041713e+01
  -1.406830e+02  -3.691970e+01
  -3.758547e+01  -4.741275e+01
   7.312498e+01   5.160999e+00
   7.238697e+01   8.473444e+01
  -9.426198e+01   1.026725e+02
  -2.458358e+02  -4.658525e+01
  -2.142734e+02  -1.555728e+02
  -3.851490e+01  -2.303668e+02
   1.201884e+02  -2.364787e+02
   1.895135e+02  -7.974454e+01
   1.031534e+02  -1.642264e+01
  -2.024233e+00   5.240416e+01
  -4.464176e+01   1.272558e+01
   4.465094e+01  -8.177591e+01
   1.618104e+02  -6.104415e+01
   1.514614e+02   1.485910e+02
   4.964768e+01   1.824943e+02
  -4.049002e+01   1.360308e+02
  -1.075690e+02   1.978204e+01
  -4.101878e+01  -5.608472e+01
   4.786546e+01   7.275343e+00
   2.650352e+01   1.039539e+02
  -1.160939e+02   1.170842e+02
  -1.968920e+02   1.007623e+01
  -2.019377e+02  -1.236055e+02
  -1.164026e+00  -1.805057e+02
   8.390161e+01  -1.185396e+02
   1.383019e+02  -2.163030e+01
   4.848315e+01   5.771348e+01
  -3.758041e+01   9.023954e+01
  -2.809695e+01   3.809424e+01
   2.671157e+00  -2.068020e+01
   4.166162e+01  -7.335663e-01
  -4.983830e+00   3.292455e+01
  -7.289344e+01   1.306741e+01
  -9.452453e+01  -8.644150e+01
  -2.798918e+01  -1.520527e+02
   1.177877e+02  -1.341532e+02
   1.950778e+02  -6.487413e+01
   2.218070e+02   1.538872e+02
   3.834598e+01   2.050311e+02
  -5.995722e+01   1.599298e+02
  -1.005217e+02   5.771764e+01
  -9.229446e+01  -3.785782e+01
  -2.548489e+01  -2.725233e+01
  -2.477912e+01   2.520798e+00
  -8.686270e+01   3.749743e+01
  -7.067424e+01  -5.135542e+01
   2.103712e+01  -8.509763e+01
   7.830302e+01  -7.345499e+01
   1.032273e+02   1.594232e+01
  -5.306244e+00   1.346802e+02
  -1.350483e+02   8.844681e+01
  -1.543400e+02  -7.346627e+01
  -9.503879e+01  -1.250719e+02
   9.435121e+01  -1.587045e+02
   2.052790e+02  -1.209637e+02
   2.268572e+02   7.425504e+01
   9.636249e+01   1.408793e+02
  -4.110766e+01   1.153285e+02
  -5.191090e+01   6.582774e+01
  -7.142936e+01   7.090490e+01
  -5.192397e+01   9.879466e+01
  -7.148429e+01   6.843118e+01
  -1.132311e+02   4.123020e+00
  -7.498872e+01  -1.383180e+02
  -5.828560e+01  -1.521570e+02
   6.936246e+01  -1.446575e+02
   1.443945e+02  -1.885854e+01
   7.602874e+01   1.060478e+02
  -2.675914e+00   9.178482e+01
  -8.100204e+01   6.304901e+01
  -6.839629e+01   8.350883e+00
   9.730292e+00  -6.389102e+01
   2.929563e+01  -3.584046e+01
  -3.544537e+01  -4.045365e+01
  -7.136478e+01  -2.297022e+00
  -6.965708e+01  -4.554733e+01
   5.196349e+01  -6.342429e+01
   1.455394e+02   1.315395e+01
   1.227422e+02   5.351792e+01
   7.356144e-01   9.999558e+01
  -1.179868e+02   4.372617e+01
  -1.407766e+02   4.011358e+01
  -4.430439e+01  -3.083320e+01
   1.820962e+01  -3.183110e+01
   4.849721e+01  -2.763602e+00
   3.150652e+01   5.378449e+01
  -1.630173e+01   5.650071e+01
  -3.192935e+01   1.702486e+01
  -2.915440e+01  -2.482111e+01
  -4.033144e+01  -3.093326e+01
  -6.255619e+01   1.279979e+01
  -4.795704e+01   2.348698e+01
  -2.648979e+01  -5.910758e+01
   5.848430e+00  -1.419851e+02
   9.002922e+01  -1.203740e+02
   1.597601e+02  -2.535351e+01
   9.345976e+01   8.197129e+01
  -3.250117e+00   1.435236e+02
  -5.811756e+01   5.315155e+01
  -6.874924e+01   2.675229e+01
   3.501415e+01   1.261798e+01
   1.494489e+02   1.268953e+01
   4.009607e+01   7.837685e+01
  -7.077786e+01   9.507497e+01
  -1.591617e+02   4.713423e+01
  -1.104038e+02  -3.418186e+01
  -2.315917e+01  -8.576555e+01
   7.295491e+01  -4.869771e+01
   4.377078e+01  -3.602204e+00
  -5.078835e+01   1.849458e+01
  -6.723662e+01  -1.019808e+01
  -3.793853e+01  -1.107565e+02
   6.410978e+01  -1.328932e+02
   1.138389e+02  -9.332212e+01
   9.571536e+01   5.401541e+01
   1.077040e+01   1.757954e+02
  -2.720973e+01   1.080024e+02
  -8.637975e+01  -2.742090e+01
  -4.966357e+01  -6.863233e+01
  -1.965087e+01  -6.814351e+01
   5.558386e+01  -9.360290e+00
   3.176779e+01   2.337685e+01
  -8.583512e+00   1.738717e+01
  -2.637705e+01  -1.116093e+01
   3.909687e+01   1.810488e+01
   6.441277e+01   7.040017e+01
   2.939644e+01   8.562371e+01
  -2.159643e+01   3.009123e+01
  -1.279099e+02  -2.478623e+01
  -8.873796e+01  -6.994934e+01
  -2.436205e+01  -3.208212e+01
   6.763625e+01  -4.285091e+01
   4.631263e+01  -1.589583e+01
   4.001683e-01  -6.795194e+00
  -4.034204e+01   3.189789e+01
  -2.353795e+01   2.664246e+01
   9.290607e+00   1.439607e+01
   2.344459e+01  -2.687597e+01
  -5.159380e+01   7.349456e+00
  -6.313272e+01  -2.265364e+01
  -8.893812e+00  -7.962091e+01
   9.973310e+01  -7.767509e+01
   1.869854e+02  -7.776897e+01
   1.785477e+02   5.392715e+01
   4.794212e+01   1.405350e+02
  -4.573051e+01   1.376136e+02
  -9.807794e+01   7.620044e+01
  -4.979640e+01  -3.799293e+01
  -1.210931e+01  -3.512036e+01
   1.948735e+01  -1.719985e+01
  -9.014096e+00  -2.229855e+01
   3.705027e+00  -5.140387e+01
  -3.504427e+00  -1.106514e+02
   2.154098e+01  -9.239234e+01
   4.714562e+01  -2.593715e+00
   6.582671e+01   6.790410e+01
   4.693695e+01   1.040616e+02
  -6.457878e+01   1.713575e+01
  -1.185054e+02  -3.927090e+01
  -3.684480e+01  -8.279397e+01
   3.412782e+01  -5.452562e+01
   8.076443e+01   2.217031e+01
   5.030110e+01   4.080060e+01
  -1.376992e+01   2.594286e+01
  -3.252279e+01   1.067900e+01
   2.956791e+01   4.215797e+00
   4.028474e+01  -1.237255e+01
   2.468457e+01  -9.861915e-01
  -5.424027e+01   6.559886e+01
  -1.047957e+02   3.315224e+01
  -8.083176e+01  -1.681576e+01
   1.472567e+01  -8.191211e+01
   6.234319e+01  -6.822254e+01
   7.995221e+01  -2.979175e+01
   2.098057e+01   4.799187e+01
   5.721603e+00   4.188405e+01
   9.487658e+00  -1.491326e+01
  -1.626327e+01  -7.322887e+01
  -3.691847e+01  -6.552386e+01
   6.379994e+01   6.619582e+00
   3.988115e+01   1.724630e+01
   2.999462e+01  -5.932336e+00
  -1.322331e+01  -2.363554e+01
  -1.953075e+00  -6.198870e+01
   7.172621e+00   3.831816e+01
   9.200709e+00   4.525330e+01
   1.368592e+01   2.031468e+01
  -5.726430e+01  -1.464869e+01
  -3.227778e+01  -8.270746e+01
   1.756032e+01  -3.122342e+01
   7.568202e+01  -1.413934e+01
   3.531852e+00   3.392029e+01
  -5.576408e+01   2.293754e+01
  -6.728324e+01   8.543016e+00
  -5.276394e+01  -2.145395e+01
   1.312666e+01  -6.578822e+01
   5.154453e+01  -5.450360e+01
   3.266748e+01  -2.101455e+01
  -1.878020e+01  -1.206913e+01
  -3.491395e+01   1.313298e+01
   2.203611e+01   4.992091e+00
   5.903895e+01  -1.892376e+01
