
 $NMID
 id='ANONYMOUS ', fmtdat='(2E16.6)'
 volume=1.0
 tramp=1.0
 $END
   2.339216e+03   1.392947e+02
   1.347198e+03   1.341037e+03
   5.047211e+02   1.671041e+03
  -6.985499e+02   1.113038e+03
  -7.705043e+02   2.921492e+02
  -1.326771e+02  -1.398418e+02
   2.180018e+02   1.903075e+00
   8.235299e+01   4.515018e+02
  -2.414091e+02   4.918722e+02
  -4.620418e+02  -2.009106e+01
  -3.057634e+02  -3.131313e+02
  -6.400125e+01  -4.865507e+02
   3.103613e+02  -1.560651e+02
   1.752075e+02   2.431717e+02
  -7.770765e+01   3.866060e+02
  -2.642317e+02   9.948890e+01
  -3.421855e+02  -3.192397e+02
   1.493805e+01  -5.401430e+02
   4.211157e+02  -2.570472e+02
   4.013971e+02   1.546737e+02
   9.695789e+01   2.696902e+02
  -5.818639e+01   2.042323e+02
  -4.896752e+01   3.459671e+01
   1.568497e+02   7.915765e+01
   1.701835e+02   2.902586e+02
  -2.517339e+00   3.246518e+02
  -3.584152e+02   1.094152e+02
  -4.482738e+02  -1.577739e+02
  -1.563368e+02  -2.711685e+02
   2.436895e+02  -2.095422e+02
   4.525274e+02   4.750869e+01
   1.320243e+02   2.905297e+02
  -1.669594e+02   1.959028e+02
  -2.875219e+02   1.104918e+02
  -2.283277e+02  -1.261258e+02
  -5.393631e+01  -2.673738e+02
  -4.605328e+01  -1.305533e+02
  -4.108498e+01   7.904434e+01
  -1.019978e+02   8.170545e+01
  -1.479432e+02  -8.922475e+01
   2.826870e+01  -3.789530e+02
   1.945213e+02  -3.272399e+02
   1.436889e+02  -2.843806e+01
   4.875492e+01   2.049659e+02
  -1.150849e+02   5.434083e+01
  -1.433163e+02  -2.126328e+02
   8.584394e+01  -2.505996e+02
   3.323807e+02  -4.430796e+01
   3.741151e+02   2.489520e+02
   1.769833e+02   3.848622e+02
  -1.938901e+02   1.903455e+02
  -4.390498e+02   3.999436e+01
  -3.004656e+02  -1.596917e+02
   2.731438e+01  -1.227538e+02
   2.260978e+02  -3.348594e+01
   1.916788e+02  -8.615386e+00
   3.900281e+01   1.495487e+01
  -5.412448e+01  -3.215778e+01
   5.525296e+01  -7.365212e+00
   2.297845e+02   6.635092e+01
   1.621869e+02   1.146701e+02
  -1.416266e+02   1.866625e+02
  -2.537462e+02   1.399523e+02
  -1.913587e+02  -6.952108e+01
   6.306922e+01  -2.489785e+02
   1.982271e+02  -2.750461e+02
   2.942446e+02  -1.444822e+02
   1.447306e+02   1.716190e+02
   2.368503e+01   3.187745e+02
  -2.043669e+01   2.633951e+02
  -2.693837e+01   1.137186e+02
  -2.266083e+01   1.127335e+02
  -1.339105e+02   1.003609e+02
  -2.298683e+02   2.576824e+01
  -1.901606e+02  -8.281724e+01
  -8.574724e+01  -2.019437e+02
   6.690273e+01  -1.414273e+02
   1.690202e+02   1.157864e+01
   8.024595e+01   1.821816e+02
  -4.463720e+01   2.067625e+02
  -2.140541e+02   4.752675e+01
  -2.747956e+02  -1.099175e+02
  -1.282204e+02  -2.070189e+02
   3.106328e+01  -2.112490e+02
   9.035396e+01  -1.153032e+02
   1.283740e+02  -8.677945e+01
   1.243197e+02  -3.793152e+01
   1.977027e+02  -3.262408e+01
   3.510406e+02   8.940397e+01
   2.270655e+02   2.470980e+02
  -2.759887e+01   2.871100e+02
  -2.629841e+02   2.637099e+02
  -3.817918e+02   1.500856e+02
  -2.514753e+02  -1.118599e+02
   2.133428e+00  -1.981877e+02
   5.988069e+01  -1.552634e+02
  -9.781155e+00  -2.104568e+01
  -1.110290e+02   3.676036e+01
  -9.062778e+01  -4.852602e+01
  -1.216975e+01  -8.531585e+01
   8.395259e+01  -8.097597e+01
   3.988410e+01   3.166737e+01
  -2.918547e+01   1.218083e+02
  -1.326934e+02   2.446690e+00
  -8.028267e+01  -1.447308e+02
   2.185347e+01  -2.149462e+02
   2.102699e+02  -1.722262e+02
   2.797648e+02   3.700806e+01
   2.222368e+02   2.179351e+02
   6.401527e+01   2.932642e+02
  -1.116074e+02   6.747786e+01
  -1.021001e+02   2.572060e+01
  -3.000595e+01   3.207988e+00
   3.064130e+01   5.810067e+01
   7.005132e+00   2.911960e+01
  -1.555606e+02   4.628070e+01
  -1.178258e+02  -1.708918e+01
  -4.526914e+01  -6.160251e+01
   8.064489e+01   3.625316e+01
   3.133041e+01   5.735743e+01
  -1.335497e+02   7.868178e+01
  -2.490475e+02  -3.336837e+01
  -2.693251e+02  -1.406277e+02
   1.429959e+01  -2.037938e+02
   1.860517e+02  -1.970697e+02
   2.007908e+02  -8.707150e+01
   1.170997e+02   4.155101e+01
  -2.394593e+01   3.852385e+01
  -2.836552e+01   1.884234e+01
   6.270336e+01  -6.317505e+01
   1.493327e+02  -4.229506e+01
   1.476706e+02   4.690275e+01
   3.095666e+01   1.546120e+02
  -7.295532e+01   1.186043e+02
  -7.177965e+01   3.086400e+01
  -4.773913e+01  -6.742159e+00
   3.114277e+01  -8.737071e-01
  -6.634865e+00   4.809205e+01
  -7.198062e+01   9.701179e+01
  -1.842743e+02  -8.997253e+00
  -1.115947e+02  -1.124364e+02
  -1.013157e+00  -1.956236e+02
   1.309877e+02  -1.692690e+02
   1.106171e+02  -5.111549e+01
   1.238040e+01   6.859804e+01
  -6.394482e+01   8.630348e+01
  -5.585011e+01   4.191660e+01
   7.197897e+00  -1.776729e+01
   2.811784e+01  -2.788913e+01
   3.099999e+01   1.405408e+01
  -6.601975e+01   1.630107e+00
  -9.421210e+01  -7.044711e+01
   1.925377e+01  -1.343192e+02
   1.449008e+02  -1.377677e+02
   1.764488e+02   5.511550e-01
   1.259553e+02   1.144431e+02
   2.812564e+01   1.644192e+02
  -9.427854e+01   1.233920e+02
  -1.105720e+02   2.201754e+01
  -6.217460e+01  -3.745635e+00
  -3.249152e+00  -2.404274e+01
  -3.404849e+01  -1.502878e+01
  -5.642520e+01   2.470224e+01
  -3.540127e+01  -1.686308e+01
   2.965571e+01  -1.123876e+02
   1.035971e+02  -9.018632e+01
   7.787561e+01   1.275741e+01
  -1.131777e+01   1.131430e+02
  -1.200058e+02   7.314048e+01
  -1.449345e+02  -3.328786e+01
  -5.776882e+01  -1.891037e+02
   9.949915e+01  -1.735772e+02
   2.165816e+02  -1.087860e+02
   1.532556e+02   7.774930e+01
   1.113984e+02   1.353951e+02
  -4.176379e+01   9.761552e+01
  -6.643819e+01   6.008964e+01
  -4.387107e+01   6.990027e+01
  -6.784472e+01   5.996673e+01
  -6.160423e+01   9.968654e+01
  -1.024239e+02  -9.958925e+00
  -6.061616e+01  -1.119212e+02
  -1.489128e+01  -1.891152e+02
   9.572928e+01  -1.112068e+02
   1.222998e+02   9.595638e+00
   3.744922e+01   8.559660e+01
   1.893783e-01   1.207065e+02
  -5.721252e+01   8.620411e+01
  -6.576299e+01  -3.073051e+01
   9.325548e+00  -5.669448e+01
   4.655549e+00  -4.268666e+01
  -3.648676e+01   8.278452e+00
  -6.030708e+01   1.853055e+01
  -2.472831e+01  -3.175979e+01
   6.610079e+01  -5.249130e+01
   1.354715e+02  -2.126056e+01
   1.112113e+02   6.158122e+01
   4.952500e+00   7.615503e+01
  -1.108576e+02   1.138399e+01
  -1.289889e+02   2.729117e+00
  -2.821093e+01  -2.778306e+01
   4.894786e+01  -2.228685e+01
   8.213851e+01   2.475878e+01
   2.743438e+01   6.648261e+01
   5.721156e+00   1.763399e+01
  -5.570366e+01   2.312464e+00
  -3.744960e+01  -1.896844e+01
  -5.287493e+01  -4.419446e+01
  -4.627916e+01   6.915405e+00
  -4.053944e+01  -7.295456e-01
  -3.616985e+01  -8.582102e+01
  -3.314224e+00  -1.532056e+02
   8.031454e+01  -1.640996e+02
   1.407144e+02  -1.802807e+01
   1.132774e+02   1.128726e+02
  -1.618497e+01   1.234828e+02
  -1.075451e+02   6.586708e+01
  -5.716629e+01  -2.025087e+01
   1.519832e+01  -2.655672e+01
   9.007174e+01   7.903119e+00
   5.395168e+01   7.641942e+01
  -5.678487e+01   1.123689e+02
  -1.650754e+02   3.991005e+01
  -9.637810e+01  -3.323685e+01
  -1.364885e+01  -7.066015e+01
   8.310188e+01  -4.105989e+01
   4.402064e+01   3.024265e+01
  -3.048414e+01   3.759605e+01
  -5.914305e+01  -1.164369e+01
  -6.967475e+01  -1.094592e+02
   5.502467e+01  -1.024744e+02
   1.047483e+02  -4.104539e+01
   1.090605e+02   5.388892e+01
   1.124615e+01   1.438119e+02
  -8.461562e+01   8.991261e+01
  -7.577320e+01   2.182188e+01
  -5.452155e+01  -8.682502e+01
   3.813292e+00  -4.266308e+01
   8.709759e+01  -1.994891e+01
   2.072452e+01   2.651178e+01
   2.730346e+01   8.659516e+00
  -6.568128e+00   3.010422e+00
   1.689812e+01  -8.801968e+00
   1.701833e+01   4.078480e+01
   5.869138e+01   8.904569e+01
  -2.735027e+01   2.523799e+01
  -1.090343e+02   4.625051e+00
  -7.701635e+01  -7.522014e+01
  -7.830993e+00  -4.958545e+01
   6.485112e+01  -3.929086e+01
   6.279133e+01   2.518841e+00
   8.573914e+00   1.479584e+00
  -3.277262e+01   2.848373e+01
  -2.516221e+01   9.993925e+00
   9.727143e+00   2.454307e+00
  -8.818467e+00  -3.114711e+01
  -5.648124e+01   2.787804e+01
  -9.719973e+01  -8.962657e+00
   6.563288e+00  -7.024256e+01
   6.300688e+01  -7.386308e+01
   1.272242e+02  -3.625805e+01
   1.151862e+02   6.085892e+01
   3.297353e+01   1.252983e+02
  -3.444627e+01   1.151188e+02
  -9.784206e+01   8.539104e+01
  -6.149705e+01   3.775929e+00
  -4.675804e+01  -3.605438e+01
  -6.209706e+00  -4.357351e+00
  -1.603488e+01  -5.794812e+00
  -4.477378e+01  -3.368596e+01
  -2.918253e+01  -6.091955e+01
   1.282757e+01  -7.624471e+01
   6.166411e+01  -1.701460e+01
   4.839852e+01   1.015403e+02
   2.585490e+01   8.692641e+01
  -9.346125e+01   8.186180e+00
  -1.152357e+02  -3.969355e+01
  -3.114724e+01  -6.150580e+01
   4.844298e+01  -5.888349e+01
   9.788678e+01  -2.514953e+00
   4.519555e+01   4.982023e+01
  -4.662195e+01   5.625760e+01
  -1.189839e+01   1.120183e+01
   4.030189e+01  -2.748070e+01
   3.967453e+01  -4.030745e+00
   2.294937e+01   2.106740e+01
  -8.320042e+01   3.864219e+01
  -7.218320e+01   4.147812e+01
  -8.271668e+01  -3.389787e+01
   1.989815e+01  -6.342467e+01
   2.755007e+01  -6.770886e+01
   4.096873e+01  -1.454557e+01
   6.238037e+00   2.876748e+01
  -1.911639e+01   2.225632e+01
  -4.629454e+01   1.400526e+01
  -2.216239e+01  -4.838674e+01
  -6.471614e+00  -2.563538e+01
   4.652781e+01  -1.403130e+01
   3.636959e+01   3.326767e+01
   1.280039e+01   2.561360e+01
   6.736703e+00  -3.013358e+00
  -1.153938e+01  -2.107188e+01
  -1.405670e+01   2.531006e+01
   2.813633e+01   5.665498e+01
   9.841414e-01   2.931930e+01
  -5.143817e+01  -1.705071e+01
  -1.970809e+01  -8.519914e+01
   6.769363e+00  -3.489309e+01
   3.634097e+01   2.532858e+01
   2.505900e+01   4.610559e+01
  -3.892930e+01   5.292934e+01
  -1.115703e+02   2.752950e+01
  -4.568589e+01  -4.005687e+01
   7.879533e+00  -3.069062e+01
   5.567225e+01  -3.756520e+01
   1.843383e+01  -5.352780e+00
  -1.839312e+01   1.009475e+01
  -8.354719e+00  -2.024619e+01
  -3.481874e-01  -8.931835e+00
   4.628050e+01  -3.109186e+01
