
 $NMID
 id='ANONYMOUS ', fmtdat='(2E16.6)'
 volume=1.0
 tramp=1.0
 $END
  -2.423142e+03   5.232776e+01
  -1.989314e+03  -1.236276e+03
   4.717442e+01  -1.259219e+03
   7.811719e+02  -1.089029e+03
   7.687927e+02  -1.992320e+02
   2.827895e+01  -2.298312e+01
  -2.758965e+02  -5.476039e+01
  -6.218865e+01  -4.248025e+02
   3.535636e+02  -3.662876e+02
   4.570819e+02  -1.118897e+02
   3.273192e+02   3.595248e+02
  -2.474213e+00   5.142348e+02
  -1.734195e+02   2.654533e+02
  -1.496605e+02  -1.167096e+02
  -2.432196e+00  -3.719976e+02
   3.063645e+02  -2.967663e+01
   2.300198e+02   3.147031e+02
  -6.836373e+01   4.588500e+02
  -3.505600e+02   2.903066e+02
  -3.313087e+02  -7.019680e+01
  -7.767953e+01  -2.953107e+02
   5.776503e+01  -2.026880e+02
   3.081623e+01  -2.455210e+01
  -1.554692e+02  -6.698171e+01
  -1.782005e+02  -2.197762e+02
   5.158274e+01  -3.073703e+02
   3.625080e+02  -1.402203e+01
   4.370619e+02   1.683080e+02
   2.020747e+02   2.437954e+02
  -1.714175e+02   1.171041e+01
  -3.256362e+02  -1.592943e+02
  -5.884560e+01  -3.120723e+02
   2.212071e+02  -2.271498e+02
   2.428321e+02  -8.540197e+01
   2.429454e+02   9.300487e+01
   9.776960e+01   2.585455e+02
  -7.473939e+00   9.499481e+01
   6.385881e+01  -2.682930e+00
   1.693472e+02  -7.101667e+01
   1.173785e+02   1.259195e+02
  -6.972936e+01   3.132029e+02
  -1.347252e+02   3.130636e+02
  -1.459898e+02  -1.282378e+01
  -6.741087e+01  -1.676857e+02
   1.050063e+02  -1.069084e+02
   6.785896e+01   2.144309e+02
  -1.355837e+02   2.287844e+02
  -3.168636e+02   7.615750e+01
  -3.492416e+02  -2.004460e+02
  -2.266839e+02  -4.219465e+02
   2.228306e+02  -2.095416e+02
   4.462518e+02   6.743472e+01
   2.091658e+02   2.294217e+02
  -5.376056e+01   1.257043e+02
  -1.956965e+02   7.988661e+01
  -1.567421e+02   6.215800e+00
  -1.186841e+01  -1.109685e+01
   2.190628e+01   3.999601e+01
  -5.864150e+01   3.463443e+01
  -1.353398e+02   5.062455e+00
  -8.485482e+01  -1.355921e+02
   1.163797e+02  -2.020287e+02
   3.100575e+02  -8.860658e+01
   2.039278e+02   1.006824e+02
  -3.017787e+01   2.467455e+02
  -2.416266e+02   3.374972e+02
  -3.383375e+02   7.487490e+01
  -2.033374e+02  -1.546834e+02
  -1.582798e+01  -2.850890e+02
   2.429615e+00  -2.343556e+02
  -6.784889e+00  -1.610628e+02
   3.547860e+01  -1.030716e+02
   1.657413e+02  -9.192944e+01
   1.639864e+02   1.690645e+01
   1.781820e+02   6.643665e+01
   6.809047e+01   1.995143e+02
  -1.280581e+02   1.183644e+02
  -1.464292e+02  -3.723500e+01
  -8.581839e+01  -2.375630e+02
   3.453440e+01  -1.482665e+02
   1.933842e+02  -3.210798e+01
   2.343402e+02   1.575773e+02
   8.282011e+01   2.379749e+02
  -3.904723e+01   1.986858e+02
  -1.515834e+02   1.688134e+02
  -1.038030e+02   6.722236e+01
  -1.132842e+02   7.785961e+01
  -2.444898e+02   9.008056e+01
  -3.509431e+02  -7.324356e+01
  -2.256020e+02  -2.127232e+02
  -3.783589e+01  -3.565682e+02
   2.815877e+02  -3.315247e+02
   3.748293e+02  -1.502905e+02
   2.046117e+02   6.627643e+01
  -1.544971e+01   2.030615e+02
  -3.888231e+01   1.156843e+02
  -9.780434e+00   1.546935e+01
   9.444693e+01   2.473185e+00
   1.021738e+02   4.450785e+01
   1.544512e+01   1.293577e+02
  -6.930893e+01   9.902862e+01
  -4.333845e+01  -3.301227e+01
   7.788424e+01  -7.296340e+01
   1.521692e+02   2.096417e+00
   1.194545e+02   1.969587e+02
   1.490786e+01   2.713607e+02
  -1.610253e+02   1.753148e+02
  -2.319054e+02  -1.232240e+01
  -1.612640e+02  -1.701180e+02
  -3.326370e+01  -2.416048e+02
   8.308275e+01  -9.740169e+01
   1.103070e+02   2.743425e+00
   1.711947e+01   1.520730e+01
  -2.809131e+01  -8.461239e+01
   1.824367e+01  -9.470479e+01
   1.040826e+02  -4.833539e+01
   8.048058e+01   1.284681e+01
   6.121563e+00   9.626148e+01
  -3.772336e+01  -4.868928e+00
  -4.212355e+01  -7.280460e+01
   1.231736e+02  -4.687901e+01
   2.479976e+02   5.601794e+01
   2.180092e+02   2.163049e+02
   2.108633e+01   2.155043e+02
  -2.175330e+02   1.829455e+02
  -2.233836e+02   3.636966e+01
  -9.410673e+01  -4.197289e+01
   2.330744e+01  -6.818925e+01
   5.005568e+01   1.707344e+00
  -5.838861e+01   5.410122e+01
  -1.490276e+02   1.131694e+01
  -1.445212e+02  -2.802058e+01
  -6.556722e+01  -1.511730e+02
   1.082936e+02  -6.823404e+01
   8.857992e+01  -2.732824e+01
   4.157599e+01   2.803442e+01
  -2.787152e+01  -1.634752e+01
  -3.219775e+01  -9.853495e+01
   5.421918e+01  -1.120709e+02
   1.481545e+02  -1.053268e+01
   1.592146e+02   1.082825e+02
  -6.649672e+00   1.674949e+02
  -1.333261e+02   1.203352e+02
  -9.777896e+01   8.023020e-01
  -4.381128e+01  -6.324110e+01
   6.442278e+01  -4.360736e+01
   7.445771e+01  -4.888272e+01
  -2.155090e+01   3.400053e+01
  -2.858919e+01   2.259012e+01
   1.362834e+01  -1.964728e+01
   6.183679e+01  -2.552019e+00
   9.014465e+01   7.724318e+01
   1.050439e+01   1.565085e+02
  -1.013399e+02   1.030451e+02
  -1.782532e+02  -2.396699e+01
  -1.508814e+02  -1.056835e+02
  -5.648002e+01  -1.384212e+02
   6.814854e+01  -1.312325e+02
   8.824375e+01  -3.166265e+01
   4.459358e+01   3.037414e+01
   4.685000e+01   1.257201e+01
   7.229692e+01   8.107039e+00
   8.414367e+01   7.787594e+00
   5.162472e+01   5.390691e+01
  -2.586247e+01   7.527822e+01
  -1.130700e+02   6.327401e+01
  -8.104375e+01  -6.600454e+01
   1.392466e+01  -7.052984e+01
   1.146154e+02  -5.765577e+01
   1.787969e+02   5.388114e+01
   3.113880e+01   1.492497e+02
  -1.327298e+02   1.581833e+02
  -1.961848e+02   2.689112e+01
  -2.030611e+02  -1.162739e+02
  -6.084061e+01  -1.252217e+02
   3.726639e+01  -1.420566e+02
   5.331302e+01  -5.345663e+01
   3.822488e+01  -1.965378e+01
   5.154254e+01  -6.331403e+01
   8.439852e+01  -6.711573e+01
   8.749103e+01   4.929825e+01
   1.429937e+02   1.117688e+02
  -4.874538e-01   1.832164e+02
  -7.223856e+01   1.140865e+02
  -1.603048e+02  -6.941084e+00
  -7.208663e+01  -8.522311e+01
  -2.917080e+01  -1.372049e+02
   5.785914e+01  -8.220848e+01
   4.748232e+01   3.582048e+01
  -2.731766e+01   6.292916e+01
  -4.363978e+01  -4.295406e+00
  -1.061972e+01  -1.984984e+01
   7.035009e+01   6.537139e+00
   5.696604e+01   2.104537e+01
  -6.716774e+01   3.004390e+01
  -1.699009e+02   3.848072e+00
  -9.449934e+01  -1.608258e+01
   3.609817e+01  -4.893983e+01
   9.355681e+01  -6.540353e+01
   1.066056e+02   5.707992e+00
   4.238757e+01   4.315514e+01
  -4.968094e+01   3.552759e+01
  -6.577680e+01  -8.849908e+00
  -3.203150e+01  -9.801676e+01
   9.986979e+00  -5.096676e+01
   8.201106e+01   1.403582e+00
   3.259360e+01   1.076204e+01
   2.791183e+01   5.310063e+01
   3.274842e+01   4.356988e+00
   5.728887e+01   1.219694e+01
   5.198247e+01   3.708902e+01
  -2.170084e+01   1.288423e+02
  -9.750997e+01   1.098724e+02
  -1.185129e+02   1.830605e+01
  -8.941356e+01  -8.032231e+01
   1.909363e+01  -9.384038e+01
   7.607132e+01  -4.416667e+01
   2.699491e+01   6.063556e+00
  -3.453369e+01   3.229950e+01
  -8.757817e+01  -6.129108e+01
  -5.899086e+01  -6.233857e+01
   5.294900e+01  -1.008632e+02
   1.483895e+02  -2.796005e+01
   1.136802e+02   4.391135e+01
   2.346748e+01   6.614999e+01
  -7.206241e+01   3.837736e+01
  -3.048437e+01  -2.191345e+01
   4.116757e+01  -3.582588e+01
   6.237129e+01   5.514119e+01
   5.462740e+01   1.111988e+02
  -7.058894e+01   1.167759e+02
  -1.033632e+02   6.937094e+01
  -1.133921e+02  -6.509774e+01
   5.728315e+00  -1.638619e+02
   7.198029e+01  -1.034185e+02
   1.087188e+02   1.979470e+01
   6.300928e+01   8.146302e+01
  -1.127487e+01   7.096330e+01
  -6.944688e+01   1.260949e+00
  -4.264275e+00  -2.725156e+01
  -9.245816e+00   1.270234e+01
  -2.438667e+00   3.193085e+01
  -1.582854e+01  -3.444542e+00
  -5.818551e+01  -8.628490e+01
  -3.192341e+01  -4.847195e+01
   5.175860e+01  -1.435033e+01
   1.459580e+02   8.305567e+00
   6.546650e+01   5.701391e+01
  -1.515174e+01   4.846772e+01
  -5.593332e+01   2.015593e+01
  -4.115999e+01   3.521645e+00
  -2.702276e+01  -1.575207e+00
   1.529100e+01  -2.983860e+01
   2.858736e+01   8.427678e+00
  -2.353136e+01  -1.444698e+01
  -1.381539e+01   2.807680e+01
   2.749841e+01  -1.924421e+01
   6.795846e+01   1.649049e+01
  -5.512728e+00   4.591104e+01
  -5.110668e+01   9.163074e+01
  -1.166978e+02   6.831235e+01
  -1.130748e+02  -2.592861e+01
  -5.916102e+01  -1.086369e+02
   5.536572e+01  -1.381956e+02
   9.664177e+01  -4.930018e+01
   5.595355e+01   3.272236e+01
   5.152153e+01   2.263965e+01
   6.142533e-01   1.817192e+01
   1.529234e+01   3.177638e+01
   3.200874e+01   3.954166e+01
   9.850276e+00   3.546362e+01
   1.326157e+00   5.050160e+01
  -2.676247e+01  -1.370250e+01
  -4.384708e+01  -5.381182e+01
  -1.555265e+01  -7.841517e+01
   3.841761e+01  -3.618451e+01
   1.078023e+02   3.836329e+01
   5.624123e+01   7.086512e+01
  -5.214813e+01   3.339837e+01
  -5.831556e+01   2.339559e+01
  -9.723224e+00  -8.949457e+01
   2.564646e+01  -5.150744e+01
   3.883446e+01  -1.630707e+01
  -2.485735e+01  -2.220767e+01
  -4.292882e+01  -9.048069e-01
   1.339913e+01  -6.734225e+00
   6.066353e+01  -3.192307e+01
   7.512682e+01  -6.091446e+01
   7.442325e+01   8.313655e+00
   8.508171e+00   4.539354e+01
  -3.783066e+01   6.200377e+01
  -4.631697e+01   2.687783e+01
   2.094061e+01  -3.083171e+01
   3.123738e+01  -2.803426e+01
   2.030696e+01  -4.804779e+00
   2.212234e+01   3.596031e+01
  -2.186857e+01   3.861503e+01
  -3.710946e+01   4.163218e+00
  -1.192938e+01  -1.046446e+01
   9.950122e+00  -3.797067e+00
  -1.732499e+01  -1.850634e+00
  -1.359687e+00  -8.121042e-03
   7.365835e+00  -6.478535e+00
   2.135193e+00  -8.694230e+01
   2.240827e+01  -3.596277e+01
   4.509316e+01   1.543810e+01
   8.990161e+00   6.167810e+01
  -4.296689e+01   2.955715e+01
  -1.435400e+01  -3.425305e+01
  -4.697022e+01  -2.232830e+01
   1.034163e+01  -3.248222e+00
   5.057818e+01   1.066987e+01
   2.071013e+01   2.385542e+01
  -7.785663e+01   5.719754e+01
  -6.570038e+01  -9.426979e+00
  -1.486658e+01   1.664673e+01
   3.740680e+01  -2.088628e+01
   1.205069e+01  -9.217800e+00
  -2.090143e+01   2.759347e+00
  -8.673418e+01   3.080325e+01
