
 $NMID
 id='ANONYMOUS ', fmtdat='(2E16.6)'
 volume=1.0
 tramp=1.0
 $END
   7.883451e+02  -1.023341e+03
   1.092286e+03   4.832353e+02
   6.336115e+01   5.066890e+02
  -3.147958e+02   5.682122e+02
  -3.196987e+02   2.845764e+02
  -1.443166e+02   3.374410e+01
   9.027671e+01  -5.262489e+01
   4.510775e+01   1.646969e+02
   6.124175e+01   3.265606e+02
  -3.070686e+02   1.586058e+02
  -2.649536e+02  -1.266821e+02
  -1.490117e+01  -2.175704e+02
   8.223178e+01  -1.055370e+02
   1.348905e+02   1.741641e+02
   5.276145e+01   2.158303e+02
  -1.444055e+02   4.969796e+01
  -1.302313e+02  -1.086016e+02
   1.590078e+01  -2.024528e+02
   1.921581e+02  -1.928454e+02
   2.183336e+02   3.318897e+01
   3.157275e+01   1.231298e+02
  -4.641937e+01   1.159159e+02
  -3.407010e+01   2.211561e+01
   8.279301e+01   1.189199e+02
   1.169507e+02   1.716332e+02
   2.801973e+01   1.239633e+02
  -1.882980e+02   7.035931e+01
  -2.679739e+02  -1.681316e+02
  -1.757762e+02  -1.313305e+02
   4.525944e+01  -1.088607e+02
   1.405972e+02  -6.468402e+01
   7.998635e+01   1.780766e+02
  -6.974376e+01   1.303092e+02
  -2.155452e+02   7.605801e+01
  -2.064766e+02  -4.715155e+01
  -5.370388e+01  -3.572311e+01
  -1.409051e+01  -7.803916e+01
  -1.553933e+01  -2.270505e+01
  -3.537419e+01   2.478372e+01
  -1.181496e+01  -3.827612e+01
   2.133108e+01  -1.784331e+02
   1.601307e+02  -1.481758e+02
   7.926261e+01  -2.230900e+01
   7.924375e+01   1.031338e+02
  -1.036112e+02   5.774947e+01
  -1.054603e+02  -7.738411e+01
  -2.725307e+01  -1.053308e+02
   1.621051e+02  -5.756699e+01
   2.390438e+02   1.575157e+02
   1.042938e+02   1.776722e+02
  -1.238606e+02   1.264077e+02
  -1.149630e+02  -4.821157e+01
  -1.538943e+02  -8.898571e+00
  -2.814196e+01  -5.476365e+01
   1.219044e+02  -3.266782e+01
   8.178173e+01  -3.327270e+01
   1.586903e+01   9.515226e-01
  -3.590848e+01  -1.647137e+00
   1.343456e+01  -2.691450e+00
   7.679556e+01  -3.564089e+01
   7.073482e+01   6.172163e+01
  -4.391500e+01   1.400969e+02
  -1.333353e+02   1.339444e+02
  -1.329003e+02  -4.774084e+01
  -4.691190e+01  -2.009847e+02
   1.028309e+02  -1.969189e+02
   1.854946e+02  -1.032377e+02
   1.286835e+02   4.172688e+01
   2.818146e+01   1.310160e+02
   4.879291e+01   1.286543e+02
  -7.909111e-01   1.130492e+02
   2.031896e+01   7.418177e+01
  -8.782209e+01   7.588744e+01
  -7.422731e+01   2.231046e+01
  -1.503840e+02  -6.145725e+01
  -4.052839e+01  -1.222262e+02
   1.896773e+01  -1.142186e+02
   9.983798e+01  -2.020451e+00
   2.189339e+01   1.215083e+02
  -5.160388e-01   9.016554e+01
  -1.355103e+02   4.751098e+01
  -1.480108e+02  -4.369768e+01
  -8.694548e+01  -5.700307e+01
  -1.639374e+00  -8.863085e+01
   5.690988e+00  -9.718652e+01
   6.101497e+01  -4.592442e+01
   5.572157e+01  -4.733390e+01
   1.136639e+02  -4.474055e+01
   1.708217e+02   3.117185e+01
   1.994474e+02   1.395751e+02
  -5.687294e+00   2.268037e+02
  -1.671835e+02   1.528786e+02
  -2.219456e+02   7.071178e+01
  -1.078480e+02  -1.744036e+01
  -3.437214e+01  -8.470810e+01
   1.544320e+01  -6.774347e+01
  -4.536333e+00  -2.549013e+01
  -3.335090e+01   2.112709e+00
  -5.770447e+01  -3.856394e+01
  -1.789976e+01  -3.141842e+01
   2.988213e+01  -3.215882e+01
   1.777061e+01   4.081458e+01
  -8.843981e+00   5.481017e+01
  -6.805737e+01   2.776244e+01
  -6.950132e+01  -9.069835e+01
   3.109472e+01  -1.645892e+02
   8.192308e+01  -8.459830e+01
   1.646840e+02   9.505923e+00
   1.578866e+02   6.326407e+01
   4.094679e+01   1.048402e+02
  -8.612366e+01   7.758554e+01
  -6.684866e+01   2.209708e+00
  -1.692551e+01  -2.094218e+00
   5.261176e+00   1.783485e+01
   5.098695e+01   7.280417e+01
  -3.663828e+01  -4.546073e+00
  -2.661485e+01  -2.170397e+01
  -1.216952e+01  -4.514497e+01
   6.904793e+01   1.336286e+01
   5.249566e+01   1.789025e+01
  -4.860836e+01   6.301006e+01
  -1.158204e+02  -2.731361e+01
  -1.139418e+02  -4.449999e+01
  -4.423124e+01  -1.159495e+02
   5.686998e+01  -1.052023e+02
   7.818842e+01  -6.794381e+01
   4.926909e+01   5.600086e+00
  -1.312503e+01   2.643174e+01
  -6.471445e-01  -1.009324e+00
   2.683494e+01  -2.694200e+01
   6.168655e+01  -5.508417e+01
   9.002058e+01   1.523814e+01
   5.392499e+01   4.400854e+01
  -1.677467e+01   7.778246e+01
  -4.330066e+01   5.348093e-01
  -2.066074e+01  -2.467565e+01
   5.780668e+00   2.132940e+01
  -2.574085e+01   6.169100e+01
  -5.952617e+01   7.853629e+01
  -7.065724e+01   2.197011e+01
  -5.268778e+01  -5.980169e+01
  -7.825953e+00  -5.610339e+01
   5.714143e+01  -6.815827e+01
   9.521689e+01  -1.920981e+01
   6.474691e+01   1.235980e+01
  -2.992694e+01   1.719809e+01
  -3.981468e+01   2.224886e+01
  -1.532241e+01  -8.009817e+00
   1.893537e+01  -1.361706e+01
  -1.094056e+01   1.445813e+01
  -3.649187e+01   1.800213e+01
  -3.933737e+01  -2.467675e+01
  -2.394558e+01  -7.805957e+01
   7.812411e+01  -1.051770e+02
   1.047255e+02  -1.062388e+01
   1.153325e+02   7.356374e+01
  -8.341436e+00   8.136878e+01
  -3.514698e+01   8.786268e+01
  -4.390216e+01   3.345608e+01
  -1.837079e+01  -1.463978e+00
   1.942837e+01  -1.622220e+01
  -3.587965e+01   6.430489e+00
  -4.270617e+01  -1.380927e+01
  -2.291069e+01  -3.997027e+01
   1.811253e+01  -7.127107e+01
   6.233973e+01  -3.442088e+01
   7.168137e+01   1.703154e+01
  -1.242139e+01   8.170066e+01
  -6.392841e+01   7.460887e+01
  -5.229585e+01  -4.246887e+01
  -6.570809e+01  -4.568268e+01
   3.512073e+00  -8.932280e+01
   1.589426e+02  -8.165884e+01
   1.283037e+02   1.113893e+00
   1.454198e+01   5.558938e+01
  -2.293108e+01   4.098330e+01
  -8.106644e-02   2.661842e+01
  -5.802994e+01   7.545135e+01
  -4.996895e+00   5.174077e+01
  -3.546091e+01   3.301547e+01
  -5.949648e+01   1.086547e+01
  -5.226683e+01  -7.426247e+01
  -6.695345e+01  -1.030593e+02
   3.022735e+01  -6.758278e+01
   7.333057e+01  -1.656778e+01
   3.942141e+01   4.204646e+01
  -1.034621e+01   2.669708e+01
  -3.651119e+01   3.549382e+01
  -3.968597e+01  -1.934701e+01
   4.591861e+00  -2.677132e+01
   1.393697e+01  -1.100452e+01
  -1.380587e+01   2.811830e+00
  -6.905270e+01  -3.005073e+01
  -3.053025e+01  -2.445156e+01
   1.842548e+01  -3.610813e+01
   6.411159e+01  -3.408008e+00
   9.097296e+01   5.731752e+01
  -1.359098e+01   3.929381e+01
  -6.373156e+01   2.444182e+01
  -4.749378e+01   3.125707e+01
  -1.533667e+01  -2.221296e+01
   2.577249e+01  -2.865617e+01
   6.088648e+01   2.190091e+01
   1.758404e+01  -9.059650e-01
  -1.694170e+01   5.997042e+01
  -3.097383e+01   1.386808e+01
  -5.361665e+01  -4.239154e+00
  -3.486814e+01  -3.637303e+01
  -3.033381e+01   1.779420e+01
  -3.058374e+00   3.293002e+01
   2.287368e+01  -8.813310e+00
  -1.946902e+01  -8.846711e+01
   4.052240e+01  -9.826316e+01
   8.275645e+01  -3.146945e+01
   5.398670e+01   6.185570e+01
  -3.442549e+00   6.575967e+01
  -3.758595e+01   1.566256e+01
  -2.878182e+01   4.540416e+01
   4.694062e+01  -8.868447e+00
   7.642159e+01  -4.959558e+00
   1.496633e+01   9.087895e+01
  -2.915322e+01   3.695046e+01
  -9.282914e+01   1.027351e+01
  -7.468824e+01  -3.619495e+01
  -1.841901e-01  -5.406077e+01
   3.298974e+01  -4.127380e+01
   1.231611e+01  -5.118448e+00
  -1.323528e+01   7.573786e+00
  -3.247655e+01  -1.736286e+01
  -9.489696e+00  -6.212150e+01
  -4.810877e+00  -8.600512e+01
   9.223634e+01  -4.725944e+01
   7.272333e+01   1.854608e+01
   4.381869e+01   8.015621e+01
  -4.487791e+01   5.546762e+01
  -5.466376e+01  -3.996067e+00
  -4.140471e+01  -5.840249e+01
   1.195190e+01  -8.761452e+01
   2.127017e+01  -1.595411e+01
   2.057136e+01   1.757078e+01
  -1.097251e+00   2.704979e+01
   1.120644e+01  -1.989253e+01
   5.013664e+01   1.013228e+01
   3.605995e+01   4.690205e+01
   3.582536e+01   6.132695e+01
  -9.530905e+00   2.851978e+01
  -5.166211e+01  -1.566367e+01
  -7.507181e+01  -1.645509e+01
  -2.379116e+01  -7.518655e+00
  -2.617301e+00  -1.929055e+01
   4.659197e+01   1.002985e+01
  -9.026463e+00   4.225567e+00
  -1.380117e+01   2.363299e+01
   2.424209e+01   7.108269e+00
   2.041226e+01   8.115449e-01
   3.355294e+01   9.487611e-01
  -4.400600e+00   8.474450e+00
  -3.901633e+01   1.006525e+01
  -5.682192e+01  -7.888650e+00
   4.626132e+01  -7.889776e+01
   1.017850e+02  -2.191758e+01
   6.847501e+01   1.413962e+01
   1.900717e+01   7.745337e+01
  -4.609768e+01   6.067123e+01
  -5.899436e+01   2.703276e+01
  -3.037509e+01  -3.995934e+01
  -1.981920e+01  -3.123318e+01
   1.594140e+01  -7.990965e-01
  -1.111358e+01  -8.363583e-01
  -3.770020e+01  -4.363925e+01
  -7.990654e+00  -1.750547e+01
   8.583931e+00  -3.851316e+01
   2.801091e+01   1.004286e+01
   4.757359e+01   1.190706e+01
   4.180178e+01   4.131642e+01
  -2.422451e+01   3.208712e+01
  -5.183722e+01  -1.290758e+01
  -3.741134e+01  -3.244444e+01
   2.487749e+01  -2.593504e+01
   3.169089e+01  -3.359152e+01
   3.451367e+01  -4.708532e+00
  -2.486691e+01   5.479733e+00
  -3.558183e+01  -9.883379e+00
  -8.910921e-01   1.165857e+01
   2.413227e+01  -3.084843e+01
   1.272971e+01  -1.247611e+01
  -5.341727e+00   2.596728e+01
  -8.401435e+01   2.329232e+01
  -3.408610e+01  -2.290465e+01
   5.872374e+00  -2.124302e+01
   5.549295e+01  -3.105151e+01
   1.880992e+01  -2.281905e+01
   3.512865e+01   6.530013e+00
  -1.317891e+01   2.342225e+01
  -1.768969e+01   1.764264e+01
  -3.983820e+00  -1.951663e+00
  -1.487907e+01   4.390037e+00
   1.423015e+01   1.014270e+01
   8.832330e-01  -3.570242e+00
   1.848159e+00   1.034180e+01
   1.444590e+00  -1.904680e+01
  -1.671757e+01  -1.866758e+00
   1.332797e+01   9.940500e+00
   1.204304e+01   2.844392e+01
  -1.344395e+01   2.841830e+01
  -4.122989e+01  -4.839985e+01
  -8.005245e+00  -4.769083e+00
  -1.005325e+01  -1.867713e+01
   4.699101e+01  -1.291170e+01
   4.771255e+01   2.362287e+01
  -4.216702e+01   1.995853e+01
  -6.713074e+01   5.035884e+00
  -3.709889e+01  -4.344094e+00
  -1.294048e+01  -7.888853e+00
   3.096080e+01  -8.658278e+00
   1.688976e+01  -1.891085e+01
  -1.879355e+01   2.786818e+01
  -1.779190e+01   3.778867e+01
  -1.230543e+01  -9.322266e+00
   2.811746e+01   8.908838e+00
