
 $NMID
 id='ANONYMOUS ', fmtdat='(2E16.6)'
 volume=1.0
 tramp=1.0
 $END
  -1.139215e+03   3.205077e+02
  -5.380125e+02  -3.936933e+02
  -2.550449e+02  -6.213722e+02
   1.274824e+02  -2.856482e+02
   1.782944e+02  -3.029906e+02
   7.227837e+01   5.090263e+00
  -9.463559e+01  -8.332755e+01
  -7.811102e+01  -1.336963e+02
   9.945366e+00  -2.820413e+02
   2.304540e+02  -6.964840e+01
   1.816063e+02   6.229232e+01
  -4.982188e+01   1.155760e+02
  -6.417141e+01  -6.187580e+01
  -3.449059e+01  -4.810210e+01
   1.989096e+01  -1.098316e+02
   8.710518e+01  -4.579337e+01
   1.442662e+02   1.444429e+02
   9.317363e+00   2.089519e+02
  -1.117331e+02   9.994973e+01
  -5.724297e+01  -4.588329e+01
  -5.584976e+01  -9.482081e+01
   5.070570e+01  -5.490470e+01
   6.159182e+00   2.784080e+01
  -5.893601e+01  -4.808674e+01
  -8.367497e+01  -8.246451e+01
  -5.082151e+01  -5.965716e+01
   1.813229e+02  -6.050292e+01
   1.177726e+02   9.045967e+01
  -1.922299e+01   6.258546e+01
  -7.476112e+01   2.661319e+01
  -1.121355e+02  -1.784655e+01
  -8.188005e+01  -5.056101e+01
   7.253328e+01  -8.891588e+01
   1.018684e+02  -9.530750e+00
   6.728117e+01   2.588023e+01
  -1.324368e+00   1.555835e+01
  -6.156979e+00   8.658917e+01
   2.730487e+01   5.301992e+00
   5.594074e+01  -2.317410e+01
   4.348058e+01   1.038728e+01
  -2.361493e+01   9.162751e+01
  -1.435447e+02  -1.719346e+01
  -8.025301e+01   1.575633e+01
  -6.424039e+01  -6.498481e+01
   2.477069e+01   1.920886e+00
   6.816132e+01   3.323725e+01
  -2.710482e+01   1.431594e+02
  -7.161578e+01   1.940748e+01
  -1.484434e+02  -1.036339e+02
  -2.746640e+01  -9.343430e+01
   1.288061e+02  -9.474918e+00
   1.928545e+02   4.994677e+00
   1.063600e+02   5.695792e+01
   2.470397e+01   2.747518e+01
  -9.757808e+01  -1.705937e+01
  -5.582443e+01   2.073170e+01
  -2.063784e+00  -5.860310e-01
  -2.595804e+01  -1.812516e+01
  -6.299423e+01   3.913372e+01
  -6.024766e+01  -8.832158e+01
  -4.261722e+01  -4.491042e+01
   4.618935e+01  -1.830766e+01
   8.715859e+01  -8.552729e+01
   7.949670e+01   5.533533e+01
  -2.977234e+01   9.784267e+01
  -1.208639e+02   9.878874e+01
  -1.271953e+02   3.049276e+01
  -7.187798e+01  -6.008660e+01
  -2.891655e+01  -1.377660e+02
   1.246030e+01  -9.876994e+01
  -1.713054e+01  -5.711604e+01
   1.410787e+01  -5.219780e+01
   8.399598e+01  -8.801100e+01
   5.936646e+01  -4.996471e+01
   7.117299e+01   4.547343e+01
  -2.646556e+00   4.971921e+01
   1.935624e+01   8.149070e+01
  -4.165794e+01   7.883996e+00
  -4.158014e+01  -7.406708e+01
   5.671672e+00  -8.027838e+01
   5.020932e+01   1.139358e+01
   5.119650e+01   4.745824e+01
   9.942399e+01   3.723271e+00
  -2.934048e+01   6.611837e+01
  -1.438725e+01   6.181234e+01
  -7.428801e+01   4.891514e+01
  -6.942241e+00   2.361831e+01
  -9.389440e+01   1.706532e+01
  -1.624650e+02  -4.712591e+01
  -1.535114e+02  -8.739578e+01
   4.048682e+01  -1.316819e+02
   8.670487e+01  -1.046065e+02
   1.220276e+02  -8.320554e+00
   8.893613e+01   4.184216e+01
   3.273033e+01   1.065926e+02
   3.330266e+01   1.044515e+02
   5.322037e+00   2.905616e+01
   3.864007e+01   1.605034e+01
   4.745193e+01   7.659214e+00
  -4.328037e+01   2.420016e+01
  -4.624588e+00   2.131672e+01
  -7.207328e+00  -2.077777e+01
  -5.733267e+00  -2.822390e+01
   5.384161e+01  -2.514050e+01
   4.813045e+01   9.217589e+01
  -2.956575e+01   1.335177e+02
  -3.494059e+01   6.673156e+01
  -9.851132e+01  -8.813290e+00
  -8.447633e+01  -8.139781e+01
   4.595874e-01  -8.043257e+01
   5.605698e+01  -6.917237e+01
   2.308547e+01   2.727802e+01
   5.316825e+01   2.718142e+01
  -7.492863e+00  -3.238970e+01
   2.735606e+01  -3.866356e+01
   5.355713e+01   3.441542e+01
   4.276642e+01   2.218260e+01
  -7.028412e+00   1.094323e+01
  -3.753257e+01  -4.463789e+01
   4.040003e+00  -2.848295e+01
   1.796957e+01  -4.806594e+01
   9.775190e+01   1.185411e+01
   1.012491e+02   1.519864e+01
   1.038283e+01   7.415527e+01
  -4.874811e+01   4.688264e+01
  -8.207529e+01   3.353882e+01
  -3.927549e+01   7.198133e+00
   6.565429e+00  -2.348822e+01
   1.728944e+01   1.057598e+01
  -4.152847e+01   7.466199e+00
  -4.526182e+01   1.199357e+00
  -6.404964e+01  -9.647334e+00
  -3.809130e+01  -8.403121e+01
  -4.378740e-01  -4.007597e+01
   4.235434e+01   1.713410e+01
  -6.803575e+00   1.275250e+01
  -9.989569e+00  -9.053711e+00
   2.315927e+01  -5.189356e+01
   2.016545e+01  -4.740123e+01
   7.531220e+01  -1.578101e+01
   4.934815e+01   5.813562e+01
   1.184584e+01   7.714301e+01
  -8.239486e+01   2.005541e+01
  -6.632534e+01   3.606215e+00
  -3.432893e+01   8.107543e+00
   2.405896e+01  -1.186500e+01
   1.821711e+01  -2.082152e+01
   6.715196e-01   3.337079e+01
  -2.186089e+01   1.514048e+00
  -5.991340e+00  -1.396631e+01
   3.418936e+01  -2.047697e+01
   6.526901e+00   2.575603e+01
   5.955470e+00   6.977530e+01
  -5.146592e+01   4.923357e+01
  -8.541798e+01  -5.380556e-01
  -4.446533e+01  -8.681669e+01
   1.965382e+01  -4.371669e+01
   3.306774e+01  -4.040399e+01
   1.178289e+01  -2.326602e+01
   4.462167e+01   1.592806e+01
   2.372984e+01  -2.618875e+00
   4.104244e+01   1.695842e+00
   4.710372e+01  -1.527623e+01
   1.938155e+01   1.686339e+01
  -2.491513e+01   3.523690e+01
  -3.427834e+01   3.861442e+01
  -5.310849e+01   5.836478e+00
   1.552624e+00  -1.386395e+01
   3.027484e+01  -6.438084e+01
   6.135638e+01   1.002960e+01
   6.956599e+01   8.132371e+01
  -2.282873e+01   1.038493e+02
  -8.242675e+01   6.953440e+01
  -4.869393e+01  -2.193676e+01
  -2.761291e+01  -9.995867e+01
   2.746912e+01  -3.172239e+01
   1.624168e+00  -1.560752e+01
   4.019099e+01  -3.310704e+01
   2.429267e+00  -2.746074e+01
   1.554527e+01  -2.754061e+01
   1.607362e+01   8.566110e+00
   5.212743e+01   5.252155e+01
   2.764870e+00   6.331830e+01
  -3.179051e+01   2.745583e+01
  -3.280311e+01   6.564684e-01
  -5.779647e+01  -3.182340e+01
  -3.966411e+01  -6.858113e+01
   3.523189e+01  -4.195795e+01
   3.352617e+01   8.965557e+00
  -3.146265e+00   3.717016e+01
  -9.844034e+00  -3.568184e+00
   1.344358e+01  -1.721606e+01
   2.092664e+01  -2.244168e+01
   9.950629e+00   2.057150e+01
  -1.127893e+01   8.473572e+00
  -4.584312e+01   3.412144e+01
  -2.110275e+01  -4.621552e+01
   2.693502e+00  -3.361937e+01
   6.620999e+01  -3.232259e+01
   3.538592e+01   2.314084e+01
   5.913801e+00  -2.173157e+00
  -9.509536e+00   5.373489e+01
  -3.200395e+01  -1.782318e+01
  -2.547427e+01  -7.087186e+00
   1.394004e+01  -3.775462e+01
   1.539985e+01  -1.767686e+00
   1.137971e+01   2.475839e+01
   1.107780e+01   8.832429e+00
   3.252109e+01   1.775001e+01
   2.006889e+01  -5.129836e-01
  -1.334754e+01   3.653808e+01
   1.287783e+01   4.812639e+01
  -2.264010e+01   9.104129e+01
  -8.951974e+01   2.062646e+01
  -1.416274e+01  -3.150715e+01
  -9.413163e+00  -2.218444e+01
   2.510744e+01  -6.856038e+00
  -9.841116e+00  -1.370495e+01
  -3.983085e+00   2.735695e+01
  -4.474201e+01   2.859645e+01
  -1.738917e+01  -5.471924e+01
   3.162618e+01  -3.414595e+01
   5.761666e+01  -8.895299e+00
   7.381332e+01   9.059017e+00
   4.792665e+00   7.631058e+00
  -3.927489e+01   2.632853e+01
  -6.900705e+00   2.137453e+01
   1.482202e+01   1.672149e+01
   4.950489e+01  -1.837572e+01
   1.135875e+01   4.335548e+01
  -2.698733e+01   3.469006e+01
  -4.136537e+01   3.084875e+01
  -6.063793e+01  -5.964057e-01
   6.825665e+00  -6.907096e+01
   3.796363e+01  -2.551290e+01
   4.487490e+01  -1.393024e+01
   3.396787e+01   3.461546e+01
  -5.723486e+00   5.453191e+01
  -4.825870e+01   3.242919e+01
  -3.480120e+01   1.180613e+01
  -8.020293e+00  -1.296872e+01
  -1.926602e+01   4.444684e+00
  -3.015397e+01  -2.928157e+00
  -4.342522e+01  -4.893700e+01
   9.868694e+00  -1.787535e+01
   3.617191e+01  -2.153612e+01
   3.621789e+01   1.550759e+01
   7.649960e+01   4.025893e+00
   4.827239e+01   2.235622e+01
   1.476860e+00  -7.503306e+00
  -1.306415e+01   4.621031e+00
  -2.722522e+01  -1.598824e+01
   8.081653e+00   8.806281e+00
  -3.720353e+00  -1.685082e+00
  -3.719663e+00  -6.345551e+00
  -1.584119e+01   3.897928e+00
  -5.033214e+00   1.440554e+01
   1.463316e+00  -7.277854e+00
   2.192825e+01   2.097898e+01
  -2.784723e+01   8.368513e+00
  -6.162317e+01   4.192809e+01
  -2.973650e+01  -8.932029e+00
  -8.198097e+00  -3.288724e+01
   5.015749e+01  -4.657717e+01
   2.617559e+01  -2.619611e+01
   2.937758e+01   1.273084e+01
   2.040799e-02   2.108577e+01
  -2.103174e+00   2.293820e+01
   2.304759e+01   1.000300e+01
   2.907253e+01  -3.978806e+00
  -2.101126e+01   2.915182e+01
  -2.541104e+01   3.753340e+01
  -1.883382e+01  -1.896533e+01
   6.494828e+00  -1.374291e+01
   3.711906e+00  -4.677509e+01
   2.533238e+01  -2.256702e+01
   5.760940e+01   5.641337e+00
   3.882616e+01   1.802210e+01
  -2.183055e+00   2.230372e+01
  -3.188014e+01   3.192687e+01
  -3.022488e+01  -4.170292e+00
   2.740962e+01   9.081189e+00
   1.962954e+01   2.630829e+00
   1.644465e+01  -1.694174e+01
  -4.813746e+01   1.111433e+01
   3.265827e+01  -1.684933e+01
  -1.857257e+01  -2.588392e+01
   3.020122e+01  -2.355167e+01
   7.898265e+00  -1.861552e+01
  -9.712352e+00   3.748354e+01
  -3.407894e+01   2.358264e+01
  -1.733118e+01   1.578507e+01
  -3.019983e+01  -2.674185e+01
   9.568466e-01  -4.366906e+01
   1.704717e+01   8.350705e+00
  -1.891101e+00   7.099262e+00
   1.277344e+01   2.902035e+01
  -1.812614e+01   2.266548e+01
   1.140818e+01  -1.321471e+00
   3.080814e+00  -1.518813e+01
  -1.336566e+01   5.203606e+00
   1.114917e+01   3.043050e+01
   8.181372e+00   4.108125e+00
  -1.623691e+01  -2.325342e+01
   1.893585e+00  -3.732633e+01
   4.172223e+01   5.672244e+00
   1.634683e+01   2.554234e+01
  -1.348343e+01   5.346653e+00
  -4.026101e+01   4.584184e+00
  -1.841451e+01  -5.644738e+00
   1.161751e+00  -1.801931e+01
   2.595579e+01  -1.404190e+01
   2.162939e+01  -1.490249e+01
  -3.268524e+01   1.512211e+01
  -3.061144e+01   6.839436e+00
   1.527696e+01   1.811518e+00
   1.376442e+01  -9.560748e+00
  -3.716736e+01  -2.963513e+01
  -1.326842e+01   1.229583e+01
  -3.766423e+01   3.818443e+01
