
 $NMID
 id='ANONYMOUS ', fmtdat='(2E16.6)'
 volume=1.0
 tramp=1.0
 $END
  -1.273227e+03  -2.217297e+02
  -7.153650e+02  -4.054269e+02
   4.782201e+02  -7.467503e+02
   5.529753e+02  -3.413761e+02
   4.189317e+02  -3.778272e+01
  -2.654917e+01   1.859712e+02
  -8.109564e+01  -1.509915e+02
  -5.710385e+01  -1.890368e+02
   1.990704e+02  -2.654161e+02
   2.581789e+02  -5.123745e+01
   8.322333e+01   1.450920e+02
   3.866953e+01   2.630683e+02
  -6.134748e+01   2.665567e+01
  -5.000046e+01  -1.113497e+02
   1.371354e+02  -2.593115e+02
   1.039225e+02  -8.433390e+00
   1.147415e+02   2.150145e+02
  -1.379685e+02   2.007598e+02
  -1.466471e+02   1.260954e+02
  -8.768721e+01  -6.915381e+01
   1.599698e+01  -1.161879e+02
   3.371885e+01  -9.588460e+01
   7.574474e+00  -5.989086e+01
  -3.633071e+01  -2.334774e+01
  -1.273194e+02  -1.109506e+02
   3.651771e+01  -1.103291e+02
   1.637793e+02  -4.327234e+01
   8.255122e+01   1.030784e+02
   8.581968e+01   1.228488e+02
  -1.330970e+02   1.254064e+02
  -1.690515e+02  -5.543509e+01
  -3.687738e+01  -1.544319e+02
   1.377778e+02  -8.204199e+01
   2.128308e+02  -5.751545e+01
   9.754938e+01   7.363053e+01
   2.115489e-01   1.125716e+02
  -1.535518e+00   9.194806e+01
   2.870404e+01  -1.122907e+02
   6.595133e+01  -8.815405e+01
   7.379152e+01  -1.240873e+01
   3.386013e+01   1.475347e+02
  -1.326169e+02   9.683654e+01
  -1.309235e+02   3.268595e+01
   6.071570e+01  -1.008714e+02
   5.337821e+01  -3.680153e+00
   4.154583e+01   1.250086e+02
  -6.775632e+01   1.471491e+02
  -1.295725e+02   6.154453e+00
  -1.051745e+02  -1.622602e+02
  -6.084833e+01  -1.511930e+02
   9.647054e+01  -8.882821e+01
   2.193864e+02   6.331252e+01
   1.219973e+02   1.240462e+02
  -4.454808e+01   8.269189e+01
  -8.091295e+01   6.731901e+01
  -6.062820e+01  -3.445667e+01
   1.234214e+01  -2.184716e+01
   1.093366e+01  -1.118042e+01
  -6.557152e+01  -1.447294e+01
  -1.040114e+02  -1.957153e+01
  -3.892097e+01  -7.728429e+01
   1.706171e+01  -5.110305e+01
   1.343598e+02  -3.985774e+01
   3.287484e+01   3.787946e+01
  -1.667100e+01   5.437290e+01
  -6.614794e+01   1.386074e+02
  -1.207436e+02   6.101652e+01
  -4.057975e+01  -7.584591e+01
   9.116035e+00  -5.830737e+01
   2.550820e+00  -8.594020e+01
   2.680019e+01  -6.279387e+01
   3.537612e+01  -3.684164e+01
   5.686642e+01  -5.410142e+01
   1.123365e+02   1.952440e+00
   3.769368e+01   5.754282e+01
   2.621002e+01   9.798188e+01
  -7.354272e+01   4.947579e+01
  -7.435204e+01  -6.976213e+01
  -3.535289e+01  -5.350453e+01
   4.008993e+01  -1.102444e+02
   7.656256e+01  -1.606553e+00
   1.285976e+02   1.624213e+01
   7.327238e+01   1.308232e+02
   9.897743e+00   5.992375e+01
  -8.481151e+01   2.030826e+01
  -4.738094e+01   2.687203e+01
  -4.467780e+01  -4.386813e+00
  -6.571537e+01  -2.686883e+01
  -1.290706e+02  -6.502190e+01
  -1.233530e+02  -1.406311e+02
   2.267013e+01  -9.048270e+01
   1.431606e+02  -4.901055e+01
   2.271300e+02  -8.146124e+01
   6.380907e+01   8.324615e+01
  -5.166176e+00   9.277518e+01
  -7.948548e+01   6.640970e+01
  -3.821162e+01   1.161925e+01
   7.588538e+01  -3.402334e+01
   1.498675e+01   1.084464e+01
   1.234010e+00   2.420177e+01
  -7.511613e+01   7.030379e+01
  -3.706163e+01  -2.774615e+01
   1.450995e+01  -2.767037e+01
   3.152198e+01   1.703699e+01
   3.781535e+01   4.121243e+01
  -2.085718e+01   1.125849e+02
  -1.000878e+02   8.209966e+01
  -1.318595e+02  -6.179206e+01
  -1.118116e+02  -1.008145e+02
   2.067290e+01  -9.683018e+01
   6.075964e+01  -2.434652e+01
   4.339883e+01   1.307721e+00
   1.788797e+01   3.853569e+01
  -3.986986e+01  -1.614810e+01
   2.175813e+00  -3.159957e+01
   2.518876e+01  -2.712187e+01
   5.253257e+01   4.022148e-01
   1.158676e+01   2.934258e+01
  -5.288621e+01  -2.216847e+01
  -7.303202e+00  -4.275656e+01
   6.054479e+01  -1.321067e+01
   1.033503e+02  -4.243352e+01
   7.828128e+01   6.462761e+01
  -1.482039e+01   4.643912e+01
  -1.048614e+02   9.036029e+01
  -1.033120e+02   4.688039e+01
  -5.553893e+01  -3.759069e+01
   3.319602e+01   6.513150e+00
   1.703001e+01   2.167198e+01
  -2.976706e+00   4.838514e+01
  -9.765386e+01  -3.210372e+01
  -4.578746e+01  -2.323513e+01
   1.330938e+01  -6.968805e+01
   4.276937e+01  -4.248608e+01
  -5.766583e+00   2.762620e+01
   1.709592e+01   8.145388e+00
  -2.725094e+00  -7.925620e+00
   7.882210e+00  -3.300384e+01
   4.253874e+01  -2.562908e+01
   8.851690e+01  -5.187205e+01
   7.441369e+01   4.943909e+01
  -2.628786e+01   5.344446e+01
  -3.972740e+01   6.487542e+01
  -6.198137e+01  -1.830073e+01
  -5.480850e+00  -5.910709e+01
   3.181044e+01  -1.755950e+01
   6.408246e+01  -9.193045e+00
   1.753885e+00   1.848573e+01
   2.074280e-01  -5.282701e+00
  -1.019695e+01  -4.070462e+00
   8.659111e+00   6.668215e+00
   3.176289e+01   4.308460e+01
  -8.228185e+00   6.685530e+01
  -3.583583e+01   6.533247e+01
  -1.003010e+02   9.000037e+00
  -3.959440e+01  -2.659080e+01
  -3.103280e+01  -3.743880e+01
   2.079921e+01  -4.927084e+01
   5.737912e+01  -1.228674e+01
   4.233301e+01   9.776302e+00
   2.237148e+01   3.064654e+00
   4.962003e+01   1.535708e+01
   5.314862e+01   2.485895e+01
   3.454153e+01   2.829663e+01
  -3.490563e+01   3.413322e+01
  -4.018179e+01   4.340546e+00
  -3.909281e+01  -2.534810e+01
  -1.158807e+01  -1.334715e+01
   6.856871e+01  -5.514710e+01
   7.758951e+01   3.568998e+01
   6.901510e+01   1.126185e+02
  -7.296934e+01   1.217197e+02
  -1.205659e+02   3.849389e+01
  -9.078236e+01  -5.535887e+01
   5.239487e+01  -3.773592e+01
   3.915319e+01  -7.926444e+01
   4.861358e+01  -5.703542e+00
   1.500363e+01  -2.548827e+01
   2.049486e+01   2.851454e+01
   4.792619e+01  -8.151655e+00
   4.208629e+01   2.160969e+01
   3.270548e-01   5.913949e+01
   9.266095e+00   1.201149e+02
  -4.770647e+01   6.028334e+01
  -4.529230e+01  -4.859258e+00
  -2.945603e+01  -6.729232e+01
   2.395722e+01  -6.310416e+01
   3.262074e+01  -1.334496e+01
   1.937762e+01   2.672280e+01
   3.057507e+01   1.073768e+01
  -1.428950e+01   3.548622e+00
   1.969540e+01   6.252068e-01
   7.632271e+00   2.260333e+01
   5.468439e+00   4.889094e+00
  -1.952578e+01  -1.278026e+00
  -6.915956e+01  -2.016713e+01
  -3.280887e+01  -1.938963e+01
  -1.091295e+01  -2.812924e+01
   3.791620e+01   1.101024e+01
   5.671051e+01   3.257172e+00
   2.418114e+01   5.640917e+00
  -1.252118e+01  -1.117276e+00
  -2.204279e+01  -1.444306e+01
   1.112407e+01  -1.059405e+01
   4.754899e+00  -4.068335e+01
   2.036884e+01  -8.355444e+00
   1.719331e+01   3.815806e+01
   4.560551e+01   3.492735e+01
   8.233851e+00   1.826471e+01
   1.125874e+01   5.523455e+00
   9.153724e+00   2.297548e+01
  -1.160672e+01   1.955287e+01
  -6.098409e+01   3.681888e+01
  -4.944786e+01   2.148365e+01
  -5.714308e+01  -2.578071e+01
  -3.534838e+01  -6.025187e+01
   5.501580e+01  -2.749709e+01
   1.093368e+01  -1.464520e+01
  -4.824020e+01   3.009815e+01
  -5.525630e+01  -8.617554e+00
   1.688365e+01  -6.513295e+01
   2.337973e+01  -5.231840e+01
   4.061535e+01   1.828491e+01
   6.355186e+01   5.277602e+01
   2.359159e+01   4.902022e+01
  -3.616794e+01   1.047271e+01
  -1.400060e+01   1.214983e+01
  -1.559669e+01   4.695251e+00
   5.444331e+01  -4.812014e+00
   1.679027e+00   5.453173e+01
  -2.898386e+01   3.841642e+01
  -2.485719e+01   2.072576e+01
  -4.405277e+01  -8.074212e+01
  -3.619642e+00  -3.832057e+01
   3.646529e+01  -4.753307e+01
   5.432137e+01   2.841247e+01
   2.589345e+01   5.640462e+01
  -8.904724e+00   4.852362e+01
  -1.431384e+01   3.079111e+01
   1.698154e+00  -1.068195e+01
  -1.715031e+01  -2.600280e+01
   3.288566e+01   2.142878e+01
  -3.054535e+00  -1.195796e+01
  -1.181635e+01  -3.859402e+01
  -3.852783e+01  -3.158919e+01
   3.015018e+01  -3.758599e+01
   3.759547e+01   8.972659e+00
   5.723248e+01   3.002960e+01
   2.758010e+01   5.539473e+01
  -1.219990e+01  -7.869600e+00
  -3.238922e+01   6.883192e+00
   2.173139e+00   1.393000e+01
   1.359736e+01   2.204341e+01
   2.675617e+01  -1.353276e+01
   4.428872e+00  -1.633937e+01
  -1.746442e+01   2.718335e+01
   1.269288e+01   2.846093e+00
   4.387227e+01   1.684871e+01
   1.100761e+01   2.311833e+01
  -5.400754e+01   6.370096e+01
  -8.778587e+01  -1.083816e+00
  -5.160767e+01   5.756323e-01
   3.456172e+01  -4.331285e+01
  -1.644860e+00  -4.183556e+01
   3.909056e+01  -1.710969e+01
   2.956798e+01   3.422128e+01
  -6.462362e-01   2.114921e+01
   4.738671e+00   2.069049e+01
   3.262525e+01  -2.132985e+01
  -2.577043e+00   2.212962e+01
   1.232159e+01   5.255469e+01
  -1.592824e+01   1.537873e+01
  -3.391828e+01  -1.558134e+01
  -1.231341e+00  -6.119837e+01
   3.244271e+01  -3.269712e+01
   2.129387e+01  -3.050968e+01
   2.809409e+01  -7.134987e+00
  -4.596133e-01   1.253135e+01
  -3.027342e+01   3.486957e+01
  -2.870946e+01  -7.314551e+00
  -3.345158e+00  -4.112788e+01
   1.491574e+01  -9.575351e+00
   1.803676e+01   1.299205e+01
   6.469804e+00  -1.091293e+01
  -3.969791e+01  -2.429447e+01
  -5.182905e+00  -2.000852e+01
   2.508400e+01  -2.120853e+01
   4.237183e+01   1.241458e+01
   3.249458e+01  -1.180342e+01
   1.903989e-01  -1.202658e+01
  -7.343864e+00   3.279162e+01
  -4.429277e+01  -1.751861e+01
  -7.080224e+00  -2.811514e+01
  -5.375097e+00  -1.852807e+01
   3.762020e+01  -3.635135e+00
   3.489704e+01   4.733510e+01
   7.735430e+00   4.916005e+00
  -1.620747e+01  -1.428801e+01
  -1.776680e+01  -2.745059e+00
  -6.517689e+00  -1.867528e+01
  -4.648331e+00   1.079409e+01
   3.434979e+01   1.117193e+00
  -3.099916e+01  -2.763951e+01
  -1.598496e+01  -9.144989e+00
  -8.746920e+00  -3.953036e+01
   8.732588e+00  -1.047313e+01
   2.504330e+01   1.283318e+01
  -3.510142e+01  -1.198181e+01
  -1.998517e+01  -3.361113e+01
  -4.904483e+00  -2.574340e+01
   1.388684e+01  -1.462995e+01
   4.865191e+01   6.860099e-01
   2.948304e+01   2.016661e+01
  -2.049996e+01  -1.181095e+00
  -3.090541e+01   2.215878e+01
   1.436582e+01  -2.454577e+01
   8.384510e+00  -1.793138e+01
  -4.247902e+00   4.674844e+00
  -2.281171e+01   2.498004e+01
  -4.132134e+01   1.097291e+01
