
 $NMID
 id='ANONYMOUS ', fmtdat='(2E16.6)'
 volume=1.0
 tramp=1.0
 $END
   1.649258e+03   3.086939e+02
   8.882669e+02   7.683885e+02
  -3.598298e+02   1.129487e+03
  -6.134696e+02   3.279083e+02
  -5.501365e+02  -4.408351e+01
   5.627881e+01  -8.637120e+01
   1.684358e+02   2.083546e+02
  -4.325133e+01   3.268815e+02
  -3.352803e+02   1.833848e+02
  -3.784438e+02   2.326062e+01
  -1.511952e+02  -2.787457e+02
   2.209931e+01  -3.909791e+02
   1.889340e+02  -1.403064e+02
   1.126356e+02   2.217971e+02
  -1.863537e+02   2.895318e+02
  -2.004566e+02  -3.553441e+01
  -3.398911e+01  -2.727141e+02
   1.948097e+02  -2.978830e+02
   2.670625e+02  -5.897691e+01
   2.108939e+02   1.325237e+02
  -3.560959e+00   1.510659e+02
  -1.184940e+02   1.153729e+02
  -7.174998e+01   4.598589e+01
   9.123755e+01  -2.198255e+00
   1.277541e+02   1.053301e+02
  -1.385356e+01   1.359670e+02
  -2.406087e+02   2.117684e+01
  -2.041802e+02  -7.130781e+01
  -1.784133e+02  -1.836408e+02
   1.756881e+02  -5.464291e+01
   2.928702e+02   1.330190e+02
   1.046735e+02   1.545793e+02
  -1.340858e+02   1.797141e+02
  -2.572339e+02   6.199984e+01
  -1.819098e+02  -1.289490e+02
  -2.486257e+01  -1.495247e+02
   2.977957e+01  -1.198255e+02
  -6.782360e+00   5.779729e+01
  -1.210099e+02   1.344386e+02
  -1.676334e+02  -9.189150e+01
   2.650931e+01  -2.431985e+02
   7.528284e+01  -2.996819e+02
   1.262371e+02  -2.318734e+00
   8.175962e+01   1.327729e+02
  -2.733908e+01   1.177414e+02
  -8.835019e+01  -1.475049e+02
   5.527938e+01  -2.082666e+02
   1.309802e+02   2.711986e+01
   2.082056e+02   2.134063e+02
   7.703635e+01   1.433150e+02
  -2.185779e+02   1.719914e+02
  -2.228892e+02  -1.093983e+02
  -1.475287e+02  -2.349277e+02
   4.062769e+01  -1.450890e+02
   1.291571e+02  -8.009319e+01
   9.576984e+01   5.585096e+01
  -2.566112e-01   4.529822e+01
  -3.169810e+01  -2.566747e+01
   4.971487e+01  -1.390161e+00
   1.316708e+02  -2.868940e+01
   5.166250e+01   1.202636e+02
  -7.917510e+01   7.099567e+01
  -1.606733e+02   8.269392e+00
  -8.079441e+01  -7.524292e+01
   1.739973e+01  -1.393991e+02
   1.356564e+02  -1.710532e+02
   1.684647e+02  -5.191030e+01
   7.238045e+01   7.945447e+01
  -6.057994e+00   1.242677e+02
  -2.291218e+01   1.383856e+02
  -4.398182e+01   7.925924e+01
  -3.778876e+01   3.569368e+01
  -5.866082e+01   5.420351e+01
  -1.326020e+02   1.249409e+01
  -6.642883e+01  -4.069313e+01
  -5.158297e+01  -1.201468e+02
   7.837438e+01  -1.046911e+02
   1.053389e+02   4.378255e+01
   8.059872e+01   1.183297e+02
  -7.426835e+01   1.114363e+02
  -1.045039e+02  -3.787177e-01
  -2.403410e+02  -9.607227e+01
  -3.686119e+01  -1.132280e+02
   3.712225e+01  -8.714682e+01
   9.957332e+01  -5.358795e+01
   6.532282e+01  -5.096266e+01
   5.427221e+01  -7.260066e+00
   1.440644e+02   6.844490e+00
   2.178820e+02   7.893215e+01
   1.044578e+02   1.057895e+02
   1.239485e+01   2.141242e+02
  -1.912603e+02   1.657916e+02
  -2.555330e+02   3.700578e+01
  -1.930527e+02  -6.486749e+01
   4.345022e+01  -1.390407e+02
   5.635548e+01  -8.509640e+01
   3.344567e+01  -2.195086e+01
  -5.979991e+01   3.966454e+01
  -2.586482e+01  -2.337211e+01
  -1.672705e+01  -7.829711e+01
   8.481458e+01  -6.081397e+01
   7.749625e+01   4.678290e+01
  -1.888316e+01   4.925105e+01
  -1.004280e+02   6.638828e+00
  -3.846432e+01  -7.914398e+01
   1.623535e+01  -1.644783e+02
   1.628233e+02  -1.181568e+02
   2.572737e+02   1.278171e+02
   1.494853e+02   1.387278e+02
  -1.925653e+01   1.008772e+02
  -5.440373e+01   3.615465e+01
  -5.081172e+01  -1.198239e+01
  -3.694609e+01  -5.576890e+01
   1.898035e+00   8.131189e+00
   3.173898e+01   6.385328e+01
  -5.068964e+01   1.946682e+01
  -5.680618e+01  -5.335309e+01
  -1.151396e+01  -4.098902e+01
   6.553727e+01  -8.077996e+00
   5.512754e+01   7.204218e+01
  -9.439986e+01   3.259574e+01
  -1.458281e+02   4.541296e+00
  -9.207921e+01  -1.182341e+02
   1.589598e+01  -1.434400e+02
   1.411172e+02  -5.962135e+01
   1.339124e+02  -5.020150e+00
   8.597972e+01   2.845313e+01
  -6.078954e+01   2.503710e+01
  -3.222965e+01  -2.016462e+01
   2.852588e+01  -5.190133e+01
   8.489992e+01   8.797099e+00
   3.936396e+01   2.512004e+01
   1.918807e+01   6.158154e+01
  -5.328460e+01   4.483245e+01
  -7.014938e+01   7.254959e+00
  -4.611728e+01  -1.497556e+01
   1.660795e+01  -9.010580e+00
  -3.235171e+00   6.120660e+01
  -2.471476e+01   2.804826e+01
  -9.433825e+01  -7.769025e+00
  -7.670523e+01  -8.153115e+01
   7.634207e+00  -5.210000e+01
   7.612807e+01  -6.457213e+01
   9.366015e+01   4.105083e+01
   3.903259e+01   4.347081e+01
  -6.093133e+01   6.159085e+01
  -5.109244e+01  -1.042780e+01
  -9.750293e+00   1.947513e+01
   6.050040e+00   2.602314e+00
   2.229162e+01   1.912371e+01
  -4.465959e+01  -1.970610e+01
  -5.490972e+01  -2.075250e+01
   1.742468e+01  -5.480480e+01
   9.671379e+01  -9.804902e+01
   1.106660e+02  -9.488404e+00
   3.261217e+01   6.654035e+01
  -4.609057e+01   8.275828e+01
  -5.291611e+01   9.724480e+01
  -4.606410e+01   1.031544e+01
  -5.285678e+01  -5.232759e+01
  -2.237443e+01  -5.792892e+00
  -1.381509e+01   1.283227e+01
  -5.861952e+01  -2.691253e+01
  -2.706820e+01  -2.525679e+01
   3.362258e+01  -3.822206e+01
   7.055005e+01  -3.793374e+01
   3.794926e+01   3.339665e+01
  -4.273811e+00   2.076233e+01
  -6.735226e+01   2.401722e+01
  -1.057062e+02  -6.231148e+01
   2.329451e+00  -1.024181e+02
   1.023907e+02  -9.927821e+01
   1.827716e+02  -4.633868e+01
   1.278250e+02   3.761913e+01
  -6.570280e+00   6.262471e+01
  -4.555801e+01   7.774340e+01
  -1.584724e+01   1.550868e+01
  -3.800898e+01   3.168105e+01
  -4.751868e+01   1.719579e+01
  -6.330896e+01   2.264882e+01
  -5.693289e+01  -2.152764e+01
  -3.708825e+01  -7.714977e+01
  -4.706504e-01  -1.250234e+02
   5.168434e+01  -7.947673e+01
   1.062590e+02  -1.187248e+01
   4.479710e+01   8.025304e+01
   4.162521e+00   7.400784e+01
  -3.534181e+01   3.771076e+01
  -1.969795e+01  -1.026783e+01
   1.505864e+01  -2.265844e+01
   1.280002e+01   1.776864e+00
  -3.481469e+01  -1.775761e+01
  -4.172893e+01  -4.204038e+01
  -2.216131e+01  -9.657765e+00
   2.624299e+01  -9.506509e+00
   9.462328e+01   1.036587e+01
   6.826100e+01   3.774587e+01
   6.565858e-02   4.852285e+01
  -7.023775e+01   8.186758e+00
  -7.813535e+01  -1.690459e+01
  -2.243750e+01  -2.725549e+01
   1.154330e+01  -1.652329e+01
   1.820811e+01  -2.393350e+01
   6.940458e+00   2.097990e+01
   1.239638e+01   2.287647e+01
  -2.524449e+01   6.047111e+00
  -4.067683e+01  -4.659800e+01
  -2.462432e+01  -5.909489e+01
  -1.891643e+01  -1.161140e+01
  -6.378884e+01  -1.510541e+01
  -3.555930e+01  -3.822970e+01
   3.827632e+01  -7.328882e+01
   6.527845e+01  -4.547888e+01
   5.905296e+01   6.458148e+00
   6.973850e+01   6.657437e+01
   1.195789e+01   7.033041e+01
  -9.300695e+01   3.351873e+01
  -2.285350e+01  -9.324960e+00
   3.743426e+01  -1.421463e+01
   5.218820e+01   5.604979e+01
  -1.404389e+01   6.144845e+01
  -5.970196e+01   2.595352e+01
  -8.129713e+01   6.814839e-01
  -8.152085e+01  -6.160792e+01
  -7.508174e+00  -5.113274e+01
   4.542766e+01  -2.577186e+01
  -9.887488e+00   4.547692e+00
   2.817405e+00   1.260448e+01
  -5.269027e+01  -4.135180e+01
   1.720742e+01  -4.866524e+01
   9.899715e+00  -2.477267e+01
   9.164977e+01  -5.771539e+00
   5.261981e+01   6.415309e+01
  -1.332122e+01   5.222067e+01
  -2.815739e+01   7.555871e+01
  -7.720189e+01  -2.722396e+01
  -5.523259e+01  -4.859916e+01
  -5.372864e+00  -4.248801e+01
   5.530407e+00   8.600153e-01
   2.692782e+01   1.683629e+01
  -1.049869e+01   1.774155e+01
  -7.185395e+00  -2.537169e+01
   3.239204e+01  -8.078270e+00
   2.331832e+01   4.051119e+01
   2.807278e+01   3.673192e+01
  -3.663592e+01   3.288611e+01
  -6.908445e+01  -1.716575e+01
  -9.312816e+01  -4.320600e-01
  -1.541971e+01  -4.638262e+01
   4.434356e+01   1.887858e+01
   4.733095e+01   5.870104e+00
   3.122193e+01  -1.866942e+00
  -3.169247e+01  -1.002993e+01
  -1.792059e+01   1.410535e+01
   5.664450e+00   2.035314e+01
   1.136456e+01   3.075475e+01
  -1.487701e+01  -1.337511e+01
  -2.277962e+01  -1.073336e+01
  -2.480070e+01  -4.000533e+01
   5.198922e+01  -5.981361e+01
   8.996573e+01  -9.902302e+00
   1.842869e+01   2.872434e+01
   1.027260e+01   9.150001e+01
  -4.956872e+01   6.261156e+01
  -5.698026e+01   2.340432e+01
  -4.756023e+01  -1.491606e+01
  -1.644845e+01  -9.971893e+00
   1.464640e+01  -8.630418e+00
  -2.656596e+01   2.120964e+01
  -1.003060e+01  -3.869064e+01
   2.196011e+00  -4.969151e+01
   3.181636e+01  -4.518067e+01
   6.040094e+00   7.444645e+00
   3.688532e+01   4.327334e+01
  -1.666701e+01   3.194489e+01
  -1.750637e+01   3.822923e+00
  -3.131259e+01  -4.719509e+01
  -5.519221e+01  -5.103730e+01
   4.922780e+01  -5.043188e+01
   5.606773e+01  -6.589600e+00
  -1.100738e+00   1.254943e+01
   1.894978e+00   4.476685e+01
  -1.081925e+01  -1.141256e+01
   1.377981e+01   2.263375e+01
   6.069592e+01  -3.377637e+00
   4.612320e+00   1.163478e+01
  -3.600792e+01   5.369839e+01
  -5.907573e+01   2.988667e+01
  -4.257376e+01   5.526727e+00
   2.788289e+01  -3.111814e+01
   4.098349e+01  -5.933046e+01
   4.628093e+01  -8.609454e-01
  -3.944461e+00   2.153315e+01
  -1.582597e+01   2.053492e+01
  -2.830440e+00   2.192807e+00
   2.187431e+01  -6.382140e+01
   3.645497e+01  -7.731536e+00
   2.461490e+01   2.263470e+01
   2.888623e+00   3.068324e+01
   7.952236e-01   2.286561e+01
   4.035920e+00  -9.605687e+00
  -7.054696e+00   1.894067e+01
   1.700636e+01   2.975079e+01
   2.813256e+01   5.239809e+00
   6.156401e+00   6.361583e+00
  -1.793074e+01  -1.505171e+01
  -5.588589e+00  -2.536879e+01
   4.685738e+01  -5.542875e+00
   1.147535e+01   4.934585e+01
   4.272763e+00   1.183071e+01
  -3.022857e+01   2.572368e+01
  -2.593557e+01  -2.452726e+01
  -1.548805e+01  -3.976066e+01
   2.546756e+01  -1.097611e+01
   9.104606e+00   7.321860e+00
  -1.723740e+01   5.304020e-01
  -8.361605e+00  -8.051471e+00
  -1.363397e+01  -6.239368e+00
   2.223103e+01  -1.908848e+00
   3.023806e+01  -1.824950e+00
