
 $NMID
 id='ANONYMOUS ', fmtdat='(2E16.6)'
 volume=1.0
 tramp=1.0
 $END
  -2.559322e+03   3.811649e+02
  -1.776558e+03  -8.681775e+02
  -1.899534e+02  -1.966248e+03
   5.664831e+02  -9.199945e+02
   7.483628e+02  -1.326950e+02
   2.234553e+02   2.319025e+02
  -1.889882e+02   4.137229e+01
   3.704720e+00  -4.493492e+02
   3.496506e+02  -5.504197e+02
   4.340840e+02  -8.226493e+01
   3.912492e+02   3.606534e+02
  -6.426461e+01   4.872410e+02
  -1.823121e+02   1.651106e+02
  -2.441380e+02  -3.169406e+02
   4.959956e+01  -4.145752e+02
   2.775161e+02  -1.034075e+02
   2.942796e+02   3.286774e+02
  -3.260766e+01   5.304500e+02
  -3.293928e+02   2.120231e+02
  -3.562246e+02  -1.511892e+02
  -1.061872e+02  -2.728787e+02
   6.347972e+01  -2.158723e+02
   4.436941e-01  -6.372444e+01
  -1.690561e+02  -1.592553e+02
  -1.758623e+02  -2.522681e+02
   7.805944e+01  -1.951000e+02
   4.235552e+02  -3.112891e+01
   4.676581e+02   8.110934e+01
   1.636841e+02   1.700773e+02
  -3.242222e+02   3.744948e+01
  -4.121505e+02  -1.754638e+02
  -6.429652e+01  -3.301432e+02
   1.663321e+02  -2.495480e+02
   4.397792e+02  -9.316621e+01
   2.595932e+02   9.649426e+01
   2.760115e+01   1.749998e+02
  -1.330694e+01   1.529487e+02
   5.208650e+01  -9.612027e+01
   8.688219e+01  -7.357906e+01
   8.488466e+01   2.010816e+02
   1.345590e+01   3.212307e+02
  -1.508753e+02   3.248875e+02
  -1.598342e+02   3.384134e+01
   6.277734e+00  -2.169005e+02
   7.905469e+01  -9.350071e+01
   1.009195e+02   2.161200e+02
  -6.941414e+01   3.289862e+02
  -3.098306e+02   5.296355e+01
  -3.396567e+02  -2.724178e+02
  -1.143117e+02  -4.457975e+02
   2.218011e+02  -1.823071e+02
   4.761549e+02   8.895445e+01
   2.182663e+02   2.007309e+02
   7.052619e+00   1.649468e+02
  -2.250031e+02   3.165964e+01
  -1.746670e+02   1.680490e+01
  -4.293084e+01  -5.769696e+00
  -4.281933e+00   3.510801e+01
  -6.070457e+01   6.711475e+00
  -1.125230e+02  -4.995194e+01
  -1.257788e+02  -1.325105e+02
   9.902143e+01  -1.620675e+02
   2.931712e+02  -1.437784e+02
   1.774159e+02   7.298458e+01
  -4.980766e+01   2.729040e+02
  -2.730550e+02   3.379526e+02
  -3.393781e+02   8.024472e+01
  -1.718230e+02  -1.324905e+02
  -7.902281e-01  -2.071264e+02
   7.439705e-01  -2.075519e+02
  -1.133146e+01  -1.536747e+02
  -1.179354e+01  -1.007679e+02
   1.279177e+02  -1.061679e+02
   2.311193e+02  -2.482349e+01
   1.333907e+02   1.011506e+02
   7.505074e+01   1.859929e+02
  -1.063738e+02   1.491884e+02
  -1.516734e+02  -8.771333e+01
  -6.968457e+01  -2.254690e+02
   3.429116e+01  -1.903116e+02
   2.130420e+02  -4.823194e+01
   2.131837e+02   1.510640e+02
   1.197634e+02   2.474279e+02
  -1.162564e+02   1.676758e+02
  -1.394011e+02   1.445124e+02
  -1.201711e+02   1.061223e+02
  -1.308295e+02   6.228980e+01
  -2.672158e+02   7.230364e+01
  -3.642375e+02  -8.914685e+01
  -2.468484e+02  -2.020778e+02
  -9.306115e+00  -3.819212e+02
   3.221853e+02  -3.680165e+02
   4.056360e+02  -1.906284e+02
   1.896933e+02   1.155375e+02
   1.376295e+01   2.088753e+02
  -3.167367e+01   1.467964e+02
  -3.274464e+01   3.321665e+01
   1.416851e+02  -1.123460e+01
   6.877508e+01   5.121534e+01
   1.758382e+01   9.848284e+01
  -1.026081e+02   7.231761e+01
  -6.595923e+01  -1.759133e+01
   3.661365e+01  -1.240917e+02
   1.502247e+02  -1.437123e+01
   1.268479e+02   1.389529e+02
   1.451360e+01   2.906235e+02
  -2.214433e+02   1.412203e+02
  -3.250790e+02  -6.408516e+01
  -2.428669e+02  -2.042351e+02
  -4.251189e+01  -2.270094e+02
   1.057509e+02  -1.027365e+02
   1.108651e+02  -9.578147e+00
   2.972493e+01   7.831018e+00
  -2.854053e+01  -5.125604e+01
   2.899553e+00  -8.832642e+01
   1.233726e+02  -3.673085e+01
   9.204413e+01   1.883715e+01
   3.656215e+01   2.601087e+01
  -6.532981e+01  -9.050142e+00
  -3.796795e+01  -7.515854e+01
   1.417659e+02  -4.995907e+01
   2.976114e+02   1.345280e+01
   2.565554e+02   1.801412e+02
   8.962167e+00   2.292783e+02
  -2.236988e+02   1.856634e+02
  -1.954515e+02   3.820895e+01
  -9.833237e+01  -2.884269e+01
   6.420253e+01  -1.817395e+01
   6.436686e+01   1.315951e+01
  -5.163206e+01   3.510566e+01
  -1.477141e+02   1.965602e+01
  -1.647153e+02  -4.402960e+01
  -4.415466e+01  -1.467246e+02
   6.689539e+01  -1.246539e+02
   7.547811e+01  -3.075732e+01
   1.684787e+01   2.453328e+01
  -5.656257e+01  -8.639709e-01
  -3.795169e+01  -9.778112e+01
   8.736641e+01  -8.887898e+01
   1.832091e+02  -3.684536e+00
   1.413649e+02   1.144493e+02
   3.126452e+01   1.203662e+02
  -1.373618e+02   9.996013e+01
  -1.265181e+02  -3.164948e+00
  -6.793321e+01  -5.144391e+01
   7.953507e+01  -6.629380e+01
   6.837726e+01  -3.520898e+00
  -4.571237e+01   1.319086e+01
  -3.589440e+01   2.097429e+01
  -1.623710e+01  -1.042680e+01
   4.839372e+01  -1.728279e+01
   1.098935e+02   6.348144e+01
   2.305646e+01   1.420539e+02
  -1.053870e+02   1.183736e+02
  -2.118813e+02  -2.377209e+01
  -1.495392e+02  -1.445372e+02
  -3.366643e+01  -1.788077e+02
   7.049908e+01  -1.003615e+02
   8.075516e+01  -1.275864e+01
   6.272016e+01   3.059698e+01
   2.880051e+01   2.407267e+01
   1.926997e+01  -1.149422e+00
   4.820755e+01  -2.082884e+01
   5.150482e+01   6.582672e+01
  -4.826026e+01   1.142456e+02
  -1.092346e+02   6.593643e+01
  -1.063645e+02  -4.655085e+01
   1.559656e+01  -1.208066e+02
   1.255952e+02  -7.677071e+01
   2.080465e+02   7.882506e+01
   3.078031e+01   1.570224e+02
  -1.383727e+02   1.934392e+02
  -2.381257e+02   2.563340e+01
  -1.976504e+02  -7.034130e+00
  -4.391832e+01  -1.134355e+02
   4.578005e+01  -1.333559e+02
   8.663097e+01  -4.098832e+01
   4.083844e+01  -3.857107e+01
   3.047731e+01  -1.092064e+02
   7.510743e+01  -1.002093e+02
   8.147630e+01   5.393639e+01
   6.077945e+01   1.137160e+02
   3.760140e+01   1.914548e+02
  -9.742734e+01   1.533174e+02
  -1.360084e+02   2.592571e+01
  -1.131937e+02  -6.652680e+01
  -7.020116e+00  -1.281621e+02
   6.553617e+01  -8.373510e+01
   6.217564e+01   2.669637e+01
   1.046907e+01   5.876903e+01
  -2.302334e+01   5.299720e+01
   1.761333e+01  -1.310466e+01
   6.690972e+01   5.672655e+01
   1.823564e+01   1.290131e+01
  -7.232955e+01   5.672657e+01
  -1.764045e+02   1.224481e+01
  -1.062403e+02  -7.169542e+01
  -1.107550e+01  -4.356727e+01
   1.088886e+02  -7.420851e+01
   1.239437e+02   2.809417e+01
   2.249425e+01   5.530507e+01
  -4.933895e+01   2.746101e+01
  -6.070449e+01  -2.458105e+01
  -3.665109e+01  -8.861717e+01
   5.969306e+01  -5.685406e+01
   8.085364e+01  -1.222969e+01
   2.889789e+01   4.971598e+01
   1.821279e+01   2.788869e+01
   3.736273e+01  -2.217762e+01
   7.185426e+01   6.131456e+00
   2.653973e+01   6.053393e+01
  -3.449109e+00   1.548765e+02
  -1.012248e+02   1.221021e+02
  -1.596585e+02   2.737612e+01
  -9.836769e+01  -1.089050e+02
   4.365585e+01  -1.019924e+02
   9.404432e+01  -5.657545e+01
   3.828533e+01   1.004292e+01
  -5.211298e+01   2.304780e+01
  -9.409935e+01  -5.021127e+01
  -5.847781e+01  -1.114056e+02
   7.352339e+01  -8.045080e+01
   1.761220e+02  -1.127836e+01
   1.501074e+02   4.929720e+01
   3.651692e+01   7.261509e+01
  -7.277950e+01   4.447767e+01
  -3.608256e+01   3.454040e+00
   3.141062e+01  -2.103918e+01
   8.964528e+01   2.033309e+01
   2.312585e+01   9.278410e+01
  -7.863314e+01   9.841276e+01
  -1.034416e+02   3.680368e+01
  -1.216692e+02  -8.574417e+01
  -1.200603e+01  -1.505447e+02
   3.314307e+01  -1.231796e+02
   7.842837e+01  -6.016730e+00
   3.895847e+01   6.900977e+01
  -3.427232e+01   7.954476e+01
  -3.165862e+01   4.234120e+01
  -1.957373e+01  -4.212981e+01
  -8.385776e+00  -3.127045e+00
  -4.514932e+00   5.704427e+00
  -3.407766e+01  -5.894226e+01
  -6.382714e+01  -8.943819e+01
  -3.918504e+01  -5.491676e+01
   6.529053e+01  -3.224254e+01
   1.129922e+02   2.769581e+01
   1.185285e+02   8.101838e+01
   1.273935e+01   6.680683e+01
  -8.758015e+01   3.053387e+01
  -3.857558e+01   1.300293e+01
  -1.593786e+00   8.669698e+00
   2.130214e+01  -2.894080e+01
   1.252404e+01  -3.294064e+00
  -2.895862e+01  -6.691708e+00
  -1.194950e+01   2.686233e+01
   1.275382e+01  -2.635272e+01
   7.899069e+01   2.875732e+01
   3.750308e+00   5.653268e+01
  -8.608831e+01   7.466351e+01
  -1.731929e+02   7.796334e+01
  -1.117563e+02  -4.190744e+01
  -3.260472e+01  -1.166223e+02
   1.001949e+02  -1.132103e+02
   7.848473e+01  -6.622580e+01
   5.109538e+01   3.678295e+01
   4.534555e+01   1.395808e+01
   1.352808e+01   5.625923e+00
   1.747707e+01  -4.509744e+00
   2.185897e+01   2.238893e+01
   4.197636e+00   4.389262e+01
  -1.364085e+01   3.738738e+01
  -7.190924e+01  -7.836774e+00
  -7.911541e+01  -5.763086e+01
  -2.961736e+01  -7.595463e+01
   2.792265e+01  -4.413689e+01
   8.891460e+01   5.444961e+01
   3.037024e+01   1.015444e+02
  -2.789956e+01   5.733191e+01
  -8.390164e+01  -1.497114e+01
  -1.091019e+01  -5.455915e+01
   3.331816e+01  -6.395557e+01
   2.639692e+01  -2.296328e+01
  -3.712378e+01  -7.515612e+00
  -4.895792e+01  -1.742257e+01
  -1.630073e+01  -2.832185e+01
   1.006676e+02  -5.434611e+01
   6.467412e+01  -4.024777e+01
   6.921281e+01   2.286870e+01
   6.361792e-01   6.281096e+01
  -3.530097e+01   7.727610e+01
  -3.754132e+01   1.239696e+01
   2.696988e-01  -4.766844e+01
   2.260592e+01  -5.660152e+01
   1.799894e+01   2.354349e+01
   4.730377e+01   1.680248e+01
   1.815767e+00   3.318264e+01
  -3.207917e+01  -3.815811e+00
  -3.056927e+01  -3.998515e+01
  -3.428285e+01   4.922932e+00
  -1.443253e+01   1.196096e+01
  -5.202971e+00   1.068047e+01
  -1.355646e+01  -4.029397e+01
  -9.114636e+00  -4.719706e+01
   1.384573e+01  -2.446280e+01
   5.000277e+01   1.144307e+01
   1.623000e+01   6.828513e+01
  -3.244760e+01   2.758450e+01
  -5.270828e+01  -2.040009e+01
   1.416690e+01  -6.078797e+01
   4.645901e+01  -4.176071e+01
   1.048354e+02   1.543097e+01
   4.873997e+01   4.753856e+01
  -6.273178e+00   2.030708e+01
  -5.294521e+01   1.623025e+01
  -1.577480e+01   1.303251e+01
   1.947975e+00  -1.153559e+01
   4.402773e+01   4.123051e+00
  -2.007864e+01   5.096378e+01
  -4.792690e+01  -7.327239e+00
