
 $NMID
 id='ANONYMOUS ', fmtdat='(2E16.6)'
 volume=1.0
 tramp=1.0
 $END
  -3.007876e+03  -6.666117e+02
  -1.968316e+03  -1.506615e+03
  -1.801678e+01  -2.012728e+03
   1.177880e+03  -1.107128e+03
   7.663050e+02  -1.307422e+02
  -1.026608e+02   1.411054e+02
  -3.982583e+02  -1.198998e+02
   2.884519e+00  -5.004690e+02
   3.516295e+02  -4.316621e+02
   4.330814e+02   1.196406e+01
   4.272673e+02   4.108093e+02
  -4.040066e+01   5.463580e+02
  -3.838559e+02   1.011256e+02
  -1.985259e+02  -4.211456e+02
   1.167576e+02  -4.421835e+02
   3.642272e+02  -5.416058e+01
   2.613300e+02   5.009610e+02
  -1.712243e+02   5.246847e+02
  -3.699605e+02   8.329350e+01
  -4.093458e+02  -1.685315e+02
  -1.973873e+02  -2.883600e+02
   1.094537e+02  -1.956497e+02
   7.867322e+01  -4.362165e+01
  -1.192761e+02  -5.634700e+01
  -2.763752e+02  -2.340541e+02
  -5.919278e+01  -3.274941e+02
   3.779609e+02  -1.648488e+02
   5.889456e+02   8.186258e+01
   2.362598e+02   2.759651e+02
  -2.811917e+02   1.539704e+02
  -4.631732e+02  -1.713933e+02
  -1.081334e+02  -2.757438e+02
   2.413052e+02  -3.406820e+02
   3.914302e+02  -9.213878e+01
   2.985591e+02   1.060881e+02
   4.486434e+01   3.343546e+02
  -3.397344e+01   1.258520e+02
   3.918768e+01  -1.099372e+02
   1.081015e+02  -1.766378e+02
   2.050548e+02   1.043027e+02
   6.172881e+01   4.405258e+02
  -1.694024e+02   4.698975e+02
  -3.915879e+02   6.303207e+01
  -6.763834e+01  -2.260997e+02
   1.404017e+02  -1.492035e+02
   1.331936e+02   2.463274e+02
  -1.288009e+02   3.623429e+02
  -3.888284e+02   9.930597e+01
  -3.662616e+02  -3.310892e+02
  -2.113861e+02  -4.230173e+02
   2.842856e+02  -2.566116e+02
   4.491064e+02   4.951196e+01
   2.752793e+02   2.509686e+02
  -6.350343e+01   2.113751e+02
  -2.507132e+02   4.926335e+01
  -1.886990e+02  -4.741978e+01
  -2.022073e+01  -2.908136e+01
   6.691529e+01   1.295709e+01
  -8.621554e+01   4.537270e+01
  -2.167622e+02  -8.995577e+01
  -1.171343e+02  -2.137096e+02
   1.342274e+02  -2.330322e+02
   3.248247e+02  -1.150893e+02
   2.237987e+02   7.924743e+01
  -1.298306e+01   2.239678e+02
  -2.621978e+02   3.640433e+02
  -2.642840e+02   1.167257e+02
  -2.352796e+02  -1.317540e+02
  -9.379838e+01  -2.892267e+02
   2.810918e+01  -3.137280e+02
   3.635524e+01  -1.296584e+02
   2.188769e+01  -7.563631e+01
   1.271349e+02  -7.649651e+01
   2.331104e+02  -7.059008e+01
   1.976149e+02   1.068762e+02
   6.457017e+01   2.032173e+02
  -6.653442e+01   1.298324e+02
  -1.501904e+02  -1.904609e+01
  -1.306008e+02  -2.279604e+02
   4.881473e+01  -2.327743e+02
   1.865697e+02  -8.005552e+01
   2.519699e+02   1.773776e+02
   1.389111e+02   2.529273e+02
  -4.279769e+01   1.779375e+02
  -1.428133e+02   9.613257e+01
  -1.316402e+02   5.212794e+01
  -1.097442e+02   1.025767e+01
  -2.477944e+02   1.609556e+01
  -3.060502e+02  -9.419843e+01
  -2.932830e+02  -2.229269e+02
   1.262754e+01  -3.962532e+02
   3.514896e+02  -3.195066e+02
   4.028745e+02  -7.995235e+01
   2.554875e+02   1.207912e+02
  -1.669061e+01   2.185247e+02
  -1.123578e+02   1.724368e+02
  -2.677502e+01   3.818298e+01
   1.283747e+02  -3.102376e+01
   1.180572e+02   1.222605e+01
   2.995584e+01   1.375720e+02
  -8.900247e+01   5.193157e+01
  -1.179970e+02  -3.791932e+01
   2.619672e+00  -1.086837e+02
   1.415015e+02   1.329336e+00
   1.533959e+02   2.040230e+02
  -2.392671e+01   3.041486e+02
  -1.989900e+02   1.955434e+02
  -2.675058e+02  -7.778504e+01
  -2.158511e+02  -2.149202e+02
  -2.889456e+01  -2.703176e+02
   9.074422e+01  -1.205573e+02
   1.551080e+02  -3.157421e+01
   5.618690e+00   4.308811e+01
  -5.415037e+01  -3.145188e+01
   1.565231e+01  -1.331303e+02
   1.329496e+02  -5.592504e+01
   1.156803e+02   2.019223e+01
   8.897023e+01   2.971863e+01
  -3.449831e+01   2.160761e+00
  -3.978794e+01  -7.031394e+01
   1.467671e+02  -8.148050e+01
   2.917043e+02   4.733030e+01
   2.024231e+02   1.735718e+02
   6.558595e+01   2.405029e+02
  -2.019594e+02   1.595333e+02
  -2.261757e+02   1.027738e+02
  -1.417561e+02  -6.966310e+01
   1.537399e+01  -6.881730e+01
   7.183623e+01   2.146729e+01
  -3.871173e+01   7.197419e+01
  -1.713750e+02   2.373116e+01
  -2.076959e+02  -7.408103e+01
  -5.720620e+01  -1.667302e+02
   7.692460e+01  -6.915492e+01
   1.138055e+02  -1.454883e+01
   4.139379e+01   4.344035e+01
  -3.167882e+01  -2.147645e+01
  -4.682974e+01  -9.884559e+01
   7.898481e+01  -8.805343e+01
   1.790288e+02  -1.888298e+01
   1.452682e+02   1.175125e+02
  -6.191354e+00   2.046854e+02
  -1.248984e+02   1.289318e+02
  -1.512662e+02  -2.384322e+01
   1.772530e+00  -9.180086e+01
   6.039976e+01  -1.071089e+02
   8.352273e+01  -1.464369e+01
  -1.997536e+01   1.937348e+01
  -4.329768e+01  -4.080857e+00
   1.124408e+01  -4.123822e+01
   1.052168e+02   3.722462e+00
   9.293666e+01   6.252548e+01
   1.649932e+01   1.279349e+02
  -1.297986e+02   1.216477e+02
  -2.176630e+02   7.242196e+00
  -1.646151e+02  -1.392592e+02
  -2.269410e+01  -1.659698e+02
   7.812909e+01  -1.258936e+02
   8.852632e+01  -1.781987e+01
   6.892713e+01   6.161212e+01
   2.349580e+01   3.042602e+01
   4.198661e+01   2.644215e+01
   8.354004e+01  -3.480848e+00
   5.787766e+01   3.671325e+01
  -3.207447e+01   7.999266e+01
  -1.204520e+02   6.198444e+01
  -1.134273e+02  -1.644938e+01
  -1.774250e+01  -1.175711e+02
   1.504917e+02  -7.897676e+01
   1.773844e+02   3.090279e+01
   4.248255e+01   2.044095e+02
  -8.085021e+01   1.257092e+02
  -1.917982e+02   2.648309e+01
  -2.435124e+02  -5.616502e+01
  -9.270896e+01  -1.508604e+02
   2.745175e+01  -1.043845e+02
   7.518993e+01  -5.738462e+01
   7.684815e+01  -4.397616e+01
   8.858978e+01  -7.139515e+01
   7.452755e+01  -5.661293e+01
   1.427641e+02   3.602954e+01
   1.005575e+02   1.141110e+02
  -1.380188e+00   1.784997e+02
  -7.548799e+01   1.278982e+02
  -1.614018e+02   9.563239e+00
  -1.281476e+02  -9.285436e+01
  -1.917718e+01  -1.450652e+02
   8.450250e+01  -9.385534e+01
   5.605452e+01   2.155024e-01
   7.586817e+00   5.518705e+01
  -3.420534e+01   8.411523e+00
   2.372558e+01   4.189471e+01
   7.687330e+01   3.016299e+00
   3.170461e+01   6.055197e+01
  -6.082670e+01   4.233763e+01
  -9.282669e+01  -1.231942e+01
  -1.080142e+02  -4.690922e+01
   2.508346e+01  -9.614097e+01
   1.054157e+02  -5.907805e+01
   1.245055e+02  -9.554669e+00
   4.695674e+01   2.991468e+01
  -4.534155e+01   3.466075e+01
  -4.789604e+01  -2.583479e+01
  -6.496474e+00  -6.321833e+01
   2.106852e+01  -3.624718e+01
   6.119272e+01  -4.077229e+01
   4.105299e+01   8.179761e+01
   4.141149e+01   3.476932e+01
   4.927548e+01   3.277498e+01
   6.635057e+01  -7.620789e+00
   4.618579e+01   6.585007e+01
  -1.912299e+01   1.140409e+02
  -9.641623e+01   1.201946e+02
  -1.138197e+02   1.899148e+01
  -1.038453e+02  -6.264963e+01
   1.737852e+01  -1.457890e+02
   7.752200e+01  -7.104204e+01
   6.573181e+01   5.820989e-01
  -2.871585e+01  -2.380092e+00
  -1.277816e+02  -2.625193e+01
  -5.014501e+01  -9.299296e+01
   7.232940e+01  -6.450792e+01
   1.827488e+02   1.958511e+01
   1.219830e+02   4.166980e+01
   3.866491e+01   1.041741e+02
  -7.628705e+01   8.080208e+01
  -3.738361e+01  -2.465153e+00
   2.391001e-01   3.551621e+00
   6.056449e+01   1.628239e+01
   3.901473e+01   6.259735e+01
  -1.504047e+01   1.168843e+02
  -1.190257e+02   6.141320e+01
  -8.750811e+01  -8.856719e+01
   2.826667e+00  -1.471780e+02
   9.055274e+01  -1.255969e+02
   7.319880e+01  -5.556768e+00
   5.698044e+01   1.062996e+02
  -1.623213e+01   5.559674e+01
  -6.179770e+01   1.110238e+01
  -3.163155e+01  -1.472199e+01
  -1.983410e+01  -2.493926e+01
   8.192473e+00   1.862938e+01
  -1.870638e+01  -1.169607e+01
  -2.346519e+01  -1.032711e+02
   1.004616e+01  -1.004236e+02
   6.463270e+01  -1.116770e+01
   1.036005e+02   5.654538e+01
   1.137218e+02   3.807399e+01
   2.776738e+01   5.743630e+01
  -7.043128e+01   3.437056e+01
  -7.859781e+01  -2.526733e+01
  -5.651739e+00  -2.761698e+01
   1.286234e+01  -6.434732e+00
  -4.624592e+00  -3.239996e+01
  -1.765271e+01   5.580374e+00
   2.862109e+01  -2.235244e+00
   4.840012e+01  -2.193030e+00
   5.991462e+01   1.339197e+01
   3.346842e+00   9.581380e+01
  -1.110538e+02   1.009209e+02
  -1.610480e+02   5.671122e+01
  -1.358732e+02  -3.493426e+01
  -2.067988e+01  -1.400809e+02
   5.969001e+01  -1.100880e+02
   7.015651e+01  -7.448979e+01
   4.292694e+01  -1.517500e+01
  -3.800693e+00   3.279143e+01
  -1.501688e+01   3.030876e+01
   1.885014e+01   2.756498e+01
   4.002714e+01   4.248405e+01
   1.801287e+01   1.186376e+02
  -1.719707e+01   8.087166e+01
  -5.036040e+01  -6.101176e+00
  -8.763098e+01  -9.685096e+01
   1.598290e+01  -1.213187e+02
   5.942652e+01  -3.001431e+01
   7.388637e+01   8.610589e+01
   4.354297e+01   1.258595e+02
  -6.738356e+01   6.742937e+01
  -1.401401e+02  -1.609061e+01
  -4.308393e+01  -5.067091e+01
   5.127110e+01  -5.946613e+01
   2.170488e+01  -4.475719e+01
  -2.235070e+01   1.126456e+01
  -5.823396e+01  -3.857448e+00
  -1.956983e+01  -3.143011e+01
   6.502716e+01  -5.881592e+01
   8.029758e+01  -3.279553e+01
   7.555749e+01   1.187655e+01
  -1.608698e+01   8.147875e+01
  -6.162152e+01   7.651946e+01
  -3.429246e+01   1.955656e+01
   1.116669e+01  -5.687121e+01
   1.938173e+01  -4.204372e+01
   2.759693e+01  -1.143857e+01
   5.199765e+01   5.049300e+01
  -8.514323e+00   3.254679e+01
  -1.766471e+01  -2.753133e+01
  -1.651134e+01  -4.026078e+01
  -9.269456e+00   5.562328e+00
   1.657368e+00   1.357045e+01
  -1.012854e+01   2.693068e+01
  -2.480577e+00  -1.611593e+01
  -3.559378e+01  -2.709761e+01
  -1.076807e+00  -2.726823e+01
   6.577224e+00   2.873734e+01
   5.421942e+01   6.099232e+01
  -4.527229e+01   2.584933e+01
  -4.779238e+01  -1.597962e+01
  -2.626007e+00  -4.398043e+01
   2.659235e+01  -3.441125e+01
   5.329219e+01   1.010320e+01
   3.838694e+01   5.738120e+01
  -2.145154e+01   2.824185e+01
  -5.436889e+01   2.827347e+01
   3.330776e+00   8.417363e+00
   1.436470e+01  -2.038258e+01
   3.333692e+01  -1.165576e+00
  -3.445220e+01   2.655957e+01
  -8.316471e+01   1.946365e+01
