
 $NMID
 id='ANONYMOUS ', fmtdat='(2E16.6)'
 volume=1.0
 tramp=1.0
 $END
   2.883424e+03   1.794510e+02
   2.033157e+03   1.039629e+03
   6.968801e+01   1.750404e+03
  -1.370461e+03   1.295024e+03
  -7.174709e+02   2.394950e+02
  -5.190968e+01  -1.690706e+02
   3.631172e+02   6.734338e+01
   1.751546e+02   3.958359e+02
  -2.296913e+02   5.303618e+02
  -4.816132e+02   1.144944e+02
  -4.175126e+02  -4.416423e+02
  -1.278151e+02  -4.735995e+02
   3.321614e+02  -2.136635e+02
   1.961174e+02   2.850910e+02
  -1.501277e+02   4.895173e+02
  -3.839927e+02   1.008821e+02
  -2.901540e+02  -4.736392e+02
   7.841746e+01  -5.501370e+02
   4.295098e+02  -2.868980e+02
   4.354446e+02   1.967835e+02
   1.291413e+02   2.883049e+02
  -9.303221e+01   1.855140e+02
  -6.429552e+01   6.506718e+01
   1.269426e+02   7.601156e+01
   2.241361e+02   2.209708e+02
   6.853844e+00   3.149141e+02
  -4.020121e+02   1.290997e+02
  -6.860985e+02  -4.135383e+01
  -2.846668e+02  -3.185152e+02
   2.231100e+02  -1.546082e+02
   4.104361e+02   1.427402e+02
   1.390744e+02   2.289181e+02
  -2.735598e+02   4.012864e+02
  -3.560461e+02   1.323255e+02
  -2.732377e+02  -1.769211e+02
  -6.889139e+01  -2.673489e+02
  -4.589484e+00  -1.706456e+02
  -2.521023e+01   6.579716e+01
  -1.011623e+02   1.962417e+02
  -1.533962e+02  -1.105563e+02
  -6.073005e+01  -4.795328e+02
   2.173647e+02  -4.657642e+02
   3.273896e+02  -4.848304e+01
   1.419878e+02   2.818442e+02
  -1.268195e+02   1.758086e+02
  -2.234192e+02  -2.155067e+02
   3.414662e+01  -3.609907e+02
   3.519365e+02  -1.285660e+02
   4.412532e+02   3.119038e+02
   1.556196e+02   4.425122e+02
  -1.939373e+02   2.137790e+02
  -4.405071e+02  -5.252216e+01
  -2.458355e+02  -1.595771e+02
   6.487412e+01  -2.401415e+02
   2.172092e+02  -1.426384e+02
   2.071545e+02   2.022266e+01
  -1.674720e+01   3.138777e+01
  -7.198440e+01  -6.746299e+01
   8.849290e+01  -3.923648e+01
   1.707750e+02  -8.688254e+00
   1.099551e+02   1.859131e+02
  -1.332836e+02   2.745046e+02
  -2.784756e+02   1.358741e+02
  -2.598586e+02  -4.529910e+01
  -4.401184e+01  -3.039983e+02
   2.952435e+02  -3.135244e+02
   3.202027e+02  -1.460371e+02
   2.634182e+02   8.549566e+01
   9.273447e+01   3.379122e+02
  -1.177104e+01   2.818095e+02
  -3.870628e+01   1.391001e+02
  -2.954762e+01   1.169723e+02
  -1.159599e+02   1.232385e+02
  -1.933886e+02   4.792030e+01
  -2.256756e+02  -9.219196e+01
  -1.057137e+02  -1.972334e+02
   4.845030e+01  -1.738941e+02
   1.382628e+02   7.440168e+00
   1.479564e+02   2.103727e+02
  -4.352482e+01   1.880941e+02
  -1.990835e+02   7.373454e+01
  -2.574589e+02  -1.507442e+02
  -1.603272e+02  -2.548984e+02
   2.081565e+01  -2.629797e+02
   1.428258e+02  -1.324770e+02
   1.434730e+02  -7.354709e+01
   1.480539e+02  -3.248911e+01
   2.452394e+02   1.111400e+01
   3.691679e+02   2.475549e+01
   3.483505e+02   2.635859e+02
  -3.461845e+01   4.508077e+02
  -3.388230e+02   3.393135e+02
  -4.271430e+02   2.469403e+02
  -2.430543e+02  -6.235833e+01
  -6.896241e+01  -1.814328e+02
   1.242091e+02  -1.857932e+02
   7.830684e+00  -2.143246e+01
  -8.514033e+01   3.512876e+01
  -1.393864e+02  -4.101125e+01
  -2.901030e+01  -1.393365e+02
   9.732880e+01  -6.077186e+01
   1.381523e+02   3.308393e+01
  -2.205211e+00   1.171104e+02
  -1.346982e+02  -2.205097e+00
  -1.683532e+02  -1.739191e+02
   2.071430e+01  -2.965327e+02
   2.119592e+02  -1.896560e+02
   3.236702e+02   6.430987e+01
   2.447153e+02   2.046698e+02
   5.000160e+01   2.639211e+02
  -1.180808e+02   1.798280e+02
  -1.462689e+02   2.055833e+01
  -4.198937e+01   1.725712e+01
   4.338404e+01   5.285650e+01
   1.521279e+00   1.082784e+02
  -1.229843e+02   7.651325e+01
  -1.185865e+02  -1.228858e+01
  -5.319703e+01  -6.592483e+01
   7.018908e+01  -1.858902e+00
   3.528465e+01   8.228294e+01
  -1.316228e+02   6.577046e+01
  -2.132463e+02  -1.634167e+01
  -1.999059e+02  -1.477533e+02
  -1.885878e+00  -2.474671e+02
   1.875036e+02  -1.765693e+02
   2.045988e+02  -8.775095e+01
   1.212961e+02   6.050319e+01
  -4.848591e+01   8.403178e+01
  -5.331443e+01   1.502945e+01
   1.009252e+01  -8.064104e+01
   1.709425e+02  -5.334335e+01
   1.764185e+02   1.362960e+02
   7.293522e+01   1.859792e+02
  -4.891420e+01   1.401312e+02
  -1.142335e+02   3.507094e+01
  -6.584980e+01  -3.827291e+01
   4.761916e+01   4.005831e+01
   1.031882e+01   8.693838e+01
  -1.060836e+02   8.551452e+01
  -1.844876e+02   1.541674e+01
  -1.891438e+02  -1.075342e+02
   2.758377e+00  -2.404445e+02
   7.286079e+01  -1.196083e+02
   1.286017e+02  -1.489348e+01
   1.062382e+01   7.170771e+01
  -5.674202e+01   6.615109e+01
  -5.551625e+01   1.396640e+01
   2.698118e+00  -1.873121e+01
   4.868319e+01  -3.564738e+00
   1.313455e+01   1.572610e+01
  -6.566327e+01   2.255204e+01
  -1.284092e+02  -9.616186e+01
  -4.178444e+01  -2.110998e+02
   1.223427e+02  -1.220714e+02
   2.110537e+02   1.401445e+01
   2.048941e+02   1.281390e+02
   3.655507e+01   2.115673e+02
  -8.212550e+01   1.485822e+02
  -1.140782e+02   2.343184e+01
  -1.018772e+02  -6.239144e+01
  -3.194545e+01  -6.235994e+01
  -3.405652e+01   8.090646e+00
  -4.985283e+01   3.355656e+01
  -8.181064e+01  -5.918647e+01
   4.192609e+01  -1.218513e+02
   1.182962e+02  -4.904574e+01
   9.701414e+01   3.852598e+01
  -1.221021e+01   1.386177e+02
  -1.577953e+02   9.851954e+01
  -1.510573e+02  -8.183684e+01
  -6.518057e+01  -1.632102e+02
   6.318277e+01  -1.804734e+02
   2.128340e+02  -5.613449e+01
   2.440251e+02   6.745685e+01
   1.052562e+02   1.580965e+02
  -3.014348e+01   1.400216e+02
  -7.594660e+01   8.055885e+01
  -5.926690e+01   7.528713e+01
  -7.788334e+01   8.439425e+01
  -8.774159e+01   5.507524e+01
  -1.126188e+02   2.790389e+01
  -1.064567e+02  -9.198356e+01
  -9.902880e+00  -1.651757e+02
   9.871744e+01  -1.305305e+02
   1.485561e+02  -1.453794e+01
   8.885784e+01   1.006669e+02
   2.828231e+01   1.504157e+02
  -7.164084e+01   6.351801e+01
  -6.684108e+01   2.131960e+01
   1.658488e+00  -4.018461e+01
   4.796030e+01  -3.554125e+01
  -2.706215e+01  -2.513116e+01
  -8.916970e+01  -2.700680e+01
  -5.147450e+01  -2.852758e+01
   7.499831e+01  -4.377252e+01
   1.621038e+02  -1.286400e+01
   1.320785e+02   3.562164e+01
   5.978206e+00   7.880571e+01
  -1.139249e+02   9.798535e+01
  -1.700440e+02   4.930766e+01
  -3.132308e+01  -2.549184e+01
  -5.260631e-01  -6.443287e+01
   6.338241e+01   3.491628e+01
   2.344427e+01   8.333899e+01
  -3.030357e+01   2.601390e+01
  -5.140708e+01   5.158701e+01
  -6.636404e+01  -4.177684e+01
  -4.023750e+01  -4.729071e+01
  -3.546948e+01  -1.961648e+01
  -6.095893e+01  -2.308364e+00
  -5.186199e+01  -8.042342e+01
   4.675300e+01  -1.319906e+02
   9.993624e+01  -9.697419e+01
   1.545923e+02  -2.165706e+01
   1.242067e+02   9.692767e+01
  -5.461056e+00   1.483190e+02
  -1.137803e+02   7.784963e+01
  -8.625387e+01   7.161143e-01
   4.812949e+01   1.184093e+01
   1.224185e+02   2.667614e+01
   2.669190e+01   9.500312e+01
  -6.917723e+01   9.588619e+01
  -1.363302e+02   3.698546e+01
  -1.002614e+02  -4.239737e+01
  -2.485615e+01  -9.568389e+01
   5.915826e+01  -4.431312e+01
   3.143418e+01  -2.964903e+01
  -3.269537e+01   2.897506e+01
  -7.652981e+01  -2.313714e+01
  -3.378848e+01  -1.153909e+02
   5.335804e+01  -1.367566e+02
   1.525654e+02  -5.643952e+01
   1.361112e+02   6.905137e+01
   4.680793e+01   1.916115e+02
  -5.127622e+01   1.554341e+02
  -9.217732e+01  -1.078930e+01
  -4.260516e+01  -1.040762e+02
   7.676491e+00  -6.224197e+01
   6.307410e+01  -1.992302e+00
   3.140871e+01   1.325400e+01
   1.085017e+01  -1.272179e+01
  -1.704018e+00   7.065610e+00
   2.890274e+01  -8.680186e+00
   3.822110e+01   9.958369e+01
   2.876776e+01   9.419703e+01
  -5.514348e+01   4.681412e+01
  -1.211568e+02  -4.691431e+01
  -1.135013e+02  -2.999950e+01
  -3.733825e+01  -6.407998e+01
   6.839785e+01  -4.448988e+01
   8.049735e+01   1.403733e+01
   1.985510e+01  -1.015122e+01
  -6.209971e+00   3.585082e+01
  -2.574724e+01   1.082995e+01
   6.591841e+00  -1.244534e+00
   1.359826e-01  -9.229201e+00
  -5.147872e+01   3.393481e+01
  -7.608940e+01  -1.770615e+01
  -3.197233e+01  -7.289201e+01
   8.183671e+01  -1.442860e+02
   1.583960e+02  -8.169781e+01
   1.387047e+02   5.989953e+01
   1.110534e+01   1.442761e+02
  -6.892655e+01   1.495308e+02
  -1.188225e+02   6.790817e+01
  -7.713383e+01  -1.023654e+00
   7.989620e+00  -4.291899e+00
  -5.084370e+00  -1.543462e+00
   1.321808e+01  -2.463981e+01
  -5.220593e+01  -5.768261e+01
  -2.542710e+01  -9.706023e+01
   2.274639e+01  -8.481963e+01
   6.231615e+01  -6.086024e+00
   8.853896e+01   8.535074e+01
   3.198756e+01   1.027409e+02
  -7.183721e+01   3.075249e+01
  -1.116162e+02  -4.450636e+01
  -5.427285e+01  -9.907211e+01
   5.669402e+01  -5.879834e+01
   1.191116e+02  -6.461991e-01
   3.602207e+01   7.270167e+01
  -5.274897e+01   4.990160e+01
  -4.625640e+01   3.669958e+01
   1.030227e+00  -3.403015e+01
   5.389685e+01  -2.656665e+01
   3.531535e+01   1.522073e+00
  -7.623639e+01   6.748344e+01
  -1.420329e+02   5.387535e+01
  -7.160101e+01   1.394150e+01
   9.339039e+00  -6.408075e+01
   5.254745e+01  -9.161190e+01
   3.749735e+01  -3.799761e+01
   2.993546e+01   5.325687e+01
  -2.138809e+01   3.522748e+01
  -2.513757e+01   1.937323e+01
  -1.811428e+01  -4.397391e+01
   1.130692e+01  -2.091236e+01
   4.301261e+01  -2.508172e+00
   3.833447e+01   4.505491e+00
   1.310082e+01  -1.955559e+00
  -6.512692e+00  -4.237916e+01
  -2.937562e+01  -1.479454e+01
   2.656724e+01   3.763101e+01
   2.546955e+01   6.411856e+01
  -1.618686e+01  -1.313400e+00
  -3.026506e+01  -3.026986e+01
  -4.732899e+01  -4.669167e+01
   2.979258e+01  -2.588320e+01
   2.723122e+01   8.734449e+00
   1.610340e+01   8.222032e+01
  -7.166828e+01   4.056035e+01
  -1.131084e+02  -2.693642e+01
  -8.615146e+01  -2.135046e+01
   3.463312e+01  -3.145554e+01
   6.723177e+01  -3.439811e+01
   1.481956e+01   3.204660e+00
  -2.553095e+01  -1.941373e+01
  -4.616248e+01  -1.740043e+01
   7.524680e+00   1.511104e+00
   6.410680e+01  -3.507595e+01
