
 $NMID
 id='ANONYMOUS ', fmtdat='(2E16.6)'
 volume=1.0
 tramp=1.0
 $END
  -2.238644e+03   3.691360e+02
  -1.681915e+03  -1.082284e+03
   1.776985e+01  -1.629830e+03
   7.235437e+02  -1.144149e+03
   7.563292e+02  -3.843399e+02
   9.906990e+01   1.575771e+02
  -3.502846e+02  -1.486626e+00
  -7.726693e+01  -3.759525e+02
   2.870094e+02  -5.631123e+02
   4.471856e+02  -2.025711e+02
   3.184119e+02   4.540442e+02
   1.378205e+02   3.797169e+02
  -1.762007e+02   2.333976e+02
  -2.924010e+02  -2.655669e+02
   1.038758e+01  -4.011897e+02
   2.588501e+02  -1.127770e+02
   2.321287e+02   4.244238e+02
  -5.682024e+01   5.944494e+02
  -3.186365e+02   3.328540e+02
  -4.768466e+02  -1.101446e+02
  -1.164095e+02  -3.093864e+02
   8.258517e+01  -2.677787e+02
   5.265490e+01  -7.665880e+01
  -1.150566e+02  -1.143819e+02
  -2.403722e+02  -1.917539e+02
   1.927613e+01  -2.787983e+02
   4.185856e+02  -1.636288e+02
   5.806006e+02   1.858032e+02
   1.448083e+02   3.232008e+02
  -1.337222e+02   1.265662e+02
  -4.236467e+02  -1.184110e+01
  -1.615175e+02  -2.627600e+02
   2.323153e+02  -2.466653e+02
   3.515726e+02  -1.530764e+02
   3.484924e+02   1.202106e+02
   1.185055e+02   1.992011e+02
   2.104320e+01   1.263057e+02
   4.884394e+01  -2.031332e+01
   1.729175e+02  -4.321516e+01
   1.613678e+02   8.299680e+01
   5.400307e+01   4.318475e+02
  -2.322643e+02   4.233841e+02
  -2.435229e+02  -5.186734e+01
  -9.456960e+01  -2.486996e+02
   5.509025e+01  -8.640118e+01
   1.048653e+02   2.184478e+02
  -5.105211e+01   3.490398e+02
  -3.674129e+02   1.201495e+02
  -4.395941e+02  -2.453430e+02
  -1.284340e+02  -4.182569e+02
   2.260141e+02  -2.631608e+02
   4.163569e+02   5.926794e+01
   3.060592e+02   1.375505e+02
  -1.982212e+01   1.894070e+02
  -2.114097e+02   1.554554e+02
  -2.071244e+02   1.208387e+00
  -3.257175e+01  -4.105964e+01
   5.152242e+01  -2.635779e+00
  -5.616500e+01   1.808726e+01
  -1.950817e+02   2.060722e+01
  -1.188571e+02  -1.936781e+02
   1.055911e+02  -2.206645e+02
   3.155348e+02  -1.543506e+02
   2.246222e+02   6.093016e+01
   2.385478e+01   3.504254e+02
  -1.856767e+02   3.583474e+02
  -2.856188e+02   2.083148e+02
  -2.270855e+02  -9.789038e+01
  -3.146760e+01  -3.395855e+02
   4.365806e+01  -2.366765e+02
  -1.305472e+01  -1.779514e+02
  -4.400154e-01  -9.883115e+01
   1.353707e+02  -1.305908e+02
   1.274969e+02  -9.222863e+01
   2.765922e+02   1.192371e+02
   1.093321e+02   2.024399e+02
  -3.372708e+01   1.472928e+02
  -1.260313e+02  -1.963948e+01
  -1.120536e+02  -1.938880e+02
  -2.771237e+01  -2.165504e+02
   1.862100e+02  -7.859388e+01
   2.339367e+02   7.451099e+01
   1.572744e+02   2.590816e+02
   2.197066e+01   2.127772e+02
  -1.095466e+02   1.310748e+02
  -1.434776e+02   5.911354e+01
  -9.292360e+01   8.006029e+01
  -2.316072e+02   5.787506e+01
  -3.871796e+02  -7.377376e+01
  -2.599475e+02  -2.943485e+02
   7.962667e+01  -3.901124e+02
   2.969392e+02  -3.540994e+02
   3.606197e+02  -1.912314e+02
   2.741026e+02   2.797192e+01
   4.674269e+01   2.151376e+02
  -6.740143e+01   1.835413e+02
   1.154915e-01  -2.300741e+00
   5.708202e+01  -5.477473e+01
   1.309409e+02   4.250239e+01
   1.897288e+01   8.902562e+01
  -7.691274e+01   1.042120e+02
  -1.083147e+02  -6.157467e+01
   2.264949e+00  -1.253921e+02
   1.784710e+02   3.518759e+01
   1.280515e+02   2.075236e+02
   1.092010e-01   3.152675e+02
  -1.796755e+02   1.694190e+02
  -3.165571e+02  -2.056087e+01
  -2.194194e+02  -2.064457e+02
  -3.252928e+01  -2.109826e+02
   1.524456e+02  -1.159262e+02
   1.317644e+02   1.862034e+01
   1.895181e+01   1.312361e+01
  -2.577895e+01  -3.926739e+01
  -2.398599e+00  -1.314250e+02
   9.249994e+01  -8.635254e+01
   1.027836e+02   4.320732e+01
   3.282543e+01   4.426626e+01
  -5.683245e+01  -6.250821e+00
  -7.259508e+01  -7.975803e+01
   1.491586e+02  -1.014354e+02
   2.163422e+02   5.115930e+00
   2.637695e+02   7.981358e+01
   8.441883e+01   2.469097e+02
  -1.652122e+02   2.471146e+02
  -1.990486e+02   9.232206e+01
  -1.218098e+02  -1.126991e+00
   4.417888e+01  -7.387130e+01
   2.988962e+01  -1.879667e+00
  -2.396906e+01   8.266882e+01
  -1.230059e+02   7.780512e+01
  -1.839565e+02  -8.163616e+01
  -4.408198e+01  -2.155206e+02
   4.672157e+01  -1.302180e+02
   1.280458e+02  -7.755001e+00
   5.317302e+00   3.235225e+01
  -4.467924e+01  -3.344676e+01
   8.806871e+00  -1.117898e+02
   9.330824e+01  -1.067403e+02
   1.712462e+02  -3.586918e+01
   1.848110e+02   1.452781e+02
   3.148035e+01   1.915208e+02
  -6.991156e+01   9.485120e+01
  -1.576321e+02   1.442845e+01
  -3.454018e+01  -6.782072e+01
   4.989353e+01  -9.050461e+01
   4.918103e+01  -3.692032e+01
  -1.276834e+01   1.521396e+01
  -4.712825e+01   2.003206e+01
   1.706954e+01  -4.423592e+01
   8.868889e+01  -4.748388e+00
   8.534302e+01   8.861980e+01
   4.683438e+01   1.588968e+02
  -1.105859e+02   1.276109e+02
  -2.270650e+02   1.575037e+01
  -1.868956e+02  -1.594604e+02
  -8.922388e+00  -2.011534e+02
   6.651223e+01  -1.698343e+02
   1.227966e+02  -3.083562e+01
   9.045438e+01   6.424259e+01
   5.609147e+01   1.878941e+01
   5.665705e+01  -1.474021e+01
   9.737117e+01  -3.257795e+01
   7.824718e+01   1.672994e+01
  -2.177653e+01   1.048975e+02
  -7.072897e+01   6.968279e+01
  -9.672003e+01  -1.237843e+01
   6.069726e+00  -1.091407e+02
   1.598395e+02  -9.666766e+01
   1.561747e+02   8.501375e+01
   7.834500e+01   1.611967e+02
  -4.899208e+01   2.076535e+02
  -1.774044e+02   1.212384e+02
  -2.116162e+02  -4.818494e+01
  -8.997226e+01  -1.525797e+02
   2.804975e+01  -1.086248e+02
   7.714770e+01  -8.984733e+01
   7.823994e+01  -8.239112e+01
   5.647529e+01  -9.103118e+01
   7.685867e+01  -8.817685e+01
   1.134981e+02  -3.974874e+01
   1.195263e+02   1.279541e+02
   7.134065e+01   1.545542e+02
  -8.560976e+01   1.328624e+02
  -1.751343e+02   2.313667e+01
  -9.661148e+01  -9.396212e+01
   4.071240e+00  -1.308676e+02
   8.940893e+01  -9.618660e+01
   7.320732e+01   3.285941e+01
   1.805804e+01   6.961055e+01
  -2.355582e+01   3.411749e+01
   3.067445e+01   2.079794e+01
   7.613775e+01   8.399411e+00
   6.408424e+01   2.646269e+01
  -6.530232e+01   5.091921e+01
  -1.405237e+02  -4.198040e+00
  -1.474605e+02  -5.464913e+01
  -1.181432e+01  -8.585041e+01
   1.295895e+02  -8.276352e+01
   1.230255e+02  -2.886164e+01
   2.384967e+01   6.197386e+01
  -5.479932e+01   5.657650e+01
  -6.388444e+01  -5.595951e+00
  -1.983068e+01  -8.564949e+01
   3.762872e+01  -6.060646e+01
   5.777209e+01   1.329291e+01
   5.593152e+01   4.599760e+01
   2.352079e+01   2.939843e+01
   3.691081e+01   7.377178e+00
   4.678009e+01  -2.054725e+01
   3.266318e+01   9.306740e+01
  -4.009560e+01   1.364876e+02
  -9.326618e+01   1.170237e+02
  -1.792408e+02   1.955491e+01
  -1.254801e+02  -4.468333e+01
  -6.416066e-01  -1.296382e+02
   7.413045e+01  -6.997800e+01
   7.335302e+01  -1.515958e+01
  -3.697066e+01  -1.004835e+01
  -1.510994e+02  -3.369100e+01
  -5.867108e+01  -1.011270e+02
   9.484223e+01  -6.700192e+01
   1.780629e+02  -4.980736e+01
   1.196854e+02   1.983268e+01
   8.418154e+00   9.752609e+01
  -4.848598e+01   5.747745e+01
  -3.551564e+01  -8.556169e+00
   6.198403e+01  -3.067678e+01
   6.588476e+01  -1.184340e+01
   7.276281e+01   8.732822e+01
  -4.640853e+01   1.508503e+02
  -1.198847e+02   1.000921e+02
  -5.690621e+01  -5.487510e+01
   7.944770e+00  -1.847011e+02
   4.463928e+01  -1.074197e+02
   1.085326e+02  -1.547391e+01
   6.315100e+01   1.030770e+02
   1.850556e+00   5.172641e+01
  -4.328412e+01  -5.771959e+00
  -4.353255e+01  -3.191074e+01
   3.356197e+00  -3.469256e+01
   3.298352e+01   2.920945e+00
  -1.653628e+01   1.228931e+01
  -7.236325e+01  -4.876229e+01
  -5.448804e+01  -9.472368e+01
   5.321098e+01  -2.082165e+01
   1.025901e+02   2.011144e+01
   1.157282e+02   5.724800e+01
   2.077201e+01   2.683217e+01
  -6.822871e+01   3.035972e+01
  -6.070059e+01  -7.986771e+00
  -2.374899e+01   2.238348e+01
   2.565656e+01  -2.350247e+01
   1.331692e+01  -2.808804e+01
  -8.754752e+00  -1.481924e+01
  -3.365215e+01  -1.178987e+01
   5.336509e+01  -7.980854e+00
   6.264054e+01   7.156506e+00
   4.003295e+01   7.644112e+01
  -8.998886e+01   1.208360e+02
  -1.901753e+02   1.007470e+02
  -1.325556e+02  -3.612869e+01
  -4.105068e+01  -1.359519e+02
   8.247481e+01  -1.230635e+02
   9.415247e+01  -8.297567e+01
   6.466780e+01  -4.427089e-01
   3.133074e+01   4.631111e+01
  -4.076883e+00   2.672274e+01
   2.060832e+01   3.432247e+01
   2.018731e+01   3.718636e+01
   3.735339e+01   5.501638e+01
  -3.971701e+01   1.018679e+02
  -7.317928e+01  -7.566630e+00
  -1.134186e+02  -8.663120e+01
  -2.529530e+01  -9.231553e+01
   8.089496e+01  -2.138573e+01
   1.196848e+02   2.259893e+01
   8.258252e+01   8.667946e+01
  -4.954288e+01   7.324604e+01
  -8.619448e+01  -1.667439e+00
  -5.046224e+01  -5.288238e+01
   4.322261e+01  -6.462080e+01
   1.958709e+01  -1.423894e+01
  -2.737784e+01  -6.762609e+00
  -2.794100e+01   4.467914e+01
  -2.598507e+01  -3.856840e+01
   3.772411e+01  -8.244577e+01
   1.068670e+02  -5.248363e+01
   6.162407e+01   2.124097e+00
  -2.744826e+00   8.995001e+01
  -5.704175e+01   6.780345e+01
  -3.890269e+01   3.624922e+01
  -4.395288e+00  -5.536512e+01
   1.848776e+01  -3.726989e+01
   8.341846e+00  -8.094365e+00
   1.414023e+01   2.598963e+01
   9.091249e+00   7.226611e+01
  -3.973213e+01   2.918067e+01
  -2.597677e+01  -4.785934e+01
  -4.466215e+01  -1.744245e+01
  -1.617254e+01   2.104608e+01
   1.012589e+01   1.957952e+01
   3.636887e+00  -1.337635e+01
  -1.402875e+01  -3.222145e+01
   1.066026e+01  -1.362461e+01
   4.925695e+01   3.387094e+01
   1.682913e+01   5.146858e+01
  -2.502407e+01   1.794676e+01
  -4.438243e+01  -3.390245e+01
  -1.000712e+01  -3.206491e+01
   8.117231e+01  -5.672684e+00
   5.315266e+01   4.320300e+00
   7.415349e+01   5.244053e+01
  -2.323326e+01   1.675566e+01
  -5.458448e+01   5.460286e+01
  -9.883913e+00   2.657715e+01
   2.002216e+01  -1.427996e+01
   1.070451e+01   7.998872e+00
   1.133137e+01  -1.364771e+01
  -5.093173e+01   2.473223e+01
