
 $NMID
 id='ANONYMOUS ', fmtdat='(2E16.6)'
 volume=1.0
 tramp=1.0
 $END
   2.439293e+03  -5.079003e+02
   1.178125e+03   1.171671e+03
  -7.918000e+00   1.379919e+03
  -8.727004e+02   9.329875e+02
  -6.938705e+02   2.948572e+02
  -2.086788e+02  -9.826552e+01
   2.341593e+02  -5.952810e+01
  -1.357526e+01   2.870766e+02
  -3.670572e+02   3.995722e+02
  -3.771653e+02   7.206722e+00
  -2.031257e+02  -2.199913e+02
  -1.283307e+01  -4.481820e+02
   2.055615e+02  -1.260146e+02
   1.123732e+02   3.451234e+02
  -2.801463e+01   4.864044e+02
  -2.159996e+02   3.830466e+01
  -2.489588e+02  -3.061022e+02
   1.040308e+02  -5.171956e+02
   3.617525e+02  -2.874221e+02
   3.756527e+02   9.667955e+01
   6.707466e+01   2.311237e+02
  -8.254883e+01   1.493064e+02
  -2.543063e+01   7.237995e+01
   1.967619e+02   1.202966e+02
   1.923500e+02   2.902286e+02
  -1.235126e+02   2.557820e+02
  -3.557987e+02   2.165554e+00
  -3.717404e+02  -7.707338e+01
  -8.180257e+01  -1.703729e+02
   3.311919e+02  -1.354000e+02
   4.504226e+02   2.381656e+02
   9.601777e+01   3.182189e+02
  -1.931054e+02   2.459809e+02
  -4.280863e+02   5.610248e+01
  -1.976862e+02  -7.852050e+01
  -1.017578e+02  -1.967210e+02
   2.718575e+00  -8.849381e+01
  -2.937436e+01   5.080534e+01
  -1.355347e+02   9.534988e+01
  -1.103061e+02  -1.715001e+02
   4.267000e+01  -3.948678e+02
   2.041115e+02  -2.205054e+02
   2.109773e+02  -3.195603e+01
   4.548423e+01   2.402673e+02
  -4.961062e+01   8.253599e+01
  -9.274743e+01  -1.792287e+02
   7.537572e+01  -2.661315e+02
   3.453354e+02  -7.080527e+01
   3.463493e+02   4.328112e+02
  -2.688190e+00   3.495450e+02
  -1.943750e+02   1.241199e+02
  -3.940307e+02  -1.008759e+02
  -2.818091e+02  -1.768166e+02
  -2.209518e+01  -1.452879e+02
   2.155299e+02  -4.857239e+01
   1.801477e+02  -1.026744e+01
   1.743521e+01  -1.135206e+01
  -1.830639e+01  -5.896846e+01
   6.709242e+01  -6.451286e+01
   1.799283e+02   4.518597e+01
   7.646630e+01   1.022052e+02
  -6.902368e+01   2.018652e+02
  -3.072907e+02   1.498697e+02
  -1.914175e+02  -6.296107e+01
  -9.583611e+00  -2.684560e+02
   2.277229e+02  -2.707433e+02
   3.296815e+02  -1.202617e+02
   1.609269e+02   9.770464e+01
   4.326504e+01   2.538580e+02
  -1.882487e+01   1.608323e+02
  -4.866038e+01   1.717499e+02
  -7.380437e+00   1.114665e+02
  -1.434297e+02   1.301766e+02
  -2.527870e+02   1.123685e+01
  -1.238336e+02  -1.242332e+02
  -2.805130e+01  -2.027129e+02
   1.140359e+02  -1.152937e+02
   1.365130e+02   4.443448e+01
   6.554418e+01   1.788216e+02
  -3.445109e+01   2.236113e+02
  -1.315466e+02   7.673425e+01
  -2.287795e+02  -1.690441e+02
  -1.005275e+02  -2.836414e+02
   4.603713e+01  -1.717169e+02
   7.343377e+01  -1.375994e+02
   1.194431e+02  -1.168925e+02
   1.595107e+02  -5.984175e+01
   2.023080e+02  -3.723617e+01
   2.947308e+02   7.316565e+01
   2.352465e+02   2.017157e+02
  -2.412301e+01   2.657419e+02
  -2.971025e+02   3.023626e+02
  -3.843487e+02   1.211731e+02
  -1.975166e+02  -1.392011e+02
  -1.838335e+01  -2.001646e+02
   1.030457e+02  -1.717013e+02
   1.278285e+01  -3.029664e+01
  -1.154102e+02   1.656771e+01
  -8.914544e+01  -5.960694e+01
  -1.977624e+00  -9.136879e+01
   1.244463e+02  -3.940458e+01
   5.825408e+01   2.565546e+01
  -3.696140e+01   9.146754e+01
  -1.493095e+02  -1.405605e+01
  -1.023167e+02  -1.313488e+02
   2.913591e+01  -2.567499e+02
   2.678212e+02  -1.483898e+02
   2.983807e+02   1.018618e+02
   2.454989e+02   2.203312e+02
   1.053785e+01   2.252049e+02
  -1.194868e+02   1.010531e+02
  -1.056834e+02  -1.849290e+01
  -6.030926e+00   1.907523e+00
   3.569518e+01   5.912591e+01
  -5.093634e+01   7.005219e+01
  -1.084842e+02   2.126526e+01
  -8.745424e+01  -1.777449e+01
  -7.629988e+00  -4.705354e+01
   7.806975e+01   4.540064e+01
   2.638213e+01   9.517025e+01
  -1.646814e+02   4.836965e+01
  -2.744081e+02   9.446806e+00
  -2.192349e+02  -1.330162e+02
  -9.585521e-01  -1.927302e+02
   1.669429e+02  -1.411651e+02
   2.092766e+02  -9.194630e+01
   1.048299e+02   1.796842e+01
  -4.589553e+01   4.180853e+01
  -4.139870e+01  -5.191092e+00
   1.665708e+01  -8.323431e+01
   1.675600e+02  -6.238287e+00
   1.429940e+02   8.387054e+01
  -1.778375e+01   1.217532e+02
  -2.607684e+01   1.199553e+02
  -9.103919e+01  -1.546842e+01
  -4.941507e+01  -4.376440e+01
   3.604236e+01   3.785096e+01
   7.946451e+00   7.471638e+01
  -1.263800e+02   9.400729e+01
  -1.807043e+02   3.870226e+01
  -9.932436e+01  -8.093472e+01
  -2.015941e+01  -1.383668e+02
   1.487660e+02  -9.759916e+01
   1.452035e+02  -1.851293e+01
   4.171018e+01   7.653767e+01
  -6.436287e+01   5.978543e+01
  -4.086072e+01   2.264494e+01
  -7.010539e+00   3.543342e+00
   4.162084e+01   2.583805e+00
  -7.792865e-01   1.243957e+01
  -7.059974e+01   2.243051e+01
  -1.015568e+02  -8.267337e+01
   2.188748e+00  -1.365793e+02
   8.686617e+01  -1.283838e+02
   1.660365e+02   1.627190e+01
   9.455353e+01   1.258243e+02
   2.821211e+01   1.403293e+02
  -8.703585e+01   9.871124e+01
  -8.241033e+01   2.589294e+01
  -4.060267e+01  -4.519788e+01
  -3.351212e+01  -2.971416e+01
  -3.936974e+01   1.935114e+01
  -5.464513e+01  -2.116146e+01
  -2.044003e+01  -5.392436e+01
   4.350465e+01  -1.391298e+02
   9.629013e+01  -5.434714e+01
   1.120383e+02   4.052867e+01
  -3.873123e+01   9.027029e+01
  -1.005664e+02   4.937573e+01
  -1.796746e+02  -6.492446e+01
  -5.825715e+01  -2.212420e+02
   1.048564e+02  -1.462774e+02
   2.983984e+02  -8.256406e+01
   1.728467e+02   2.792322e+01
   3.527786e+01   9.341017e+01
  -3.797790e+01   1.150059e+02
  -6.031847e+01   5.550830e+01
  -3.875287e+01   4.884519e+01
  -4.951300e+01   7.662424e+01
  -6.550266e+01   6.372141e+01
  -1.438807e+02  -2.729757e+01
  -5.775055e+01  -1.164638e+02
  -3.359848e+01  -1.721934e+02
   1.110580e+02  -1.515430e+02
   1.344816e+02  -6.181589e+00
   1.019307e+02   1.032292e+02
   1.500967e+01   1.293258e+02
  -5.604736e+01   5.756593e+01
  -5.131018e+01  -3.063080e+01
   1.019010e+01  -1.989348e+01
   2.681773e+01  -3.201926e+01
  -4.881830e+00   2.774139e+01
  -6.942569e+01   6.299818e-01
  -2.525255e+01  -1.240464e+00
   6.586869e+01  -6.791974e+01
   1.546889e+02   2.081116e+01
   1.058137e+02   1.046277e+02
   1.512598e+01   7.353374e+01
  -1.278731e+02   2.792264e+01
  -1.422584e+02   4.978567e+00
   1.537757e+00  -3.197884e+01
   3.619302e+01  -1.416215e+01
   6.306922e+01   3.064898e+01
   3.658857e+01   6.910799e+01
  -9.939888e+00   2.099874e+01
  -5.823770e+01  -1.739179e+01
  -5.290325e+01  -2.671547e+01
  -3.656320e+01  -3.830902e+01
  -3.757105e+01  -6.339283e+00
  -5.767983e+01  -1.924461e+01
  -3.639488e+01  -2.844197e+01
   2.804311e+01  -1.408232e+02
   9.841952e+01  -1.483278e+02
   1.393183e+02  -1.481015e+01
   9.306996e+01   1.267141e+02
   2.670854e+00   1.128274e+02
  -7.129037e+01   7.235444e+01
  -5.780130e+01   2.551003e+01
   6.820607e+01  -2.523712e+01
   8.164882e+01   2.308728e+01
   4.516740e+01   8.183205e+01
  -6.488821e+01   7.654113e+01
  -1.562946e+02   2.274858e+01
  -1.327037e+02  -3.642030e+01
  -1.175407e+01  -6.222904e+01
   6.226173e+01  -2.163419e+01
   3.008406e+01   1.103366e+01
  -2.111528e+01   2.915849e+01
  -8.045697e+01  -1.886196e+01
  -4.334956e+01  -7.375386e+01
   8.119837e+01  -1.200838e+02
   1.069094e+02  -3.392210e+01
   1.137180e+02   7.779165e+01
  -9.696941e+00   1.282604e+02
  -4.170999e+01   8.326900e+01
  -1.022988e+02  -6.697179e+00
  -3.330590e+01  -9.340130e+01
   1.566447e+01  -9.583575e+01
   4.470946e+01  -7.501145e+00
   6.168450e+01   2.987111e+01
   2.641251e+01  -3.515886e+00
   7.450809e-01  -1.823899e+01
   4.344726e+01   1.390589e+01
   3.652213e+01   7.927206e+01
   2.642299e+01   8.354339e+01
  -3.708568e+01   3.033944e+01
  -1.274208e+02  -7.104108e+00
  -1.212369e+02  -7.577116e+01
  -1.969456e+00  -4.214129e+01
   3.915816e+01  -3.503826e+01
   3.127164e+01  -1.512166e+00
   4.430636e+01   5.564505e+00
  -3.250805e+01   1.618491e+01
  -1.663424e+00  -5.985899e+00
   8.687159e+00   9.036321e+00
   8.089645e+00  -3.582895e+01
  -1.454862e+01   1.215208e+01
  -9.841430e+01  -5.114122e+01
  -1.138802e+00  -6.755313e+01
   7.170199e+01  -1.096183e+02
   1.409607e+02  -8.824131e+01
   1.173284e+02   6.726372e+01
   2.866033e+01   1.588147e+02
  -6.123475e+01   1.262220e+02
  -9.465644e+01   8.054595e+01
  -5.245782e+01  -3.190943e+01
  -3.830505e+01  -3.672026e+01
  -3.693320e+00  -6.314146e+00
   2.180080e-01  -1.871149e+01
   5.823811e-01  -3.903808e+01
  -1.688928e+01  -5.474990e+01
   2.691048e+01  -3.865612e+01
   5.290693e+01   1.773321e+01
   3.415630e+01   9.714061e+01
   5.972511e+01   7.367661e+01
  -4.328362e+01   1.569462e+00
  -9.867357e+01  -4.685017e+01
  -2.178540e+01  -8.903946e+01
   4.417892e+01  -4.432963e+01
   6.177549e+01  -1.986130e+01
   2.182643e+01   6.270767e+01
  -3.642904e+01   4.332140e+01
  -2.530506e+01   2.739960e+01
   2.546113e-01  -6.995880e+00
   6.727906e+01   2.568035e+01
   5.330575e+00   3.712271e+01
  -9.628616e+01   3.817348e+01
  -8.231666e+01   5.126566e+01
  -7.723291e+01  -4.129440e+01
   9.176373e+00  -6.460980e+01
   3.746466e+01  -9.160032e+01
   4.388937e+01  -2.355368e+01
  -6.263979e-01   2.245862e+01
  -1.852735e+01   4.332359e+01
  -2.471144e+01  -2.533957e+00
  -2.919862e+01  -3.833614e+01
   2.968771e+01  -2.646035e+01
   1.563236e+00  -9.488856e+00
   3.491297e+01   2.011821e+01
   1.580195e+01   4.077314e+00
   1.583201e+01  -3.995950e+01
   1.187036e+01  -2.375439e+01
   6.924025e+00   3.966292e+01
   3.320948e+01   6.356431e+01
  -2.735728e+00  -1.506920e+01
  -1.616177e+01  -3.004576e+01
  -2.250824e+01  -5.848467e+01
   5.217695e+01  -6.952182e+00
   5.179402e+01   3.013786e+01
   9.816028e+00   4.540606e+01
  -4.356345e+01   2.231538e+01
  -7.640608e+01  -1.139860e+01
  -3.611321e+01  -4.352435e+01
   4.694657e+01  -3.825271e+01
   5.668779e+01  -2.249008e+01
   4.299383e+01   1.800726e+00
  -9.630704e-01   1.616487e+01
  -3.297301e+01   6.491462e+00
   1.603461e+01  -2.011789e+01
   4.637458e+01   2.824462e+00
