
 $NMID
 id='ANONYMOUS ', fmtdat='(2E16.6)'
 volume=1.0
 tramp=1.0
 $END
   2.620653e+03  -2.361253e+02
   1.590656e+03   9.575951e+02
   3.926921e+02   1.568990e+03
  -7.610489e+02   1.324922e+03
  -8.412635e+02   3.972127e+02
  -1.401690e+02   8.858376e+00
   2.182070e+02  -5.266434e+00
   3.343109e+01   3.471024e+02
  -3.748000e+02   4.088717e+02
  -5.264632e+02   2.118639e+02
  -3.979978e+02  -3.273808e+02
  -7.867334e+01  -5.133235e+02
   1.582169e+02  -3.049424e+02
   2.193385e+02   2.187714e+02
   1.020134e+02   4.705501e+02
  -2.780433e+02   4.752072e+01
  -3.084554e+02  -3.266672e+02
  -2.724808e+01  -5.096979e+02
   3.161248e+02  -3.188757e+02
   4.071916e+02   2.999127e+01
   1.125495e+02   2.961550e+02
  -6.941662e+01   2.289250e+02
  -1.031658e+01   7.878345e+01
   1.284106e+02   8.831743e+01
   1.732103e+02   2.265221e+02
  -2.872797e+01   2.929686e+02
  -3.203057e+02   1.032927e+02
  -4.750735e+02  -1.316722e+02
  -2.160201e+02  -2.488060e+02
   1.567449e+02  -7.483747e+01
   3.571682e+02   1.239717e+02
   8.898862e+01   3.131011e+02
  -1.692876e+02   2.215376e+02
  -2.495805e+02   1.049945e+02
  -2.790867e+02  -4.231566e+00
  -1.190613e+02  -2.115000e+02
  -1.898828e+01  -1.471234e+02
  -6.495983e+01   3.774790e+01
  -1.241635e+02   8.645435e+01
  -1.490265e+02  -1.546589e+02
   1.559721e+01  -1.868968e+02
   6.152022e+01  -3.377918e+02
   1.216827e+02  -1.431929e+01
   7.660216e+01   1.627987e+02
  -1.215735e+02   9.570356e+01
  -6.754554e+01  -2.156907e+02
   3.607413e+01  -2.535496e+02
   3.313610e+02  -4.917347e+01
   3.471702e+02   2.082471e+02
   1.888969e+02   3.796431e+02
  -2.355333e+02   2.201056e+02
  -4.682762e+02  -2.992692e+01
  -2.701462e+02  -1.844259e+02
  -3.196779e+01  -1.823144e+02
   2.056987e+02  -7.800987e+01
   1.625313e+02  -3.242867e+01
  -1.397644e+01   1.388042e+01
  -1.565817e+01   6.981256e+00
   7.484431e+01  -2.489804e+01
   1.281205e+02   1.863674e+01
   1.080651e+02   1.105378e+02
  -1.122516e+02   2.273830e+02
  -2.811562e+02   1.120633e+02
  -2.301956e+02  -9.777764e+01
   1.175758e+01  -2.642921e+02
   2.513302e+02  -3.426844e+02
   3.301464e+02  -9.280409e+01
   2.275158e+02   1.400696e+02
   4.921432e+01   2.801927e+02
   2.609105e+01   2.844079e+02
   3.665649e+01   1.644882e+02
  -4.558407e+01   1.094204e+02
  -1.572179e+02   1.023939e+02
  -2.194275e+02   5.254163e+01
  -1.752714e+02  -5.528307e+01
  -5.049743e+01  -1.621315e+02
   1.082305e+02  -1.529730e+02
   1.539570e+02   2.735948e+01
   8.912457e+01   2.347022e+02
  -6.230037e+01   2.069809e+02
  -1.805464e+02   8.252101e+01
  -2.371036e+02  -1.484263e+02
  -1.240889e+02  -2.199567e+02
   3.045840e+01  -2.213041e+02
   1.798242e+02  -1.583712e+02
   1.150511e+02  -9.567990e+01
   1.253689e+02  -7.694828e+01
   2.818472e+02  -5.626945e+01
   3.722300e+02   7.838727e+01
   2.563106e+02   1.831584e+02
   4.673028e+01   3.992959e+02
  -2.804459e+02   3.661393e+02
  -4.066581e+02   1.354226e+02
  -2.455823e+02  -3.761235e+01
   1.666934e+01  -2.118832e+02
   4.670207e+01  -1.416063e+02
   3.397687e+00  -4.262248e+01
  -1.192143e+02  -1.973602e+01
  -9.270766e+01  -1.482859e+01
  -2.516895e+01  -8.396581e+01
   8.584408e+01  -7.921773e+01
   7.565342e+01  -3.148061e+00
  -3.375716e+01   8.478184e+01
  -1.436843e+02   4.572847e+00
  -1.524554e+02  -1.451051e+02
   2.549247e+00  -2.918707e+02
   2.181220e+02  -2.048396e+02
   2.815760e+02   4.405749e+01
   2.175715e+02   2.073019e+02
   7.634255e+01   2.032433e+02
  -1.081393e+02   1.316771e+02
  -8.925363e+01   2.814029e+01
  -3.282466e+01  -1.626781e+01
   3.811395e+01   7.481737e+01
  -3.837244e+01   9.063424e+01
  -1.073847e+02   6.171290e+01
  -8.322233e+01   3.665990e+00
  -1.594399e+01  -6.339482e+01
   3.485451e+01   1.409428e+01
   4.022055e+01   6.930474e+01
  -1.273714e+02   4.353339e+01
  -2.541957e+02  -7.475046e+01
  -2.121611e+02  -2.160519e+02
  -2.813042e+01  -2.252082e+02
   1.961727e+02  -2.149279e+02
   2.294355e+02  -1.020655e+02
   1.364376e+02   3.503734e+01
  -2.308589e+01   6.580693e+01
  -5.461307e+01   6.252834e-02
   3.643409e+01  -4.534812e+01
   1.294419e+02   2.443065e+01
   1.761822e+02   4.691270e+01
   1.196562e+02   1.617099e+02
  -8.035675e+01   8.850533e+01
  -1.170359e+02   6.962196e+01
  -4.996260e+01  -7.218304e+00
   5.678405e+01   4.798223e+00
   2.331417e+01   9.004519e+01
  -5.983820e+01   7.451874e+01
  -1.691209e+02   3.572365e+01
  -1.455389e+02  -1.246198e+02
   3.427085e+00  -1.654317e+02
   1.281382e+02  -7.803073e+01
   1.105472e+02  -5.360819e+01
   5.849044e+01   5.080526e+01
  -3.595551e+01   6.282347e+01
  -7.720678e+01   1.615415e+01
   8.929554e+00   4.176485e+00
   5.462668e+00  -8.549736e-01
  -2.515486e+00   1.141979e+00
  -9.963340e+01   3.100763e+01
  -1.005013e+02  -5.436368e+01
  -1.140168e+01  -1.807451e+02
   7.676700e+01  -9.827354e+01
   1.900660e+02   3.566557e+01
   1.652334e+02   1.367350e+02
   5.872090e+01   1.626093e+02
  -5.120955e+01   1.501648e+02
  -8.158905e+01   3.866342e+01
  -6.243066e+01  -4.532751e+01
  -6.079729e+01  -3.214385e+01
  -3.358088e+01  -8.716071e+00
  -8.728241e+01  -3.092652e+00
  -8.131798e+01  -4.289772e+01
   1.973168e+01  -1.041875e+02
   1.362689e+02  -8.895106e+01
   9.815940e+01   3.677827e+01
  -1.088383e+01   8.764768e+01
  -1.165615e+02   8.834216e+01
  -1.922578e+02  -1.480891e+01
  -3.835584e+01  -1.905626e+02
   1.086564e+02  -2.172684e+02
   2.088067e+02  -5.523708e+01
   1.794435e+02   6.305651e+01
   6.419785e+01   9.957137e+01
  -4.023925e+01   1.243433e+02
  -7.038383e+01   7.990320e+01
  -2.076113e+01   6.046755e+01
  -2.748189e+01   8.497591e+01
  -9.753453e+01   7.276098e+01
  -1.234525e+02  -2.235171e+00
  -1.118244e+02  -8.439233e+01
  -3.073484e+01  -2.116000e+02
   8.864980e+01  -1.274009e+02
   1.658341e+02   6.420709e+00
   1.076015e+02   8.051262e+01
   1.183757e+01   1.302879e+02
  -5.508713e+01   7.938460e+01
  -7.652209e+01  -2.647918e+01
  -7.261515e+00  -4.550309e+01
   3.619521e+01  -3.040021e+01
  -3.244180e+01   2.368694e+01
  -8.865367e+01   9.163909e+00
  -3.263941e+01  -1.555956e+01
   2.991318e+01  -6.222498e+01
   1.451990e+02   6.391841e+00
   1.120247e+02   4.126520e+01
  -5.607721e+00   7.175113e+01
  -1.227744e+02   4.397912e+01
  -1.326688e+02  -2.107961e+01
  -4.343066e+01  -4.695697e+01
   4.415766e+01  -1.481560e+01
   5.451738e+01   4.622976e+00
   3.161175e+01   7.621230e+01
  -1.162164e+01   4.333978e+01
  -7.470703e+01  -1.441631e+01
  -4.878799e+01  -4.579802e+01
  -5.219126e+01  -6.347023e+01
  -1.618928e+01   1.845289e+01
  -5.657920e+01   1.008532e+01
  -3.063125e+01  -3.969065e+01
  -1.655510e+01  -1.233584e+02
   1.008339e+02  -1.462885e+02
   1.266679e+02  -3.516429e+01
   1.210215e+02   4.287566e+01
  -5.625674e+00   8.199725e+01
  -9.267219e+01   5.690072e+01
  -5.084501e+01  -1.274472e+01
   4.840026e+01  -1.480814e+01
   1.182940e+02   3.620612e+01
   6.660444e+01   6.957428e+01
  -6.626677e+01   7.876410e+01
  -1.384781e+02   1.879744e+01
  -1.568292e+02  -2.985365e+01
  -3.355645e+01  -7.906162e+01
   4.661054e+01  -3.779505e+01
   2.133297e+01   3.095186e+01
  -2.905904e+01   2.741167e+01
  -7.551406e+01  -1.254915e+01
  -5.066156e+01  -1.047346e+02
   7.240805e+01  -1.524390e+02
   1.061001e+02  -6.367391e+01
   1.100259e+02   9.793748e+01
   1.409468e+01   2.052254e+02
  -4.650703e+01   8.301097e+01
  -9.148861e+01  -8.674193e+00
  -2.699123e+01  -8.831788e+01
   2.123845e+01  -6.864545e+01
   7.297392e+01  -3.773168e+01
   2.714704e+01   1.819536e+01
   3.399396e+00  -4.820529e+01
   2.404004e+00  -3.893664e+00
   4.518762e+01   1.226878e+01
   7.316165e+01   6.018573e+01
   1.476280e+01   5.397702e+01
  -5.554609e+01   4.086349e+01
  -1.586223e+02   1.342587e+01
  -1.000612e+02  -5.638338e+01
  -1.213490e+01  -3.297866e+01
   5.450014e+01  -2.181591e+01
   4.695171e+01  -2.914491e+00
   2.508524e+01   1.671785e+01
  -3.699444e+00   2.841675e+01
  -8.002426e+00   1.532722e+01
   4.205261e+01  -7.624994e+00
  -1.703626e+01  -3.322121e+01
  -2.518465e+01  -7.616581e+00
  -8.283206e+01  -1.276768e+01
  -1.743657e+01  -6.522504e+01
   5.422345e+01  -1.162438e+02
   1.411016e+02  -7.960458e+01
   1.096287e+02   5.784902e+01
   6.744625e+01   1.007429e+02
  -6.705967e+01   1.439452e+02
  -9.291441e+01   5.163770e+01
  -5.972366e+01   1.406070e+01
  -1.787224e+01  -3.930009e+01
  -1.006783e+01  -2.244705e+01
  -2.679742e+01  -1.023632e+01
  -3.727269e+01  -3.683603e+01
  -1.625778e+01  -1.657204e+01
   2.485812e+01  -8.085325e+01
   5.205300e+01  -1.810376e+01
   4.106781e+01   4.308325e+01
   8.656721e+00   7.934006e+01
  -7.357806e+01   5.008658e+01
  -8.524228e+01  -4.540475e+01
  -7.794377e+00  -7.738167e+01
   3.561706e+01  -8.579913e+01
   8.044972e+01  -1.385657e+01
   3.498374e+01   5.716349e+01
  -4.012853e+01   2.455263e+01
  -4.129468e+01   4.748138e+01
   3.372412e+01   1.172965e+01
   2.314150e+01  -9.070823e+00
   2.810938e+01   5.461496e+00
  -7.123477e+01   3.763922e+01
  -8.585895e+01   5.353031e+01
  -6.812376e+01   3.844999e+00
  -1.304404e+01  -6.482062e+01
   1.856767e+01  -7.984125e+01
   5.718361e+01  -2.042196e+00
  -1.140850e+01   4.361947e+01
  -4.178015e+01   6.959424e+01
  -3.654578e+01  -1.033849e+01
  -3.859552e+01  -1.785055e+01
   8.715464e+00  -6.017688e+01
   4.132853e+01   9.817835e+00
   5.710822e+00   2.264764e+01
  -2.433332e+00   2.197735e+01
  -2.427439e+01  -2.715408e+01
  -6.253856e+00   7.310374e+00
   2.412493e+00   5.042166e+00
   1.195032e+00   4.397258e+01
  -1.440531e+01   3.307351e+01
  -4.983274e+01  -2.090604e+01
  -2.058342e+01  -5.792791e+01
   2.455981e+01  -7.230108e+01
   4.388847e+01   2.087666e+01
   4.101600e+01   5.851956e+01
  -3.618229e+01   1.899138e+01
  -7.589607e+01   8.492845e+00
  -4.875885e+01  -6.738681e+00
   4.186869e+01  -4.464647e+01
   4.616397e+01  -1.276268e+01
   5.475792e+01  -6.017157e+00
  -1.785140e+01   1.502487e+01
  -2.378475e+01   1.251901e+00
   4.761770e+01  -2.785217e+01
   2.535383e+01  -1.836119e+01
