
 $NMID
 id='ANONYMOUS ', fmtdat='(2E16.6)'
 volume=1.0
 tramp=1.0
 $END
   1.762896e+03   2.778850e+02
   1.067732e+03   6.516821e+02
  -4.065038e+02   9.520196e+02
  -6.446472e+02   3.117547e+02
  -3.802174e+02   5.379767e+01
   7.513524e+01  -1.377089e+02
   1.271571e+02   1.129356e+02
   1.728349e+01   3.093891e+02
  -3.029525e+02   2.851286e+02
  -2.964448e+02  -6.789179e+01
  -1.323818e+02  -2.191743e+02
  -3.494294e+01  -2.692413e+02
   1.674101e+02  -1.146879e+01
   3.148428e+01   2.357783e+02
  -1.652706e+02   2.641111e+02
  -1.278770e+02   4.002358e-01
  -9.083131e+01  -2.440540e+02
   1.183395e+02  -2.965673e+02
   1.541078e+02  -7.433407e+01
   8.425919e+01   9.011345e+01
   5.438168e+01   1.330555e+02
  -4.682126e+01   9.890263e+01
  -6.041676e+01   7.342016e+01
   1.002867e+02   2.393708e+01
   1.243184e+02   1.116163e+02
  -6.447631e+01   1.438899e+02
  -2.329304e+02   5.184916e+01
  -1.843264e+02  -1.836839e+02
  -8.174652e+01  -1.318338e+02
   1.937079e+02  -1.467858e+02
   2.556673e+02   9.122908e+01
   4.092520e+01   1.975957e+02
  -1.591814e+02   1.225281e+02
  -2.074162e+02   3.503459e+01
  -5.102810e+01  -8.597287e+01
   4.541557e+01  -1.814444e+02
   2.667310e+01  -7.071272e+01
   7.307533e-01   7.427517e+01
  -8.170155e+01   1.387400e+02
  -1.280287e+02  -6.265576e+01
  -7.278372e+01  -2.488784e+02
   1.434822e+02  -8.035118e+01
   1.365046e+02   2.313687e+01
   4.782676e+01   1.177995e+02
  -8.305284e+01   9.636756e+00
  -8.407034e+01  -1.471406e+02
   1.172424e+02  -2.393201e+02
   2.127292e+02   1.727323e+01
   1.863652e+02   1.979450e+02
   7.292531e+01   2.341134e+02
  -9.526320e+01   8.178634e+01
  -2.484713e+02  -1.326813e+02
  -9.622928e+01  -1.177239e+02
   4.362613e+01  -1.077730e+02
   1.365507e+02  -4.545527e+01
   5.682796e+01   5.129039e+01
  -1.831377e+01   4.650059e+01
  -3.109373e+01  -3.738032e+01
   7.261881e+01  -2.011538e+01
   1.273040e+02   5.828239e+01
   2.077632e+00   8.357013e+01
  -2.853397e+01   8.627175e+01
  -1.932282e+02   3.591665e+01
  -6.006493e+01  -7.854849e+01
  -3.556125e+00  -6.640983e+01
   7.665714e+01  -1.598388e+02
   1.343312e+02  -1.129671e+02
   6.294179e+01   7.385427e+01
   1.165142e+00   1.278661e+02
  -2.521600e+01   1.041838e+02
  -1.171836e+01   7.230154e+01
  -2.703662e+01   5.573500e+01
  -5.930238e+01   5.317635e+01
  -1.178626e+02  -2.262701e+00
  -6.508957e+01  -5.020994e+01
  -3.181293e+01  -8.866544e+01
   4.556587e+01  -1.211417e+02
   6.709584e+01   2.188983e+01
   5.918271e+01   8.766120e+01
  -2.836336e+01   1.273869e+02
  -6.369480e+01   4.712033e+01
  -1.343538e+02  -5.649593e+01
  -5.379386e+01  -1.690074e+02
   2.604872e+01  -1.493038e+02
   6.031751e+01  -4.003271e+01
   5.334525e+01  -1.342408e+01
   7.700196e+01  -2.766817e+01
   1.036492e+02  -1.831216e+01
   1.676121e+02   1.139887e+02
   1.054808e+02   1.955037e+02
  -2.780140e+01   1.189720e+02
  -1.904399e+02   7.262219e+01
  -2.475688e+02   2.146090e+01
  -1.044629e+02  -7.549875e+01
   1.352071e+01  -1.401343e+02
   6.113098e+01  -1.158008e+02
   4.628418e+01  -2.313437e+00
  -6.725770e+01   1.906641e+01
  -8.462777e+01  -3.058244e+01
   2.040165e+01  -3.490154e+01
   7.741569e+01  -4.615769e+01
   6.158840e+01   2.052899e+01
  -2.676320e+01   6.963549e+01
  -8.679340e+01   4.144865e+00
  -3.160094e+01  -8.499209e+01
   2.193343e+01  -1.400881e+02
   1.365565e+02  -2.026780e+01
   1.602476e+02   7.701835e+01
   7.180626e+01   1.091981e+02
  -7.242815e+00   1.007854e+02
  -1.001222e+02   5.014105e+01
  -6.198256e+01  -1.547369e+01
  -2.536222e+01  -1.984682e+01
   1.863933e+01   3.556906e+01
  -1.412317e+01   4.561469e+01
  -7.842351e+01   2.745802e+01
  -9.447470e+01   1.067793e+01
   1.698192e+00  -2.677665e+01
   5.589439e+01  -5.403949e+00
  -1.979036e+01   4.234426e+01
  -6.542383e+01   2.243101e+01
  -1.537267e+02   2.675588e+01
  -5.726270e+01  -9.569064e+01
   3.461758e+00  -7.568742e+01
   1.198849e+02  -5.265731e+01
   1.035101e+02  -5.077841e+01
   9.308309e+01   5.864625e+01
  -3.101811e+01   2.978307e+01
  -1.735101e+01  -2.237956e+00
  -2.023063e+00  -4.922222e+01
   9.996899e+01  -1.427809e+01
   9.072444e+01   8.263930e+01
  -3.158721e+00   9.037554e+01
  -5.578056e+01   6.630878e+01
  -3.094605e+01  -2.227671e+01
   1.054088e+00  -5.681300e+01
   1.837398e+01   2.248780e+01
  -1.867534e+01   4.810605e+01
  -6.399908e+01   3.048618e+01
  -1.031445e+02  -1.554145e+01
  -5.850619e+01  -4.626554e+01
   2.202263e+01  -8.103794e+01
   2.283405e+01  -9.530617e+01
   5.047651e+01   2.304919e+01
  -6.883452e+00   3.233210e+01
  -4.571063e+01   4.677427e+01
  -5.098806e+01   4.517691e+01
  -1.019714e+01   2.253708e+01
  -1.275134e+01   1.107101e-01
   3.561290e+00  -4.173702e+00
  -2.716137e+01   1.282516e+01
  -2.145106e+01  -4.074099e+01
   3.082276e+01  -7.823022e+01
   6.108020e+01  -9.758719e+01
   1.165323e+02   8.778218e+00
   2.440972e+01   7.156055e+01
  -3.423682e+01   6.680800e+01
  -7.644656e+01   7.783379e+01
  -4.571965e+01   6.137829e+00
  -2.431049e+01  -3.234116e+01
  -3.033158e+01  -2.066603e+01
  -1.994404e+01   3.334174e+01
  -3.179732e+01   5.135043e+00
  -1.903445e+01  -3.326462e+01
   1.895840e+01  -4.420854e+01
   3.623949e+01  -4.637471e+01
   4.572989e+01   2.369894e+01
  -2.518282e+01   1.987112e+01
  -6.339223e+01   3.190557e+01
  -8.047828e+01  -3.615402e+01
  -7.684204e+01  -1.111425e+02
   1.888729e+01  -8.715898e+01
   1.380082e+02  -7.128794e+00
   1.186046e+02   4.497503e+01
   2.369289e+01   4.269350e+01
  -3.592741e+01   2.682522e+01
  -3.700800e+01   2.308191e+01
  -1.073803e+01   3.310772e+01
  -2.125338e+01   8.578849e+00
  -3.055276e+01   1.790882e+01
  -2.578846e+01   3.954021e+00
  -8.069213e+00  -7.254361e+01
  -2.004497e+01  -1.429507e+02
   6.518752e+01  -4.726562e+01
   6.938724e+01   1.047638e+01
   2.766538e+01   8.020094e+01
  -2.330727e+01   8.756213e+01
  -4.081278e+01   7.048669e+00
  -3.660601e+01   1.943245e+01
  -4.165219e+01  -1.577986e+01
  -8.812620e-01   2.740316e+01
  -7.626999e+00  -1.151504e+01
  -2.595749e+01  -3.007549e+01
  -2.666603e+01  -1.683164e+01
   2.329156e+01  -3.240770e+00
   8.971911e+01   1.793739e+01
   5.321500e+01   2.837299e+01
  -1.154480e+01   4.644100e+01
  -5.979024e+01  -2.169007e+01
  -7.961014e+01  -1.262519e+01
  -2.507298e+01  -2.040302e+01
   2.584862e+01  -4.581825e+01
   3.375586e+01   1.776952e+01
  -1.795372e+01   1.142691e+01
   3.107036e+01   6.188236e+00
  -3.926031e+01   8.032993e+00
  -1.064847e+01  -5.788502e+01
  -2.739661e+01  -3.420854e+01
   2.766954e+00  -2.467224e+01
  -3.818909e+01   1.107163e+01
  -1.297457e+01  -6.676061e+00
   1.181287e+01  -4.180557e+01
   4.445482e+01  -5.042960e+01
   4.204766e+01   6.431943e+00
   5.742755e+01   7.079303e+01
   1.809682e+01   5.918937e+01
  -2.916569e+01   1.707878e+01
  -5.796605e+00  -2.786527e+01
   3.017799e+01  -1.844953e+01
   4.759107e+01   4.304701e+01
  -1.392039e+01   5.172030e+01
  -5.307479e+01  -2.667788e+00
  -9.296379e+01   2.088247e+01
  -7.554604e+01  -5.183057e+01
  -5.462845e+00  -4.315354e+01
   4.122049e+01  -2.567694e+00
   2.407750e+01  -6.376812e+00
  -1.897660e+01   1.457397e+01
  -6.268256e+01  -1.977420e+00
   3.429463e+00  -3.259839e+01
   3.532398e+01  -5.458264e+01
   7.920630e+01   2.013719e+00
   6.693818e+01   7.187516e+01
  -4.130434e+00   8.220313e+01
  -1.393377e+01   2.568421e+01
  -7.832755e+01  -2.082285e+01
  -4.728762e+01  -8.932664e+01
   1.179153e+01  -6.049381e+01
   2.517783e+01  -1.586231e+01
   6.814689e+00   3.041755e+01
   8.930146e+00  -2.090152e+00
  -4.590279e+00   2.018799e+01
   1.335211e+01   4.657653e+00
  -1.059370e+00   1.763140e+01
   3.033072e+01   2.405783e+01
  -3.729026e+01   4.909062e+01
  -7.922756e+01  -1.257157e+01
  -6.156999e+01  -4.089356e+01
  -5.924065e+00  -2.471009e+01
   3.602047e+01  -1.059730e+01
   3.450014e+01  -2.144391e+01
   3.992558e+01   2.554273e+00
  -3.315058e+01   1.776413e+00
  -1.176234e+01   9.433872e+00
   2.225765e+01  -2.007092e+01
   1.756919e+00   2.744289e+01
  -2.617521e+01   4.582105e+00
  -4.788140e+01  -1.450306e+01
  -1.440812e+00  -2.991494e+01
   5.626537e+01  -4.514635e+01
   1.013657e+02  -3.874502e+01
   5.262784e+01   6.562408e+00
  -2.121109e+01   5.440049e+01
  -3.453337e+01   4.919201e+01
  -6.541311e+01   4.959919e+01
  -1.473935e+01  -7.111534e+00
  -2.758914e+01  -2.722958e+01
  -3.299566e+01   5.979358e-01
  -2.259061e+01   7.590320e+00
  -3.350807e+01  -3.391440e+01
  -2.148284e+01  -6.534555e+01
   7.579229e+00  -1.286416e+01
   3.615531e+01   3.334665e+01
   6.550999e+00   4.659602e+01
  -1.042042e+00   4.964996e+01
  -7.910127e+00   6.726553e+00
  -2.849888e+01  -5.040324e+01
   2.648633e+01  -6.136899e+01
   2.157762e+01  -4.197103e+00
   3.849622e+01  -2.944524e+01
  -8.370803e+00   1.969122e+01
   1.833994e+01   3.255352e+01
  -1.274837e+01  -4.347290e+00
   9.856061e+00   7.239029e+00
   4.732229e+01   2.226075e+01
   9.021323e+00   1.304694e+01
  -1.195979e+01   2.563662e+00
  -4.784487e+01  -8.593228e+00
  -2.102606e+01  -2.062012e+01
   2.770215e+01  -4.986056e+00
   3.232910e+01  -3.930080e+01
   5.132536e+01   4.097173e+00
  -1.680842e+01   1.126857e+01
  -2.581522e+01   3.500059e+01
  -3.540158e+01  -9.600976e+00
  -2.571987e+00  -3.250279e+01
   3.534867e+00  -1.368084e+01
   7.834823e+00   1.866386e+01
   1.332771e+01   6.652271e+00
   2.145663e+01   2.153355e+01
   1.317356e+01  -1.830611e+01
  -1.922536e+01  -1.735484e+01
   2.996045e+01   1.295030e+01
   8.699646e+00  -1.864103e+01
   8.367661e+00   1.327594e+01
  -2.578676e+01  -1.942549e+01
  -2.050817e+00  -2.442182e+01
  -1.345644e+01  -2.117293e+01
   1.507513e+01   1.987730e+01
  -1.946237e+01   6.608722e+01
  -1.869608e+01   4.842634e+01
  -3.916222e+01   4.337366e+00
  -1.168829e+01   7.189148e+00
   2.138499e+01  -9.031901e+00
   1.972935e+01  -3.000284e+01
   1.941758e+01   7.306626e+00
   2.500717e+01   1.077795e+01
   6.423655e+00   6.668901e+00
   3.361477e+01  -2.530740e+01
   2.953267e+01  -3.182282e+00
