
 $NMID
 id='ANONYMOUS ', fmtdat='(2E16.6)'
 volume=1.0
 tramp=1.0
 $END
  -2.185873e+03  -2.859759e+02
  -1.081959e+03  -1.018538e+03
   3.557339e+02  -1.103324e+03
   6.657948e+02  -3.050037e+02
   5.805995e+02   4.291066e+01
  -1.129042e+02   4.868213e+01
  -1.961215e+02  -1.678782e+02
   1.925796e+01  -4.051848e+02
   3.323001e+02  -2.726491e+02
   3.650026e+02   1.769573e+00
   1.864068e+02   2.552834e+02
  -2.267108e+01   3.802511e+02
  -2.360243e+02   1.516185e+02
  -7.977439e+01  -2.757556e+02
   1.872370e+02  -2.594142e+02
   2.319556e+02   3.893617e+01
   4.748790e+01   3.226151e+02
  -2.441078e+02   3.601218e+02
  -3.142120e+02   1.108675e+02
  -2.096266e+02  -1.631704e+02
  -2.699826e+01  -1.940113e+02
   1.326301e+02  -1.579550e+02
   7.457405e+01  -1.908704e+01
  -9.629070e+01  -1.584097e+01
  -1.383486e+02  -1.307222e+02
   1.737207e+01  -2.264667e+02
   3.013601e+02  -3.531907e+01
   2.883238e+02   1.338510e+02
   1.407860e+02   1.873198e+02
  -2.603068e+02   7.979952e+01
  -4.281440e+02  -1.599882e+02
  -9.324586e+01  -2.124050e+02
   1.796951e+02  -1.897638e+02
   2.875722e+02  -4.359954e+01
   1.641688e+02   1.379998e+02
  -2.313837e+01   2.174469e+02
  -2.194701e+01   7.001833e+01
   3.106675e+01  -7.943621e+01
   1.380206e+02  -7.664159e+01
   1.595624e+02   1.182088e+02
  -3.234030e+01   3.341641e+02
  -1.855933e+02   2.844289e+02
  -1.289179e+02  -4.228558e+01
  -2.387533e+01  -1.659856e+02
   7.067465e+01  -1.043990e+02
   1.242737e+02   2.225999e+02
  -7.230713e+01   2.305175e+02
  -2.141978e+02  -1.095007e+01
  -2.961148e+02  -1.899602e+02
  -9.355710e+01  -2.269892e+02
   2.174401e+02  -1.569910e+02
   2.588331e+02   1.580678e+02
   1.971056e+02   2.570872e+02
  -5.886045e+01   1.570359e+02
  -1.608839e+02   8.059266e+01
  -1.014603e+02  -7.098319e+01
   5.510794e+00  -1.642273e+01
   2.397360e+01   5.290705e+01
  -7.028780e+01   3.453178e+01
  -1.349714e+02  -5.424354e+01
  -2.493161e+01  -1.183517e+02
   8.159972e+01  -1.163687e+02
   2.271481e+02  -1.338626e+01
   9.227408e+01   6.903065e+01
  -2.213047e+01   1.423285e+02
  -2.131324e+02   2.737769e+02
  -2.319011e+02   1.317290e+02
  -1.035585e+02  -1.276031e+02
   4.199530e+01  -1.748765e+02
   2.277581e+01  -1.158509e+02
   3.780364e+01  -1.069350e+02
   1.053088e+01  -2.542858e+01
   9.417321e+01  -5.390693e+01
   1.828675e+02  -4.630379e+01
   9.316825e+01   4.111193e+01
   9.739963e+01   1.570874e+02
  -5.632878e+01   1.538669e+02
  -1.527788e+02  -6.045516e+01
  -7.588612e+01  -1.621559e+02
   2.983123e+01  -1.415572e+02
   1.386919e+02  -1.508806e+01
   2.415435e+02   8.882957e+01
   7.658747e+01   1.900918e+02
  -3.922247e+01   1.416158e+02
  -1.317089e+02   6.168411e+01
  -8.410709e+01   4.383256e+01
  -8.470509e+01   3.325021e+01
  -1.613322e+02  -1.246003e+01
  -2.265270e+02  -1.272336e+02
  -1.329303e+02  -1.759670e+02
   2.334202e+01  -2.133085e+02
   2.315276e+02  -2.336446e+02
   2.625729e+02  -2.733400e+01
   1.397709e+02   1.171259e+02
  -4.927061e+00   1.368206e+02
  -1.081474e+02   1.060870e+02
  -8.600846e+00   1.602235e+01
   8.890960e+01  -5.727100e+01
   7.552751e+01   3.091242e+01
  -1.526147e+01   6.146008e+01
  -9.963037e+01   5.980577e+01
  -9.713240e+01  -4.505220e+01
   5.508142e+01  -8.622594e+01
   1.307233e+02   6.604483e+00
   6.039793e+01   1.156568e+02
  -6.161040e+01   2.025495e+02
  -1.901301e+02   9.042547e+01
  -2.589080e+02  -8.453940e+01
  -1.116790e+02  -1.701131e+02
  -8.873463e+00  -1.674835e+02
   7.299115e+01  -7.730670e+01
   8.297011e+01   1.578410e+01
   1.187207e+00   5.388170e+01
  -7.060382e-02  -8.050895e+00
   3.742375e+01  -1.060774e+02
   8.343138e+01  -5.366727e+01
   7.764398e+01   2.752127e+01
   1.464824e+01   3.582934e+01
  -4.833952e+01   2.222338e+01
  -3.687540e+01  -7.533198e+01
   1.277550e+02  -8.361312e+01
   1.760641e+02   2.243966e+01
   1.497936e+02   1.599313e+02
   3.543584e+01   1.489503e+02
  -1.747650e+02   1.184952e+02
  -1.622129e+02   2.136177e+01
  -9.095441e+01  -5.814031e+01
   4.072749e+01  -4.069115e+01
   4.475616e+01   2.460669e+01
  -4.032318e+00   4.381206e+01
  -1.261605e+02   8.940514e+00
  -1.295898e+02  -8.120610e+01
  -9.627601e+00  -1.313506e+02
   4.253523e+01  -5.777903e+01
   6.570026e+01   1.292850e+01
   4.938796e+01   5.743746e+01
  -2.026426e+01  -2.416520e+01
  -3.488178e+00  -8.641493e+01
   5.066821e+01  -6.468472e+01
   1.419624e+02   1.686211e+01
   1.349111e+02   8.388007e+01
  -2.833455e+01   9.377480e+01
  -9.094270e+01   8.238399e+01
  -1.010177e+02  -7.645671e+00
  -4.072888e+00  -5.311258e+01
   6.195287e+01  -3.902168e+01
   3.548121e+01  -1.107896e+01
  -4.068988e+01   1.007019e+01
  -2.655579e+01   6.601091e+00
   1.311925e+00  -2.730297e+01
   3.081526e+01   3.447530e+01
   3.606549e+01   5.035714e+01
   2.515646e+01   8.676472e+01
  -1.213598e+02   8.396373e+01
  -1.344742e+02   7.739984e+00
  -7.628556e+01  -9.314518e+01
   2.438179e+01  -9.086555e+01
   1.062878e+02  -8.168279e+01
   5.785248e+01  -8.734180e+00
   3.377341e+01   4.198285e+01
   3.370530e+01   2.078771e+01
   2.998529e+01  -8.369365e+00
   7.124897e+01  -3.521080e+00
   1.699220e+01   6.313212e+01
  -3.939746e+01   7.111009e+01
  -8.310942e+01   4.779013e+01
  -6.707594e+01  -1.097338e+01
  -7.887468e+00  -6.196715e+01
   1.073525e+02  -4.171760e+01
   1.277007e+02   6.743398e+01
   5.639507e+01   1.583978e+02
  -1.282456e+02   1.281549e+02
  -2.042177e+02   1.959655e+01
  -1.512498e+02  -6.375415e+01
  -4.817357e+01  -9.560595e+01
   6.070064e+01  -6.584055e+01
   7.101528e+01  -3.220776e+01
   4.648150e+01  -2.664815e+01
   2.256870e+01  -4.404805e+01
   8.619697e+01  -3.410686e+01
   7.667356e+01   4.038479e+01
   4.942473e+01   1.032920e+02
   1.442269e+01   1.549259e+02
  -7.944250e+01   9.611638e+01
  -8.295209e+01  -3.699680e+01
  -7.179206e+01  -8.581796e+01
   4.170433e+01  -1.132724e+02
   8.172778e+01  -8.732551e+00
   2.665110e+01  -4.088045e+00
   3.927135e+00   2.965422e+01
  -2.076494e+01   2.687262e+01
   2.305080e+01   2.347735e+01
   3.408726e+01   4.160436e+01
   2.502401e+01   4.657369e+01
  -8.816366e+00   2.486841e+01
  -7.326887e+01  -1.011174e+01
  -8.890537e+01  -2.822339e+01
   6.242614e+00  -4.672680e+01
   8.024702e+01  -4.341861e+00
   7.730699e+01   1.712391e+01
   2.748575e+01   4.533036e+01
  -1.342701e+01   8.436487e+00
  -4.514833e+01  -1.008155e+01
   2.483472e+01  -4.133257e+01
   4.275037e+01  -5.205484e+01
   5.316639e+01   1.133513e+01
   4.296049e+01   5.239875e+01
   2.258221e+01   6.998831e+01
   6.073050e+00   1.696161e+01
   3.513707e+01   1.406717e+01
   2.414374e+01   2.000937e+01
  -1.468383e+01   9.048817e+01
  -8.257692e+01   7.767112e+01
  -1.029174e+02  -7.694778e+00
  -6.846812e+01  -6.223479e+01
   1.683782e+01  -5.570578e+01
   6.679398e+01  -9.662684e+00
   1.990548e+01   1.479761e+01
  -4.835926e+01  -7.104163e+00
  -4.583201e+01  -4.180298e+01
  -3.180603e+01  -8.202999e+01
   1.964922e+01  -4.627773e+01
   1.492097e+02  -2.682497e+01
   9.199754e+01   6.146530e+01
   4.908180e+00   4.323916e+01
  -5.023844e+01   3.789743e+01
  -1.257638e+01   6.661185e+00
   1.661566e+01   1.015566e+01
   5.811567e+01  -1.019235e+01
   4.767270e+00   3.392528e+01
  -7.312076e+01   6.259356e+01
  -1.074250e+02   2.693732e+01
  -3.147523e+01  -3.871967e+01
   1.821298e+00  -9.710021e+01
   2.728496e+01  -5.064249e+01
   7.909530e+01   2.356017e+01
   5.410351e+01   4.952883e+01
   1.415508e+00   9.341020e+01
  -3.322015e+00   1.738571e+01
   1.199145e+01  -2.320734e+01
  -2.541375e+01  -1.863475e+01
   9.396898e+00   1.044155e+01
  -1.937972e+01  -1.305244e+01
  -6.596212e+01  -6.038048e+01
  -1.169536e+01  -5.172709e+01
   4.027345e+01  -3.498612e+01
   7.995834e+01   4.076958e+01
   7.218922e+01   3.888262e+01
   6.242292e+00   4.130606e+01
  -1.037150e+02  -1.533864e+01
  -7.143485e+01   1.430021e+01
  -2.117253e+01   9.498852e+00
   2.464546e+01   1.587712e+01
   1.008496e+00  -1.002224e+01
  -5.415240e+00   1.637349e+01
  -2.958426e+01  -4.613044e+00
   4.685806e+01   3.695472e+01
   4.656716e+01   2.815582e+01
  -2.088018e+00   2.954012e+01
  -8.944764e+01   5.897010e+01
  -1.157439e+02   3.930690e+01
  -5.835788e+01  -2.063778e+01
  -1.283048e+01  -7.956339e+01
   5.052898e+01  -8.747103e+01
   9.318791e+01  -3.031016e+01
   5.270452e+01   2.685309e+01
  -8.673268e+00   3.931676e+01
  -1.178980e+01   5.239823e+01
   1.855459e+01  -2.381201e+01
   1.817322e+01   3.585490e+01
  -1.474685e+01   8.431254e+01
  -3.894259e+01   6.705895e+00
  -3.880292e+01  -2.649460e+01
  -2.175816e+01  -6.390101e+01
   1.484496e+01  -3.853248e+01
   4.777991e+01  -1.216164e+01
   7.421333e+01   5.336078e+01
   3.954558e+01   5.833541e+01
  -5.010153e+01   2.916577e+01
  -5.023711e+01  -2.197297e+01
   1.943155e+01  -3.735749e+01
   5.726156e+00  -3.357863e+01
   1.710796e+01  -1.097319e+01
   5.397128e+00   2.090442e+01
  -7.809174e+01  -8.478838e+00
  -1.978205e+01  -1.897283e+01
   3.876906e+00  -2.906922e+01
   4.137006e+01  -1.891161e+01
   6.177991e+01  -8.116473e+00
  -1.304331e+01   3.372699e+01
  -4.454670e+01   3.929541e+01
  -3.962091e+01   4.815069e+00
  -5.267895e+00  -2.204554e+00
   2.707729e+01  -2.439095e+01
   2.530092e+01   3.919281e+00
   9.930524e+00   5.336478e+01
  -2.109574e+01   4.971629e+00
  -4.656712e+01  -1.709035e+01
  -3.970973e+01  -1.744974e+01
   8.171375e+00   3.424958e+00
   8.968977e+00   8.466373e+00
   1.747433e+01  -1.911448e+00
  -2.172261e+01  -1.889649e+01
   5.555333e+00   8.400637e+00
   2.060533e+01  -1.012105e+01
   1.863767e+01   4.641037e+01
   6.478697e+00   5.276700e+01
  -2.337010e+01   1.727783e+01
  -1.299734e+01  -2.016202e+01
  -1.304703e+01  -4.617043e+01
   2.303336e+01  -1.098869e+01
   4.768509e+01   2.193764e+01
   1.268406e+01   1.753380e+01
  -2.951953e+01   4.780161e+01
  -3.910599e+01   4.420975e+00
  -1.615236e+01   5.635617e+00
  -9.957032e+00  -2.728646e+01
   4.548380e+00   1.529571e+01
  -4.213741e+00   4.538405e+01
  -3.896710e+01  -5.980722e+00
