
 $NMID
 id='ANONYMOUS ', fmtdat='(2E16.6)'
 volume=1.0
 tramp=1.0
 $END
   2.623606e+03  -4.098855e+02
   1.682085e+03   6.559369e+02
   2.467361e+02   1.592500e+03
  -6.582643e+02   1.026272e+03
  -7.194536e+02   2.705951e+02
  -2.156159e+02  -2.034718e+02
   1.769573e+02  -1.344799e+01
   2.269920e+01   3.305514e+02
  -2.883571e+02   5.375861e+02
  -4.511583e+02   7.582226e+01
  -3.789455e+02  -3.160355e+02
   6.538106e+00  -4.451441e+02
   1.451587e+02  -1.202568e+02
   1.540068e+02   2.891552e+02
  -1.483985e+02   4.197640e+02
  -2.566785e+02   1.274943e+02
  -3.136810e+02  -2.938218e+02
   4.269169e+01  -4.230169e+02
   2.810293e+02  -2.081663e+02
   2.952545e+02   6.575445e+01
   1.223872e+02   2.495790e+02
  -7.248691e+01   1.839656e+02
   1.002966e+01   5.716660e+01
   1.614204e+02   1.645072e+02
   1.418625e+02   2.442045e+02
  -5.376191e+01   1.952505e+02
  -3.733864e+02   1.837138e+01
  -4.122903e+02  -7.407587e+01
  -2.097038e+02  -1.176066e+02
   2.731383e+02  -4.508374e+01
   3.535947e+02   1.635711e+02
   6.122631e+01   2.667714e+02
  -1.146251e+02   2.102639e+02
  -3.733723e+02   6.827245e+01
  -2.322842e+02  -1.047125e+02
  -2.535308e+01  -2.128863e+02
  -7.764435e+00  -1.889833e+02
  -6.258843e+01   6.575905e+01
  -7.776510e+01   8.544572e+01
  -3.870286e+01  -1.853449e+02
  -1.037635e+01  -3.461340e+02
   1.838352e+02  -2.632612e+02
   1.689371e+02  -9.513796e+01
   1.079959e+01   1.561848e+02
  -7.425884e+01   4.154903e+01
  -7.886965e+01  -1.484538e+02
   9.810289e+01  -1.932654e+02
   2.976373e+02  -1.631884e+01
   2.454700e+02   2.319856e+02
   6.146274e+01   3.832387e+02
  -2.265914e+02   1.632159e+02
  -3.735780e+02  -5.890270e+01
  -2.240408e+02  -2.019441e+02
  -8.147349e+01  -1.650951e+02
   1.432275e+02  -2.457605e+01
   1.673735e+02  -2.161746e+01
   1.525172e+01   3.887836e+00
  -5.959431e-01  -1.493697e+01
   4.845561e+01  -3.661657e+01
   1.144998e+02   2.896634e+01
   8.534719e+01   1.089006e+02
  -9.935285e+01   1.727900e+02
  -2.664418e+02   1.749729e+02
  -1.933307e+02  -7.193293e+01
   1.404299e+01  -2.401961e+02
   2.334649e+02  -3.108469e+02
   2.744233e+02  -1.048890e+02
   1.484821e+02   1.017135e+02
   1.217976e+00   2.112796e+02
   1.096445e+01   1.800762e+02
   6.156780e-01   1.582988e+02
  -1.683554e+01   1.293802e+02
  -1.248719e+02   8.335432e+01
  -2.058839e+02   3.470384e+01
  -1.784328e+02  -6.689590e+01
  -4.597040e+01  -1.780318e+02
   1.078211e+02  -1.529214e+02
   1.540959e+02   4.344905e+01
   7.180668e+01   2.012873e+02
  -2.399919e+01   1.863231e+02
  -1.456794e+02   4.364042e+01
  -2.132042e+02  -1.173269e+02
  -1.210820e+02  -2.409588e+02
   1.052730e+02  -1.437536e+02
   1.315183e+02  -1.519680e+02
   1.072157e+02  -9.003121e+01
   1.291542e+02  -7.472884e+01
   2.353483e+02  -3.895090e+01
   3.527216e+02   8.678359e+01
   1.969218e+02   1.770304e+02
  -8.654467e-01   3.449328e+02
  -3.228253e+02   3.814949e+02
  -3.508702e+02   1.383688e+02
  -1.845341e+02  -1.098580e+02
  -2.399598e+00  -2.036014e+02
   3.517230e+01  -1.326811e+02
  -3.641488e+00  -5.734000e+01
  -7.451507e+01   5.464041e+00
  -3.536381e+01  -3.573774e+01
   3.412159e+00  -9.504321e+01
   6.957616e+01  -5.123005e+01
   4.508177e+01   5.958757e+00
  -2.559362e+01   1.028986e+02
  -1.673196e+02   1.174008e+01
  -1.293585e+02  -1.734336e+02
   3.830591e+01  -2.785446e+02
   2.479227e+02  -1.030878e+02
   2.842721e+02   5.029802e+01
   2.026221e+02   2.128338e+02
   6.692964e+01   2.152426e+02
  -9.132967e+01   9.154225e+01
  -9.682239e+01   1.886682e+01
  -2.991566e+01   7.116260e+00
   1.797089e+01   1.345376e+01
   1.362208e+01   6.088556e+01
  -9.232105e+01   3.079764e+01
  -9.656072e+01   7.680540e+00
   8.122844e+00  -3.346865e+01
   4.771892e+01   1.055667e+01
   1.258420e+01   9.177719e+01
  -1.456900e+02   4.626107e+01
  -2.659558e+02   5.833532e+00
  -2.250524e+02  -1.277015e+02
   3.517427e+01  -2.249580e+02
   2.300127e+02  -1.953012e+02
   1.644337e+02  -2.724451e+01
   1.339563e+02   3.273250e+01
  -2.664317e+01   4.810065e+01
  -4.160644e+01  -5.884055e+00
   3.292889e+01  -4.613231e+01
   1.300330e+02  -1.745556e+01
   1.532756e+02   9.167744e+01
   2.771927e+01   1.156429e+02
  -5.646959e+01   1.030067e+02
  -9.510827e+01   2.084020e+01
  -1.758272e+01  -2.057589e+01
   4.918834e+01   6.471986e+00
  -5.233493e+00   9.765759e+01
  -8.437540e+01   7.004888e+01
  -1.747344e+02  -7.299907e+00
  -1.746726e+02  -1.309380e+02
   9.383744e+00  -1.092065e+02
   1.386841e+02  -8.885562e+01
   1.286960e+02  -1.526943e+01
   4.573167e+01   8.982078e+01
  -7.422369e+01   6.636756e+01
  -5.500449e+01  -2.600563e+00
  -7.372528e+00  -2.514539e+01
   6.223314e+01  -1.279208e+01
   1.350213e+01   5.317949e+00
  -7.842309e+01   5.842737e+01
  -7.538760e+01  -4.886727e+01
  -9.153712e+00  -1.107048e+02
   1.231728e+02  -1.092882e+02
   1.821285e+02  -8.791946e+00
   1.465398e+02   1.277810e+02
   1.454787e+01   1.994718e+02
  -6.353826e+01   8.624579e+01
  -1.206558e+02   6.228297e+00
  -4.211804e+01  -4.456121e+01
  -2.544421e+01  -1.217660e+01
  -5.367095e+01   2.993688e+01
  -4.426660e+01   2.645067e+00
  -3.081639e+01  -2.950327e+01
   2.652143e+01  -8.660342e+01
   8.989848e+01  -8.982292e+01
   8.054147e+01   2.083750e+01
  -4.981634e+01   1.167056e+02
  -9.149767e+01   9.375479e+01
  -1.951783e+02  -7.939534e+01
  -5.256468e+01  -1.742645e+02
   1.219742e+02  -2.048124e+02
   2.336438e+02  -5.640456e+01
   2.005267e+02   7.260457e+01
   8.603540e+01   1.106847e+02
  -4.446960e+01   1.008227e+02
  -8.259801e+01   7.237225e+01
  -4.384352e+01   6.846173e+01
  -3.594135e+01   9.802883e+01
  -8.103066e+01   3.894035e+01
  -6.791991e+01  -9.759920e+00
  -8.189032e+01  -1.136433e+02
  -3.425028e+01  -2.009793e+02
   9.059283e+01  -1.748360e+02
   1.241831e+02  -2.009709e-01
   9.775074e+01   1.405555e+02
  -2.483259e+01   1.299295e+02
  -4.873742e+01   5.428666e+01
  -2.359976e+01  -1.215892e+01
  -2.463097e+01  -4.432272e+01
   2.080450e+01  -4.844808e+01
  -3.872791e+01   8.356789e+00
  -5.634609e+01  -2.796048e+01
  -5.319979e+01  -4.069959e+01
   4.168449e+01  -3.048807e+01
   1.335295e+02   1.456527e+01
   1.258794e+02   7.900964e+01
  -1.903024e+01   5.786514e+01
  -8.385429e+01   2.128089e+01
  -1.414451e+02  -7.147053e+00
  -1.832012e+01  -4.836900e+01
   5.939358e+01  -2.316527e+01
   3.847863e+01   1.441230e+01
   5.080277e+00   6.757340e+01
  -8.189739e+00   6.791977e+01
  -4.114000e+01  -1.857013e+01
  -1.885518e+01  -5.301449e+01
  -4.173987e+01  -3.532938e+01
  -3.856982e+01   1.313935e+01
  -8.435301e+01   4.206850e+00
  -3.600630e+01  -1.285506e+00
   1.075135e+01  -1.147260e+02
   1.278538e+02  -1.256182e+02
   1.600891e+02  -3.500006e+01
   8.927059e+01   5.982424e+01
   1.048093e+01   1.044816e+02
  -7.332739e+01   4.213983e+01
  -6.407718e+01   8.196047e-01
   7.957786e+01  -2.389358e-01
   9.398425e+01  -5.535593e-01
   6.927019e+01   4.420581e+01
  -5.654763e+01   4.961285e+01
  -1.312650e+02   2.486436e+01
  -1.561622e+02  -5.576333e+01
  -5.847626e+01  -4.570906e+01
   5.566544e+01  -1.725496e+01
   2.904464e+01   1.718749e+01
  -2.445907e+00   1.849397e+01
  -6.990917e+01  -2.368210e+01
  -1.137708e+01  -1.086083e+02
   6.571689e+01  -8.607826e+01
   1.155161e+02  -3.496195e+01
   8.449726e+01   9.383644e+01
   1.438967e+01   1.299983e+02
  -4.806720e+01   1.089014e+02
  -7.173476e+01  -4.249337e+00
  -5.205679e+01  -6.693475e+01
   4.250094e+01  -6.628797e+01
   5.055892e+01  -6.035388e+00
   4.111656e+01   1.389923e+01
  -5.114965e-01   1.051072e+01
   1.343628e+01  -3.958179e+00
   5.507685e+01   7.589745e+00
   6.623041e+01   5.486704e+01
   4.337301e+01   8.203565e+01
  -4.510508e+01   6.161901e+01
  -1.173613e+02  -5.665087e+01
  -1.111723e+02  -3.637947e+01
  -4.225511e+01  -6.227634e+01
   4.019592e+01  -6.369146e+00
   8.821638e+01  -1.903694e+01
  -7.046237e+00  -1.223938e+01
  -2.020271e+01   3.309027e+01
   3.049088e+01   1.135598e+01
   1.817901e+01  -6.492557e-01
  -1.354875e+01  -1.546601e+01
  -1.903841e+01  -2.164681e+00
  -7.966682e+01  -4.490650e+01
  -2.413447e+01  -5.956929e+01
   5.670619e+01  -7.255704e+01
   1.408190e+02  -6.023179e+01
   9.047916e+01   4.991276e+01
   1.877947e+01   1.203709e+02
  -6.052865e+01   1.374782e+02
  -7.586274e+01   5.760894e+01
  -5.832486e+01  -5.967886e+00
  -2.999907e+01  -3.193068e+01
   1.794018e+01  -3.018302e+01
  -1.894975e+01  -2.760033e+01
  -2.899926e+01  -3.375232e+01
  -4.432559e+01  -4.776680e+01
   8.402315e+00  -4.475501e+01
   4.011206e+01  -1.954102e+01
   6.854717e+01   6.551776e+01
   3.243885e+01   7.016110e+01
  -1.966798e+01   2.422421e+01
  -7.191655e+01  -1.782357e+01
  -4.326714e+01  -1.146531e+02
   3.322895e+01  -6.918716e+01
   7.627820e+01  -6.034856e+00
   2.629506e+01   5.495509e+01
  -4.762797e+01   5.634989e+01
  -2.313990e+01   3.332647e+01
   4.584163e+01  -6.109309e-01
   4.991898e+01   1.995054e+00
   4.136587e+01   2.946011e+01
  -9.899855e+01   5.014609e+01
  -6.623774e+01   2.780454e+01
  -4.221790e+01  -1.403983e+00
   3.281373e+00  -4.029654e+01
   5.003095e+01  -5.413049e+01
   1.651157e+01   1.314294e+01
  -1.609773e+01   4.287335e+01
  -1.256326e+01   4.094344e+01
  -3.122631e+01  -4.722259e+00
  -2.662504e+01  -1.995143e+01
  -5.311915e+00  -2.410537e+01
   2.647374e+01  -6.238311e+00
   5.010091e+01   5.065682e+01
   2.470835e+01   1.275291e+01
  -1.419059e+01  -1.804808e+01
  -2.115376e+01  -5.364429e+00
   2.294289e+01   3.557112e+01
   2.781025e+01   4.631308e+01
  -2.198481e+01   1.377140e+01
  -5.533962e+01  -2.606347e+01
  -3.060760e+01  -6.303635e+01
   3.556791e+01  -1.931914e+01
   5.852463e+01   1.041580e+01
   1.275812e+01   5.722646e+01
  -2.675113e+01   1.600815e+01
  -9.866296e+01   8.767101e+00
  -1.030497e+01  -3.656047e+01
   7.747966e+00  -4.084570e+01
   4.473809e+01  -1.457432e+01
   4.002654e+01  -3.216077e+01
  -2.489338e+01   4.302653e+00
  -1.586274e+01   1.131038e+01
   1.684019e+01   1.162630e+01
   4.087027e+01   1.090581e+01
