
 $NMID
 id='ANONYMOUS ', fmtdat='(2E16.6)'
 volume=1.0
 tramp=1.0
 $END
  -2.452279e+03   6.772491e+01
  -1.547796e+03  -1.370178e+03
  -1.721342e+02  -1.729325e+03
   8.628485e+02  -1.022098e+03
   6.965606e+02  -3.847752e+02
   1.993594e+02   1.910576e+02
  -3.054216e+02  -1.283382e+02
  -1.490419e+02  -4.080300e+02
   3.952163e+02  -4.835404e+02
   5.117368e+02  -1.720790e+02
   3.684132e+02   4.201745e+02
   6.735739e+01   5.467046e+02
  -2.261448e+02   2.083107e+02
  -2.647120e+02  -3.339522e+02
   5.632561e+01  -3.936897e+02
   2.734022e+02  -5.760128e+01
   2.345542e+02   3.502920e+02
  -7.471359e+01   5.688800e+02
  -3.571282e+02   1.734406e+02
  -3.923125e+02  -1.664401e+02
  -1.101253e+02  -2.834660e+02
   1.011132e+02  -2.509201e+02
   5.675960e+01  -8.874406e+01
  -1.645452e+02  -5.909561e+01
  -2.917766e+02  -2.572860e+02
   2.610533e+00  -3.425120e+02
   4.114394e+02  -1.954511e+02
   5.219619e+02   2.772180e+02
   8.237403e+01   2.863263e+02
  -2.907839e+02   2.504555e+02
  -4.093993e+02  -4.892386e+01
  -2.419511e+02  -2.436934e+02
   2.375155e+02  -2.329693e+02
   4.154423e+02  -1.810667e+02
   2.547108e+02   1.395193e+02
   5.826142e+01   2.097534e+02
  -2.893405e+01   1.709391e+02
   1.933707e+01  -7.679404e+01
   1.548066e+02  -1.152716e+02
   1.537682e+02   1.147583e+02
  -4.272970e+01   3.688290e+02
  -2.244870e+02   3.271797e+02
  -2.752619e+02  -6.269777e+01
  -1.699787e+02  -2.731557e+02
   8.550689e+01  -1.183593e+02
   1.116380e+02   1.712808e+02
  -8.115589e+01   2.969173e+02
  -3.991140e+02   8.203910e+00
  -5.239006e+02  -2.377161e+02
  -1.615343e+02  -3.999302e+02
   2.393401e+02  -2.314773e+02
   4.546073e+02  -8.166540e+01
   3.595643e+02   1.754081e+02
  -5.536462e+01   1.563992e+02
  -2.440781e+02   7.870702e+01
  -1.866903e+02   5.590724e+00
  -3.076506e+01  -4.791652e+01
   2.751560e+01   5.990007e+01
  -1.213488e+02   5.675135e+01
  -2.023200e+02  -2.350993e+01
  -1.243755e+02  -1.826466e+02
   8.369363e+01  -1.676128e+02
   2.980441e+02  -8.868000e+01
   2.203528e+02   9.213456e+01
  -7.468474e+01   2.698927e+02
  -2.022846e+02   3.025586e+02
  -2.988601e+02   1.724647e+02
  -2.016728e+02  -1.675838e+02
   1.383004e+01  -2.818435e+02
  -1.595642e-01  -2.545652e+02
   4.386668e+00  -1.781450e+02
   1.127599e+00  -1.115198e+02
   1.054333e+02  -7.447300e+01
   2.367650e+02  -1.051189e+02
   2.505782e+02   1.295410e+02
   8.646147e+01   1.966683e+02
  -6.588680e+01   1.546183e+02
  -1.259704e+02  -1.795850e+01
  -1.316787e+02  -1.917935e+02
   4.442564e+01  -2.118360e+02
   2.197968e+02  -5.611077e+01
   2.119208e+02   1.456749e+02
   1.485602e+02   2.728982e+02
  -6.080057e+01   2.407157e+02
  -1.623574e+02   1.034268e+02
  -1.326916e+02   4.383860e+01
  -1.455210e+02   6.140103e+01
  -2.017638e+02   8.600796e+01
  -3.612327e+02  -6.004969e+01
  -2.590720e+02  -2.392358e+02
   3.063371e+01  -3.601714e+02
   3.233545e+02  -3.149918e+02
   3.971244e+02  -1.612595e+02
   2.728816e+02   2.820525e+01
   2.866086e+01   2.288646e+02
  -1.066911e+02   1.624065e+02
  -2.004577e+01   1.621628e+01
   9.157477e+01  -5.522137e+01
   1.162756e+02   4.342806e+01
   8.985016e+00   1.089254e+02
  -8.853552e+01   9.817749e+01
  -7.290283e+01  -6.046668e+01
   3.378071e+01  -9.293118e+01
   1.432389e+02   4.404803e+00
   1.347271e+02   2.161582e+02
  -4.009272e+01   3.186207e+02
  -2.062476e+02   2.075051e+02
  -3.075653e+02  -7.675884e+01
  -2.493870e+02  -1.979467e+02
  -5.197457e+01  -2.294054e+02
   8.003884e+01  -9.575865e+01
   1.449254e+02  -2.485256e+01
   2.191414e+01   8.847136e+00
  -8.938845e+00  -3.324911e+01
   3.096662e+01  -7.805113e+01
   9.344370e+01  -6.496586e+01
   1.129864e+02   9.143734e+00
   3.404504e+01   3.849056e+01
  -8.362910e+01  -4.169684e+01
  -2.370062e+01  -5.659359e+01
   1.329749e+02  -9.365507e+01
   1.984209e+02   3.905356e+00
   2.215586e+02   1.592269e+02
   3.144770e+01   2.064333e+02
  -1.667766e+02   2.136037e+02
  -2.038827e+02   6.268620e+01
  -1.255791e+02  -2.266418e+01
   4.908731e+01  -1.087727e+02
   5.710691e+01  -3.437906e+00
  -1.579408e+01   9.150013e+01
  -1.024460e+02   1.263795e+01
  -1.290549e+02  -8.963208e+01
  -4.801841e+01  -1.882793e+02
   7.029409e+01  -1.079021e+02
   1.110433e+02  -2.507837e+00
   3.766608e+01   4.313718e+01
  -2.067182e+01  -5.057602e+01
  -2.277734e+01  -9.401720e+01
   5.512861e+01  -1.018276e+02
   1.894523e+02  -3.070870e+01
   1.566202e+02   1.218639e+02
  -2.252149e+01   1.845277e+02
  -1.246284e+02   1.208954e+02
  -1.720521e+02   2.092146e+01
  -4.442359e+01  -7.215927e+01
   5.231269e+01  -8.714686e+01
   2.936752e+01  -4.274064e+01
  -6.667946e+00   2.990882e+01
  -4.033082e+01  -1.897440e+01
   2.928909e+01  -3.453353e+01
   5.900590e+01  -5.673935e+00
   8.840358e+01   8.272902e+01
   2.862157e+00   1.674248e+02
  -1.175928e+02   1.126856e+02
  -2.158236e+02  -1.460559e+01
  -1.620049e+02  -1.428699e+02
  -4.154925e+01  -2.175635e+02
   7.553831e+01  -1.023119e+02
   9.602011e+01  -3.215117e+01
   8.969900e+01   4.318278e+01
  -3.550402e+00   3.561648e+00
   3.155482e+01  -4.250026e+00
   6.686957e+01  -2.748981e+01
   4.745075e+01   4.378760e+01
  -3.853329e+01   1.097934e+02
  -1.215012e+02   4.678028e+01
  -9.238051e+01  -3.225459e+01
  -7.849136e-01  -1.237878e+02
   1.584189e+02  -5.456723e+01
   1.571682e+02   4.400906e+01
   1.288676e+02   1.826382e+02
  -1.296371e+02   1.878417e+02
  -2.150178e+02   9.070671e+01
  -1.693008e+02  -5.994170e+01
  -8.968252e+01  -1.724459e+02
   1.520770e+01  -1.178838e+02
   1.084252e+02  -7.617905e+01
   6.717033e+01  -6.944805e+01
   4.875988e+01  -1.018322e+02
   7.193078e+01  -5.531174e+01
   1.388437e+02   1.821983e+01
   9.988731e+01   1.141775e+02
  -1.330632e-01   1.743993e+02
  -5.884133e+01   1.224668e+02
  -1.190154e+02   2.537332e+00
  -1.110657e+02  -1.408239e+02
  -6.815188e+01  -1.259229e+02
   4.628900e+01  -9.721192e+01
   4.037922e+01   1.236835e+01
   1.670068e+01   4.124900e+01
   3.602784e+00   5.840920e+01
   1.873246e+01   3.185689e+01
   9.530409e+01   4.911738e-01
   4.455351e+01   3.304913e+01
  -1.037086e+02   4.990251e+01
  -1.499952e+02  -1.322253e-01
  -9.977905e+01  -7.520755e+01
  -3.341152e-01  -6.702747e+01
   1.105298e+02  -9.486897e+01
   1.051576e+02  -1.981012e+01
   3.229634e+01   4.970957e+01
  -5.227260e+01   3.135307e+01
  -4.619158e+01  -2.321178e+01
   3.454020e+00  -7.698277e+01
   5.064835e+01  -3.744915e+01
   4.445066e+01  -6.489650e+00
   5.762966e+01   2.135452e+01
   5.752101e+01   2.078854e+01
   6.160027e+01   3.409594e+00
   4.075419e+01   2.079716e+01
   1.389042e+01   7.865771e+01
  -5.424108e+01   1.425575e+02
  -9.516870e+01   1.265490e+02
  -1.412422e+02   1.882411e+01
  -1.058315e+02  -7.379681e+01
   1.511066e+01  -1.257803e+02
   8.167254e+01  -5.382738e+01
   5.466061e+01   8.449215e+00
  -4.854782e+01   3.172583e+01
  -1.206341e+02  -4.584149e+01
  -4.051665e+01  -7.530616e+01
   6.689872e+01  -5.909189e+01
   1.525561e+02  -4.964469e+01
   1.250756e+02   8.149800e+00
   1.858387e+01   9.933359e+01
  -5.142708e+01   2.700680e+01
  -8.778834e+00  -2.291675e-01
   6.617817e+01  -3.933050e+01
   6.755674e+01   7.064710e+00
   5.212068e+01   9.116756e+01
  -1.233275e+02   1.029699e+02
  -1.393720e+02   8.768024e+01
  -8.968653e+01  -5.280343e+01
   1.152911e+01  -1.806844e+02
   5.703112e+01  -9.808850e+01
   9.566988e+01   2.500078e+01
   7.750465e+01   9.836434e+01
  -3.385361e+00   9.943894e+01
  -7.558300e+01   1.869349e+01
  -2.517016e+01  -4.412055e+01
  -4.622228e+01  -1.333344e+01
   1.062636e+01  -1.610973e+00
  -2.277424e+01  -1.700607e+01
  -6.473639e+01  -7.288178e+01
  -2.454540e+01  -1.301186e+02
   3.355644e+01  -5.346211e+01
   1.183490e+02   2.194898e+01
   8.052515e+01   6.378141e+01
   5.941059e+01   6.684879e+01
  -5.751010e+01   4.353602e+01
  -6.386555e+01  -3.887327e+00
  -2.683197e+01   1.247156e+01
   2.830415e+01  -3.667304e+01
  -2.138171e+00  -1.447913e+01
  -2.569312e+01   4.431627e+00
   7.576687e+00   3.118532e+01
   7.944703e+01  -1.253648e+01
   5.086420e+01   1.767152e+01
   5.867217e+01   5.560905e+01
  -8.770815e+01   8.840970e+01
  -1.403320e+02   6.790264e+01
  -1.265740e+02  -3.554262e+01
  -4.294171e+01  -1.275938e+02
   6.654342e+01  -1.362330e+02
   9.324470e+01  -6.789551e+01
   7.030850e+01   2.188767e+01
   2.344265e+01   3.264949e+01
   2.158266e+01   1.556989e+01
   1.105107e+01   3.308199e+01
   2.871260e+01   3.880855e+01
   3.356169e+01   4.782646e+01
  -2.108958e+01   6.409437e+01
  -8.613789e+01  -1.509112e+01
  -6.755214e+01  -6.205615e+01
  -6.703927e+00  -1.451349e+02
   7.000814e+01  -3.792389e+01
   1.109300e+02   1.749371e+01
   5.710909e+01   9.497853e+01
  -7.638329e+01   6.706430e+01
  -8.644950e+01   2.020280e+01
  -5.930788e+01  -5.545903e+01
   4.659463e+01  -3.677021e+01
   3.141652e+01  -1.028278e+01
  -1.878279e+01   3.220676e+01
  -4.908381e+01  -4.428075e+00
  -2.973291e+00  -2.225927e+01
   5.408351e+01  -5.686838e+01
   8.904830e+01  -6.661825e+01
   6.503433e+01  -2.391544e+01
  -2.322527e+01   4.258274e+01
  -5.542275e+01   6.172950e+01
  -4.823563e+01  -1.160989e+01
   2.130195e+01  -6.576987e+00
  -5.275403e+00  -4.024472e+01
   2.938089e+01  -5.369316e+00
   9.188573e+00   2.060091e+01
   1.428973e+01   5.154664e+01
  -4.145862e+01   1.910494e+01
  -2.056465e+01  -1.903852e+01
  -2.852155e+01  -1.286436e+01
   6.031725e-01   2.109259e+00
   1.582295e+01   1.696746e+01
   2.704652e+00  -3.189047e+01
  -1.784509e+01  -5.069605e+01
   3.502263e+01  -3.999448e+01
   3.190037e+01   3.066175e+01
  -2.120763e+01   6.717512e+01
  -3.959342e+01   1.603103e+01
  -5.808105e+01   7.271367e+00
  -1.783736e+01  -3.507491e+01
   7.310399e+01  -3.825925e+01
   1.030382e+02  -1.824709e+01
   5.718140e+01   5.220103e+01
  -2.252120e+01   4.081258e+01
  -5.025887e+01   4.993745e+01
  -3.189811e+01  -2.509934e+00
   1.630999e+00   2.503644e+01
   1.479761e+01   8.654848e+00
  -1.602452e+01  -1.978357e+01
  -6.587562e+01   3.386684e+01
