
 $NMID
 id='ANONYMOUS ', fmtdat='(2E16.6)'
 volume=1.0
 tramp=1.0
 $END
  -2.402375e+03   3.878784e+02
  -1.471846e+03  -8.567642e+02
  -4.093520e+02  -1.523601e+03
   7.572550e+02  -1.189981e+03
   8.143369e+02  -5.156293e+02
   1.910418e+02   9.297661e+01
  -1.729495e+02   2.682857e+01
   3.373481e+01  -2.877096e+02
   2.844562e+02  -3.631047e+02
   4.843178e+02  -1.904666e+02
   4.207987e+02   1.948654e+02
   1.091701e+02   4.134247e+02
  -1.242602e+02   2.186199e+02
  -2.308564e+02  -1.809394e+02
  -6.398223e+01  -4.145202e+02
   2.675051e+02  -8.365416e+01
   3.424380e+02   3.149384e+02
   3.822638e+01   4.787842e+02
  -3.322718e+02   3.083468e+02
  -3.738228e+02   8.645500e+00
  -1.625288e+02  -2.825769e+02
   1.324089e+01  -1.867496e+02
   1.190574e+00  -9.480897e+01
  -1.147984e+02  -1.276943e+02
  -1.154173e+02  -2.084997e+02
   4.605718e+01  -2.522865e+02
   2.612447e+02  -1.406772e+02
   4.155458e+02   1.421132e+02
   1.800250e+02   1.998626e+02
  -1.524350e+02   8.728547e+01
  -3.078091e+02  -1.036031e+02
  -3.487879e+01  -2.299072e+02
   1.367884e+02  -1.674846e+02
   2.496472e+02  -7.401657e+01
   2.513895e+02   1.102778e+01
   1.341582e+02   1.847200e+02
   2.206316e+01   1.429686e+02
   1.079375e+02   2.655355e+01
   1.192301e+02  -6.306439e+01
   1.167394e+02   1.953374e+02
  -2.383375e+01   2.224083e+02
  -5.599627e+01   2.178722e+02
  -1.256403e+02   1.018217e+02
  -6.363803e+01  -9.139919e+01
   4.649199e+01  -2.686692e+01
   4.968103e+01   1.398422e+02
  -2.910520e+01   2.108951e+02
  -2.868621e+02  -4.146077e+00
  -2.627332e+02  -1.656030e+02
  -1.270455e+02  -3.299299e+02
   1.821089e+02  -2.290233e+02
   3.748199e+02   2.896746e+01
   2.779705e+02   1.168775e+02
   5.251343e+01   1.136431e+02
  -1.686222e+02   7.184602e+01
  -1.564129e+02   4.269432e+01
  -5.771626e+01   4.759698e+01
   5.025321e+01  -3.548277e+01
  -7.183801e+01   4.978078e+01
  -1.205957e+02   4.251377e+00
  -1.185144e+02  -7.886983e+01
   8.368961e+01  -1.892884e+02
   2.470377e+02  -1.373688e+02
   1.818233e+02   7.556743e+01
  -3.207826e+00   2.735249e+02
  -2.713008e+02   3.191246e+02
  -2.727480e+02   8.004763e+01
  -1.430666e+02  -7.679201e+01
  -9.481793e+01  -2.492652e+02
   3.587936e+00  -2.233489e+02
  -1.515309e+01  -1.465538e+02
   1.942016e+01  -9.768961e+01
   1.501816e+02  -8.562373e+01
   1.992120e+02  -5.907878e+01
   2.014648e+02   4.607379e+01
   3.656666e+01   1.650587e+02
  -1.078413e+02   1.063638e+02
  -1.320298e+02  -2.665007e+01
  -7.901011e+01  -1.719139e+02
   4.910268e+01  -1.837725e+02
   1.314969e+02  -5.841533e+01
   1.679632e+02   1.156570e+02
   1.148347e+02   1.901329e+02
  -2.708761e+01   1.703082e+02
  -1.459060e+02   1.769812e+02
  -1.253384e+02   9.687132e+01
  -1.125864e+02   3.922727e+01
  -2.395022e+02   5.550001e+01
  -3.647382e+02  -8.901302e+01
  -2.672505e+02  -1.190526e+02
  -5.035352e+00  -3.623961e+02
   2.708995e+02  -3.071689e+02
   3.560926e+02  -5.218250e+01
   1.890810e+02   3.677698e+01
  -9.048433e+00   2.294121e+02
  -5.644226e+01   1.076824e+02
   1.811301e+01   4.850498e+01
   5.931012e+01   1.851465e+01
   6.473337e+01   1.037301e+01
   5.856900e+01   6.777399e+01
  -5.803103e+01   3.782020e+01
  -7.330120e+01  -3.527372e+00
   2.010879e+01  -9.704822e+01
   1.290836e+02  -1.596918e+01
   1.184913e+02   1.789161e+02
  -2.121713e+01   2.648328e+02
  -1.831713e+02   1.451879e+02
  -2.169434e+02  -4.820531e+01
  -1.760361e+02  -1.970333e+02
  -5.941119e+01  -1.842751e+02
   8.864125e+01  -1.103143e+02
   9.162327e+01  -5.167895e+01
   1.303769e+00   1.088489e+01
  -5.734079e+01  -4.985270e+01
   3.650367e+00  -4.672084e+01
   1.012192e+02  -3.231339e+01
   9.134444e+01   1.802023e+00
   1.735034e+01   1.286305e+01
  -4.291809e+01   1.827862e+01
  -3.788680e+01  -4.510142e+01
   1.160273e+02  -9.094690e+01
   2.474429e+02   3.539731e+01
   2.105663e+02   1.720195e+02
   4.524251e+01   1.994710e+02
  -1.812411e+02   1.905073e+02
  -1.610292e+02   7.839099e+01
  -1.106709e+02  -6.826577e+01
   4.004137e+00  -5.174511e+01
   5.228363e+01   2.046240e+01
  -1.651193e+01   6.818448e+01
  -1.365176e+02  -3.195527e+01
  -1.601375e+02  -2.651227e+01
  -6.976670e+01  -1.255469e+02
   5.299433e+01  -5.944677e+01
   1.243777e+02  -5.858802e+01
   3.762795e+01   1.517098e+00
  -3.943190e+01   1.803162e+00
   1.026686e+01  -9.305805e+01
   5.766740e+01  -7.734913e+01
   1.428165e+02  -3.234690e+01
   1.538837e+02   1.435661e+02
   5.963752e+00   1.359384e+02
  -1.135195e+02   1.046718e+02
  -9.528114e+01   1.181948e+01
  -4.927671e+01  -6.078928e+01
   2.563706e+01  -4.471176e+01
   6.738959e+01  -4.508868e+00
  -2.670447e+01   4.147663e+01
  -3.359869e+01   9.316385e+00
   1.304993e+00  -2.626277e+01
   6.449162e+01  -5.158938e+01
   8.714779e+01   8.065875e+01
   1.937547e+01   1.252994e+02
  -1.151039e+02   7.158376e+01
  -1.611570e+02   1.028932e+01
  -1.560634e+02  -1.198960e+02
  -8.816519e+01  -1.448354e+02
   4.358555e+01  -1.026464e+02
   6.616139e+01  -3.168236e+01
   8.103340e+01   3.405095e+01
   2.461082e+01   3.068394e+01
   3.119310e+01  -2.400127e+01
   5.528614e+01   1.815834e+01
   4.240183e+01   5.744367e+01
  -5.698982e+01   8.760643e+01
  -8.729615e+01   7.844139e+01
  -1.055070e+02  -4.572291e+01
   1.907999e+01  -8.927564e+01
   1.136912e+02  -7.859087e+01
   1.660280e+02   4.594938e+01
   3.723701e+01   1.687589e+02
  -1.091273e+02   1.666426e+02
  -2.006187e+02   6.538448e+01
  -1.866635e+02  -6.218787e+01
  -3.502240e+01  -1.031838e+02
   1.890074e+00  -1.092179e+02
   7.340553e+01  -7.221662e+01
   4.596539e+01  -5.165016e+01
   6.042329e+00  -5.819914e+01
   7.547154e+01  -5.463716e+01
   7.782022e+01  -7.564654e+00
   6.533321e+01   1.154880e+02
  -2.701377e-02   1.842428e+02
  -9.886009e+01   1.411428e+02
  -1.131610e+02   1.780705e+00
  -6.117833e+01  -8.981819e+01
   1.088411e+01  -1.524359e+02
   3.621738e+01  -7.265977e+01
   3.606758e+01   5.038774e+01
   7.854846e+00   4.931199e+01
  -1.385825e+01   9.414275e+00
   3.239863e+01   4.767698e-01
   6.705645e+01  -6.619190e+00
   4.583107e+01   1.614745e+01
  -4.743661e+01   7.891211e+00
  -1.204183e+02  -1.581821e+01
  -1.111061e+02  -7.835673e+01
   3.262053e+01  -5.276981e+01
   7.266643e+01  -6.632438e+01
   1.297188e+02   2.894734e+01
   5.471825e+01   4.026965e+01
  -4.382409e+01   2.794086e+01
  -5.077925e+01  -3.143339e+01
  -2.952807e+01  -6.573554e+01
   2.525697e+01  -7.467466e+01
   4.514966e+01  -1.483386e+00
   5.258313e+01   4.534336e+01
   5.667813e+01   2.209785e+01
   3.741013e+01  -1.708852e+01
   5.469994e+01   1.956062e+00
   1.351606e+01   4.053799e+01
  -4.111463e+00   1.305781e+02
  -6.332090e+01   1.217841e+02
  -1.168170e+02   3.455738e+01
  -6.688880e+01  -7.394957e+01
   8.231751e+00  -1.175373e+02
   4.726242e+01  -6.437298e+01
   5.460735e+01   1.458459e+01
  -3.263848e+01   2.823595e+01
  -1.022331e+02   6.463038e-02
  -6.337247e+01  -3.388169e+01
   7.748134e+01  -7.871386e+01
   1.273390e+02  -3.472968e+01
   1.531066e+02   3.287853e+01
   2.794180e+01   4.651878e+01
  -4.602733e+01   8.726286e+00
  -2.404185e+01   4.348737e+00
   1.487162e+01  -2.625077e+01
   7.497128e+01   3.185308e+01
   3.364410e+01   8.039717e+01
  -3.998873e+01   1.228104e+02
  -7.500513e+01   7.302388e+01
  -1.347050e+02  -9.496800e+01
   6.218963e+00  -1.474830e+02
   7.311844e+01  -5.260077e+01
   8.583354e+01  -1.088561e+01
   4.515116e+01   4.310743e+01
  -2.239271e+01   5.591807e+01
  -3.830641e+01   1.322666e+00
  -3.211289e+01  -2.564778e+01
  -1.607424e+01   1.432430e+01
  -2.319533e+01   1.030705e+01
  -4.353086e+01  -1.805872e+01
  -5.988555e+01  -6.620147e+01
  -2.277428e+01  -2.157606e+01
   4.268563e+01  -1.699644e+01
   1.085751e+02   2.122368e+01
   7.284066e+01   6.259380e+01
   3.678381e+01   4.368962e+01
  -7.375202e+01   3.396081e+01
  -7.857852e+01   1.375164e+00
   5.486810e+00  -2.558804e+01
   1.096567e+01  -1.740013e+01
   5.824674e+00   3.030106e+00
  -3.143524e+01  -1.075009e+01
   3.858745e+00   4.798774e+00
   4.138970e+01  -9.253250e+00
   8.879199e+01   7.425366e+00
   1.642350e+01   6.935191e+01
  -7.073053e+01   1.259040e+02
  -1.305649e+02   2.735669e+01
  -1.250796e+02  -5.445394e+01
  -8.363779e+01  -1.045985e+02
   6.499168e+01  -1.489738e+02
   6.555894e+01  -6.199399e+01
   7.040479e+01  -1.605761e+01
   2.398056e+01   8.573862e+00
   2.587061e+01   1.313112e+01
  -7.370175e+00   4.650487e+00
   1.350571e+01   3.168449e+01
   2.391726e+01   5.641455e+01
  -1.970725e+01   7.371792e+01
  -7.158646e+01  -2.783479e+01
  -6.034732e+01  -5.303460e+01
   3.311517e+00  -7.452359e+01
   5.801816e+01  -6.318999e+01
   8.727489e+01   5.893513e+01
   3.302403e+01   7.239373e+01
  -1.838704e+01   6.756021e+01
  -9.105457e+01   7.604241e+00
  -6.349945e+01  -5.081735e+01
   4.497844e+01  -4.503981e+01
   6.055076e+00  -3.503634e+01
  -5.948680e+00  -9.642652e+00
  -2.614879e+01   3.366594e+01
  -6.363702e+00  -4.102126e+01
   5.771743e+01  -5.883555e+01
   7.053136e+01  -4.418556e+01
   6.541795e+01   1.127664e+01
  -2.483754e+01   6.123095e+00
  -1.603491e+01   6.136351e+01
  -2.704700e+01   1.988716e+01
  -1.295760e+01  -4.188450e+01
   9.263073e+00  -5.767564e+01
   1.397685e+01   3.681610e-01
   4.008243e+01   4.629298e+01
  -1.505545e+01   1.451255e+01
   2.064718e+01   2.030358e+00
  -5.521281e+01  -3.426532e+01
  -7.636020e+00  -2.918257e+01
  -2.770093e+01   1.514477e+01
  -1.754161e+01  -9.400611e+00
  -8.289595e+00  -1.612756e+01
  -2.175408e+01  -3.774081e+01
   5.412100e+00  -3.347138e+01
   6.309322e+01   1.173314e+01
  -2.194731e+00   6.155011e+01
  -2.883455e+01   3.143272e+01
  -5.037323e+01  -9.330167e+00
  -2.387440e+01  -4.575270e+01
   3.570033e+01  -2.562953e+01
   5.391487e+01  -1.338335e+01
   4.316183e+01   1.600390e+01
  -1.542245e+01   4.335210e+01
  -4.914984e+01   3.045600e+01
  -2.421152e+01   1.886880e+00
   3.977178e+00   1.577178e+01
   1.887371e+01  -1.528841e+01
  -3.393900e+00   4.184409e+01
  -5.333357e+01   3.910722e+00
