
 $NMID
 id='ANONYMOUS ', fmtdat='(2E16.6)'
 volume=1.0
 tramp=1.0
 $END
   2.206467e+03   3.666297e+02
   1.021771e+03   1.231726e+03
  -6.446448e+02   1.115754e+03
  -8.920634e+02   3.796873e+02
  -5.576609e+02  -3.169806e+02
   1.957353e+02  -1.498989e+02
   3.048403e+02   2.071058e+02
  -5.557538e+01   5.494859e+02
  -4.601499e+02   3.831202e+02
  -3.923283e+02  -6.193852e+01
  -1.477391e+02  -4.448206e+02
   1.248380e+02  -4.707483e+02
   2.549957e+02  -1.375900e+02
   6.933083e+01   2.881038e+02
  -2.103089e+02   3.220628e+02
  -3.060646e+02  -2.506815e+01
  -9.422309e+00  -3.553533e+02
   2.114896e+02  -3.062184e+02
   3.504643e+02  -1.001201e+02
   1.845234e+02   1.603153e+02
  -2.079613e+01   2.804648e+02
  -1.460205e+02   1.185810e+02
  -8.065859e+01  -1.401259e+01
   8.840151e+01   3.044645e+01
   1.908657e+02   1.444578e+02
   5.958507e-01   2.485172e+02
  -3.280927e+02   1.172628e+02
  -3.412048e+02  -1.294896e+02
  -1.334832e+02  -2.564577e+02
   2.796961e+02  -1.389673e+02
   4.589475e+02   1.084805e+02
   1.350543e+02   2.992154e+02
  -1.615123e+02   1.713890e+02
  -3.176698e+02   3.393666e+01
  -1.443766e+02  -1.619844e+02
   5.108773e+00  -2.132149e+02
   9.654390e+01  -7.763575e+01
  -1.145160e+01   1.396262e+02
  -1.510484e+02   1.428823e+02
  -2.150094e+02  -1.198007e+02
   4.072076e+01  -3.085107e+02
   1.622319e+02  -3.110482e+02
   1.664319e+02   5.595901e+01
   1.099704e+02   2.398388e+02
  -8.539424e+01   1.444918e+02
  -1.340253e+02  -2.416453e+02
   7.769023e+01  -2.230189e+02
   2.040210e+02  -3.090718e+00
   3.222556e+02   2.723233e+02
   8.646482e+01   3.128827e+02
  -2.227072e+02   1.451381e+02
  -3.144538e+02  -1.759937e+02
  -1.958121e+02  -2.375951e+02
   6.104774e+01  -1.497490e+02
   2.358357e+02  -3.169631e+01
   1.120670e+02   8.655199e+01
  -5.618324e+01   3.096262e+01
  -1.803838e+01  -8.493128e+01
   9.253959e+01  -4.393963e+01
   1.720728e+02   6.862522e+01
   1.936744e+01   1.608016e+02
  -7.446994e+01   1.306650e+02
  -1.800376e+02   2.910618e+01
  -1.009816e+02  -4.299437e+01
   5.245460e+01  -1.604706e+02
   1.631261e+02  -2.317354e+02
   2.156588e+02  -1.303670e+02
   9.241097e+01   1.132618e+02
  -8.681469e+00   1.732510e+02
  -3.478139e+01   1.712968e+02
  -4.042618e+01   7.000780e+01
   1.524993e+01   2.993265e+01
  -4.494898e+01   6.045967e+01
  -1.419946e+02   7.494674e+01
  -1.048461e+02  -2.733291e+01
  -7.154258e+01  -1.420920e+02
   3.605383e+01  -1.372196e+02
   1.508605e+02   3.818789e+01
   1.035943e+02   1.451417e+02
  -3.011069e+01   1.635825e+02
  -1.101079e+02   6.113695e+01
  -2.512005e+02  -1.433158e+02
  -5.488418e+01  -2.392172e+02
   7.981724e+01  -1.901861e+02
   1.554399e+02  -5.571810e+01
   6.685858e+01  -3.430758e+00
   6.659498e+01  -4.334322e+01
   1.727798e+02   3.661965e-01
   2.537938e+02   1.311298e+02
   1.317726e+02   1.835376e+02
  -1.223204e+01   2.653982e+02
  -2.768652e+02   2.724442e+02
  -2.038562e+02   7.365215e+01
  -2.350316e+02  -9.352648e+01
  -2.176042e+01  -1.770090e+02
   1.204570e+02  -7.042323e+01
   4.623916e+01   4.021110e+00
  -6.647845e+01   1.978909e+01
  -9.118696e+01   9.822175e-01
  -5.064886e+01  -1.177854e+02
   1.252105e+02  -3.668131e+01
   8.222214e+01   2.510335e+01
  -5.872043e+01   9.934999e+01
  -1.473195e+02  -2.725332e+00
  -1.010214e+02  -1.669201e+02
   5.950320e+01  -1.719757e+02
   1.580880e+02  -7.327434e+01
   2.248861e+02   6.218867e+01
   1.183081e+02   1.000695e+02
   2.991018e+01   1.588780e+02
  -5.550395e+01   5.594291e+01
  -3.899488e+01  -1.149915e+01
  -2.074392e+01  -2.110628e+01
   3.896112e+01   2.227045e+01
  -1.751938e+01   1.041498e+02
  -8.580508e+01   2.799996e+01
  -9.561361e+01  -3.843042e+01
  -1.841816e+01  -2.753743e+01
   3.083991e+01  -1.733582e+01
   3.129846e+01   6.025575e+01
  -1.055186e+02   7.745192e+01
  -1.920335e+02   2.493153e-01
  -1.521172e+02  -1.306341e+02
  -3.331714e+01  -1.472492e+02
   1.872812e+02  -1.268017e+02
   1.546500e+02  -1.829248e+01
   9.978963e+01   4.852371e+01
  -3.622694e+01   5.725574e+01
  -3.999016e+01  -1.138807e+01
   3.986417e+01  -4.174094e+01
   9.210137e+01  -2.219606e+01
   9.834428e+01   8.745004e+01
   1.458916e-01   1.588334e+02
  -2.335677e+01   7.733246e+01
  -8.001789e+01  -2.100165e+01
  -6.461315e+01  -4.655734e+01
   2.410494e+01   7.494688e+00
   2.722967e+01   6.530678e+01
  -8.569285e+01   1.731425e+01
  -1.138847e+02  -2.999513e+01
  -1.158020e+02  -8.507096e+01
   2.205481e+01  -8.409339e+01
   1.042074e+02  -6.243631e+01
   1.110322e+02  -1.509623e+01
  -1.621009e+00   4.507055e+01
  -3.339827e+01   6.703604e+01
  -6.320665e+01   2.511114e+01
  -1.222625e+01   2.658111e-01
   1.600090e+01   1.669979e+01
  -2.175527e+01   1.650935e+01
  -3.145347e+01  -4.449033e-02
  -2.284743e+01  -3.252773e+01
   6.563372e+00  -9.453586e+01
   8.318105e+01  -3.829426e+01
   1.137582e+02  -1.669192e+01
   1.104799e+02   1.090331e+02
  -2.327663e+01   1.224432e+02
  -1.004797e+02   9.520573e+01
  -5.612159e+01   7.442910e+00
  -2.408770e+01  -4.748350e+01
  -1.534375e+01  -2.792630e+00
  -1.970573e+01  -2.161663e+00
  -4.326031e+01   3.062537e+01
  -1.111271e+01  -2.592696e+01
   3.562097e+01  -5.709032e+01
   9.251005e+01  -3.394341e+01
   6.484789e+01   3.278929e+01
  -9.017742e+00   4.719757e+01
  -5.403516e+01   1.523331e+01
  -1.525061e+02  -3.449400e+01
   2.107700e+00  -1.191100e+02
   1.090554e+02  -1.505609e+02
   2.220375e+02  -1.658150e+01
   1.738652e+02   7.889972e+01
   5.049923e+01   1.104276e+02
  -5.150840e+01   7.219337e+01
  -7.133236e+01   1.972535e+01
  -3.776162e+01   1.460485e-01
  -2.634348e+01   2.697322e+01
  -3.992690e+01   2.225596e+01
  -9.382227e+01  -2.281595e+01
  -7.579529e+01  -5.805030e+01
  -2.922555e+00  -1.414467e+02
   6.815976e+01  -1.176978e+02
   7.764795e+01  -2.075571e+00
   5.134623e+01   5.275235e+01
  -2.004754e+01   1.094260e+02
  -4.896890e+01   2.011693e+01
  -3.452528e+01   2.483321e+01
  -3.443922e+01  -3.923753e+01
   3.116140e+01  -3.632958e+01
  -5.751920e+00  -1.266747e+01
  -2.102395e+01  -1.421827e+01
   6.977907e-01  -2.971819e+01
   4.351672e+01  -2.653158e+01
   1.056938e+02  -2.174790e+01
   7.256551e+01   4.021861e+01
   1.013700e+01   4.930434e+01
  -8.866872e+01   3.333884e+01
  -5.695429e+01  -1.967085e+01
  -3.662850e+01  -4.451282e+01
   3.467222e+01  -1.934530e+01
   4.803057e+01  -1.679230e+01
  -3.281836e+01   4.308856e+01
  -4.487118e+01   4.994769e+01
  -2.392931e+01  -1.060085e+01
  -3.286803e+01  -6.314300e+01
  -2.651050e+01  -5.193240e+01
  -3.055652e+01   6.489415e+00
  -3.211671e+01  -9.015715e+00
  -2.892333e+00  -2.109831e+01
   3.719101e+01  -8.794346e+01
   9.040351e+01  -1.847152e+01
   8.333022e+01  -2.239668e+01
   8.680250e+01   7.885580e+01
  -1.743795e+01   8.859380e+01
  -4.829716e+01  -6.290790e-01
  -2.697920e+01  -4.936656e+01
   3.200234e+01   2.651578e+00
   3.521739e+01   4.974990e+01
   5.791356e+01   5.144986e+01
  -6.282556e+01   5.993811e+01
  -1.364551e+02   2.489338e+01
  -7.778037e+01  -2.811224e+01
   3.610245e+01  -4.324407e+01
   3.871538e+01  -1.753849e+01
   3.076912e+01  -2.929257e-01
  -1.615003e+00  -2.028468e+01
  -2.303999e+01  -2.492731e+01
   1.000663e+00  -7.130787e+01
   6.220422e+01  -8.308854e+01
   9.454529e+01  -3.567409e+00
   4.259846e+01   4.124511e+01
  -2.272574e+01   1.246084e+02
  -4.053793e+01   4.332422e+01
  -9.636650e+01  -4.837221e+01
  -1.579284e+01  -9.069279e+01
   3.714906e+00  -7.298287e+01
   4.901595e+00   7.399456e+00
   9.986547e+00   1.928737e+01
   1.456031e+01   2.654700e+01
  -4.443164e+00  -6.111919e+00
   1.208088e+01   1.292376e+01
   6.288227e+01   5.040373e+01
   2.305344e+01   7.148593e+01
  -2.279279e+01   2.389310e+01
  -1.006701e+02  -5.361521e+01
  -9.315485e+01  -4.880297e+01
  -5.090459e+00  -4.629958e+01
   5.193423e+01   8.899939e+00
   7.399643e+01  -4.739922e+00
   7.973793e+00  -1.908101e+01
  -1.934939e+01  -7.135050e+00
  -1.355956e+01   3.794099e-02
   2.544729e+01   2.025423e-01
   1.423968e+01   2.743721e+01
  -2.550763e+01  -5.281983e+00
  -4.219275e+01  -4.386711e+01
  -3.185398e+01  -5.411100e+01
   7.922071e+01  -9.341157e+01
   9.886923e+01  -2.982887e+01
   9.504416e+01   1.374068e+01
   1.932898e+01   7.998160e+01
  -7.843487e+01   9.612092e+01
  -4.359041e+01   2.252646e-02
  -4.047771e+01  -1.100595e+01
  -1.290109e+01  -2.097653e+01
  -1.355229e+01  -9.928293e+00
  -1.214003e+01   1.617145e+01
   1.247353e+01  -4.871019e+01
  -3.903218e+00  -7.586710e+01
   2.029982e+01  -3.746238e+01
  -1.136922e+01   3.993879e+00
   2.172676e+01   8.362612e+01
   1.790787e+01   4.840449e+01
  -5.199330e+01  -9.712317e-02
  -6.374921e+01  -4.285636e+01
  -1.461714e+01  -5.822031e+01
   4.642253e+01  -4.430042e+01
   6.156878e+01   9.431245e+00
   6.325069e+00   3.288319e+01
  -2.321393e+00   2.379612e+01
   3.810013e+00   2.442189e+01
   8.184214e+00   1.764301e+00
   3.923250e+01  -3.834384e+00
   3.790525e+01  -1.140484e+01
  -3.156655e+01   5.692463e+01
  -7.641652e+01  -1.082748e+01
  -6.253040e+01   7.924850e+00
  -8.513639e+00  -5.552674e+01
   4.038740e+01   4.548070e+00
   4.484129e+01   1.753325e+01
  -2.948552e+01   2.539258e+01
  -3.103064e+00   2.795591e+01
  -5.485317e+01  -1.290498e+01
  -3.735812e+01  -2.687174e+01
  -8.701428e+00  -1.057856e+01
   1.570343e+01   1.228119e+01
   5.712351e+00   1.606456e+01
  -1.063209e+01  -1.418657e+00
  -7.980815e+00  -1.829057e+01
  -3.116438e+00  -7.005609e+00
   5.940455e+00   2.961880e+01
  -2.021959e+01   1.543904e+01
  -3.791264e+00  -1.209206e+00
  -9.769439e+00  -3.218097e+01
   1.586632e+01  -4.196521e+01
   1.490448e+01  -4.570641e+01
   2.930724e+01   2.145909e+01
   1.788971e+01   1.856719e+01
  -4.250328e+01   8.380779e+00
  -3.660103e+01  -1.538446e+01
  -4.706581e+01  -3.424702e+01
   2.750882e-01   7.578491e+00
   1.104339e+01   7.226021e+00
   1.680447e+00  -3.841494e+00
  -1.776794e+01   7.868810e+00
   1.153467e+01   6.328222e+00
   1.457090e+01   1.364086e+01
   4.359625e+01   2.838953e+01
