
 $NMID
 id='ANONYMOUS ', fmtdat='(2E16.6)'
 volume=1.0
 tramp=1.0
 $END
  -2.362924e+03  -5.241058e+01
  -1.381916e+03  -9.796825e+02
  -7.702925e+01  -1.621510e+03
   1.059959e+03  -1.159925e+03
   8.214706e+02  -2.928104e+02
   9.941965e+01   1.785416e+02
  -1.721430e+02  -5.920326e+01
  -5.863128e+01  -3.072886e+02
   2.697946e+02  -4.246619e+02
   4.067023e+02  -1.505426e+02
   3.301329e+02   2.646944e+02
   1.192389e+02   4.049676e+02
  -2.087099e+02   1.440339e+02
  -1.506770e+02  -2.699138e+02
   3.395275e+01  -3.794804e+02
   2.835630e+02  -8.472507e+01
   2.881380e+02   4.255208e+02
  -1.279148e+02   5.984969e+02
  -4.438546e+02   2.166445e+02
  -2.907436e+02  -1.471169e+02
  -1.161390e+02  -2.630766e+02
   1.098186e+02  -1.726548e+02
   6.971657e+01  -9.213542e+01
  -1.586676e+02  -1.018784e+02
  -2.242393e+02  -2.944244e+02
   7.990744e+01  -3.382806e+02
   3.956092e+02  -7.489097e+01
   3.150120e+02   2.969197e+02
   1.366578e+02   3.250955e+02
  -2.595227e+02   4.359140e+01
  -3.812328e+02  -1.539520e+02
  -7.152123e+01  -2.793664e+02
   2.559008e+02  -2.539053e+02
   3.334930e+02  -3.393248e+01
   2.537522e+02   1.376528e+02
   1.221311e+02   2.591619e+02
   5.579340e+00   1.129129e+02
   6.393406e+01  -2.534032e+01
   1.863542e+02  -5.052252e+01
   1.283594e+02   9.866519e+01
  -2.815065e+01   3.759570e+02
  -2.741470e+02   3.063913e+02
  -1.057822e+02  -3.446665e+01
  -8.530736e+00  -2.593646e+02
   1.195988e+02  -6.797236e+01
   1.478035e+02   2.717191e+02
  -1.682653e+02   3.345657e+02
  -3.091975e+02  -3.157449e+01
  -3.630968e+02  -3.827319e+02
  -1.593689e+02  -3.530067e+02
   2.651539e+02  -2.268819e+02
   4.136714e+02   4.108262e+01
   2.646770e+02   2.236561e+02
  -6.730703e+01   1.613631e+02
  -2.338816e+02   2.634812e+00
  -1.645824e+02  -4.846204e+00
  -2.054108e+01  -2.341011e+00
   4.076580e+01   3.705744e+01
  -1.220867e+02   2.241247e+01
  -1.577974e+02  -7.260443e+01
  -1.006155e+02  -1.507356e+02
   1.160139e+02  -1.521931e+02
   2.948409e+02  -7.296056e+01
   2.514349e+02   9.255436e+01
  -7.103028e+01   2.979855e+02
  -1.936183e+02   3.051536e+02
  -3.523946e+02   1.433073e+02
  -1.283425e+02  -1.707837e+02
   1.457939e+01  -2.327466e+02
  -1.217053e+00  -1.459270e+02
   1.090097e+01  -1.638761e+02
   1.257513e+01  -1.343043e+02
   1.306774e+02  -1.507078e+02
   2.285553e+02   1.027304e+01
   1.663140e+02   1.609417e+02
   4.502887e+01   2.580996e+02
  -9.845573e+01   1.366102e+02
  -1.441435e+02  -6.095381e+01
  -9.545870e+01  -1.765886e+02
   7.768547e+01  -1.800378e+02
   2.267150e+02   5.876577e-01
   2.302815e+02   1.247075e+02
   9.640766e+01   2.393106e+02
  -1.912968e+01   2.087125e+02
  -1.343471e+02   9.646700e+01
  -8.374226e+01   7.824890e+01
  -1.704820e+02   6.625567e+01
  -2.106322e+02   2.954428e+01
  -2.849602e+02  -7.227975e+01
  -1.775661e+02  -3.017564e+02
   2.350042e+01  -3.462845e+02
   2.589716e+02  -2.596506e+02
   4.410417e+02  -1.439739e+02
   2.163592e+02   8.944731e+01
   1.453247e+01   2.035055e+02
  -8.387917e+01   1.433138e+02
   7.043281e-01   4.211661e+01
   1.176301e+02  -2.992880e+01
   6.886079e+01   4.823743e+01
  -9.684301e+00   1.265918e+02
  -5.609322e+01   1.164668e+02
  -4.198024e+01  -2.356925e+01
   2.317984e+01  -9.035479e+01
   1.218480e+02  -2.275439e+00
   6.198808e+01   1.862426e+02
  -3.251822e+01   2.786642e+02
  -2.072983e+02   1.874631e+02
  -2.797623e+02  -8.861528e+01
  -2.206988e+02  -2.527880e+02
  -1.377162e+01  -2.325430e+02
   1.126771e+02  -8.663334e+01
   1.121864e+02   1.186594e+01
   4.012307e+01   1.124951e+01
  -3.069551e+01  -5.920300e+01
   1.998198e+01  -8.113117e+01
   1.257935e+02  -5.639747e+01
   9.228295e+01   1.349794e+01
   1.461629e+01   4.471764e+01
  -5.636462e+01  -8.560669e+00
  -3.627541e+01  -5.578947e+01
   1.215935e+02  -8.975272e+00
   2.375591e+02   5.629335e+01
   1.916406e+02   1.732917e+02
  -2.521355e+01   2.336369e+02
  -1.539809e+02   1.578589e+02
  -2.319981e+02   6.408796e+01
  -1.074648e+02  -3.143478e+01
   3.025208e+01  -1.021853e+02
   4.327547e+01   8.209294e-01
  -3.129873e+01   5.931795e+01
  -1.656524e+02   4.252060e+01
  -1.464760e+02  -6.835709e+01
   1.947542e+00  -1.424051e+02
   9.073641e+01  -8.233693e+01
   1.145413e+02  -2.212731e+01
   1.282545e+01   3.533179e+01
  -4.249274e+01  -1.659719e+01
  -1.971167e+01  -1.091040e+02
   8.758020e+01  -6.218407e+01
   2.232965e+02   2.360936e+01
   1.531072e+02   5.655770e+01
  -3.045118e+01   1.900217e+02
  -1.100853e+02   1.007562e+02
  -1.582674e+02   9.208994e+00
  -6.372229e+01  -8.664520e+01
   7.010895e+01  -7.524050e+01
   3.983645e+01  -4.610731e+01
  -2.739133e+00   3.422227e+00
  -4.355894e+01   1.921530e+01
   6.979581e+00   3.417687e+00
   7.814336e+01  -2.368952e+01
   9.062542e+01   1.021004e+02
  -2.442614e+01   1.573476e+02
  -1.400780e+02   8.775670e+01
  -2.163687e+02  -7.783524e+00
  -9.982595e+01  -1.404448e+02
  -1.782258e+00  -1.957625e+02
   1.048810e+02  -1.235993e+02
   9.929342e+01  -2.256570e+01
   6.635546e+01   1.666962e+01
   4.017026e+01   3.835770e+01
   6.240683e+01  -1.960023e+01
   5.566446e+01  -2.235232e+01
   4.915732e+01   2.906621e+01
   1.567298e+00   9.538248e+01
  -9.949187e+01   7.689842e+01
  -1.031084e+02  -3.432293e+01
   2.518305e+01  -8.895012e+01
   1.337625e+02  -4.745212e+01
   1.471392e+02   2.412018e+01
   5.259236e+01   2.067158e+02
  -1.512271e+02   1.482647e+02
  -1.801640e+02   7.051748e+01
  -1.933629e+02  -6.144957e+01
  -1.949538e+01  -1.342427e+02
   3.129033e+01  -1.406556e+02
   8.342881e+01  -7.886605e+01
   5.285441e+01  -5.134200e+01
   3.013108e+01  -8.713988e+01
   4.991770e+01  -5.337637e+01
   1.017098e+02   3.323609e+00
   7.598504e+01   1.225459e+02
   1.098026e+01   1.967587e+02
  -4.367461e+01   1.108079e+02
  -1.264090e+02   2.843750e+01
  -1.020471e+02  -6.607058e+01
  -1.845097e+01  -9.589229e+01
   2.999934e+01  -7.698496e+01
   3.869033e+01   2.598306e+01
  -8.230914e+00   4.193901e+01
  -4.571158e+01   2.392408e+01
   4.018849e+01   3.139570e+01
   5.062810e+01   1.198861e+01
   3.811097e+01   3.646611e+01
  -1.086853e+02   6.511626e+00
  -1.730283e+02  -2.258617e+01
  -9.371528e+01  -7.314412e+01
   2.593485e+01  -9.850249e+01
   1.084191e+02  -5.688440e+01
   1.316402e+02   1.140182e+01
   2.477680e+01   5.377181e+01
  -4.840524e+01   1.687354e+01
  -9.783607e+01  -3.731950e+01
  -2.483917e+01  -6.083202e+01
   3.515580e+01  -4.918290e+01
   4.445147e+01   3.455404e+00
   5.958094e+01   2.969191e+01
   5.831624e+01   1.572563e+00
   3.346412e+01  -3.376513e-01
   4.508775e+01   1.309135e+00
   2.553886e+01   9.266357e+01
  -1.573930e+01   1.387832e+02
  -7.569137e+01   1.410816e+02
  -1.284613e+02   2.377280e+01
  -1.142556e+02  -1.113784e+02
   1.191408e+01  -9.617221e+01
   7.002864e+01  -6.379053e+01
   6.303909e+01   1.198484e+01
  -5.206530e+01   8.029702e+00
  -7.676382e+01   6.995955e+00
  -5.291813e+01  -7.517212e+01
   9.135862e+01  -6.740956e+01
   1.653907e+02  -2.825316e+01
   1.357086e+02   8.221527e+00
   9.966146e+00   5.306137e+01
  -6.071843e+01   7.119906e+01
  -6.027681e+01   6.085272e+00
   4.609841e+01  -2.624559e+01
   8.400461e+01   2.207536e+01
   5.160271e+01   1.178809e+02
  -9.570972e+01   1.218065e+02
  -1.057695e+02   3.105294e+01
  -1.259854e+02  -8.868852e+01
   2.233009e+00  -1.772481e+02
   4.352915e+01  -1.149062e+02
   9.791169e+01   3.061589e+01
   6.398487e+01   9.584914e+01
  -2.145998e+01   1.250588e+02
  -5.466811e+01   7.432128e+00
  -2.466502e+01  -3.660844e+01
  -2.286358e+01   1.575483e+00
   2.844636e+00   3.241098e+00
  -4.318639e+01  -9.550889e+00
  -5.620946e+01  -6.906803e+01
  -4.032597e+00  -9.485548e+01
   6.101158e+01  -5.919241e+01
   1.207139e+02   1.869922e+01
   1.061506e+02   4.234064e+01
   9.252846e+00   5.197439e+01
  -6.491763e+01   3.295119e+01
  -8.108401e+01   1.678541e+01
   1.578710e+01   5.015307e-01
   3.566943e+01  -1.865611e+01
   1.521323e+01  -2.050110e+01
   2.327189e+01   1.253988e+01
   4.323452e+00  -3.012444e+00
   5.912370e+01   7.015413e+00
   6.030840e+01   3.929699e+01
   3.113483e+01   4.445417e+01
  -8.591198e+01   1.175864e+02
  -1.240244e+02   4.599634e+01
  -1.373500e+02  -3.417032e+01
  -1.692902e+01  -1.464188e+02
   7.457602e+01  -1.272531e+02
   1.003794e+02  -3.725445e+01
   3.968645e+01   1.842327e+01
   3.708238e+01   3.647909e+01
   4.358261e+01   9.314489e+00
   2.191432e+01   9.636482e+00
   4.615854e+01   6.194536e+01
   2.624367e+01   8.369303e+01
  -3.350299e+01   6.960828e+01
  -7.971885e+01   8.673170e+00
  -8.274469e+01  -8.473709e+01
  -1.079012e+01  -1.139803e+02
   6.755331e+01  -4.184226e+01
   1.009900e+02   7.752975e+01
   4.855763e+01   8.504838e+01
  -6.826377e+01   5.734991e+01
  -8.024923e+01  -4.188431e+00
  -2.437878e+01  -6.195325e+01
   8.318952e+00  -5.745035e+01
   3.248861e+01  -3.962280e+00
  -2.469015e+01   1.604741e+01
  -5.500431e+01  -3.787246e+01
  -3.309550e+01  -9.873399e+00
   6.628385e+01  -7.136680e+01
   9.868470e+01  -3.053259e+01
   7.422686e+01   1.210403e+01
  -2.323145e+01   8.342280e+01
  -5.574267e+01   7.221044e+01
  -3.122620e+01   3.442237e+00
   1.751033e+00  -5.076372e+01
   2.266044e+01  -2.245575e+01
   5.718995e+01   1.362059e+01
   1.408942e+01   4.634190e+01
   2.763452e+01   2.244492e+01
  -5.196976e+01   8.172353e-01
  -5.398664e+01  -3.882919e+01
  -4.888683e+01  -1.600040e+01
   1.864389e+01   3.930740e+01
   6.996239e+00   3.347362e+01
  -1.838861e+01  -3.591352e+01
  -1.162528e+01  -2.984470e+01
   9.561735e+00  -1.800700e+01
   2.527697e+01   6.199915e+01
   1.012887e+01   4.673417e+01
  -7.857765e+00   1.445914e+01
  -3.776766e+01   1.541325e+01
  -3.376238e+01  -4.384767e+01
   5.066256e+01  -2.285694e+01
   1.010722e+02   1.210188e+01
   2.765821e+01   2.699457e+01
  -3.149117e+01   2.621762e+01
  -6.514922e+01   3.713144e+01
  -3.527278e+01   8.207949e+00
   5.009292e+01  -7.568681e+00
   4.061844e+01   1.163477e+00
  -1.008791e+01  -2.876361e+00
  -6.635941e+01   1.160025e+01
