
 $NMID
 id='ANONYMOUS ', fmtdat='(2E16.6)'
 volume=1.0
 tramp=1.0
 $END
  -2.909590e+02   1.551036e+02
  -7.801205e+02   2.151665e+01
  -2.188773e+02  -4.419129e+02
  -1.752817e+02  -2.701232e+02
   3.018019e+02  -2.763950e+02
   1.903757e+02  -6.551847e+00
  -5.899396e+01   1.262494e+02
  -9.791042e+01   5.739792e+01
  -6.415732e+01  -1.215094e+02
   1.369804e+02  -9.211788e+01
   1.098350e+02   6.793184e+01
   1.568827e+01   3.374615e+01
   3.905076e+01   6.493565e+01
  -1.140489e+02  -1.731937e+01
  -4.477009e+01  -2.026937e+01
   3.529831e+01   5.360922e+01
   9.140706e+01  -2.435230e+01
   2.358341e+01   1.058580e+02
  -2.960933e+01   8.947527e+01
  -1.836279e+02  -1.553129e+01
  -4.543139e+01  -5.769653e+01
   2.040736e+01  -1.001473e+02
  -3.422269e+01  -2.652924e+01
  -1.865041e+01  -4.304627e+01
  -4.056721e+01  -1.057553e+02
   6.353008e+01  -9.571194e+01
   1.375024e+02   5.132996e+00
   1.402577e+02   2.951790e+01
   3.925275e+01   4.695008e+01
  -6.560214e+00  -2.028250e+01
  -3.593089e+01  -9.971594e+00
   7.881470e+01  -6.230352e+01
  -5.373026e+00  -6.558424e+01
   9.348770e+01  -2.111326e+01
   8.308006e+01   5.421776e+00
   2.724661e+01  -3.570143e+01
   8.487508e+01   2.444556e+01
   6.967055e+01   1.859072e+01
  -1.946378e+01  -7.832936e+00
   3.176934e+01   4.870850e+01
   1.082405e+02   4.794687e+01
  -5.508245e+01   1.116247e+02
  -4.367349e+01   1.727044e+01
  -3.260344e+01  -1.261561e+01
   5.369750e+00  -4.838119e+01
  -9.053511e+00  -2.682456e+01
  -1.743912e+00   7.756279e+01
  -6.126444e+01   2.787317e+00
  -1.014939e+02  -8.234112e+01
  -8.533696e+01  -4.726181e+01
   1.370282e+01  -5.082065e+01
   3.718552e+00   5.197084e+00
   1.130118e+02  -7.739882e+00
   1.769981e+01   3.928773e+01
  -3.409951e+01   9.274112e+01
  -6.332849e+01   5.308258e+01
  -2.816794e+01  -1.182011e+01
   9.748138e+00  -8.822899e+00
   7.290793e+00  -4.062109e+01
  -3.724437e+01   5.238873e+01
  -6.346537e+01  -1.075963e+01
  -2.873663e+00  -2.338399e+01
   8.472776e+01  -3.849081e+01
   8.516764e+01   2.596212e+01
   2.756313e+01   1.037162e+02
  -3.117184e+01   9.010770e+01
  -4.544975e+01   5.990991e+01
  -5.994307e+01  -3.822627e+01
  -6.913859e+01  -1.008682e+02
   3.144386e+01  -8.075378e+01
  -3.522798e+01  -5.415157e+01
   4.853729e+00  -5.625734e+01
   4.812143e+00  -5.578094e+01
   6.280241e+01   2.024176e+01
   7.611082e+01   6.060949e+01
   3.284223e+01   4.227554e+01
  -8.495537e+00   3.629059e+01
  -2.461051e+01   2.984511e+00
  -6.016130e+01  -1.447462e+01
  -1.321319e+01  -9.223280e+00
   5.347884e+01  -5.673428e+00
   2.782436e+01   1.004419e+00
   5.147363e+01   5.543082e+01
   4.939861e+01   3.080834e+01
  -1.908288e+00   1.368928e+01
  -1.649364e+01   3.499554e+01
  -2.030998e+01   3.793999e+01
  -3.880806e+01  -8.675242e+00
  -1.284246e+02   1.929670e+01
  -6.671885e+01  -6.082706e+01
  -3.016196e+01  -1.098226e+02
   1.031840e+02  -1.072264e+02
   2.850223e+01  -1.512023e+02
   1.080160e+02   1.071814e+01
   2.066589e+01   3.104157e+01
   3.339326e+01   3.107037e+01
   1.223683e+01   7.980475e+00
   3.220942e+01   1.654904e+00
   4.512306e+01   2.383620e+01
  -5.418779e+00   4.573955e+00
   1.142805e+01   2.742284e+01
  -4.576860e+01  -2.584274e+01
  -2.063435e+01  -8.352731e+00
   2.987572e+01  -6.187081e-01
   2.110313e+01   3.846245e+01
   7.455436e+00   1.064031e+02
  -7.051878e+01   1.091928e+02
  -9.979544e+01  -7.745650e+00
  -9.924742e+01   5.417065e+00
  -4.350860e+00  -5.519417e+01
   4.743947e+01  -3.683780e+01
   1.884669e+00   1.417755e+01
  -9.749939e+00  -2.513045e+01
   2.010396e+00   2.497491e+00
  -6.912582e-01  -4.935903e+01
  -1.204772e+01  -1.534714e+01
   4.410473e+01  -1.831582e-02
   1.705584e+01   2.348274e+00
  -5.875307e+01  -9.594701e+00
  -2.982745e+01  -2.523744e+01
   4.920248e+01  -4.017440e+01
   5.357864e+01  -5.703169e-01
   1.127826e+02   8.992368e+00
   2.364486e+01   9.498871e+01
  -7.136665e+01   8.589023e+01
  -2.670077e+01   8.728345e+01
  -4.462033e+01  -1.121882e+01
   3.726544e+01   7.039741e+00
   4.017567e+01  -2.831657e+01
  -8.835132e+00   4.793766e+01
  -2.781480e+01   3.029434e+01
  -1.967909e+01   1.290803e+01
  -5.407787e+01  -4.090928e+01
   1.922916e+01  -3.181903e+01
   3.360605e+01  -1.026116e+01
   2.641002e+01   1.887693e+01
  -2.657209e+00  -1.233270e+01
   1.809020e+01  -2.161711e+01
   5.466726e+01  -2.179344e+01
   6.987201e+01  -9.764460e+00
   6.908470e+01   3.539579e+01
   2.108316e+01   2.424233e+01
  -3.678987e+01   2.816043e+01
  -5.279345e+01  -7.465995e-01
  -2.125372e+01   1.457009e+01
   2.072628e+01  -2.609446e+01
   1.220052e+01   1.944735e-01
   2.459790e+01   1.810654e+01
  -1.543446e+01  -1.776922e+01
  -6.309117e+00  -7.111516e+00
   2.413727e+01   1.687800e+01
  -8.753582e-01   9.079506e-01
   3.096599e+01   2.563015e+01
  -2.004253e+01   6.586347e+01
  -3.604435e+01   3.033479e+01
  -7.067170e+01  -3.521823e+01
  -4.602333e+01  -9.864194e+01
   1.882794e+01  -3.712171e+01
   1.417555e+01  -3.034989e+01
   1.942022e+01  -6.069105e+00
   1.471050e+01  -3.518803e+00
   7.858202e+00  -1.331451e+01
   3.091741e+01  -1.947818e+01
   6.814170e+00   1.787204e+00
  -4.630277e+00   1.627719e+01
  -2.397545e+01   4.769106e+01
  -6.239330e+01   2.823676e+01
  -4.066785e+01  -7.502498e+01
   6.207403e+01  -1.726953e+01
   5.795937e+01   6.829954e+00
   2.030107e+01   3.214013e+01
  -4.130809e+01   3.246888e+01
  -3.085572e+01   2.691146e+01
  -4.181149e+01   7.866550e+00
  -5.991371e+01  -6.362368e+01
   2.783173e+01  -3.244975e+01
   1.648673e+01  -1.060582e+01
   1.268044e+01  -4.206636e+01
  -2.140922e+01  -3.897307e+01
   2.712120e+00  -1.640917e+01
   2.045073e+01  -3.987363e+00
   3.432682e+01   3.153897e+01
   4.971745e+01   1.182678e+01
  -1.441433e+01   4.585801e+01
  -1.754161e+01   3.629015e+01
  -5.268099e+01  -2.787898e+01
   3.010037e+01  -3.873511e+01
   4.948325e+01  -2.547906e+01
  -1.430124e+00  -3.032087e+00
  -2.079934e+01   1.623968e+01
   5.368452e-01  -9.866822e+00
   1.577490e+01  -5.641915e+00
   3.961864e+01  -2.310528e+01
   4.331812e+00  -6.943208e+00
  -8.459913e+00   2.332090e+00
  -4.792785e+01   7.113383e+00
  -6.734665e+01  -2.794225e+01
   1.506194e+01  -1.956200e+01
   7.650130e+01  -2.852903e+01
   2.802760e+01  -3.881134e+00
   2.374213e+01   1.865677e+00
   5.039997e+00   1.167752e+00
  -2.638879e+01  -3.481061e-01
  -2.385867e+01  -3.671734e+01
  -7.282789e+00  -2.331847e+01
   3.011247e+01   3.146489e+00
  -4.643343e+00   1.314986e+01
   1.417036e+01   2.809912e+00
  -1.656986e+01   8.766644e-01
   2.015253e+01  -3.247359e-02
   6.764394e+00   4.767534e+00
   2.591038e+01   4.766440e+01
   3.065899e+00   2.635696e+01
  -4.817935e+01  -7.229994e+00
  -1.962631e+01  -5.191837e+00
   4.439130e+00   1.004342e+01
  -1.502091e+01  -6.191615e+00
   2.456517e+00   1.067387e+01
  -3.429005e+01   2.218910e+01
  -4.796603e+01  -4.259955e+01
  -1.535959e+01  -2.905130e+01
   2.333962e+01  -3.160128e+01
   4.099923e+01  -4.031759e+01
   8.093507e+00   1.266899e+01
   2.020200e+00   2.135812e+01
   7.235782e-01   2.160839e+01
  -3.024038e+01   1.297445e+01
   4.050216e+00  -1.962710e+01
   4.530850e+00  -2.170980e+01
   2.046152e+01   2.842631e+01
   8.447553e+00   6.365893e+01
  -2.510602e+01   1.070748e+01
  -3.396611e+01  -1.566353e+01
  -4.659331e+00  -2.312365e+01
  -2.725265e+01  -9.871805e+00
   2.939445e+01   1.440147e+01
   2.778744e+01   2.031029e+01
  -9.075364e+00  -7.275608e+00
  -7.457895e-01   8.358589e+00
   1.028132e+01   1.903511e-01
   2.163982e+01  -2.130343e+00
   1.042364e+01   6.198573e+00
  -6.863099e+00  -3.611887e+01
  -3.439453e+01   4.594835e+00
  -2.083817e+01  -1.346973e+01
  -2.043488e+00   7.269548e+00
   1.780312e+01  -2.226224e+00
   4.252866e+01  -3.030650e+00
  -2.863006e+01   4.365879e+00
  -1.216440e+00   3.634250e+01
  -3.203543e+00   1.772401e+01
  -1.511196e+00  -1.081370e+01
   1.548317e+01   6.384392e+00
   3.639092e+01   8.570865e+00
  -3.110750e+01   2.640768e+01
  -3.461878e+01   1.512939e+01
   1.946223e+01   1.142173e+01
   1.976374e+01  -1.492347e+01
   2.570927e+01   7.115175e+00
  -2.725584e+01   1.633498e+01
  -3.653002e+01   8.418133e+00
  -1.176052e+01   2.734997e+01
  -3.697213e+01  -5.083637e+01
   1.422526e+01  -3.583639e+01
   1.787599e+01  -3.546248e+01
   4.948758e+00  -4.624077e+00
   1.294836e+01   1.489592e+01
   2.131658e+01  -2.480063e+01
   2.172143e+01   6.915630e+00
   1.117471e+01   1.548314e+01
  -3.289295e+00   9.500038e+00
  -2.724668e+01   1.198401e+01
  -1.615800e+01   2.136071e+00
  -1.794016e+01  -4.611122e+01
  -2.820751e+00  -1.122397e+01
  -3.024575e+00   5.539185e+00
   1.995567e-01  -2.541482e+01
   3.440017e+01   2.884750e-01
   7.958582e+00   4.524846e+01
  -3.419658e+01   1.059564e+01
  -7.926940e+00  -3.200856e+01
  -1.143855e+01  -2.854650e+01
   3.445004e+01  -1.743453e+01
  -1.706658e+01  -2.202470e+01
  -3.455887e+00   2.660862e+01
   4.215305e+00   1.208319e+01
  -1.400648e+01  -3.942804e+01
   1.607645e+01  -1.416477e+01
   6.863769e+00   1.563904e+01
   2.826456e+00   2.934169e+01
   1.949412e+01  -9.909982e+00
  -4.762103e+00  -1.709853e+01
  -4.408162e+01  -1.219249e+01
   1.297034e+01   1.836119e+01
   9.572747e+00   7.540121e-01
   3.214547e+01  -3.113055e+01
   1.550442e+01   1.822591e+01
  -1.672180e+01   2.161646e+01
  -4.025048e+01  -4.027714e+00
   7.804157e+00  -1.721811e+01
  -1.715758e+00  -3.087374e+01
  -5.900145e+00  -2.907131e+01
   1.571057e+01  -1.141155e+01
  -2.878975e+01  -2.204702e+01
  -8.034842e+00  -5.348831e+00
   1.579772e+00  -1.685403e+00
  -1.669750e+00   1.269458e+01
  -1.210436e+01   2.415038e+01
  -1.060401e+01   6.070645e+00
  -2.175941e+01  -3.777113e+01
   2.107425e+01  -1.763651e+01
   3.061620e+00  -3.910086e+00
   2.045864e+01  -1.568644e+01
  -7.563540e+00   3.412988e+01
  -5.802924e+00   3.803919e+01
  -3.296241e+01   1.143617e+01
   3.640729e+00  -1.020023e+01
  -1.354169e+00  -2.487829e+01
   1.592163e+01   1.835069e+01
  -2.178577e+01   6.204223e+00
