
 $NMID
 id='ANONYMOUS ', fmtdat='(2E16.6)'
 volume=1.0
 tramp=1.0
 $END
   2.108911e+03  -7.015252e+01
   8.363668e+02   1.240137e+03
  -8.500664e+02   1.067979e+03
  -8.702771e+02   5.811594e+02
  -1.859512e+02  -3.317359e+02
   2.348350e+02  -1.914008e+02
   2.556667e+02   2.234384e+02
  -1.808336e+02   4.865153e+02
  -3.140196e+02   4.938820e+02
  -3.273706e+02  -1.577762e+02
  -6.353982e+01  -3.811990e+02
   1.169824e+02  -4.638479e+02
   1.858464e+02   3.131228e+00
   1.396994e+02   2.723258e+02
  -1.330338e+02   2.897587e+02
  -2.615538e+02  -7.826668e+01
  -8.296268e+01  -2.430859e+02
   1.358313e+02  -2.340265e+02
   2.095590e+02  -3.740885e+01
   1.006686e+02   1.475257e+02
  -1.845756e+01   2.321632e+02
  -1.067337e+02   1.023402e+02
  -3.926675e+01   2.640528e+01
   9.680477e+01  -1.438555e+01
   2.002610e+02   1.235916e+02
   4.450035e+01   1.590917e+02
  -2.605384e+02   1.346657e+02
  -2.962034e+02  -4.565629e+01
  -1.015790e+02  -2.158836e+02
   1.782861e+02  -2.759560e+02
   3.898282e+02  -9.831217e+00
   1.544240e+02   3.031301e+02
  -1.811086e+02   2.343573e+02
  -2.236068e+02   6.870784e+01
  -1.105872e+02  -1.161457e+02
  -4.635672e+01  -2.039051e+02
   8.617547e+01  -9.704792e+01
   1.110214e+02   1.592884e+02
  -7.801857e+01   1.870144e+02
  -2.017381e+02  -5.860753e+01
  -6.934730e+01  -3.130579e+02
   1.404548e+02  -2.506956e+02
   2.781262e+02   1.243306e+01
   1.581852e+02   2.631047e+02
  -9.367003e+01   5.672762e+01
  -1.833063e+02  -1.637698e+02
   1.135528e+02  -2.257926e+02
   2.907038e+02  -7.785102e+00
   2.365375e+02   2.657858e+02
   3.199242e+01   2.045962e+02
  -2.001806e+02   9.640852e+01
  -2.697256e+02  -1.339951e+02
  -1.187205e+02  -1.739694e+02
   1.165847e+02  -1.097950e+02
   2.005892e+02  -8.110282e+00
   7.781496e+01   7.260938e+01
  -8.297928e+00   4.830484e+01
  -1.684158e+01  -3.893198e+01
   8.239855e+01  -8.035273e+01
   1.301209e+02   5.618431e+01
   3.473030e+01   1.173158e+02
  -8.509453e+01   1.014749e+02
  -1.484988e+02   8.094226e+00
  -5.209044e+01  -4.304547e+01
  -3.252282e+01  -1.175968e+02
   8.947291e+01  -2.079624e+02
   1.700786e+02  -1.412639e+02
   1.023495e+02   8.269814e+01
  -6.483709e+01   1.528795e+02
  -7.004457e+01   1.428042e+02
  -1.296739e+01   2.745882e+01
   1.700368e+01  -8.217987e+00
   1.323284e+01   5.614770e+01
  -1.395941e+02   2.981188e+01
  -1.155939e+02  -2.415510e+01
  -3.769547e+01  -1.782250e+02
   2.499630e+01  -1.131070e+02
   9.134000e+01  -1.115545e+01
   6.553788e+01   1.261180e+02
   1.734111e+01   1.711045e+02
  -1.365490e+02   2.424220e+01
  -2.004026e+02  -4.188716e+01
  -3.816117e+00  -1.919971e+02
   5.770125e+01  -1.234746e+02
   7.712117e+01  -3.901897e+01
   5.293759e+01  -2.399232e+01
   4.139188e+01  -1.426023e+01
   1.138694e+02  -5.160247e+01
   1.903472e+02   5.818489e+01
   6.770263e+01   1.424616e+02
  -1.764847e+01   1.667820e+02
  -1.923297e+02   1.421433e+02
  -2.037741e+02   6.323251e+01
  -1.503000e+02  -7.058327e+01
  -2.936344e+01  -1.158185e+02
   8.413240e+01  -1.096775e+02
   6.421890e+01   2.068825e+01
  -8.162807e+01   7.180941e+01
  -9.357975e+01   8.127824e+00
  -6.647942e+01  -8.276619e+01
   1.068212e+02  -6.282549e+01
   7.897494e+01   5.094465e+01
   7.141591e+00   4.576778e+01
  -8.562629e+01  -2.656997e+01
  -5.836242e+01  -1.062897e+02
   6.441101e+01  -1.389480e+02
   8.217771e+01  -1.287322e+01
   1.430401e+02   7.284535e+01
   1.227013e+02   9.490224e+01
  -4.526880e+01   1.370952e+02
  -3.862061e+01   3.046251e+01
  -5.087108e+01   3.624157e-01
  -4.924767e+01  -1.758779e+01
   2.685848e+01   4.632759e+01
   2.713934e+01   7.288694e+01
  -6.396112e+01   1.786601e+01
  -6.726416e+01  -2.847218e+01
   3.048257e+01  -4.490578e+01
   8.815983e+00   3.626470e+00
  -3.085572e+00   4.799094e+01
  -6.144271e+01   4.683926e+01
  -9.492195e+01   2.097628e+01
  -1.227696e+02  -3.244049e+01
  -2.531283e+00  -1.093985e+02
   6.376269e+01  -6.495293e+01
   1.525190e+02  -2.783002e+01
   8.180851e+01   3.969102e+01
   1.723679e+01   5.306881e+01
  -6.420547e+01   6.207348e+00
   5.445032e+01  -5.310771e+01
   9.047204e+01  -5.604133e+01
   1.154334e+02   7.040660e+01
   2.951003e+01   7.751528e+01
  -4.039855e+01   1.163548e+02
  -8.393640e+01   1.044895e+01
  -2.906158e+01  -3.951849e+01
   1.929956e+01   1.658467e+00
  -4.867006e+00   3.435006e+01
  -5.712680e+01   2.086531e+00
  -7.364597e+01  -3.566276e+00
  -9.035695e+01  -6.674983e+01
   2.303143e+01  -9.522282e+01
   9.563734e+01  -8.444989e+01
   5.413251e+01  -3.115923e+01
   3.880417e+01   3.645439e+01
  -1.056586e+01   4.068329e+01
  -4.163298e+01   1.101284e+01
  -1.781864e+01  -2.525041e+01
  -1.301554e-01  -2.249124e+01
   7.902928e+00  -1.566226e+01
  -5.319341e+00  -3.609521e+01
  -1.837543e+01  -4.260307e+01
  -1.169290e+01  -7.262279e+01
   6.857371e+01  -8.499387e+01
   1.114939e+02   2.223347e+01
   3.679739e+01   3.582140e+01
  -3.657254e+01   9.317859e+01
  -3.705791e+01   3.506370e+01
  -5.137303e+01   2.750282e+00
   4.513523e+00  -4.250046e+01
   1.665542e+00  -2.524191e+01
  -1.477647e+01   8.149766e+00
   1.302022e+00  -1.160690e+01
  -3.262219e+01  -4.673627e+01
  -6.406825e+00  -9.416885e+00
   1.099402e+01  -2.087890e+01
   1.365637e+01   1.217642e+01
  -1.043137e+00   3.078461e+01
  -3.667174e+01   5.097045e-02
  -7.606745e+01  -5.820857e+00
  -3.615159e+01  -1.172580e+02
   2.413319e+01  -1.117383e+02
   1.439061e+02  -9.840011e+00
   1.069291e+02   5.481769e+01
   3.302266e+01   5.461056e+01
  -1.511579e+01   4.268250e+01
  -7.756601e+01   2.413988e+01
  -3.952265e+01   3.210046e+01
  -3.792813e+01   4.562576e+01
  -1.519273e+01   3.474680e+01
  -2.287898e+01  -3.475748e+01
  -1.262028e+01  -6.835434e+01
   1.718274e+00  -1.112703e+02
   7.127987e+01  -7.268871e+01
   5.189405e+01   1.361515e+01
   4.359827e+00   7.384915e+01
   8.533543e+00   6.591388e+01
  -1.436379e+01   9.380912e+00
  -4.365193e+01  -3.549558e+01
  -1.959225e+01  -3.377850e+01
   4.260898e+00  -1.317141e+00
  -2.499931e+01  -3.303352e+01
  -3.689348e+01  -3.089437e+01
  -3.663715e+01  -1.545011e+01
   5.378508e+01  -2.507962e+01
   6.704501e+01  -2.421159e+00
   8.116443e+01   1.325109e+01
   4.481638e+00   6.784987e+01
  -5.003574e+01   1.848092e+01
  -1.063172e+02  -1.483486e+01
  -4.023896e+01  -1.203125e+01
   1.503403e+01  -1.961207e+01
   4.833567e+01   7.609392e+00
   1.469970e+01   3.606672e+01
  -4.336312e+01   1.262320e+01
  -5.441548e+01  -2.800163e+01
  -1.217839e+01  -4.577166e+01
  -2.715216e+01  -1.489928e+01
  -5.123211e+01   1.144591e+00
  -6.129064e+01  -1.025724e+01
  -1.347868e+01  -2.062536e+01
   5.792737e+01  -6.118299e+01
   4.913966e+01  -6.201449e+01
   8.691275e+01   7.959164e+00
   5.906414e+01   5.737233e+01
  -2.296906e+01   8.111604e+01
  -3.700938e+01  -4.205295e+00
  -1.969807e+01   1.637665e+00
   3.525421e+01   1.029702e+01
   4.669811e+01   2.699570e+01
   2.612008e+01   4.690144e+01
  -3.776496e+01   4.805587e+01
  -1.026392e+02   2.535353e+01
  -7.280927e+01  -1.823453e+01
   1.488759e+01  -3.875870e+01
  -7.746524e+00  -5.013990e+01
   3.470726e+01   1.441445e+01
  -7.334947e+00  -2.017546e+01
  -1.292390e+01  -4.180439e+01
  -2.986110e+00  -1.821627e+01
   3.565038e+01  -5.377484e+01
   5.277087e+01   1.580976e+01
   4.707032e+01   2.587741e+01
  -1.219800e+01   4.235052e+01
   7.198079e+00   5.716535e+01
  -4.224039e+01  -1.227244e+01
  -4.687528e+00  -7.769136e+01
  -5.149947e+00  -2.556479e+01
   2.167068e+01   1.523240e+01
   2.758141e+01   4.529550e+00
   2.413224e+01  -7.585782e+00
   1.750930e+01  -1.183292e+01
   7.360149e-02   4.279022e+00
   2.504785e+01   4.272364e+01
   3.296467e+01   5.780304e+01
  -1.329630e+01   1.575006e+01
  -7.526945e+01  -2.103812e+01
  -4.345694e+01  -5.827343e+01
  -1.831785e+01  -4.957167e+01
   1.928509e+01  -9.177202e+00
   4.271787e+01  -5.821580e+00
   1.106545e+01   7.794784e+00
  -1.995620e+01  -1.145723e+01
  -5.310627e+01   3.548522e+00
  -1.406084e+00  -2.825139e+01
   3.989182e+00  -1.125688e+01
  -2.413511e+01  -8.171547e+00
  -1.068291e+01  -1.855181e+01
  -1.078482e+01  -3.323883e+01
   5.570026e+01  -9.153921e+01
   7.543837e+01  -3.071210e+01
   4.470672e+01   3.711538e+01
  -8.529674e+00   7.184816e+01
  -2.545040e+01   5.222958e+01
  -3.420998e+01  -1.120832e+01
  -3.007825e+01   1.352508e-01
  -2.827302e+01  -1.411677e+01
   2.608761e+01   8.798651e+00
  -5.091209e+00   1.818400e+00
  -1.179793e+01  -2.755439e+01
  -3.856456e+01  -4.131377e+01
  -3.873239e+00  -5.865666e+01
   5.088132e+01  -2.286020e+01
   1.157510e+01   5.147623e+01
   4.327783e+00   7.454635e+01
  -3.475334e+01   4.331762e+00
  -1.872942e+01  -3.242244e+01
   1.547744e+01  -2.250365e+01
  -8.606516e-01  -2.659410e+01
   4.225211e+01  -2.422608e+00
  -1.112579e+01   1.171748e+01
   3.525430e+00   1.609675e+01
  -4.032350e+01   2.453529e+01
   3.188220e+00   8.077938e+00
   5.423724e+01   1.116302e+00
  -3.399847e+01   5.723776e+00
  -4.072740e+01   2.345069e+01
  -3.687424e+01   9.432405e+00
  -1.776578e+01   1.259889e+01
   2.752884e+01  -4.583916e+01
   3.859028e+01  -3.946559e+01
   1.498316e+01  -3.828898e+00
  -1.113555e+01   4.677462e+01
  -1.877697e-01   1.740707e+01
  -7.626204e+01  -6.781174e-01
  -4.404899e+01  -4.832998e+01
   1.205039e+01  -1.691521e+01
   1.319798e+01  -1.707074e+01
   3.186321e+01   3.213872e+01
   7.830062e-01  -5.593574e+00
  -4.257690e+00  -4.870230e+00
   1.243200e+00  -1.417288e+00
  -9.355419e+00   3.825270e+01
   2.717683e+01   1.031464e+01
  -3.710916e+01  -2.746424e+01
  -1.979528e+00  -3.427398e+01
   6.372195e+00  -5.974023e+01
  -1.011654e+01  -2.543644e+01
   2.968208e+01   3.150202e+01
  -2.826455e+01   5.309356e+01
   1.177122e+01   9.399182e+00
  -2.816365e+01   3.455038e+00
  -2.457588e+01  -3.465475e+01
   6.270281e+00  -3.744581e+01
   3.369892e+01   7.446765e+00
   5.645365e+00   1.234262e+01
  -5.360804e+00   1.610016e+01
  -1.137256e+01  -4.554764e+00
  -1.393899e+00  -4.381354e+01
   1.393147e+01   1.718833e+01
