
 $NMID
 id='ANONYMOUS ', fmtdat='(2E16.6)'
 volume=1.0
 tramp=1.0
 $END
  -3.048127e+03  -4.089070e+02
  -1.195418e+03  -1.487677e+03
   9.302862e+02  -1.750671e+03
   1.177552e+03  -6.273734e+02
   6.046865e+02   6.151345e+02
  -4.115959e+02   3.619712e+02
  -5.331758e+02  -2.539457e+02
  -8.962813e+00  -6.963250e+02
   6.449357e+02  -4.308733e+02
   6.655422e+02   9.940566e+01
   2.522975e+02   6.269525e+02
  -2.108451e+02   5.552622e+02
  -4.590009e+02   1.600754e+02
  -1.648628e+02  -3.895158e+02
   2.347068e+02  -4.818023e+02
   4.297785e+02   2.802677e+01
   7.091862e+01   4.540805e+02
  -2.891545e+02   4.112356e+02
  -4.182924e+02   1.001454e+02
  -2.224123e+02  -2.307746e+02
   7.638751e+00  -3.271652e+02
   1.773028e+02  -1.597024e+02
   1.690228e+02   1.548481e+01
  -7.841476e+01   1.189836e+01
  -2.335741e+02  -1.328668e+02
  -9.540119e+01  -2.970324e+02
   3.828620e+02  -2.171343e+02
   4.658704e+02   6.332173e+01
   2.708878e+02   3.233278e+02
  -2.970514e+02   2.564077e+02
  -5.328772e+02  -3.050581e+01
  -1.809999e+02  -3.375946e+02
   2.012878e+02  -3.309794e+02
   3.616823e+02  -9.311280e+01
   1.902515e+02   1.527777e+02
   1.179576e+01   3.447188e+02
  -1.288191e+02   1.181395e+02
  -5.403302e+01  -1.675797e+02
   1.607593e+02  -2.931762e+02
   2.972106e+02   1.237179e+02
   2.383150e+01   4.530845e+02
  -2.207998e+02   4.407903e+02
  -2.912319e+02   5.660256e+00
  -1.255333e+02  -3.747681e+02
   1.655774e+02  -1.814445e+02
   2.572436e+02   2.291172e+02
  -8.986910e+01   3.455916e+02
  -3.268039e+02   2.394854e+01
  -3.632814e+02  -4.040258e+02
  -8.781369e+01  -4.126657e+02
   3.078725e+02  -2.298891e+02
   4.107299e+02   1.383323e+02
   2.775600e+02   2.842321e+02
  -1.110810e+02   1.825947e+02
  -2.752739e+02   4.493132e+01
  -1.257824e+02  -9.637802e+01
   6.943454e+01  -7.526756e+01
   4.181395e+01   9.575230e+01
  -9.681442e+01   9.098807e+01
  -2.187962e+02  -8.733716e+01
  -4.805401e+01  -1.998559e+02
   1.396228e+02  -1.543711e+02
   2.158822e+02  -1.743088e+01
   9.612675e+01   6.363890e+01
  -3.269915e+01   1.732436e+02
  -1.857344e+02   2.653471e+02
  -2.374258e+02   1.640507e+02
  -1.744971e+02  -9.013112e+01
  -1.794231e+01  -2.740772e+02
   5.405654e+01  -2.600323e+02
   6.215488e+01  -4.594603e+01
  -7.780493e+00  -2.299299e+01
   4.873637e+01  -3.226772e+01
   1.305397e+02  -6.659430e+01
   1.899698e+02   2.623968e+01
   1.065132e+02   2.046379e+02
  -1.601270e+01   1.953295e+02
  -1.883623e+02  -2.965307e+01
  -1.414568e+02  -2.078237e+02
   1.666170e+01  -1.861476e+02
   1.429160e+02  -3.779768e+01
   2.484484e+02   1.374894e+02
   1.093438e+02   2.592677e+02
  -9.686477e+01   2.312271e+02
  -1.423007e+02   8.057932e+01
  -9.059969e+01   9.185183e+00
  -4.881403e+01   1.156413e+01
  -1.929867e+02   3.915022e+01
  -2.554198e+02  -9.372928e+01
  -1.997340e+02  -1.585497e+02
   2.004909e+01  -2.698540e+02
   2.917276e+02  -2.906237e+02
   2.313966e+02  -1.163256e+02
   2.055005e+02   7.725150e+01
   5.996591e+01   2.062639e+02
  -1.154540e+02   1.129019e+02
  -7.927467e+01  -2.634489e+00
   6.144357e+01  -7.944752e+01
   1.285845e+02  -9.026413e+00
   3.381361e+01   1.374693e+02
  -1.336613e+02   7.834987e+01
  -1.024208e+02  -3.954627e+01
   4.726801e+01  -1.150752e+02
   1.591424e+02  -7.110765e+00
   9.494304e+01   1.867709e+02
  -3.394155e+01   2.084545e+02
  -1.572769e+02   7.262786e+01
  -2.300218e+02  -9.502856e+01
  -1.316085e+02  -1.127787e+02
  -1.596440e+01  -1.436916e+02
   7.272878e+01  -1.078015e+02
   9.250440e+01  -2.475129e+01
   5.737801e+01   8.893981e+00
  -6.143504e+01  -3.704194e+01
  -1.823355e+01  -8.875428e+01
   1.172060e+02  -4.515141e+01
   1.229894e+02   1.906932e+01
   2.205607e+01   3.186578e+01
  -5.783879e+01   3.607901e+01
  -1.594176e+01  -7.759773e+01
   1.162396e+02  -8.645303e+01
   1.955417e+02  -7.720960e+00
   1.826649e+02   1.360206e+02
   1.422420e+01   1.568024e+02
  -1.559928e+02   2.009869e+02
  -1.730595e+02   3.464006e+01
  -1.456392e+02  -5.116104e+01
   2.214283e+01  -7.864276e+01
   7.954008e+01  -2.547000e+01
  -3.745896e+01   5.365188e+01
  -1.299384e+02   5.821403e+01
  -1.387632e+02  -7.561551e+01
  -3.705778e+01  -1.369012e+02
   4.031632e+01  -1.195271e+02
   1.016149e+02  -2.408860e+01
   4.564296e+01   3.486652e+01
  -1.387191e+01  -1.425507e+01
  -6.653651e+00  -7.298414e+01
   7.956670e+01  -5.681639e+01
   1.433910e+02  -2.611548e+01
   1.307559e+02   9.102407e+01
  -3.002024e+01   1.042337e+02
  -1.310672e+02   7.410216e+01
  -1.096128e+02  -2.917705e+01
  -4.126972e+00  -5.415981e+01
   1.992208e+01  -4.485158e+01
   7.335838e+01  -7.587259e+00
   2.082416e+01   3.244654e+01
  -1.565130e+01   9.046285e+00
   9.369479e+00   8.951221e+00
   4.405907e+01   8.973183e+00
   5.768827e+01   3.388232e+01
  -1.583458e+01   8.920019e+01
  -9.954376e+01   1.044471e+02
  -1.373137e+02  -3.051116e+01
  -1.124226e+02  -8.323212e+01
   8.630267e-01  -1.499821e+02
   7.191268e+01  -9.386933e+01
   9.227108e+01   1.025177e+01
   2.619602e+01   7.495172e+01
   4.898697e+01   3.666764e+01
   2.247985e+01  -2.347377e+01
   2.282320e+01  -1.491664e+01
   2.259720e+01   4.587257e+01
  -4.899448e+01   3.977143e+01
  -6.959903e+01   2.290656e+01
  -2.020825e+01  -1.495111e+01
  -3.305283e+01  -5.256018e+01
   8.220636e+01  -5.571868e+01
   1.709065e+02   6.733558e+01
   3.613413e+01   1.335966e+02
  -7.656873e+01   1.542683e+02
  -2.199369e+02   3.350154e+01
  -1.615510e+02  -9.174192e+01
  -6.560529e+01  -1.182318e+02
   1.573901e+01  -1.343946e+02
   9.241955e+01  -3.361058e+01
   5.396899e+01  -4.923061e+01
   3.581428e+01  -4.902543e+01
   7.070647e+01  -3.053528e+01
   9.416579e+01   2.000723e+01
   7.311592e+01   1.141056e+02
   3.157998e+01   1.373814e+02
  -9.320031e+01   1.072210e+02
  -9.431529e+01   2.510782e+01
  -6.011766e+01  -6.561482e+01
  -1.149925e+01  -9.288002e+01
   3.893186e+01  -5.744944e+01
   3.109310e+01   1.149182e+01
   2.912215e+01   1.658405e+01
  -2.997266e+01   1.163833e+01
   2.910677e+01  -9.061836e-01
   3.630058e+01   3.903728e+00
   2.106865e+01   2.943905e+01
  -2.525247e+01   3.440596e+01
  -1.164188e+02   3.015313e+01
  -8.443957e+01   4.635669e+00
  -7.472489e+00  -5.932839e+01
   7.111545e+01  -2.107575e+01
   8.119608e+01   5.009056e+00
   2.449392e+01   1.610907e+01
  -6.652513e+00   1.724071e+01
  -3.313883e+01  -3.885309e+01
   1.412214e+01  -5.711620e+01
   4.746090e+01  -7.126536e+01
   6.514395e+01  -1.557223e+00
   2.902961e+01   6.186406e+01
   1.111369e+01   4.107064e+01
   3.154532e+01   1.047689e+00
   5.627358e+01   4.818546e+00
   1.856107e+01   2.532963e+01
   1.404746e+00   9.435634e+01
  -8.463611e+01   6.440861e+01
  -1.177834e+02   8.827471e+00
  -6.800793e+01  -3.160726e+01
   1.631113e+01  -9.328661e+01
   3.783628e+01  -2.794899e+00
   4.344014e+00   7.472162e+00
  -3.374775e+01   1.957176e+01
  -7.348565e+01  -3.762232e+01
  -1.641130e+01  -5.319703e+01
   6.582835e+01  -5.978216e+01
   1.386786e+02  -3.001565e+01
   1.183965e+02   1.560394e+01
   8.977964e+00   3.328190e+01
  -4.170301e+01   2.920522e+01
  -3.858132e+01   4.070873e-01
   1.924825e+01   1.357918e+01
   6.211557e+01   2.975840e+01
   3.914956e-01   5.834621e+01
  -5.242313e+01   9.725530e+01
  -1.322817e+02   4.446464e+01
  -7.038393e+01  -8.835277e+01
   2.081280e+00  -1.107651e+02
   1.832361e+01  -8.715518e+01
   5.171707e+01   2.294483e+01
   2.880057e+01   5.491159e+01
  -1.031336e+00   7.738682e+01
  -3.117671e+01   1.740340e+00
  -2.945835e+01  -2.948307e+01
  -2.169636e+01  -1.639136e+01
  -1.257877e+01   3.022126e-02
  -1.340634e+01  -1.413826e+01
  -4.007975e+01  -6.135181e+01
  -4.276898e+01  -8.170011e+01
   3.916750e+01  -6.440114e+00
   1.062234e+02   2.393660e+01
   7.550209e+01   1.992294e+01
   6.843028e+00   6.059661e+01
  -6.820159e+01   4.177495e+01
  -8.073120e+01  -4.474212e+00
  -2.654754e+01   3.399782e+00
   3.904800e+01   2.066630e+01
   1.808884e+01  -5.370107e+00
  -9.514894e+00   1.752748e+01
  -2.137098e+01   2.653298e+01
   3.353825e+01   1.470943e+01
   5.236001e+01   3.068262e+01
   3.785143e+00   6.812572e+01
  -1.061673e+02   9.713621e+01
  -8.764826e+01   3.969967e+01
  -6.894303e+01  -2.797569e+01
   5.866024e+00  -8.678443e+01
   6.598993e+01  -1.025382e+02
   4.035623e+01   2.111901e+00
   5.603843e+01   1.665628e+01
   1.046886e+01   2.151849e+01
  -2.666654e+00  -1.026714e+01
   2.032252e+01   1.715911e+01
   3.552758e+01   3.221570e+01
   2.111466e+01   5.405645e+01
  -3.646393e+01   7.556068e+01
  -2.797320e+01   3.468703e+00
  -2.680228e+01  -8.660382e+01
   1.412212e+01  -5.947134e+01
   4.939303e+01  -1.346031e+01
   2.515500e+01   3.204879e+01
   2.342095e+01   7.558095e+01
  -4.074550e+01   2.157643e+01
  -7.323559e+01  -3.264157e+01
  -6.329133e+00  -2.310836e+01
   6.893144e+00  -5.053229e+01
   3.916042e+00  -2.167902e+00
  -2.192693e+01  -1.112847e+01
  -2.880730e+01   1.824005e+01
  -6.625831e-01  -1.145264e+01
   4.139972e+01  -4.447337e+01
   5.939608e+01   2.109029e+01
   5.823147e+01   2.283899e+00
  -2.790985e+01   2.556380e+01
  -5.603593e+01   3.721406e+01
  -2.553767e+01  -1.454219e+01
   1.892255e-01  -2.180871e+01
   1.178556e+01  -2.549270e+01
   3.248504e+01   1.602149e+00
   3.752838e+01   4.880093e+01
  -1.740063e+01   3.763689e+00
  -7.774325e+00  -2.264200e+01
  -1.758328e+01  -1.112019e+01
  -9.960133e+00   1.130742e+00
   1.203324e+01   4.255022e+00
   1.485069e+00  -6.756904e+00
  -8.698962e+00  -2.923164e+01
   4.649656e+00   7.629786e-01
   4.449654e+01   2.781645e+00
   1.468695e+01   4.926878e+01
   9.717930e-01   3.552024e+01
  -1.279902e+01   4.609316e+01
  -3.411716e+01  -6.949600e+01
  -2.363112e+01  -3.174716e+01
   3.226919e+01  -2.878295e+01
   5.695936e+01  -2.754038e+01
   2.021194e+01   3.942011e+01
  -2.826365e+01   4.240364e+00
  -2.595973e+01   2.383781e+01
  -1.265773e+01  -2.063437e+01
  -5.162808e+00   3.156714e+01
   1.345806e+01   2.043022e+01
   8.717266e+00   2.396479e+01
  -7.510598e+01  -2.992197e+01
