
 $NMID
 id='ANONYMOUS ', fmtdat='(2E16.6)'
 volume=1.0
 tramp=1.0
 $END
   3.460430e+03   6.471632e+02
   2.445542e+03   1.800197e+03
  -1.599263e+02   2.051456e+03
  -1.541546e+03   1.009852e+03
  -8.370264e+02  -2.599726e+02
   4.312135e+02  -3.915557e+02
   6.233515e+02   2.862724e+02
   7.606148e+01   7.882098e+02
  -6.436045e+02   6.645853e+02
  -7.478221e+02   1.235313e+02
  -4.771384e+02  -5.779827e+02
   1.952508e+02  -7.039645e+02
   4.131933e+02  -1.363797e+02
   3.055691e+02   5.399475e+02
  -2.321825e+02   6.243226e+02
  -5.093735e+02   4.685564e+01
  -2.945884e+02  -5.499164e+02
   2.528694e+02  -5.358860e+02
   4.453903e+02  -1.669289e+02
   3.335495e+02   2.283360e+02
   9.360699e+01   3.908180e+02
  -1.586320e+02   1.570170e+02
  -1.001259e+02   2.116384e+01
   1.355331e+02  -5.810209e+00
   3.059716e+02   1.473856e+02
   1.353185e+02   3.453289e+02
  -3.163570e+02   3.134304e+02
  -6.846964e+02  -1.651925e+02
  -4.181083e+02  -4.453616e+02
   3.830388e+02  -3.491839e+02
   5.862723e+02   3.026617e+01
   2.651987e+02   3.986271e+02
  -2.445018e+02   3.917169e+02
  -4.257332e+02   2.112077e+02
  -3.979118e+02  -1.098848e+02
  -4.169304e+01  -3.568446e+02
   9.016273e+01  -1.582454e+02
   9.633189e+01   1.979494e+02
  -1.951221e+02   2.409217e+02
  -2.923778e+02  -5.406383e+01
  -1.717992e+02  -5.347977e+02
   2.455379e+02  -5.427236e+02
   4.782995e+02  -8.340154e+01
   2.189221e+02   3.938841e+02
  -2.218913e+02   2.871028e+02
  -2.229594e+02  -2.846011e+02
   7.656825e+01  -3.956283e+02
   4.696264e+02  -1.361523e+02
   5.080283e+02   3.237103e+02
   2.517085e+02   4.709769e+02
  -2.781221e+02   2.777619e+02
  -5.114509e+02   9.885064e+00
  -3.098281e+02  -2.774234e+02
   3.804072e+01  -3.004168e+02
   2.990296e+02  -5.381076e+01
   2.135591e+02   8.450670e+01
  -4.168118e+01   6.031547e+01
  -8.787652e+01  -9.277973e+01
   1.093326e+02  -1.396135e+02
   2.517232e+02   2.219008e+01
   1.389484e+02   2.338169e+02
  -2.211576e+02   2.562783e+02
  -2.870548e+02   8.589168e+01
  -2.558791e+02  -8.848303e+01
  -1.775931e+01  -1.705026e+02
   2.204165e+02  -3.223378e+02
   3.170892e+02  -1.752580e+02
   2.620338e+02   1.131727e+02
   8.857052e+01   3.730195e+02
  -2.987574e+01   3.557369e+02
  -5.204912e+01   1.220310e+02
  -3.460271e+01   3.805802e+01
  -1.250389e+02   5.096777e+01
  -2.109861e+02   1.161851e+02
  -2.250370e+02  -1.518382e+01
  -1.370404e+02  -2.175353e+02
   6.219651e+01  -2.347583e+02
   1.568280e+02   2.275773e-01
   1.473633e+02   2.181787e+02
  -4.852367e+01   2.759727e+02
  -2.375762e+02   6.991141e+01
  -3.050431e+02  -2.020786e+02
  -1.421040e+02  -2.574739e+02
   8.229289e+01  -2.479030e+02
   1.551237e+02  -8.671217e+01
   1.216725e+02  -4.283368e+01
   1.262842e+02  -7.141554e+01
   2.388024e+02  -5.243190e+01
   3.383728e+02   5.585447e+01
   3.033709e+02   2.908451e+02
   3.628895e+01   3.814591e+02
  -3.575380e+02   3.367644e+02
  -4.595465e+02   2.272945e+02
  -2.439140e+02  -4.627755e+01
  -4.288780e+01  -2.108875e+02
   1.037787e+02  -2.045410e+02
   3.442268e+01  -4.224973e+01
  -8.684221e+01   6.586127e+01
  -1.698668e+02  -2.255587e+01
  -1.475457e+01  -1.506007e+02
   1.145822e+02  -1.495053e+02
   1.463396e+02   2.441691e+01
  -2.042846e+01   1.500559e+02
  -1.468776e+02   8.845958e+00
  -1.441339e+02  -2.195550e+02
  -3.238140e+01  -3.131819e+02
   1.786044e+02  -1.934686e+02
   3.108868e+02   5.242664e+01
   2.698548e+02   2.305215e+02
   1.005766e+02   2.701662e+02
  -1.135138e+02   1.343965e+02
  -1.663017e+02   8.412885e+00
  -4.339217e+01  -3.449437e+01
   7.133207e+01   5.493546e+01
   5.368178e+01   1.316630e+02
  -1.216807e+02   5.286639e+01
  -1.824915e+02  -1.210278e+01
  -4.530688e+01  -5.392653e+01
   4.335985e+01  -2.535488e+01
   9.043578e+01   5.368706e+01
  -9.646770e+01   9.991579e+01
  -3.108235e+02  -2.600622e+01
  -2.142644e+02  -1.617997e+02
  -6.887376e+01  -2.179383e+02
   1.724418e+02  -2.349836e+02
   2.728312e+02  -1.083558e+02
   1.598584e+02   8.578373e+01
  -1.472949e+01   9.948627e+01
  -4.550456e+01   4.011746e+00
   3.775436e+01  -7.722557e+01
   1.858910e+02  -7.089489e+01
   1.702809e+02   8.461961e+01
   9.997157e+01   1.503778e+02
  -6.844864e+01   1.678774e+02
  -1.005384e+02   7.541379e+01
  -5.859004e+01  -4.552818e+01
   2.678713e+01  -1.384766e+00
   3.877019e+01   1.024508e+02
  -6.228304e+01   1.261850e+02
  -1.703100e+02   3.232706e+01
  -1.440661e+02  -9.726801e+01
  -2.034794e+01  -1.971439e+02
   1.487019e+02  -1.615129e+02
   1.566955e+02   2.235972e-01
   5.359433e+01   9.605024e+01
  -3.931126e+01   7.983857e+01
  -1.021200e+02   3.064545e+01
  -1.729908e+00  -2.957434e+01
   2.081104e+01  -2.780701e+01
  -4.311768e+01  -1.572491e+01
  -7.777131e+01   8.508391e+00
  -1.129867e+02  -7.726350e+01
  -2.242260e+01  -1.354388e+02
   1.373333e+02  -1.414358e+02
   2.057869e+02  -5.397784e+01
   1.566125e+02   1.052958e+02
   7.924592e+01   2.245566e+02
  -5.979370e+01   1.550853e+02
  -1.072141e+02   9.878027e+00
  -6.463839e+01  -1.488750e+01
  -3.878625e+01  -3.431040e+01
  -4.779271e+01   7.071759e+00
  -7.240501e+01   3.458365e+01
  -4.065440e+01  -9.521239e+00
   4.163261e+01  -7.246870e+01
   1.214106e+02  -1.089214e+01
   1.036196e+02   3.899942e+01
   3.388702e+01   1.245073e+02
  -9.169544e+01   8.721660e+01
  -1.827725e+02  -5.668617e+01
  -7.176070e+01  -1.905899e+02
   8.287738e+01  -1.530214e+02
   2.305467e+02  -8.706289e+01
   2.331846e+02   3.009763e+01
   1.188423e+02   1.370062e+02
  -1.747592e+01   1.218423e+02
  -8.012468e+01   5.712973e+01
  -3.404155e+01   8.258542e+01
  -4.469279e+01   9.329053e+01
  -9.806320e+01   5.702285e+01
  -1.276958e+02  -2.366931e+01
  -1.132865e+02  -1.285185e+02
  -4.435497e+01  -2.128731e+02
   1.153932e+02  -1.584523e+02
   1.302470e+02  -8.911353e+00
   1.162315e+02   1.219957e+02
   3.596950e+01   1.491031e+02
  -6.314651e+01   8.667861e+01
  -4.607318e+01  -1.980177e+01
   3.252342e+01  -3.680148e+01
   4.328197e+01  -3.602467e+01
  -9.215350e+00  -1.047478e+01
  -8.059567e+01   1.640814e+01
  -2.087611e+01  -4.594801e+01
   4.486730e+01  -4.353246e+01
   1.380466e+02  -2.132204e+00
   1.176261e+02   1.110399e+01
  -8.926267e+00   7.860455e+01
  -8.035234e+01   8.496686e+01
  -1.509489e+02  -8.622533e+00
  -2.348400e+01  -5.429629e+01
   6.727277e+01  -4.011918e+01
   7.485650e+01  -1.807691e+00
   1.566613e+01   4.299925e+01
  -7.120605e+01   6.413345e+01
  -6.743133e+01  -1.808852e+01
  -6.195662e+01  -4.724277e+01
  -4.430907e+01  -1.380371e+01
  -1.759892e+01  -1.640386e+01
  -4.967591e+01  -1.134616e+01
  -1.578638e+01  -6.716704e+01
  -5.414338e-01  -1.484891e+02
   9.230269e+01  -1.768445e+02
   1.628985e+02  -2.787194e+00
   1.167699e+02   1.088515e+02
  -1.135595e+00   1.207045e+02
  -8.769599e+01   5.259112e+01
  -4.241323e+01   2.112119e+01
   2.900928e+01  -2.365902e+01
   1.236507e+02   1.458133e+01
   7.385613e+01   1.001124e+02
  -5.228273e+01   7.566643e+01
  -1.685494e+02   4.913376e+01
  -1.578782e+02  -8.856691e+00
  -3.282063e+01  -9.298427e+01
   4.039646e+01  -7.911229e+01
   6.056738e+01  -1.191187e+01
  -4.865352e+01   5.128335e+01
  -8.400455e+01   1.669478e+01
  -4.380203e+01  -7.897619e+01
   6.466945e+01  -1.494558e+02
   1.496086e+02  -5.194370e+01
   1.083865e+02   1.113853e+02
   5.738129e+00   1.462552e+02
  -1.055642e+02   1.416854e+02
  -1.137297e+02  -1.518698e+01
  -5.478716e+01  -9.008716e+01
   5.078970e-02  -1.090801e+02
   3.965122e+01  -1.834639e+01
   4.468046e+01   4.604663e+01
   1.040057e+01   1.079338e+01
  -2.701141e+01  -1.242106e+01
   2.100489e+01   4.163532e+01
   5.045862e+01   1.159647e+02
   2.968032e+01   1.253492e+02
  -4.334272e+01   5.927219e+01
  -1.568014e+02  -2.186349e+01
  -1.359561e+02  -4.585256e+01
  -2.406552e+01  -3.969640e+01
   1.026465e+02  -2.932865e+01
   8.607144e+01  -2.016846e+01
  -2.099572e+01  -1.460646e+01
  -2.157547e+01   2.739402e+01
  -4.191958e+01  -7.121886e-01
   1.812796e-01  -2.057464e+01
  -3.656108e+01   2.018759e+00
  -6.931211e+01   1.247778e+01
  -8.926944e+01  -1.403618e+01
  -5.003738e+00  -8.648545e+01
   9.762043e+01  -9.988891e+01
   1.833238e+02  -6.140741e+01
   1.597656e+02   7.604663e+01
   2.847007e+01   1.287337e+02
  -4.770370e+01   9.498487e+01
  -1.259931e+02   4.354373e+01
  -3.337246e+01   4.755454e-01
  -2.282306e+01  -1.914034e+01
  -1.270173e+01   5.765125e+00
  -1.937834e+00   8.595161e-01
  -4.225065e+01  -5.973576e+01
  -9.064267e-01  -9.602105e+01
   1.222563e+01  -7.529341e+01
   5.296390e+01   1.369624e+01
   9.370750e+01   9.615633e+01
   4.616426e+01   1.332673e+02
  -6.311140e+01   1.712432e+01
  -9.185096e+01  -6.223744e+01
  -3.302280e+01  -6.564283e+01
   6.329369e+01  -4.524620e+01
   7.320918e+01   3.110269e+01
   2.727092e+01   6.323639e+01
  -4.452146e+01   5.562066e+01
  -2.304550e+01   3.099289e+01
   3.918466e+01  -1.246122e+00
   4.803742e+01  -2.215784e+00
   3.891764e+01   2.395752e+01
  -6.319897e+01   4.457120e+01
  -9.222767e+01   2.370141e+01
  -4.005751e+01   2.696557e+01
  -3.260230e+01  -6.773122e+01
   3.749319e+01  -1.048262e+02
   3.755401e+01   3.266953e+00
   7.672611e+00   6.204864e+01
  -3.400688e+00   1.539260e+01
  -1.124162e+01  -1.311147e+01
   8.994272e+00  -5.490923e+01
   1.090207e+01  -4.834868e+01
   4.983127e+01   1.166230e+01
   1.570417e+01   2.515986e+01
   8.891064e+00   1.047235e+01
   1.741379e+01  -1.254301e+01
  -1.657825e+01  -8.815681e+00
  -7.855995e+00   4.838894e+01
  -5.031965e+00   4.754692e+01
  -5.827933e+01   1.124913e+01
  -3.303922e+01  -4.194114e+01
  -2.027466e+01  -6.494865e+01
   1.108689e+01  -1.182804e+01
   5.174936e+01   4.861966e+01
   1.569777e+01   3.559396e+01
  -3.815873e+01   3.694990e+01
  -8.968060e+01  -1.584572e+01
  -3.921685e+01  -4.807178e+01
   2.474679e+01  -2.699342e+01
   3.446802e+01  -1.896925e+01
   1.840650e+01  -3.588948e+01
  -2.987062e+01  -7.637610e+00
   7.075640e+00  -1.423113e+01
   2.481406e+00  -1.684081e+01
   6.533288e+01   7.175303e+00
