
 $NMID
 id='ANONYMOUS ', fmtdat='(2E16.6)'
 volume=1.0
 tramp=1.0
 $END
   2.797265e+03  -8.002224e+01
   2.445211e+03   1.797526e+03
   1.891029e+02   2.048317e+03
  -1.167558e+03   8.393935e+02
  -9.275818e+02   1.947295e+02
   1.600054e+02  -1.632196e+02
   4.242117e+02   1.200478e+02
   3.476822e+01   5.164671e+02
  -4.258777e+02   5.937274e+02
  -7.051697e+02   1.157432e+02
  -4.627590e+02  -5.367553e+02
  -2.937447e+01  -6.758243e+02
   3.025549e+02  -1.193546e+02
   2.920062e+02   3.898338e+02
  -6.785746e+01   4.297429e+02
  -3.975928e+02   1.433592e+02
  -2.407705e+02  -3.895835e+02
   1.161147e+02  -6.124625e+02
   3.960834e+02  -2.902416e+02
   4.511220e+02   1.760423e+02
   1.535779e+02   3.267295e+02
  -1.225303e+02   2.264572e+02
  -5.176217e+01   5.020687e+01
   8.890910e+01   2.162611e+01
   3.212953e+02   1.860263e+02
   4.535174e+01   3.159316e+02
  -3.833907e+02   2.340542e+02
  -6.900796e+02  -8.824009e+01
  -3.316383e+02  -3.422001e+02
   2.258194e+02  -1.737053e+02
   5.097404e+02   1.224339e+02
   2.186198e+02   3.217284e+02
  -1.519318e+02   2.974692e+02
  -4.462293e+02   1.828173e+02
  -3.071951e+02  -1.505629e+02
  -6.798268e+01  -2.765682e+02
   4.353695e+01  -2.068382e+02
   6.132516e+00   6.413342e+01
  -1.533904e+02   1.839474e+02
  -2.117074e+02  -9.119616e+01
  -1.513934e+02  -4.686373e+02
   2.037370e+02  -5.002814e+02
   3.180250e+02  -4.198884e+00
   1.393498e+02   3.144891e+02
  -1.732894e+02   1.317196e+02
  -2.019171e+02  -1.660141e+02
   2.108449e+01  -3.793268e+02
   4.232441e+02  -1.068308e+02
   4.547549e+02   3.124346e+02
   1.201110e+02   5.034486e+02
  -2.794152e+02   3.131075e+02
  -4.259913e+02  -7.961188e+01
  -3.325888e+02  -2.349107e+02
   3.549606e+01  -2.451330e+02
   3.024665e+02  -1.319087e+02
   2.080973e+02   3.410862e+01
  -2.257839e+01   2.436901e+01
  -3.833732e+01  -3.922934e+01
   5.370628e+01  -1.105638e+02
   2.377360e+02   5.559034e+00
   1.374424e+02   1.869885e+02
  -1.377578e+02   2.140496e+02
  -2.747273e+02   1.211212e+02
  -2.802829e+02  -8.097549e+01
  -2.325155e+01  -2.745491e+02
   2.134867e+02  -2.847421e+02
   2.881789e+02  -1.702435e+02
   2.515195e+02   1.173091e+02
   4.565310e+01   3.863356e+02
  -4.966267e+01   3.433652e+02
  -2.827598e+01   1.567174e+02
  -9.532171e+00   1.146228e+02
  -9.901353e+01   7.368247e+01
  -1.996921e+02   4.687914e+01
  -2.689787e+02  -1.020417e+02
  -1.218916e+02  -2.482023e+02
   7.894486e+01  -1.764142e+02
   1.871338e+02   1.434318e+01
   1.382179e+02   2.106374e+02
  -5.238460e+01   1.773045e+02
  -2.305188e+02   1.660410e+02
  -2.710715e+02  -9.507317e+01
  -2.174380e+02  -2.523257e+02
   1.278671e+01  -2.781934e+02
   1.216943e+02  -1.429737e+02
   1.191488e+02  -4.247541e+01
   1.004479e+02  -3.724653e+01
   2.185628e+02  -2.865647e+01
   3.890076e+02   4.213764e+01
   3.526188e+02   2.529070e+02
  -1.437647e+01   4.005246e+02
  -3.184008e+02   4.137466e+02
  -4.176153e+02   1.613895e+02
  -2.924937e+02  -6.293879e+01
  -1.762583e+01  -2.102256e+02
   5.557661e+01  -1.759524e+02
   1.078182e+01  -6.587547e+01
  -8.167361e+01   5.325387e+01
  -1.021693e+02  -4.026382e+01
  -1.383006e+01  -1.413200e+02
   1.061761e+02  -8.916446e+01
   1.041312e+02   5.274413e+01
   9.378426e+00   1.221844e+02
  -1.442951e+02   1.577643e+01
  -2.042184e+02  -2.347571e+02
  -4.901052e-01  -3.062356e+02
   2.358054e+02  -1.857100e+02
   3.522820e+02  -1.133777e+01
   2.668172e+02   1.999759e+02
   2.214905e+01   2.676533e+02
  -1.313541e+02   1.046649e+02
  -1.619613e+02  -7.955345e+00
  -4.325847e+01  -6.345732e+00
   3.473525e+01   3.565133e+01
   1.724972e+01   1.108973e+02
  -8.627353e+01   5.061342e+01
  -1.377887e+02  -1.268795e+01
  -5.067054e+01  -5.063827e+01
   7.616226e+01  -1.893368e+01
   7.605767e+01   6.857711e+01
  -1.334276e+02   9.232398e+01
  -2.338699e+02   2.074365e+01
  -2.800372e+02  -1.592735e+02
  -5.646383e+01  -2.913586e+02
   1.912252e+02  -1.920632e+02
   2.825260e+02  -1.226964e+02
   1.480439e+02   3.632308e+01
  -3.853261e+01   8.859247e+01
  -4.782044e+01   2.460963e+01
   2.700411e+01  -8.048956e+01
   1.409663e+02  -4.858122e+01
   1.730878e+02   6.320931e+01
   2.430998e+01   1.777688e+02
  -8.251527e+01   1.298221e+02
  -9.713494e+01   3.493155e+01
  -1.104589e+01  -3.509488e+01
   8.931411e+00   2.301534e+00
   1.230890e+01   1.278968e+02
  -8.361722e+01   9.183781e+01
  -1.756028e+02   2.946121e+01
  -1.268780e+02  -1.212280e+02
  -3.439575e+01  -1.902004e+02
   1.192335e+02  -1.539391e+02
   1.923329e+02  -6.488891e+01
   4.283058e+01   9.190218e+01
  -4.894368e+01   4.322191e+01
  -8.672968e+01   3.331243e+01
  -1.908405e+00  -7.586321e+00
   5.394958e+01  -2.505471e+01
  -8.179877e+00   1.289363e+01
  -9.849540e+01  -1.286357e+01
  -9.030891e+01  -5.610351e+01
  -3.562044e+01  -1.514773e+02
   1.088406e+02  -1.201124e+02
   2.265928e+02  -5.322449e+01
   2.033557e+02   1.938605e+02
   5.527326e+01   2.362738e+02
  -4.228570e+01   1.565836e+02
  -1.227222e+02   2.642996e+01
  -8.645796e+01  -2.521935e+01
  -7.852499e+00  -2.278437e+01
  -4.866813e+01  -8.940278e-02
  -6.953273e+01   2.967575e+01
  -7.543169e+01  -6.994509e+01
   5.845080e+01  -6.765627e+01
   1.002064e+02  -8.712800e+01
   1.042328e+02   4.767566e+01
  -5.194184e+00   1.204178e+02
  -1.571115e+02   8.796395e+01
  -2.200613e+02  -6.117782e+01
  -8.990183e+01  -1.761449e+02
   1.139252e+02  -2.363534e+02
   2.063940e+02  -8.582293e+01
   2.420930e+02  -1.201435e+01
   9.094629e+01   1.836449e+02
  -7.512548e+00   1.419157e+02
  -8.970958e+01   9.577587e+01
  -4.082686e+01   8.160843e+01
  -5.018071e+01   9.669075e+01
  -9.575822e+01   9.375987e+01
  -1.025641e+02   3.263572e+01
  -1.529392e+02  -1.556365e+02
  -6.261927e+00  -1.484276e+02
   8.850272e+01  -1.361091e+02
   1.273037e+02  -2.502649e+01
   1.398002e+02   1.146659e+02
  -5.514186e+00   1.384815e+02
  -8.202228e+01   8.642689e+01
  -5.997549e+01  -3.570794e+01
   2.156650e+01  -7.084991e+01
   2.503326e+01  -5.522032e+01
  -5.880988e+01  -1.310678e+01
  -8.175702e+01  -5.580637e+00
  -3.292396e+01  -2.484386e+01
   3.752751e+01  -5.169126e+01
   1.463160e+02   1.725018e+01
   1.125249e+02   7.459017e+01
   5.826101e+00   8.462589e+01
  -1.162485e+02   1.214062e+02
  -9.739481e+01  -1.744224e+01
  -2.537344e+01  -3.769148e+01
   7.075782e+01  -4.709131e+01
   7.898341e+01   9.210278e+00
   2.603878e+01   8.075121e+01
  -1.544595e+01   7.695093e+01
  -4.648389e+01   1.163058e+01
  -3.509035e+01  -4.807260e+01
  -5.836641e+01  -2.122520e+01
  -2.521028e+01  -2.283356e+01
  -9.128303e+01   9.730126e+00
  -6.252804e+01  -6.880618e+01
   3.134529e+01  -1.391056e+02
   1.206815e+02  -1.376046e+02
   1.699443e+02  -3.194792e+01
   1.386631e+02   6.948507e+01
   2.638920e+01   1.029671e+02
  -7.267449e+01   6.225405e+01
  -8.174472e+01   1.430302e+01
   4.260750e+01  -1.620113e+01
   9.539115e+01   2.227971e+01
   5.000735e+01   8.565802e+01
  -5.596212e+01   5.811204e+01
  -1.634343e+02   7.846189e+01
  -1.256787e+02  -3.755886e+01
  -3.948163e+01  -7.874872e+01
   4.507589e+01  -6.306882e+01
   3.962384e+01  -2.386585e+01
  -3.530153e+01  -2.660269e+00
  -6.549986e+01  -3.677295e+00
  -5.273979e+01  -9.474277e+01
   8.033326e+01  -1.474131e+02
   1.699467e+02  -5.475763e+01
   9.602295e+01   7.957194e+00
   3.835801e+01   1.356001e+02
  -5.623919e+01   1.167140e+02
  -9.451009e+01  -9.368471e+00
  -6.976704e+01  -8.221717e+01
  -1.034244e+01  -9.908409e+01
   6.839415e+01  -1.683502e+01
   2.157244e+01   6.221000e+00
  -9.976916e+00  -1.632787e+00
   1.655057e+01   3.945851e+00
   5.013282e+01  -2.659016e+01
   6.292082e+01   1.128729e+02
   6.947891e+01   8.160777e+01
  -6.739395e+01   4.688537e+01
  -1.051442e+02  -6.509064e+00
  -1.409155e+02  -6.001321e+01
  -2.151004e+01  -3.958854e+01
   6.723901e+01  -2.249078e+01
   6.682484e+01  -3.388775e+01
   1.131985e+01   1.121369e+01
  -2.326319e+01   1.884999e+01
   9.558504e+00  -5.911192e+00
   2.633517e+01  -1.964953e+00
   5.215448e+00  -5.200746e+00
  -9.142454e+01   1.630593e+01
  -9.789600e+01   5.718046e+00
  -1.431924e+01  -4.530356e+01
   7.187324e+01  -1.108339e+02
   1.790377e+02  -4.319371e+01
   1.396767e+02   1.694414e+01
   1.775008e+01   1.459780e+02
  -6.765685e+01   1.352458e+02
  -1.060705e+02   5.745753e+01
  -9.733766e+01   2.138309e+01
  -3.200763e+01  -3.707563e+01
  -2.522299e+01  -2.428214e+01
  -1.136929e+00  -4.136324e+00
  -2.830151e+01  -6.312825e+01
  -3.500367e+01  -6.832160e+01
   2.305748e+01  -7.311230e+01
   5.725041e+01  -2.339463e+01
   7.966628e+01   1.093195e+02
   2.737175e+01   1.110583e+02
  -5.628419e+01   2.830835e+01
  -1.054393e+02  -7.452333e+01
  -2.406689e+01  -9.196893e+01
   6.888234e+01  -8.259203e+01
   8.832184e+01  -1.048822e+01
   5.133904e+01   6.865441e+01
  -4.574534e+01   3.491726e+01
  -2.925903e+01   1.117330e+01
   6.182449e+00   1.488523e+01
   4.181163e+01   9.769757e+00
   2.605662e+01   1.130601e+01
  -9.890864e+01   6.441346e+01
  -1.267466e+02   4.083255e+01
  -6.568483e+01   4.685459e+01
   3.120449e+01  -8.786665e+01
   1.646434e+01  -6.340885e+01
   2.920871e+01  -1.709768e+01
   2.523197e+01   4.450887e+01
  -2.475081e+01   1.912100e+01
  -5.310431e+00   9.760482e+00
  -4.826447e+01  -2.843941e+01
   1.338998e+00  -1.951339e+01
   4.344941e+01  -8.579325e+00
   1.681655e+01   2.584011e+01
   4.798425e+01   8.992208e+00
   1.777456e+01   4.519265e+00
  -1.327756e+00   9.312703e-02
  -1.513173e+01  -7.496704e+00
   3.332914e+01   6.969876e+01
  -3.472733e+01   2.654423e+01
  -3.848297e+01  -3.403939e+01
  -1.732458e+01  -5.748963e+01
   1.274044e+01  -1.805949e+01
   6.478892e+01   1.525252e+01
   1.597693e+01   3.159287e+01
  -4.753388e+01   2.299456e+01
  -8.671065e+01  -1.437602e+01
  -2.941308e+01  -4.196560e+01
   5.725206e+01  -2.949075e+01
   7.612430e+01  -3.215326e+01
  -1.060808e+01  -2.394363e+01
  -2.535928e+01   3.252242e+00
  -1.360399e+01  -1.300300e+01
   2.240475e+01   5.524537e+00
   7.119070e+01  -3.582203e+01
