
 $NMID
 id='ANONYMOUS ', fmtdat='(2E16.6)'
 volume=1.0
 tramp=1.0
 $END
   2.303643e+03   1.072310e+02
   1.411024e+03   1.038989e+03
   2.596360e+02   1.455434e+03
  -1.062857e+03   9.614320e+02
  -8.066127e+02   3.468063e+02
  -1.041156e+02  -1.052372e+02
   1.814106e+02   9.079472e+01
   7.321960e+01   3.978114e+02
  -1.867544e+02   3.839045e+02
  -3.781280e+02   1.514706e+02
  -3.295632e+02  -2.709343e+02
  -5.945951e+01  -3.494595e+02
   2.320427e+02  -4.525748e+01
   8.678926e+01   2.780853e+02
  -1.473800e+01   3.781243e+02
  -2.734339e+02   4.602822e+01
  -2.628744e+02  -3.629303e+02
   1.401562e+02  -4.976789e+02
   3.591157e+02  -2.173635e+02
   2.723863e+02   1.037367e+02
   1.447817e+02   2.089928e+02
  -1.111160e+02   1.860320e+02
  -6.422033e+01   7.410963e+01
   1.449095e+02   1.017469e+02
   2.379874e+02   3.112801e+02
  -8.350965e+01   3.156804e+02
  -3.952502e+02   9.632006e+01
  -3.730127e+02  -3.280452e+02
  -1.154384e+02  -2.942359e+02
   2.085658e+02  -1.290287e+01
   4.252122e+02   1.438662e+02
   9.745851e+01   3.052522e+02
  -1.675068e+02   2.607047e+02
  -3.581384e+02  -1.311125e+01
  -2.163759e+02  -1.080355e+02
  -4.508606e+01  -2.063518e+02
   1.951062e+01  -1.447784e+02
  -5.234230e+01   7.894361e+00
  -1.906567e+02   1.265622e+02
  -1.303941e+02  -1.252172e+02
   1.009706e+00  -3.371023e+02
   2.735348e+02  -2.370407e+02
   1.668404e+02   7.129647e+01
   1.259987e+00   2.982567e+02
  -1.472868e+02   4.303204e+01
  -9.252971e+01  -2.815881e+02
   1.524851e+02  -2.981191e+02
   3.447250e+02   2.100975e+01
   3.325145e+02   2.928899e+02
   1.163674e+02   3.428153e+02
  -2.554088e+02   2.142116e+02
  -3.793379e+02  -5.446092e+01
  -2.168543e+02  -1.953028e+02
   7.866161e+01  -1.407713e+02
   2.154823e+02  -3.989840e+01
   1.614112e+02   2.117930e+01
   5.207861e+01   8.557898e+00
  -3.918831e+01   1.299688e+00
   8.020415e+01  -4.491448e+01
   1.359055e+02   8.114975e+01
   8.570029e+01   7.423196e+01
  -7.744502e+01   1.443144e+02
  -2.758022e+02   8.500492e+01
  -1.911527e+02  -1.203185e+02
   7.811902e+01  -3.035785e+02
   2.216093e+02  -2.967336e+02
   2.775406e+02  -1.146685e+02
   1.024173e+02   1.686542e+02
   1.557290e+01   2.215326e+02
   8.101031e+00   1.963279e+02
  -3.213567e+00   1.605918e+02
  -2.197363e+00   1.333558e+02
  -1.176822e+02   1.121079e+02
  -1.694481e+02  -2.069808e+01
  -1.264479e+02  -1.227134e+02
  -8.664480e+01  -2.607080e+02
   1.014725e+02  -1.171701e+02
   1.563626e+02   8.461998e+01
   1.205249e+02   1.745360e+02
  -5.367091e+01   1.807251e+02
  -2.060863e+02   1.464384e+01
  -2.334124e+02  -1.439718e+02
  -8.730902e+01  -2.388055e+02
  -7.493855e+00  -1.738657e+02
   9.862022e+01  -9.930158e+01
   9.649499e+01  -4.481195e+01
   1.477997e+02  -5.313225e+01
   2.129770e+02  -2.452797e+01
   3.260307e+02   1.027355e+02
   2.493426e+02   2.820393e+02
   1.298605e+01   3.431017e+02
  -2.308615e+02   3.132939e+02
  -4.929313e+02   1.013053e+02
  -2.006709e+02  -9.212804e+01
   2.137338e+01  -1.870501e+02
   9.811366e+01  -1.204911e+02
  -2.130789e+01  -3.619030e+01
  -9.884417e+01   2.108435e+01
  -9.190885e+01  -3.719116e+01
   4.393399e+01  -1.260924e+02
   5.942947e+01  -1.167873e+02
   3.038951e+01   2.413210e+01
  -1.174393e+01   5.796716e+01
  -9.971726e+01  -2.771523e+01
  -7.536347e+01  -1.736004e+02
   5.568735e+01  -2.104050e+02
   2.228665e+02  -2.273872e+02
   2.675585e+02   8.048259e+01
   2.122913e+02   2.449622e+02
  -1.183964e+01   2.117481e+02
  -1.258746e+02   1.137167e+02
  -5.580503e+01  -4.481215e+01
   5.091773e+00  -9.048671e+00
   4.405278e+01   9.053621e+01
   5.998613e+00   7.206668e+01
  -1.309097e+02   5.192032e+01
  -7.990863e+01  -3.834763e+01
  -2.960665e+01  -4.421451e+01
   6.640917e+01   2.823141e+01
   6.771099e+01   7.894572e+01
  -1.316461e+02   4.706976e+01
  -2.523811e+02  -1.264666e+01
  -1.570712e+02  -1.409327e+02
   4.424163e+01  -2.493221e+02
   1.696683e+02  -1.579113e+02
   2.162037e+02  -7.965496e+01
   1.068656e+02   3.188624e+01
  -5.691720e+01   6.689396e+01
  -1.995674e+01  -4.941495e+00
   4.169267e+01  -9.685966e+01
   1.398308e+02  -3.466633e+00
   1.606643e+02   1.106555e+02
   1.418034e+01   1.251358e+02
  -7.440248e+01   1.214030e+02
  -8.219539e+01  -3.604741e+00
  -1.995650e+01  -3.168807e+01
   5.132935e+01   2.063567e+01
   2.680963e+01   9.851221e+01
  -8.937870e+01   8.857879e+01
  -1.809897e+02  -5.133103e+01
  -1.539104e+02  -1.012970e+02
   2.729217e+00  -1.820285e+02
   1.147636e+02  -9.752990e+01
   9.455368e+01   8.813532e+00
   3.539341e+01   3.687907e+01
  -7.256587e+01   9.067025e+01
  -2.682958e+01   3.255114e+01
   2.994023e+01  -2.898207e+01
   3.418758e+01  -2.757592e+01
  -3.199894e+00   2.189782e+01
  -4.534872e+01   8.904762e+00
  -1.017643e+02  -7.529875e+01
   1.419811e+00  -1.116889e+02
   1.096227e+02  -8.694354e+01
   1.798120e+02   4.929470e+00
   9.938009e+01   1.232169e+02
  -2.523656e+01   1.343964e+02
  -9.200153e+01   1.156623e+02
  -8.641254e+01   5.910830e+01
  -3.028498e+01  -1.544965e+00
  -3.539311e+01  -9.348229e+00
  -5.380141e+01   3.216107e+01
  -7.478732e+01   1.719714e+01
  -2.129010e+01  -6.621122e+01
   1.866385e+01  -8.371774e+01
   5.868888e+01  -9.572531e+01
   1.163649e+02   4.904621e+01
  -2.780209e+01   1.020172e+02
  -1.329250e+02   6.816697e+01
  -1.195835e+02  -1.774165e+01
  -7.110057e+01  -2.128345e+02
   1.544501e+02  -1.552942e+02
   1.999707e+02  -3.455861e+01
   2.405466e+02   4.561909e+01
   9.785878e+00   8.760850e+01
  -3.471088e+01   9.817397e+01
  -8.377384e+01   3.983617e+01
  -7.757229e+01   7.699803e+01
  -4.202024e+01   7.158780e+01
  -7.730376e+01   2.597632e+01
  -9.374547e+01   8.009875e+00
  -8.439698e+01  -1.357879e+02
  -4.071927e+01  -1.921026e+02
   5.985969e+01  -1.171282e+02
   1.257793e+02  -1.649995e+01
   8.716371e+01   9.205036e+01
   6.661813e+00   1.135537e+02
  -8.332079e+01   8.172753e+01
  -8.363042e+01   2.470965e+00
  -1.417423e+01  -4.057147e+01
  -3.545876e+00  -2.810532e+01
  -2.931040e+01   3.822588e+00
  -6.665884e+01  -9.574527e+00
  -2.083251e+01  -2.742213e+01
   5.430057e+01  -2.101602e+01
   1.686512e+02   2.134358e+01
   9.164415e+01   5.095302e+01
  -4.135618e+01   8.555992e+01
  -1.040489e+02   6.026971e+01
  -1.312156e+02  -5.986803e+00
  -4.994101e+01  -4.834749e+01
   3.419971e+01  -5.342879e+01
   6.760362e+01   2.510388e+01
   2.929752e+01   7.163820e+01
  -3.379042e+01   4.718041e+01
  -4.718229e+01  -1.729930e+01
  -5.609208e+01  -3.118150e+01
  -6.733524e+01  -8.343011e+00
  -4.982959e+01  -1.157134e+01
  -5.521181e+01  -2.776044e+01
  -2.461393e+01  -7.564814e+01
   1.340916e+01  -7.785105e+01
   7.584667e+01  -1.093675e+02
   1.446285e+02  -1.397087e+01
   1.207554e+02   1.100241e+02
  -2.148959e+01   8.911119e+01
  -7.397941e+01   6.079385e+01
  -3.301055e+01  -1.903130e+01
   5.524067e+01  -2.656544e+01
   7.441003e+01   3.784885e+01
   5.262576e+01   1.062587e+02
  -7.132181e+01   7.377549e+01
  -1.467235e+02   2.428456e+01
  -1.178218e+02  -3.388855e+00
   1.045231e+01  -6.640082e+01
   5.072688e+01  -5.254941e+01
   3.932279e+01  -2.432979e+01
  -4.340332e+01   1.243191e+01
  -7.161173e+01   1.043111e+01
  -4.434756e+01  -1.007375e+02
   5.897324e+01  -1.346891e+02
   1.317018e+02  -2.539335e+01
   1.225819e+02   6.412074e+01
   1.891426e+01   1.572822e+02
  -8.838709e+01   1.107574e+02
  -7.958238e+01  -2.041929e+01
  -3.801513e+01  -9.186023e+01
   1.599171e+01  -1.028363e+02
   6.359794e+01   9.519571e+00
   2.878407e+01   4.606900e+01
   4.418744e+00  -1.595222e+01
   4.710664e+01  -2.848266e+01
   2.095382e+01   7.965093e+00
   8.107223e+01   7.727942e+01
   3.625452e+01   1.054448e+02
  -5.353142e+01   4.040072e+01
  -1.340200e+02   9.652483e+00
  -8.306976e+01  -6.352291e+01
  -2.667570e+01  -6.526648e+01
   3.826613e+01  -1.273643e+01
   5.931929e+01  -4.279676e+01
   1.659591e+01  -1.475679e+01
  -1.824880e+01   1.646869e+01
   6.213641e+00   2.859577e+01
   7.223796e+00   2.629158e+00
  -2.421547e+01   3.644368e+00
  -2.339044e+01   3.928135e+00
  -4.119882e+01  -6.116318e+00
  -4.497133e+01  -6.198086e+01
   1.097038e+02  -1.199207e+02
   1.492254e+02  -3.504120e+01
   1.235025e+02   4.718572e+01
   1.025832e+01   1.282488e+02
  -8.452100e+01   1.101354e+02
  -9.066072e+01   5.809578e+01
  -7.875067e+01  -1.652739e+01
  -2.153608e+01  -1.739578e+01
  -3.594540e+00  -1.215747e+01
   2.319838e+01   8.695401e+00
  -1.856942e+01  -5.685204e+01
  -1.937265e+01  -8.458952e+01
   1.392722e+01  -6.428333e+01
   8.648284e+01   4.860135e-01
   5.326950e+01   8.960108e+01
  -4.127366e+00   9.169574e+01
  -3.538013e+01   3.066593e+01
  -8.171348e+01  -6.532252e+01
  -5.130299e+01  -7.299233e+01
   3.557674e+01  -3.912572e+01
   8.284121e+01  -5.151330e+00
   4.126299e+01   7.337273e+01
  -1.455022e+01   3.541651e+01
  -3.392354e+01   2.912364e+01
   4.413620e+01  -2.424711e+01
   6.698332e+01   1.432896e+01
   1.396674e+01   2.591041e+00
  -9.021753e+01   5.255073e+01
  -1.088695e+02   1.236059e+01
  -3.229667e+01  -7.181020e+00
   2.078838e+01  -7.091743e+01
   5.935928e+01  -2.984691e+01
   3.115610e+01  -6.854440e+00
  -8.064495e+00   6.377051e+01
  -2.503233e+01   5.295510e+01
  -5.808255e+01   1.837092e+00
  -9.070762e+00  -3.579210e+01
   3.316470e+00  -3.758638e+01
   4.505526e+01  -2.224122e+01
   1.761620e+01   5.608718e+01
   5.397362e+01   3.397672e+00
   8.491035e+00  -6.048776e+00
   1.571296e+01  -6.226866e+00
   2.095500e+01   1.491583e+01
   2.005099e+01   5.306773e+01
  -8.090304e+00   2.969371e+01
  -4.279462e+01  -1.940272e+01
  -1.170269e+01  -1.921588e+01
   3.854273e+01   1.765297e+01
   6.868303e+01   1.882926e+01
   9.234468e+00   3.733241e+01
  -4.912668e+01   2.849330e+01
  -6.347479e+01   2.182973e+01
  -1.182131e+01  -3.667953e+01
   1.453726e+01  -4.303063e+01
   5.954008e+01  -2.149385e+01
  -1.967553e+01   9.367305e+00
  -5.596090e+01  -2.496553e+01
  -2.821046e+01  -1.333187e+00
   4.527029e+01  -1.843619e+01
   4.681048e+01  -1.441496e+01
