
 $NMID
 id='ANONYMOUS ', fmtdat='(2E16.6)'
 volume=1.0
 tramp=1.0
 $END
   1.844105e+03   3.325468e+02
   1.117364e+03   6.709368e+02
   3.724350e+02   1.204976e+03
  -8.129272e+02   9.375432e+02
  -6.086546e+02   3.551659e+02
  -2.037153e+02  -1.561042e+02
   9.838308e+01  -1.948756e+02
   7.466795e+01   2.428146e+02
  -1.945008e+02   2.898461e+02
  -2.468537e+02   1.229702e+02
  -3.318696e+02  -2.480138e+02
  -2.114986e+01  -3.608931e+02
   1.346808e+02  -1.934878e+02
   2.045635e+02   5.972465e+01
  -1.217473e+02   2.717961e+02
  -1.731069e+02   6.024566e+01
  -2.184313e+02  -2.934528e+02
  -9.694112e+00  -4.766690e+02
   3.409181e+02  -2.210615e+02
   3.026305e+02   4.397183e+01
   1.789310e+02   2.254287e+02
  -5.988342e+01   1.648125e+02
  -3.931825e+01   6.972100e+01
   1.023621e+02   1.236357e+02
   1.037215e+02   2.201035e+02
   2.396203e+00   1.749199e+02
  -2.984763e+02   6.136923e+01
  -3.695514e+02   2.874464e+01
  -1.417105e+02  -2.086023e+02
   2.710545e+02  -3.619661e+01
   2.541384e+02   6.048580e+01
   1.068265e+02   1.829668e+02
  -2.062757e+02   1.540139e+02
  -2.434175e+02   8.767536e+01
  -1.867292e+02  -1.377708e+01
  -5.990475e+01  -1.562986e+02
   2.229419e+01  -7.475523e+01
  -8.518003e+01   2.970325e+01
  -5.788378e+01   1.305470e+01
  -9.108752e+01  -1.385642e+02
   1.589867e+02  -2.208159e+02
   6.077785e+01  -2.900353e+02
   2.496587e+02   1.177265e+01
   8.187309e+01   1.230123e+02
  -4.590121e+01   9.403522e+01
  -1.303431e+02  -1.664263e+02
   4.989971e+01  -1.777799e+02
   2.063248e+02  -9.730884e+00
   3.399963e+02   1.832981e+02
   6.563512e+01   2.415487e+02
  -1.478187e+02   1.460414e+02
  -3.577271e+02  -2.958195e+01
  -2.016763e+02  -1.273796e+02
   2.363648e+01  -1.314020e+02
   1.415069e+02  -5.986573e+01
   1.371015e+02  -2.391083e+01
   7.015483e+01   3.274259e-01
   1.188378e+01  -1.425755e+01
   1.821623e+01  -3.453836e+01
   1.173164e+02   3.056413e+00
   9.752128e+01   5.377876e+01
  -9.774735e+01   1.140551e+02
  -2.368514e+02   1.243972e+02
  -1.837513e+02  -5.361518e+01
   1.076822e+01  -2.529114e+02
   2.613321e+02  -2.277876e+02
   2.594706e+02  -5.911683e+01
   1.296183e+02   5.353553e+01
   9.277822e+00   1.690359e+02
   2.883154e+01   1.382282e+02
  -8.134839e+00   1.304097e+02
  -3.806555e+01   1.145516e+02
  -1.314935e+02   6.596537e+01
  -2.015871e+02  -6.028048e+00
  -1.571755e+02  -6.230895e+01
   1.519923e+00  -1.822963e+02
   5.437689e+01  -8.245237e+01
   1.011932e+02   4.925366e+01
   4.268229e+01   1.041678e+02
  -8.540521e+01   1.472135e+02
  -1.364400e+02   7.391185e+01
  -1.990242e+02  -1.688284e+02
  -1.220193e+02  -1.524950e+02
   4.481124e+01  -1.072645e+02
   8.409048e+01  -7.025979e+01
   7.603523e+01  -5.739303e+01
   1.554207e+02  -3.800432e+01
   1.797862e+02   4.113289e+01
   2.365621e+02   6.364673e+01
   2.354796e+02   1.811704e+02
  -4.759722e+01   2.735188e+02
  -1.753349e+02   2.503980e+02
  -2.876301e+02   1.183240e+02
  -1.364204e+02  -9.223401e+01
   4.091524e+01  -1.579375e+02
   4.427428e+01  -1.252435e+02
  -2.598900e+01  -4.024186e+01
  -1.063719e+02   6.171940e+00
  -9.525768e+01  -8.005528e+00
  -1.231941e+01  -1.011919e+02
   9.511073e+01  -3.568378e+01
   2.440579e+01   3.992364e+01
  -4.431678e+01   7.518374e+01
  -6.293701e+01  -5.317260e+01
  -8.257454e+01  -1.056918e+02
  -7.601530e+00  -2.447385e+02
   1.036534e+02  -1.557991e+02
   2.416273e+02   1.442624e+01
   1.663031e+02   1.834568e+02
   7.391634e+01   1.844421e+02
  -6.769753e+01   9.853097e+01
  -7.172398e+01   4.598940e+00
   1.138831e+01  -8.300938e+00
   3.830901e+01   2.066921e+01
   1.394744e+00   5.567923e+01
  -9.853577e+01   5.694922e+01
  -8.077358e+01  -1.941637e+01
  -9.503352e+00  -2.295110e+01
   5.100168e+01  -3.083458e+00
   2.436723e+01   4.974238e+01
  -1.102789e+02   3.525662e+01
  -2.518457e+02  -4.530234e+01
  -1.695207e+02  -1.345958e+02
  -8.081847e+00  -1.499729e+02
   1.623141e+02  -1.544063e+02
   1.372493e+02  -6.652395e+01
   3.138701e+01   8.706437e+00
  -1.622001e+01   1.017154e+01
  -2.700713e+01  -1.200491e+01
   1.965436e+01  -3.800309e+01
   1.350566e+02   1.594861e+01
   9.791488e+01   6.686491e+01
   4.976412e+01   9.107699e+01
  -7.040988e+01   8.482958e+01
  -9.436729e+01   7.918555e+00
  -1.082034e+01  -2.787828e+01
   4.041625e+01   1.062443e+01
  -5.806659e-01   8.174306e+01
  -4.053972e+01   8.384694e+01
  -1.353079e+02   3.320528e+01
  -8.917036e+01  -1.124764e+02
  -7.251846e+00  -1.832251e+02
   7.345171e+01  -9.538617e+01
   1.076252e+02   1.578503e+01
   2.138021e+01   5.277108e+01
  -2.979214e+01   5.109841e+01
  -5.844357e+01  -1.283089e+01
   2.142924e+00  -3.426134e+00
   3.410921e+01  -2.437995e+01
  -1.017532e+01   1.497712e+01
  -7.782853e+01   1.558034e+01
  -1.109958e+02  -8.629225e+01
  -1.321573e+01  -1.054821e+02
   1.121136e+02  -9.799343e+01
   1.497907e+02   1.600943e+01
   1.197783e+02   5.330878e+01
   2.585273e+01   1.211794e+02
  -5.452049e+01   1.070027e+02
  -5.233884e+01   9.194454e+00
  -9.409230e+01  -2.375037e+01
  -4.089945e+01  -5.671629e+01
  -1.929088e+01  -1.261813e+00
  -4.670988e+01  -1.193434e+01
  -7.221680e+01  -2.867264e+01
   6.661583e+00  -8.470374e+01
   9.481436e+01  -1.294021e+01
   9.418755e+01   6.404297e+00
  -2.571511e+01   9.877171e+01
  -9.737978e+01   6.682743e+01
  -9.592252e+01  -5.829490e+01
  -1.106870e+02  -1.448749e+02
   8.068188e+01  -1.139592e+02
   1.791159e+02  -4.747719e+01
   1.585538e+02   5.665654e+01
   7.592476e+01   1.010842e+02
  -2.165612e+01   1.003503e+02
  -4.722906e+01   5.638932e+01
  -4.609326e+01   5.042447e+01
  -2.469869e+01   7.871686e+01
  -6.972968e+01   4.244733e+01
  -3.728930e+01   2.496197e+01
  -5.800467e+01  -7.342938e+01
  -2.866901e+00  -1.495748e+02
   1.274040e+02  -1.229843e+02
   1.314663e+02   1.314515e+01
   6.022405e+01   4.755788e+01
   9.439313e+00   1.137944e+02
  -2.889272e+01   6.652237e+01
  -9.162173e+00  -2.356551e+01
   3.863369e+01  -4.166706e+01
   2.246303e+01  -4.025955e+01
   6.432610e+00   2.794276e+00
  -3.997991e+01   8.708689e-01
  -3.479831e+01  -1.170678e+01
   3.322712e+01   1.155970e+01
   1.574791e+02  -1.955503e+01
   1.063140e+02   7.824882e+01
  -3.711569e+01   4.713330e+01
  -7.879679e+01   4.594925e+01
  -1.231979e+02   5.064416e+00
  -6.018493e+01  -4.274495e+01
   6.137061e+01  -3.007230e+01
   6.427416e+01  -2.364583e+00
   1.332132e+01   4.296002e+01
  -4.331608e+01   7.332753e+01
  -6.256738e+01   1.160213e+00
  -4.240092e+01   2.306838e+01
  -3.758809e+01  -2.226724e+01
  -2.258819e+01   2.924934e-01
  -3.169343e+01   1.352787e+01
  -6.918055e+01  -5.336399e+01
   2.203666e+00  -8.267711e+01
   9.655086e+01  -9.431349e+01
   1.362525e+02   6.120312e+00
   9.271428e+01   8.953789e+01
  -9.076266e+00   1.037225e+02
  -8.517635e+01   4.509681e+01
  -3.159285e+01  -3.142381e+01
   2.013737e+01  -2.369274e+01
   9.775483e+01   8.644443e+00
   5.725801e+01   1.032764e+02
  -3.755852e+01   7.968361e+01
  -1.347721e+02  -1.045169e+01
  -9.491324e+01  -6.489123e+01
  -3.495911e+01  -3.996793e+01
   2.198660e+01  -2.686717e+01
   2.586998e+01   2.927580e+00
  -3.409856e+01   3.136376e+01
  -2.975600e+01  -2.338688e+00
  -1.467320e+01  -4.623672e+01
   4.538046e+01  -1.157780e+02
   1.038962e+02  -5.232486e+01
   6.731542e+01   6.327313e+01
   3.361068e+01   1.092887e+02
  -7.142658e+01   9.277407e+01
  -5.276850e+01  -2.589927e+01
  -3.035359e+01  -7.982417e+01
   3.005052e+00  -5.172265e+01
   6.486098e+01  -2.036103e+00
   1.648308e+01   2.805977e+01
   7.154381e+00  -9.665726e-01
  -4.915264e+00  -1.436090e+01
   1.187286e+01   1.093163e+01
   6.572995e+00   6.266709e+01
   2.674103e+00   6.011911e+01
  -4.043629e+01   2.630118e+01
  -1.101774e+02  -4.842325e+01
  -7.698471e+01  -2.836814e+01
  -4.036945e+01  -4.090595e+01
   4.922692e+01  -2.938917e+01
   8.121037e+01   8.590712e+00
   9.188662e+00   1.869324e+01
  -2.157647e+01  -8.655275e-01
  -6.391721e+00   1.663574e+01
   2.529151e+00   2.288582e+01
   2.989686e+01   4.679166e+00
  -7.517644e+00  -2.289638e+01
  -5.832819e+01  -1.738457e+01
   3.434525e+00  -8.313388e+01
   9.573628e+01  -7.897002e+01
   1.346320e+02  -3.399688e+01
   1.177072e+02   7.484720e+01
   7.503890e+01   9.274051e+01
  -5.399833e+01   9.647181e+01
  -8.446067e+01   5.212483e+01
  -3.191126e+01  -1.257795e+01
  -4.502113e+01  -9.416546e+00
   5.416977e+00  -2.390067e+01
   1.405514e+00  -1.868886e+01
  -3.929312e+01  -6.623526e+01
   2.288649e+01  -6.444399e+01
   2.468079e+01  -8.461575e+01
   3.432708e+01   2.824852e+01
   5.772340e+01   6.366668e+01
   3.619483e+01   5.976004e+01
  -4.451568e+01   8.900814e+00
  -8.432696e+01  -6.993549e+01
  -2.644197e+01  -4.204398e+01
   6.373643e+01  -2.728040e+01
   4.476734e+01   2.935090e+01
   6.009499e+01   3.518038e+01
  -3.782191e+01   2.253058e+01
  -1.758110e+01   1.032484e+01
   2.084917e+01  -8.822121e+00
   4.614945e+01  -3.347587e+01
   6.727954e+00   3.827512e+01
  -4.938110e+01   5.248307e+01
  -8.035514e+01   1.457322e+01
  -2.353946e+01   1.031521e+01
  -1.825440e+01  -7.266542e+01
   6.014784e+01  -6.712665e+01
   4.260453e+01  -3.785294e+01
  -3.119964e+01   4.836015e+01
  -4.674309e+01   3.400960e+01
  -3.825489e+01   1.067725e+01
  -2.124819e+01  -3.214897e+01
  -3.540426e+00   1.913375e+00
   2.479968e+01  -1.537465e+01
   3.692084e+01  -1.180707e+00
   1.153670e+01  -3.530552e+00
  -2.077771e+01  -1.996483e+01
  -3.166687e+01  -1.521430e+01
   1.839027e+01   1.008793e+01
   7.040942e+00   3.476645e+01
   1.103465e+00   2.412949e+01
  -7.568459e+00  -2.567790e+01
  -2.655333e+01  -3.154204e+01
   4.846778e+00  -2.187982e+01
   4.658800e+01   3.902881e+01
   2.497684e+01   2.527056e+01
  -3.743525e+01   1.675871e+01
  -6.368804e+01  -2.992345e+01
  -1.995834e+01  -5.531854e+01
   9.583402e+00  -4.746722e+01
   4.865560e+01  -3.120835e+01
   3.246199e+00   1.267231e+00
  -1.128251e+01  -7.114076e-01
  -2.540098e+01  -1.826680e+01
  -1.006221e+01  -2.845596e+01
   5.568503e+01  -1.910852e-01
