
 $NMID
 id='ANONYMOUS ', fmtdat='(2E16.6)'
 volume=1.0
 tramp=1.0
 $END
  -1.180130e+03   2.756128e+02
  -1.331514e+03  -5.492313e+02
  -1.537785e+02  -8.575271e+02
   3.480100e+02  -1.046359e+03
   4.987564e+02  -2.281501e+02
   1.385913e+02  -1.125320e+02
  -1.398686e+02   1.823672e+02
  -8.062186e+01  -8.269843e+01
   9.534201e+01  -1.865460e+02
   1.630897e+02  -1.935460e+02
   1.921484e+02   2.042502e+02
   3.212317e+01   2.501480e+02
  -7.036533e+01   1.794330e+02
  -1.733880e+02  -1.673474e+02
   3.791882e+01  -2.081415e+02
   1.348860e+02  -6.835778e+01
   1.789659e+02   1.662521e+02
  -7.380726e+01   3.508045e+02
  -2.342182e+02   1.485629e+02
  -2.862232e+02  -9.089460e+01
  -9.492255e+01  -1.234551e+02
   5.356825e+01  -1.540844e+02
   3.754515e+01  -9.304817e+01
  -8.589185e+01  -6.110061e+01
  -1.558459e+02  -1.796174e+02
   6.751191e+01  -1.335182e+02
   2.132057e+02  -3.910434e+01
   3.702092e+02   5.148535e+01
   8.604074e+01   1.727956e+02
  -1.217281e+02   6.599359e+01
  -1.577432e+02  -3.173041e+01
  -3.707758e+01  -1.726085e+02
   1.020991e+02  -1.263100e+02
   2.037361e+02  -9.412189e+01
   1.665698e+02   2.845144e+01
   5.534153e+01   8.749215e+01
   6.064749e+01   1.089458e+02
   9.156290e+01  -4.181305e+00
   5.801133e+01  -1.181210e+01
   2.170365e+01   1.386436e+02
   2.587606e+01   2.259651e+02
  -2.405788e+01   1.505388e+02
  -1.370723e+02   2.988967e+01
  -4.263888e+01  -6.110849e+01
  -3.465291e+00  -7.090797e+01
   4.410144e+01   1.722260e+02
  -2.677406e+01   2.001083e+02
  -1.875072e+02   3.899285e+01
  -2.020003e+02  -1.120553e+02
  -8.982510e+01  -3.009458e+02
   1.242503e+02  -1.011552e+02
   2.660526e+02   2.145242e+01
   1.826021e+02   1.480011e+02
   7.479635e+01   7.816132e+01
  -9.066518e+01   8.758648e+01
  -1.165357e+02   4.070002e+01
  -3.626765e+01  -4.156218e+01
   1.765536e+01  -2.761837e+01
  -2.346639e+01   3.677180e+01
  -1.274349e+02   3.873635e+01
  -5.928131e+01  -6.487366e+01
   5.852797e+01  -1.360674e+02
   1.840832e+02  -8.154329e+01
   1.397872e+02   3.743053e+01
   2.665098e+01   1.961536e+02
  -1.691636e+02   1.852191e+02
  -1.864082e+02   1.121424e+02
  -1.243090e+02  -7.270481e+01
  -1.775229e+01  -1.349329e+02
  -1.362362e+01  -1.528609e+02
   5.957069e+00  -1.006969e+02
   3.132689e+01  -6.454755e+01
   7.975225e+01  -3.218846e+01
   1.200110e+02   1.907982e+00
   1.453076e+02   5.739017e+01
  -3.054022e+00   1.343852e+02
  -6.744603e+01   6.944572e+01
  -8.637004e+01  -7.456208e+01
  -6.219773e+01  -7.234355e+01
  -9.848100e+00  -1.212869e+02
   1.657604e+02  -1.151382e+01
   7.016037e+01   8.526403e+01
   9.734226e+01   1.314835e+02
   2.014287e+01   1.330764e+02
  -6.257459e+01   7.296884e+01
  -1.842877e+01   3.285374e+01
  -5.900380e+01   5.269928e+01
  -1.369837e+02  -3.023214e+01
  -1.592218e+02  -6.640203e+00
  -2.205455e+02  -1.553584e+02
   5.155823e+01  -1.962601e+02
   1.505366e+02  -1.920601e+02
   2.376514e+02  -1.909100e+02
   1.353649e+02   4.427232e+01
  -5.346941e-01   1.317440e+02
  -2.097682e+01   8.115884e+01
   3.185208e+00   4.409654e+01
   4.741970e+01  -2.106212e+01
   7.319189e+01   5.852136e+01
  -2.320448e+00   7.742124e+01
  -2.266581e+01   2.126925e+01
  -6.664424e+01  -2.388163e+01
   1.194217e+01  -5.490327e+01
   4.227846e+01  -7.708090e+00
   6.195246e+01   6.396078e+01
   4.057176e+01   2.134303e+02
  -1.041403e+02   1.036686e+02
  -1.758188e+02  -3.337487e+01
  -1.638057e+02  -7.872284e+01
  -2.846323e+01  -1.464596e+02
   9.253267e+01  -7.101684e+01
   3.792880e+01  -3.411039e+01
   1.836823e+01  -1.882441e+01
  -3.361642e+01  -4.193085e+01
   1.135414e+01  -4.775516e+01
   4.371469e+01  -3.019244e+01
   6.519837e+01  -5.800514e+00
   8.122336e+00   2.034020e+01
  -6.405799e+01  -1.145855e+01
  -3.747021e+01  -2.913563e+01
   8.441305e+01  -5.117202e+01
   1.635356e+02   2.542845e+01
   1.348401e+02   1.102713e+02
   2.669963e+01   1.278496e+02
  -1.187670e+02   5.840761e+01
  -9.952895e+01   8.290397e+01
  -6.845146e+01  -2.257702e+01
   8.118416e+00  -1.701441e+01
   2.282460e+01  -1.357608e+01
  -3.009655e+01   2.339657e+01
  -8.720556e+01  -1.526976e+00
  -9.847254e+01  -4.560209e+01
  -6.515279e+01  -9.962955e+01
   3.536197e+01  -4.877575e+01
   6.539230e+01   2.274065e+01
  -1.960019e+00  -1.061739e+01
  -2.444125e+01   6.465233e-01
  -2.448144e+01  -2.156671e+01
   4.176871e+01  -7.611121e+01
   1.053936e+02  -2.504924e+01
   1.035869e+02   9.038372e+01
   2.743048e+01   1.194963e+02
  -8.549272e+01   3.805446e+01
  -8.678939e+01  -4.391228e+01
  -5.225474e+01  -1.688574e+01
  -5.853624e+00  -4.839799e+01
   2.944052e+01   1.240995e+01
   5.006014e+00   2.122818e+01
  -4.230084e+01   1.540188e+01
   1.236880e+01  -3.122541e+01
   4.848452e+01  -4.795676e+00
   6.483488e+01   4.156280e+01
   3.150663e+01   1.004303e+02
  -7.567205e+01   6.218158e+01
  -1.032601e+02   1.837556e+01
  -1.014196e+02  -3.577468e+01
  -3.718706e+01  -1.104390e+02
   3.941780e+01  -1.086565e+02
   7.161409e+01  -1.539226e+01
   4.639747e+01   2.681391e+01
   8.673045e+00   2.045535e+01
   3.723711e+01  -3.257445e+01
   4.210884e+01   4.714584e-01
   6.616866e+01   1.286413e+00
  -2.686362e+01   3.138528e+01
  -5.027775e+01   4.152380e+01
  -7.126944e+01  -1.235001e+01
  -8.837423e+00  -8.190945e+01
   9.761863e+01  -3.333875e+01
   7.337934e+01   7.468617e+01
   4.667448e+01   1.180720e+02
  -6.648338e+01   8.106941e+01
  -1.240322e+02   2.395815e+01
  -1.367552e+02  -2.526584e+01
  -6.383973e+01  -4.758223e+01
   3.180815e+01  -5.406627e+01
   5.259443e+01  -4.958828e+01
   7.026652e+01  -5.564636e+01
   4.089203e+01  -5.371182e+01
   3.016022e+01  -2.655080e+01
   1.047655e+02   1.337444e+01
   7.253705e+01   6.624510e+01
  -2.957079e+00   1.044861e+02
  -9.046143e+01   6.040711e+01
  -6.360531e+01  -1.211253e+01
  -7.221498e+01  -6.311361e+01
   1.967519e+01  -7.930283e+01
   5.209270e+01  -5.379405e+01
   2.898047e+01   3.010117e+01
  -2.688233e+01   1.288192e+01
  -3.135478e+01   1.008844e+01
  -1.636480e+01  -4.799964e+00
   4.671126e+01   2.145668e+01
   2.379921e+01   1.601694e+01
  -2.291260e+01   1.888097e+01
  -1.086732e+02   1.605939e+01
  -9.681393e+01  -3.065084e+01
  -5.310112e+00  -4.179319e+01
   6.373758e+01  -9.431378e+01
   1.051539e+02  -7.214575e+00
   2.211870e+01   1.189250e+01
  -4.738502e+01   5.628053e+01
  -5.145680e+01  -1.812208e+01
  -3.367086e+01  -3.474029e+01
   1.062046e+01  -6.466723e+01
   1.487361e+01  -3.058554e+00
   4.331178e+01   2.236929e+01
   7.059376e+00   2.868071e+01
   3.324649e+01   5.092564e+00
   4.058475e+01  -3.313147e+01
   4.737605e+01   5.237120e+01
   1.122996e+01   4.457080e+01
  -6.906000e+01   6.010215e+01
  -8.100759e+01   7.571611e+00
  -4.551965e+01  -5.217802e+01
  -1.678386e+01  -6.687283e+01
   2.559976e+01  -1.409695e+01
   8.316919e+00   1.523065e+01
  -6.558055e+01   4.524723e+01
  -7.327482e+01  -1.000122e+01
  -2.237412e+01  -8.219845e+01
   1.993804e+01  -4.978272e+01
   1.167286e+02  -1.026379e+01
   5.600738e+01   4.076060e+01
   2.542439e+01   8.407438e+01
   9.053686e+00   4.842279e+01
  -5.455847e+01  -1.062811e+01
   1.953968e+01  -1.907602e+01
   4.289137e+01  -1.550136e+01
   1.568151e+01   7.428580e+01
  -5.038312e+01   9.469034e+01
  -9.366267e+01   1.794192e+01
  -9.081040e+01  -8.544956e+01
  -1.124871e+01  -7.980011e+01
   3.043918e+01  -9.363571e+01
   4.955151e+01  -5.639821e+00
   1.037458e+01   6.607363e+01
   2.278221e+01   7.507743e+01
  -6.571817e+01  -4.094721e+00
  -2.070811e+01  -2.556329e+01
   5.263100e+00  -3.729456e+00
  -1.066879e+01  -1.146968e+01
  -5.279335e+01  -3.719449e+01
  -5.457185e+01  -5.297526e+01
  -1.836239e+01  -3.496213e+01
   1.738792e+01   3.231581e+00
   7.398083e+01   3.539070e+01
   3.204040e+01   2.878403e+01
   8.176415e-01   7.310212e+00
  -1.661033e+01   2.748188e+01
  -5.672830e+01   1.916822e+01
  -2.622307e+01  -1.896680e+01
   4.642962e+00  -4.884559e+00
  -5.007338e+00  -9.577898e+00
  -3.950197e+01  -8.906273e+00
  -3.846204e+01   1.996239e+01
   4.979054e+01   1.043294e+01
   6.088658e+01  -1.197435e+00
   6.233696e+00   4.310418e+01
  -3.886087e+01   5.567575e+01
  -1.449958e+02   4.994199e+01
  -8.232599e+01  -5.026938e+01
  -3.032007e+01  -9.832490e+01
   9.506330e+00  -5.763323e+01
   7.312885e+01  -5.873551e+01
   3.802768e+01   1.268261e+01
   1.321110e+01   2.860639e-02
   7.052463e+00   3.493227e+01
   3.325817e+01   2.976340e+00
   1.289555e+01  -3.135687e+00
   4.182699e+00   2.670209e+01
  -1.324045e+01   5.493560e+01
  -7.493123e+01   1.630324e+01
  -4.661180e+01  -5.280707e+01
  -4.070108e+01  -2.620448e+01
   5.944695e+01   5.870421e+00
   5.185799e+01   7.112239e+00
   2.484154e+01   3.343432e+01
  -1.545973e+01   3.464723e+01
  -5.339916e+01  -6.005752e+00
  -2.135708e+01  -6.127929e+01
   3.242854e+01  -4.792488e+01
   3.034824e+01  -3.766535e+00
  -1.564303e+01   6.178120e+00
  -5.858892e+01   1.365425e+01
  -1.075529e+01   5.885840e+00
   2.871812e+01  -3.984344e+01
   9.666856e+01  -8.576807e+00
   1.133456e+01   1.461298e+01
  -3.716370e+00   5.040746e+01
  -3.567421e+01   6.144603e+01
  -1.826560e+01   2.240975e+01
  -4.187143e+01  -5.968223e+01
   5.452101e+00  -1.255002e+01
   8.775398e+00  -1.257142e+01
   9.779624e-01   2.931416e+01
   9.255872e+00   3.797366e+00
  -2.906600e+01   1.072277e+01
  -1.679343e+01   4.943963e+00
  -8.510233e+00  -2.777114e+01
   6.145422e-01   4.391999e+00
   2.077778e+00  -2.322219e+01
   7.179925e+00  -1.986383e+01
  -2.127793e+01  -2.342632e+01
  -3.604420e-01  -5.021174e+00
   2.580748e+01   6.388069e-01
   2.143142e+01   2.180342e+01
   6.182078e+00   1.567899e+01
  -3.316945e+01  -1.006528e+01
  -2.762064e+01  -2.153864e+01
   1.396993e+01  -1.541145e+01
   2.442044e+01   1.998975e+01
   1.898761e+01   3.230512e+01
  -5.676757e+01   2.957674e+01
  -5.635099e+01   3.103946e+01
  -1.069794e+01   4.365960e+01
   1.265606e+01   2.693704e+00
   3.236956e+01   1.258563e+01
   1.017475e+01   9.664195e+00
  -5.129609e+01   2.779878e+01
