
 $NMID
 id='ANONYMOUS ', fmtdat='(2E16.6)'
 volume=1.0
 tramp=1.0
 $END
   3.316462e+03   2.177146e+02
   1.621998e+03   1.662027e+03
  -7.794859e+02   1.919599e+03
  -1.399938e+03   5.620150e+02
  -6.556550e+02  -6.678454e+02
   5.240026e+02  -4.716562e+02
   7.091930e+02   3.337301e+02
  -5.911358e+01   8.687834e+02
  -6.765897e+02   5.208104e+02
  -7.430070e+02  -1.344681e+02
  -2.790561e+02  -6.350605e+02
   2.411803e+02  -6.641802e+02
   5.232480e+02  -1.181245e+02
   2.380730e+02   5.590378e+02
  -2.381405e+02   5.539580e+02
  -4.992332e+02   1.163948e+00
  -1.708852e+02  -5.318921e+02
   2.888342e+02  -4.747435e+02
   4.470628e+02  -7.579379e+01
   2.832952e+02   3.040811e+02
  -4.221165e+01   3.674918e+02
  -2.035203e+02   1.995887e+02
  -1.511415e+02  -1.990429e+01
   7.789845e+01  -1.682195e+01
   3.042483e+02   1.113212e+02
   1.546726e+02   3.830319e+02
  -3.670223e+02   2.678287e+02
  -5.796565e+02  -4.777499e+01
  -3.007313e+02  -3.926183e+02
   3.330808e+02  -3.376341e+02
   6.178416e+02   8.956586e+01
   2.876338e+02   3.939626e+02
  -2.466409e+02   4.008992e+02
  -3.858162e+02   7.473749e+01
  -2.614534e+02  -1.745213e+02
  -3.585485e+01  -3.872175e+02
   1.519328e+02  -1.801570e+02
   6.969797e+01   1.720135e+02
  -1.938945e+02   3.446296e+02
  -4.027314e+02  -8.528210e+01
  -1.196843e+02  -4.639941e+02
   2.255842e+02  -5.380190e+02
   3.381599e+02  -4.426057e+01
   1.294699e+02   4.271970e+02
  -2.151001e+02   1.964487e+02
  -3.213189e+02  -2.216009e+02
   8.691880e+01  -4.189185e+02
   3.445855e+02  -6.637723e+01
   3.656736e+02   4.004409e+02
   7.547313e+01   4.814133e+02
  -3.479539e+02   2.708247e+02
  -4.341016e+02  -1.349087e+02
  -2.408241e+02  -3.187286e+02
   7.519333e+01  -2.445152e+02
   3.438138e+02   1.668345e+01
   1.376887e+02   9.640819e+01
  -8.958423e+01   6.403203e+01
  -1.060381e+02  -1.544399e+02
   1.316851e+02  -1.193867e+02
   2.588391e+02   3.764026e+01
   7.137285e+01   2.119084e+02
  -1.940091e+02   1.760496e+02
  -2.197542e+02   5.820245e+01
  -1.067760e+02  -1.055285e+02
   6.665618e+00  -1.438247e+02
   1.936144e+02  -2.904671e+02
   2.917925e+02  -1.914735e+02
   2.077997e+02   9.425585e+01
   1.525286e+01   3.175250e+02
  -1.321045e+02   2.716826e+02
  -1.253526e+02   9.363908e+01
  -5.247235e+01  -2.587528e+00
  -5.950250e+01   1.996226e+01
  -1.682905e+02   9.274910e+01
  -1.727632e+02  -5.390010e+01
  -1.222300e+02  -2.016279e+02
   3.251716e+01  -2.083967e+02
   1.823025e+02  -2.063018e+01
   1.473260e+02   2.179954e+02
   5.614141e+00   1.999433e+02
  -1.798615e+02   2.588245e+01
  -3.063204e+02  -1.357607e+02
  -1.278137e+02  -2.504488e+02
   1.244722e+02  -2.540918e+02
   2.018507e+02  -1.072183e+02
   1.171530e+02  -3.565576e+00
   1.054694e+02  -3.173359e+01
   2.104392e+02  -1.066560e+02
   2.535747e+02   7.388350e+01
   2.231009e+02   1.995180e+02
  -2.646324e+01   3.768984e+02
  -3.278311e+02   2.708515e+02
  -3.369780e+02   2.001189e+02
  -2.500997e+02  -1.134699e+02
  -6.667678e+01  -2.547885e+02
   1.144392e+02  -1.517262e+02
   7.622025e+01  -1.699017e+01
  -1.075111e+02   8.105452e+01
  -1.486394e+02   2.142137e+00
  -3.132348e+01  -1.565394e+02
   1.288033e+02  -1.064104e+02
   1.204379e+02   4.287287e+01
  -4.076285e+01   1.566446e+02
  -1.607313e+02   2.049397e+01
  -1.051069e+02  -2.160484e+02
   2.051544e+01  -2.356748e+02
   2.049549e+02  -8.633332e+01
   2.592900e+02   7.597185e+01
   1.453658e+02   1.462902e+02
   4.545144e+01   1.209037e+02
  -7.765299e+01   8.730603e+01
  -1.581128e+02   9.559233e-01
  -6.454480e+01  -2.262297e+01
   5.966030e+01   2.664257e+01
   3.866911e+01   9.349499e+01
  -8.765401e+01   6.371746e+01
  -1.303943e+02   1.535852e+00
  -3.895420e+01  -6.863688e+01
   5.509357e+01  -3.733647e+01
   2.206931e+01   2.390615e+01
  -9.879841e+01   6.112654e+01
  -2.034227e+02   3.943676e+01
  -2.036281e+02  -1.222270e+02
  -2.658719e+01  -1.887258e+02
   1.514610e+02  -2.005210e+02
   2.189846e+02  -2.971042e+01
   1.376357e+02   3.578593e+01
  -2.976202e+01   1.063224e+02
  -6.098663e+01   2.742400e+00
   3.235480e+01  -8.893911e+01
   1.535331e+02  -7.410850e+01
   1.306052e+02   9.197404e+01
   5.942071e+01   1.448215e+02
  -8.623701e+01   1.205331e+02
  -1.012764e+02   2.502445e+01
  -6.454767e+01  -4.441330e+01
   1.294114e+00   4.609174e+00
   2.651691e+01   8.402282e+01
  -5.527203e+01   8.069474e+01
  -1.649304e+02   5.040194e+01
  -1.932172e+02  -1.034969e+02
  -2.245457e+00  -1.400212e+02
   1.312009e+02  -1.160820e+02
   1.398799e+02  -2.033319e+01
   4.382343e+01   7.905673e+01
  -1.473841e+01   8.779427e+01
  -7.129771e+01   1.701074e+01
   4.236228e+00  -1.911643e+01
   1.897451e+01  -1.699094e+01
  -1.395280e+01   1.017847e+01
  -4.380039e+01   4.222621e+00
  -5.434344e+01  -4.019588e+01
   3.455732e+00  -8.636794e+01
   1.138944e+02  -1.275389e+02
   1.341542e+02  -2.829378e+01
   1.362186e+02   1.204553e+02
   4.515216e+01   1.589567e+02
  -9.443237e+01   1.128399e+02
  -1.119445e+02  -1.787156e+01
  -2.837984e+01  -6.310551e+01
  -3.268536e+01  -4.709192e+01
  -3.012606e+01  -1.584234e+01
  -4.086659e+01   2.205978e+01
  -1.590733e+01  -4.489991e+01
   3.402263e+01  -5.796479e+01
   6.725396e+01  -3.684688e+01
   2.385368e+01   5.513077e+01
   2.216454e+00   5.864617e+01
  -1.261556e+02   3.868926e+01
  -1.688612e+02  -4.006034e+01
  -7.031682e+01  -1.265882e+02
   1.091102e+02  -2.126068e+02
   2.087509e+02  -3.236692e+01
   2.251796e+02   6.754113e+01
   6.027743e+01   1.561466e+02
  -3.290744e+01   1.250719e+02
  -9.327876e+01   6.072024e+01
  -7.640672e+01   7.187077e+01
  -5.486797e+01   6.150978e+01
  -7.972998e+01   4.463099e+01
  -9.742429e+01  -4.081793e+01
  -8.684757e+01  -1.221502e+02
  -3.798514e+01  -1.476121e+02
   9.393604e+01  -1.830607e+02
   9.483291e+01  -4.109261e+01
   7.274709e+01   8.599711e+01
  -2.594076e+00   1.324864e+02
  -3.834054e+01   5.756995e+01
  -5.227402e+01  -5.062614e+00
   2.602372e+00  -3.593006e+01
   2.137137e+01  -2.361493e+01
  -4.637044e+01  -1.649171e+01
  -3.888197e+01  -2.430426e+01
  -2.019291e+01  -2.834278e+01
   5.047709e+01  -3.382916e+01
   1.163640e+02  -1.768875e+01
   9.509515e+01   3.523881e+01
   6.885337e+00   4.526661e+01
  -8.810883e+01   3.365404e+01
  -1.364938e+02   6.882649e+00
  -2.507115e+01  -1.067078e+01
   9.997898e+00  -4.352722e+01
   5.164300e+01   1.146635e+01
   1.299214e+01   3.989660e+01
  -4.467318e+01   4.953666e+01
  -7.854219e+01   4.967481e+00
  -4.708460e+01  -6.491595e+01
  -3.611127e+01  -5.227559e+01
  -4.195080e+01  -1.804286e+01
  -4.157077e+01  -3.015891e+00
  -1.612887e+01  -3.539835e+01
   1.916882e+01  -9.472561e+01
   1.073692e+02  -1.139035e+02
   1.028297e+02  -7.042181e+00
   6.908226e+01   8.321856e+01
  -3.323399e+01   6.702245e+01
  -7.067140e+01   1.324450e+01
  -4.436081e+01   2.077810e+00
   2.645408e+01  -1.297672e+00
   1.112279e+02   5.052531e+01
   2.079442e+01   9.148114e+01
  -8.238477e+01   9.189793e+01
  -1.365871e+02   3.274258e+01
  -1.178043e+02  -1.692836e+01
  -8.143550e+00  -7.318911e+01
   4.644027e+01  -5.691537e+01
   1.044829e+01  -5.956199e+00
  -3.128763e+01  -6.713083e+00
  -7.046537e+01  -1.153556e+01
   6.988841e+00  -8.612996e+01
   9.547698e+01  -5.397754e+01
   1.366453e+02  -4.340489e+01
   9.497271e+01   6.495621e+01
   2.793901e+01   1.283457e+02
  -9.071532e+01   1.179303e+02
  -9.209748e+01  -1.180590e+01
  -1.510939e+01  -7.736107e+01
   2.284039e+01  -6.020661e+01
   1.305847e+01  -1.626089e+01
   2.866708e+01   5.514727e+01
  -6.793899e+00  -1.309824e+01
   3.748101e+01  -5.000784e+00
   4.540712e+01   2.283894e+01
  -4.568113e-01   6.387843e+01
   3.302295e+01   9.681938e+01
  -2.787086e+01   3.665436e+01
  -1.106017e+02  -3.986571e+01
  -1.010361e+02  -1.233429e+01
  -1.760110e+01  -4.625954e+01
   6.806454e+01  -2.547245e+01
   4.731556e+01  -1.265516e+00
  -4.640450e-01  -8.572585e-01
  -1.241027e+01   1.901384e+01
  -2.553670e+01  -1.312698e+01
   2.189641e+01   3.910267e+00
   3.995960e+00   8.124236e+00
  -3.470986e+01  -5.364152e+00
  -1.027796e+02  -2.423868e+01
   1.167581e+00  -3.509807e+01
   1.044006e+02  -7.394901e+01
   1.010393e+02  -9.950329e+00
   9.783827e+01   8.751376e+01
  -9.395253e+00   6.657318e+01
  -7.929203e+01   1.068840e+02
  -3.179363e+01   2.446941e+01
  -4.263576e+01  -3.247250e+01
  -1.676363e+01  -1.123681e+01
   1.432576e+01  -8.654164e+00
  -3.938378e+01  -4.473963e+00
  -3.549737e+01  -4.816123e+01
  -6.390445e+00  -6.389395e+01
   3.087730e+01  -4.274744e+01
   3.743497e+01  -3.691384e+01
   3.038376e+00   7.629235e+01
   1.421497e+01   8.962852e+01
  -8.748919e+01   2.877282e+01
  -6.665641e+01  -6.355264e+01
  -6.990042e+00  -7.500378e+01
   5.119373e+01  -2.705059e+01
   7.343444e+01  -1.265567e+01
   9.443852e+00   3.486133e+01
   1.985047e+00   3.451350e+01
  -3.049530e+01   1.577998e+01
   1.978596e+01   3.616321e+01
   4.455470e+01  -1.261210e+01
  -1.629690e+01   3.490892e+00
  -3.649268e+01   5.700851e+01
  -7.401817e+01  -7.925575e+00
  -4.936915e+01  -2.184016e+01
   3.059502e+01  -5.384117e+01
   1.611138e+01  -5.940711e+01
   3.136827e+01   3.375858e+00
   6.758947e+00   6.482000e+01
  -2.810723e+01   5.227706e+01
  -4.736922e+01   1.862098e+01
  -5.723787e+01  -2.968340e+01
   1.733855e+01  -1.148928e+01
   1.108575e+01   2.422158e+01
   2.969536e+01   1.966958e+01
  -6.159243e+00   1.136970e+01
  -4.182432e+00   1.764656e-01
  -1.936589e+01  -9.792662e+00
  -1.473803e+01   2.252290e+01
  -6.355500e+00   2.790765e+01
  -6.310161e+01   5.310244e+00
  -2.315459e+01  -4.893308e+01
  -2.506172e+01  -2.905969e+01
   2.157713e+01   9.032218e+00
   4.299613e+01   4.789186e+01
  -2.512593e+00   4.411106e+01
  -1.161434e+01  -2.321240e+00
  -2.185431e+01  -2.503456e+01
  -4.881232e+01   1.178268e+01
   3.256554e+01  -9.815518e+00
   4.760621e+01   6.524300e+00
   1.739061e+01  -1.704280e+01
   9.211635e-01  -3.329179e+01
  -2.893177e+01  -5.865276e+00
   1.879652e+01  -4.612461e+01
   6.506194e+01   4.048161e+00
