
 $NMID
 id='ANONYMOUS ', fmtdat='(2E16.6)'
 volume=1.0
 tramp=1.0
 $END
   2.570105e+03   6.251084e+02
   1.431766e+03   1.174061e+03
   6.905719e+01   1.466373e+03
  -9.530824e+02   9.698302e+02
  -7.137941e+02   4.521926e+02
  -2.299218e+00  -1.060864e+02
   1.732389e+02  -4.604266e+01
  -4.739904e+01   3.253112e+02
  -4.017346e+02   5.043975e+02
  -4.868938e+02   8.675723e+01
  -3.609496e+02  -3.396031e+02
  -2.427732e+00  -6.311519e+02
   2.251882e+02  -1.849359e+02
   1.241786e+02   2.723675e+02
  -1.014392e+02   4.634992e+02
  -2.554962e+02   1.037660e+01
  -1.726401e+02  -4.294875e+02
   8.689644e+01  -5.306159e+02
   4.521338e+02  -2.086046e+02
   3.876409e+02   7.869496e+01
   1.716794e+02   2.934708e+02
  -7.413614e+01   2.183739e+02
  -1.147081e+01   9.079194e+01
   2.075065e+02   1.145028e+02
   1.667674e+02   3.271650e+02
  -9.913860e+01   2.979403e+02
  -3.640796e+02   7.967100e+01
  -4.476880e+02  -2.282668e+02
  -1.049642e+02  -2.651518e+02
   3.062485e+02  -1.190832e+02
   4.640407e+02   1.965849e+02
   1.032921e+02   3.394750e+02
  -2.866442e+02   2.664136e+02
  -3.914135e+02   9.766859e+01
  -2.674114e+02  -1.411065e+02
  -4.425368e+01  -2.955865e+02
   3.954962e+01  -1.247376e+02
  -7.395185e+01   3.416090e+01
  -2.140324e+02   8.446815e+01
  -1.732072e+02  -1.631706e+02
   1.006130e+02  -3.965374e+02
   2.118648e+02  -3.834321e+02
   2.611725e+02   1.842409e+01
   4.986853e+01   2.732355e+02
  -9.779124e+01   9.570801e+01
  -7.297532e+01  -2.468767e+02
   1.386098e+02  -2.097413e+02
   3.084532e+02   7.441507e+01
   4.212981e+02   3.445454e+02
   1.550462e+02   3.971609e+02
  -3.085664e+02   1.703330e+02
  -3.743042e+02  -2.540676e+01
  -3.031507e+02  -2.286557e+02
   7.151232e-01  -1.771296e+02
   2.385425e+02  -6.870083e+01
   1.575189e+02   3.428133e+01
   6.664254e+01   2.193711e+01
  -7.355169e+01  -3.788842e+00
   1.128798e+02  -1.816218e+01
   2.127208e+02   4.021201e+01
   9.207094e+01   1.416385e+02
  -1.584209e+02   2.151742e+02
  -2.933641e+02   1.247778e+02
  -2.421749e+02  -9.887877e+01
   3.363337e+01  -2.620153e+02
   3.928727e+02  -3.243458e+02
   3.376059e+02  -1.412102e+02
   1.150253e+02   1.168764e+02
   5.504779e+01   3.032867e+02
  -4.923301e+00   2.885348e+02
   1.556668e+01   1.297719e+02
   3.332398e+00   1.695814e+02
  -1.482116e+02   1.104388e+02
  -2.625560e+02   4.317311e+01
  -1.875117e+02  -1.259945e+02
  -1.101482e+01  -2.303881e+02
   1.289507e+02  -1.641867e+02
   1.819568e+02   7.869269e+01
   8.765577e+01   2.044319e+02
  -7.098162e+01   2.255230e+02
  -2.017894e+02   1.146695e+01
  -2.430677e+02  -1.847814e+02
  -9.677278e+01  -2.576558e+02
   3.954378e+01  -2.274861e+02
   1.619243e+02  -1.330593e+02
   1.371125e+02  -5.453068e+01
   1.362607e+02  -4.366660e+01
   2.789875e+02  -1.396787e+01
   3.259076e+02   1.555812e+02
   2.616478e+02   2.157757e+02
  -6.152469e+01   4.054918e+02
  -4.165620e+02   3.544463e+02
  -4.121151e+02   7.012486e+01
  -2.541217e+02  -7.423567e+01
   2.210392e+01  -1.933565e+02
   1.020395e+02  -1.336479e+02
   9.181763e+00  -2.875991e+01
  -1.186408e+02   3.912837e+01
  -1.277922e+02  -7.995321e+01
   1.281048e+01  -1.179023e+02
   7.291772e+01  -8.407924e+01
   5.215725e+01   7.555915e+01
  -1.227114e+01   9.498233e+01
  -1.675122e+02  -5.079967e+01
  -8.608238e+01  -2.111529e+02
   5.008121e+01  -2.802975e+02
   1.849857e+02  -1.867892e+02
   3.627088e+02   5.006502e+01
   2.049120e+02   2.699544e+02
   7.253385e+01   2.327825e+02
  -1.414159e+02   1.138536e+02
  -1.346297e+02  -5.412554e+00
  -1.306416e+01   7.334567e+00
   1.893047e+01   4.893491e+01
  -2.268571e+01   1.290258e+02
  -1.168662e+02   6.252874e+01
  -1.051228e+02  -1.165986e+01
  -2.620145e+01  -5.697957e+01
   8.972127e+01  -7.128427e+00
   2.097254e+01   8.558552e+01
  -1.299864e+02   6.602457e+01
  -2.495032e+02  -8.621132e+01
  -2.070405e+02  -1.787580e+02
   7.784992e+00  -2.367103e+02
   1.995928e+02  -1.552591e+02
   2.330986e+02  -8.726174e+01
   8.432285e+01   8.051422e+01
  -5.923506e+01   6.243905e+01
  -7.218073e+01  -1.403325e+01
   4.921921e+01  -7.458798e+01
   1.963917e+02   1.950089e+01
   1.272799e+02   9.518942e+01
   5.191846e+01   1.736986e+02
  -1.152687e+02   9.874802e+01
  -1.323955e+02   8.128142e+00
  -1.913867e+01  -4.066345e+01
   4.575621e+01   1.625563e+01
  -3.811648e+00   9.620360e+01
  -7.928614e+01   1.101155e+02
  -1.538619e+02  -3.168492e+01
  -1.341929e+02  -1.350219e+02
   1.065972e+00  -1.495095e+02
   1.292576e+02  -1.243131e+02
   1.502354e+02   3.694788e+01
   2.134304e+01   1.007347e+02
  -5.866769e+01   4.455639e+01
  -7.176027e+01   8.818903e+00
  -2.358838e+00  -2.347784e+01
   3.590001e+01   5.744986e+00
  -1.467948e+01   5.298936e+01
  -6.441563e+01  -2.551177e+01
  -9.509138e+01  -8.512934e+01
  -2.931244e+01  -1.008324e+02
   1.306752e+02  -1.623653e+02
   1.956063e+02   6.955431e+01
   1.401734e+02   1.505393e+02
   6.572012e+01   1.948110e+02
  -6.829208e+01   1.843186e+02
  -1.234692e+02   2.694485e+01
  -7.461818e+01  -4.425021e+01
  -5.463814e+01  -2.118099e+01
  -8.032575e+01   1.900622e+00
  -6.667360e+01  -3.314220e+01
  -5.359341e+01  -8.210146e+00
   4.469934e+01  -9.812518e+01
   1.483791e+02  -4.949636e+01
   5.971391e+01   4.290122e+01
  -2.694273e+00   1.391590e+02
  -1.453022e+02   7.261621e+01
  -1.917205e+02  -1.095777e+02
  -6.504697e+01  -1.899546e+02
   1.092939e+02  -1.918006e+02
   2.499648e+02  -9.562984e+01
   1.860278e+02   1.387531e+02
   6.398270e+01   1.533873e+02
  -6.043540e+01   1.298167e+02
  -7.835505e+01   9.614301e+01
  -5.908405e+01   5.409312e+01
  -7.239965e+01   3.964925e+01
  -9.670501e+01   8.342092e+01
  -1.501294e+02   2.289579e+01
  -8.381379e+01  -1.297023e+02
  -6.361715e+00  -1.931081e+02
   1.491243e+02  -1.227120e+02
   1.557906e+02   4.642582e-01
   8.614607e+01   1.389758e+02
   6.073488e+00   1.387022e+02
  -7.503690e+01   7.753319e+01
  -5.068461e+01  -5.113266e+01
   3.195300e+01   3.946093e+01
   2.959399e+01  -2.828454e+01
  -1.090620e+01  -2.392219e-01
  -7.168738e+01  -7.202496e+00
  -4.980198e+01  -2.652206e+01
   6.587639e+01  -2.523497e+01
   1.701674e+02   2.884947e+01
   1.638830e+02   8.234098e+01
  -5.016723e+01   6.412185e+01
  -1.355547e+02   5.911404e+01
  -1.239042e+02  -4.437281e+00
  -4.136987e+01  -7.932960e+01
   6.039571e+01  -3.381882e+01
   6.837789e+01   4.213079e+01
   1.975493e+01   4.968335e+01
  -6.923560e+01   5.806613e+01
  -5.974571e+01   2.257092e+01
  -6.664566e+01  -3.895620e+01
  -6.882997e+01  -6.449009e+00
  -2.830475e+01  -2.174568e+01
  -4.604795e+01   7.425903e+00
  -5.241195e+01  -8.714748e+01
   6.588242e+01  -1.176230e+02
   9.956157e+01  -1.188913e+02
   1.693749e+02   3.078299e+01
   1.006735e+02   1.119607e+02
  -1.914325e+01   1.461066e+02
  -9.191141e+01   4.208485e+01
  -5.798515e+01  -1.197784e+01
   5.476489e+01  -1.549822e+01
   1.172053e+02   6.344788e+01
   8.355382e+01   1.098914e+02
  -9.542539e+01   1.172090e+02
  -1.723184e+02  -1.028033e+01
  -1.161740e+02  -6.058492e+01
  -4.299997e+01  -8.068546e+01
   9.526962e+01  -6.678142e+01
   5.110916e+01   1.311031e+01
  -2.464365e+01   3.446750e+01
  -8.579862e+01  -1.962579e+01
  -4.856520e+01  -9.763282e+01
   6.125780e+01  -1.260743e+02
   1.609245e+02  -7.368596e+01
   1.139002e+02   4.317203e+01
  -3.693233e+01   1.696766e+02
  -9.507994e+01   9.915994e+01
  -5.952653e+01  -2.639181e+01
  -1.524605e+01  -9.625329e+01
   2.375927e+01  -8.334250e+01
   5.307100e+01   1.122030e+01
   1.258170e+01   4.750437e+01
   3.595505e+01   2.815169e+01
  -1.254374e+01  -3.079991e+00
   8.722126e+00   2.966191e+01
   3.822415e+01   7.995760e+01
   2.123848e+01   1.283730e+02
  -6.068991e+01   2.709257e+01
  -1.228887e+02  -6.886502e+01
  -8.926109e+01  -8.996682e+01
  -2.134566e+01  -2.629841e+01
   9.080540e+01  -1.936942e+00
   9.507556e+01   1.075022e+01
   3.999416e+01   1.586338e+01
  -2.050021e+01   1.608647e+01
  -1.643278e+01   9.522714e+00
   2.477770e+01  -2.373714e+01
   2.016013e+00  -1.474132e+00
  -5.040093e+01   1.306104e+01
  -8.891687e+01  -5.552447e+01
  -1.583163e+01  -4.934549e+01
   1.062771e+02  -9.146473e+01
   1.583176e+02  -4.248007e+01
   9.245549e+01   5.935217e+01
   2.245568e+01   1.697778e+02
  -1.058301e+02   1.693468e+02
  -9.465289e+01   6.151913e+01
  -4.104669e+01  -1.008249e+01
   1.210428e+01  -4.382626e+01
  -5.584965e+00  -4.061007e+01
  -2.938395e+01   7.363783e-01
  -1.701547e+01  -7.828685e+01
   9.248753e+00  -9.690923e+01
   2.410388e+01  -9.137892e+01
   7.022564e+01   1.999564e+01
   4.885756e+01   7.678750e+01
  -3.124185e+00   8.255898e+01
  -7.553997e+01   3.788745e+01
  -5.169657e+01  -7.748559e+01
  -5.440955e+01  -1.284261e+02
   4.618267e+01  -5.574533e+01
   8.893731e+01   6.297483e+01
   2.931643e+01   5.649510e+01
  -6.045122e+01   2.230517e+01
  -5.759507e+01   2.053322e+01
   3.345829e+01   1.603989e+01
   4.339016e+01  -1.359501e+01
  -2.846227e+00   7.692439e+00
  -7.287622e+01   5.801070e+01
  -7.014804e+01   5.341276e+01
  -4.848822e+01  -7.428748e-01
   6.390685e+00  -9.148229e+01
   6.472458e+01  -9.630449e+01
   6.242131e+01  -8.103958e+00
   1.610372e+01   5.610036e+01
  -5.124350e+01   5.316460e+01
  -7.193857e+01   1.555177e+01
  -1.725492e+01  -5.736448e+01
  -2.391865e+01  -2.354960e+01
   4.373072e+01  -6.228291e+00
   4.589508e+01   3.796430e+01
   2.253237e+01   9.282181e-01
   1.413358e-01  -7.541253e-01
  -4.032613e+01  -1.216366e+01
  -2.801626e+00   1.353043e+01
   2.453030e+01   5.636244e+01
   5.704064e+00   4.420993e+01
  -1.390334e+01  -1.841766e+01
   1.975122e+01  -4.722493e+01
   3.247262e+01  -3.194320e+01
   6.128860e+01   3.972325e+01
   1.308828e+01   3.841318e+01
  -7.499462e+01   2.876245e+01
  -5.604575e+01  -4.693530e+00
  -6.593659e+01  -9.817923e+00
   3.608846e+01  -4.052272e+01
   3.642143e+01  -4.494842e+01
   2.951027e+01  -3.399948e+01
  -3.487104e+01   1.007733e+01
  -2.827896e+01   7.937375e-01
   2.150649e+01  -1.462683e+01
   8.786952e+01   4.533470e+00
