
 $NMID
 id='ANONYMOUS ', fmtdat='(2E16.6)'
 volume=1.0
 tramp=1.0
 $END
  -7.707019e+02   5.539282e+00
  -3.506879e+02  -9.260104e+02
  -4.502478e+01  -6.750832e+02
   7.235299e+02  -5.192964e+02
   1.504911e+02  -1.329350e+02
  -1.337477e+00   1.062962e+02
  -9.382606e+01  -4.456728e+01
   6.375534e+01  -1.977443e+02
   1.829053e+02  -2.143219e+02
   1.627141e+02  -1.334271e+01
   1.468008e+01   2.225897e+02
  -2.071004e+01   2.236552e+02
  -1.014930e+02   1.462621e+02
  -2.213762e+02  -1.899086e+02
   1.053131e+01  -2.156253e+02
   1.265244e+02   1.919230e+01
   1.535839e+02   2.074481e+02
   1.241684e+00   3.144476e+02
  -2.622455e+02   9.664756e+01
  -1.670742e+02  -3.951807e+01
  -2.411539e+01  -1.261023e+02
   3.785710e+01  -1.132472e+02
   5.499019e+01  -4.720359e+01
  -6.316315e+01   1.816968e+01
  -1.266352e+02  -1.048332e+02
  -1.287684e+01  -1.604783e+02
   1.066668e+02  -1.040434e+02
   1.811138e+02   6.477406e+01
   2.317063e+01   1.124170e+02
  -1.338588e+02   1.055126e+02
  -1.434192e+02  -6.646523e+00
  -9.341606e+01  -1.062124e+02
   1.034409e+02  -1.751665e+02
   2.199450e+02  -6.356264e+01
   1.197316e+02   1.538373e+00
   7.963006e+01   1.056087e+02
  -1.545091e+01   4.721575e+01
  -4.255080e+01  -6.455682e+01
   2.245789e+01  -1.009789e+02
   7.228036e+01  -2.371270e+01
   2.029403e+01   2.308739e+02
  -4.514043e+01   1.194586e+02
  -1.212303e+02  -1.153646e+01
  -2.186283e+01  -1.116819e+02
   3.780981e+01  -4.756043e+01
   7.824730e+01   6.426797e+01
  -1.287684e+01   1.573303e+02
  -1.931747e+02   1.809406e+01
  -2.381152e+02  -9.267557e+01
  -3.153732e+01  -1.404920e+02
   1.019811e+02  -1.307920e+02
   1.275600e+02   1.271358e+01
   1.149151e+02   4.003370e+01
  -7.806894e+00   9.727474e+01
  -1.099885e+02   2.605978e+01
  -9.880741e+01  -1.556696e+01
   5.587441e+00   1.814240e+01
   2.839344e+01   1.054096e+00
  -3.640480e+01   1.281254e+01
  -7.302337e+01  -1.899777e+01
  -2.154705e+01  -5.703215e+01
   5.403773e+01  -1.164589e+02
   1.085754e+02  -1.030674e+00
   1.103343e+02   7.234363e+01
  -6.663973e+01   1.461678e+02
  -7.747005e+01   9.349075e+01
  -1.105717e+02   9.171388e+01
  -6.390289e+01  -5.213902e+01
  -1.881509e+01  -1.298126e+02
   7.196146e+01  -8.300947e+01
   2.138436e+01  -8.826489e+01
  -8.510442e+00  -3.317010e+01
   8.421857e+00  -1.034718e+01
   8.466648e+01  -8.775597e+01
   5.466030e+01   9.065148e+00
   6.008541e+01   9.740937e+01
  -3.083493e+01   5.120748e+01
  -4.001465e+01   2.374969e+01
  -6.376812e+01  -9.211098e+01
   1.350253e+01  -8.293673e+01
   6.731349e+01  -3.165271e+00
   1.126130e+02   1.509396e+01
   6.585235e+01   9.141906e+01
   2.749124e+00   1.061981e+02
   1.338006e+01   7.199233e+01
  -4.386221e+01   2.229019e+01
  -6.519495e+01   3.798576e+01
  -9.895840e+01   5.170617e+01
  -7.795915e+01  -5.500999e+01
  -1.023260e+02  -8.354806e+01
  -5.327237e+01  -1.098031e+02
   1.318152e+02  -1.954645e+02
   2.105315e+02  -3.304258e+01
   7.373694e+01   7.583708e+00
   1.808717e+01   5.177672e+01
  -3.334234e+01   7.971589e+01
   1.576214e+01   5.363813e+00
   2.408369e+01  -2.749361e+01
   5.394795e+01  -1.042956e+01
   2.949307e+01   6.530825e+01
  -6.295447e-01   3.273497e+01
  -3.991258e+01   2.344482e+01
   7.231089e+00  -4.182215e+01
   4.885294e+01  -1.296864e+01
   1.752652e+01   6.595362e+01
   1.126234e+00   1.139263e+02
  -5.955631e+01   8.226017e+01
  -1.527065e+02  -6.414412e+00
  -1.121209e+02  -1.104954e+02
   2.121677e+01  -1.014829e+02
   5.639638e+01  -2.782028e+01
   6.150523e+01   2.029037e+01
   1.896259e+01  -2.747446e+01
  -1.865300e+01  -2.593535e+01
  -1.111878e+01  -5.490976e+01
   2.320859e+01  -3.680222e+01
   4.935909e+01   1.803918e+01
   3.369281e+01  -1.687335e+01
  -4.273385e+01   1.220624e+01
  -2.799443e+01  -3.137713e+01
   7.188472e+01  -5.121929e+01
   7.670513e+01  -1.689692e+01
   7.293552e+01   5.944887e+01
   5.548168e+01   6.164791e+01
  -1.029405e+01   5.515597e+01
  -9.482603e+01   2.837169e+01
  -6.722748e+01  -7.341646e+00
   1.260773e+01  -8.530950e+00
   2.464079e+00  -1.526886e+01
  -1.782188e+01   2.496352e+01
  -9.137479e+01   4.723284e+00
  -1.298862e+02  -1.786636e+01
  -2.215241e+01  -7.111725e+01
   2.792415e+01  -4.370490e+01
   4.061803e+01   2.505297e+00
   2.827977e+01   1.624763e+01
  -2.977976e+01  -1.715884e+01
   2.141629e+01  -8.871212e+00
   3.420904e+01  -3.479362e+01
   7.402051e+01  -1.213006e+01
   7.410960e+01   1.680282e+01
  -1.947841e+01   1.040428e+02
  -3.776262e+01   9.236492e+01
  -9.853448e+01   2.677733e+01
   2.243073e-01  -5.010160e+01
  -9.709407e+00  -4.428613e+01
  -4.046106e+00  -2.111137e+01
  -4.058793e+00   2.018962e+01
  -2.278921e+01   4.668147e+00
   1.267530e+01  -2.909131e+01
   1.238912e+01   2.678174e+01
   2.266560e+01   2.484908e+01
  -4.214854e+01   6.246017e+01
  -5.696301e+01   4.559736e+01
  -8.542608e+01  -9.272542e+00
  -7.544029e+01  -8.048071e+01
   1.495284e+01  -8.300163e+01
   4.077186e+01  -8.614777e+01
   5.186271e+01   3.089249e+00
   1.784594e+01   7.420904e+00
   1.023283e+01   9.094418e+00
   1.559032e+01  -9.794380e+00
   3.406247e+01  -1.710496e+01
   2.012218e+01  -3.250496e+01
   3.517176e+01   4.167601e+01
  -5.445648e+01  -8.599404e+00
  -5.328282e+01  -3.427094e+01
   3.996037e+01  -3.939952e+01
   2.057226e+01   8.904012e+00
   5.550085e+01  -2.626170e+01
   2.338567e+01   6.304506e+01
  -2.413234e+01   3.475715e+01
  -8.598284e+01   4.489709e+01
  -9.533038e+01  -2.659915e+01
  -1.990161e+01  -4.014417e+01
   1.950633e+01  -6.967354e+01
   2.058865e+01  -6.463438e+00
   5.627095e+01  -6.134700e+00
   2.470444e+01  -6.951829e+01
   1.489183e+01  -1.588124e+01
   6.749454e+01   2.083053e+01
   1.692027e+01   4.036814e+01
   1.384374e+01   4.546781e+01
   1.943076e+00   9.718140e+01
  -8.402420e+01   1.648397e+01
  -3.896293e+01  -4.896513e+01
  -4.192741e+01  -1.142946e+01
   4.921833e+01  -4.553775e+00
   2.867823e+01   1.399567e+01
   1.167541e+01  -1.131643e+01
   1.441595e+01   1.326698e+01
   7.250504e+00   1.198773e+01
   2.967827e+01  -2.373357e+01
  -1.667710e+01   2.364966e+01
  -2.011923e+01   2.156706e+01
  -4.792525e+01   2.909753e+00
  -2.472328e+01  -6.231381e+01
   1.516330e+01  -5.593336e+01
   5.413225e+01  -4.844561e+01
   3.988569e+01  -1.140055e+01
  -6.619230e+00   3.434273e+01
   2.020243e+01   1.358067e+01
  -7.012559e+01   1.994709e+01
  -2.182551e+01  -4.346849e+01
   6.054862e+00  -2.024228e+01
   2.587258e+01   7.748871e+00
  -2.001786e-01   3.407962e+01
   1.231833e+00   2.051886e+01
   7.753425e+00  -6.847732e+00
   3.268033e+01   5.535150e-01
   3.196511e+01   8.859375e+00
  -7.798834e-01   3.659893e+01
  -3.364274e+01   4.677969e+01
  -2.781809e+01  -1.312239e+01
  -5.751965e+01  -3.762011e+01
  -7.154960e+00  -5.967388e+01
   3.063544e+01  -3.646711e+01
   3.190405e+01   1.308990e+01
   4.582084e+00   2.126692e+01
  -4.977351e+01   8.038186e+00
  -5.885392e+01  -2.333980e+01
   2.730525e+01  -4.826718e+01
   7.879733e+01  -4.798822e+01
   7.452844e+01   6.881796e+00
  -1.340080e+01   3.101918e+01
  -2.018342e+01   2.041318e+01
  -4.690931e+01   1.557783e+01
   3.721459e-01  -1.389943e+01
   1.273987e+01   1.626134e+01
   2.772720e+01   1.997455e+01
  -8.207965e+01   6.005706e+01
  -2.758186e+01  -4.621667e+00
  -2.952700e+01  -1.375332e+01
  -6.392799e+00  -4.622728e+01
   4.621665e+00  -5.256383e+01
   4.380325e+01   1.806936e+01
  -8.198648e-01   3.555610e+01
   2.489556e+01   6.070065e+01
  -8.076162e+00  -2.378339e+01
  -1.752345e+00  -9.157712e+00
   5.877113e+00   1.394127e+01
  -1.281106e+01  -5.451845e-01
  -3.775096e+01  -1.533436e+01
  -2.864416e+01  -2.838391e+01
  -2.872649e+01  -1.519589e+01
   3.512453e+01   8.388507e+00
   6.224155e+01  -1.585505e+01
   4.063864e+01   1.710919e+00
   1.665822e+01   3.305752e+01
  -4.206051e+01   7.296250e+00
  -9.887313e+00  -8.408316e+00
  -7.330653e+00   9.284234e+00
   1.740342e+01   2.090171e+00
   1.430638e+01  -4.639628e+00
   3.374901e+00   6.670016e+00
   1.389634e+01   1.773653e+01
   3.354804e+00  -2.126211e+01
   6.600511e+00   4.708287e+00
  -1.101398e+01   2.734389e+01
  -3.806899e+01   7.690108e+01
  -5.490772e+01   2.622092e+00
  -5.821528e+01  -2.718850e+01
  -5.549627e+01  -4.797025e+01
   1.836734e+01  -3.811801e+01
   2.806232e+01  -2.625223e+01
   2.422912e+01   1.801143e+01
  -1.432399e+01   3.427686e+00
  -9.299049e+00  -1.589028e+01
  -1.519066e+01  -7.798794e+00
   1.324516e+01   8.572861e+00
   2.166706e+01   3.082594e+01
  -1.327946e+01   1.949367e+01
  -1.970962e+01  -9.839375e+00
  -2.071720e+01  -8.556266e+01
  -2.180472e+01  -7.245373e+01
   3.004021e+01   7.861691e+00
   9.669958e+00   1.679872e+01
   7.763942e+00   2.613818e+01
   9.185876e+00   2.387145e+01
  -2.566136e+01  -2.005518e+01
  -2.443306e+01  -3.354609e+01
  -1.256692e+01  -1.813626e+01
   2.332073e+01  -7.347369e+00
  -3.646559e+01   1.629920e+00
  -4.697933e+01   3.173885e+01
  -9.875876e+00  -8.481340e+00
   4.009542e+00  -5.021665e+01
   1.958378e+01   7.111624e+00
  -1.076830e+01  -1.511768e+01
  -2.329777e+00   1.348954e+01
  -1.617284e+01   1.966959e+01
  -9.807732e+00  -1.208784e+01
  -9.500589e+00  -2.245510e+01
  -7.672401e+00   4.922041e+00
   1.692671e+01  -1.363690e+01
  -1.765236e+01   1.173531e+01
   1.843511e+00   1.659487e+01
  -5.118659e+00   8.969090e+00
  -1.719951e+01  -1.224786e+01
   2.014781e+01  -1.807877e+00
   9.826175e+00  -3.169740e+01
  -3.667528e+01   9.555942e+00
   1.242201e+01  -6.103727e+00
   2.445730e-01   6.026762e+00
   2.064924e+01   2.669491e-01
  -8.915594e+00   1.021981e+01
  -4.679904e+00   2.593158e+01
  -1.841384e+01   4.021204e+01
  -5.941296e+01  -3.452073e+00
   2.591646e+01  -1.611488e+01
   1.981910e+00  -1.133840e+01
   3.984255e+01  -1.079153e+01
   2.916793e+01   3.226391e+01
  -7.044896e-01   3.678849e+01
  -1.297844e+01   2.222372e+01
   4.349951e+00   9.707231e-01
  -1.064960e+01  -9.578538e+00
   2.283415e+00  -4.220210e+00
  -5.633400e-01   4.101112e+01
  -2.616224e+01  -8.306091e+00
