
 $NMID
 id='ANONYMOUS ', fmtdat='(2E16.6)'
 volume=1.0
 tramp=1.0
 $END
  -2.832796e+03  -5.956839e+02
  -1.831184e+03  -1.684073e+03
   1.483411e+02  -1.622086e+03
   1.040797e+03  -8.895207e+02
   8.049339e+02  -3.999952e+02
  -7.597804e+01   1.838699e+02
  -2.337397e+02  -1.314391e+02
  -1.232357e+01  -3.780229e+02
   4.746117e+02  -5.493104e+02
   5.659241e+02  -3.829132e+01
   4.107536e+02   4.290438e+02
   2.876585e+01   6.500775e+02
  -2.688563e+02   1.548494e+02
  -1.820549e+02  -4.075046e+02
   1.012083e+02  -5.265788e+02
   3.494498e+02   4.817371e+00
   1.485504e+02   4.209134e+02
  -9.686412e+01   6.491739e+02
  -4.574336e+02   1.875027e+02
  -3.969130e+02  -1.555992e+02
  -1.340572e+02  -3.236292e+02
   1.026950e+02  -2.373658e+02
   6.117269e+01  -6.727994e+01
  -1.802667e+02  -1.078579e+02
  -2.216654e+02  -3.043122e+02
   9.768027e+01  -3.005965e+02
   4.137521e+02  -9.745735e+01
   5.483603e+02   2.505978e+02
   9.657306e+01   2.806532e+02
  -3.407358e+02   1.502166e+02
  -5.352569e+02  -1.560147e+02
  -1.453952e+02  -3.970881e+02
   3.807180e+02  -2.337029e+02
   4.563921e+02  -6.703634e+01
   2.676862e+02   1.383446e+02
   3.029692e+01   2.754229e+02
  -3.564622e+01   1.549665e+02
   7.785830e+01  -7.544212e+01
   2.557375e+02  -9.189991e+01
   1.694252e+02   1.330533e+02
  -7.454722e+01   4.883339e+02
  -2.557393e+02   4.761080e+02
  -3.111901e+02  -6.950462e+01
  -2.545925e+01  -3.101636e+02
   9.278074e+01  -7.909647e+01
   7.148405e+01   2.799638e+02
  -1.541690e+02   3.414267e+02
  -3.419913e+02  -9.314041e+00
  -4.983291e+02  -3.932217e+02
  -1.736314e+02  -3.283902e+02
   3.244002e+02  -2.345390e+02
   4.093466e+02   2.678429e+01
   3.079945e+02   2.572174e+02
  -8.127596e+01   1.797064e+02
  -2.414290e+02   8.459172e+01
  -1.772028e+02  -6.017810e+01
  -6.849773e+01  -7.785120e+00
   2.894990e+01   5.688513e+01
  -1.096436e+02  -9.900921e+00
  -1.838768e+02  -8.522364e+01
  -1.040086e+02  -1.643025e+02
   1.840552e+02  -1.981936e+02
   2.731131e+02  -1.409948e+02
   2.547922e+02   1.054601e+02
  -2.132881e+01   2.745058e+02
  -3.480377e+02   3.060358e+02
  -3.308903e+02   1.713091e+02
  -1.492976e+02  -1.442771e+02
  -6.140287e+01  -3.280792e+02
   1.564149e+01  -2.920513e+02
  -9.245316e-01  -1.182370e+02
  -7.654610e-01  -1.266995e+02
   1.889724e+02  -1.040845e+02
   2.144490e+02  -4.848033e+01
   2.048804e+02   1.306779e+02
   3.516191e+01   2.553125e+02
  -1.187402e+02   1.662519e+02
  -1.863084e+02  -7.151569e+01
  -6.001651e+01  -2.431153e+02
   8.174650e+01  -2.015644e+02
   2.155318e+02  -4.113821e+01
   2.931527e+02   2.154217e+02
   8.996759e+01   2.932125e+02
   1.523930e+00   2.260713e+02
  -1.400555e+02   1.098673e+02
  -1.476992e+02   5.681775e+01
  -1.645976e+02   5.715124e+01
  -2.764820e+02   5.463866e+00
  -3.227868e+02  -1.291941e+02
  -3.219991e+02  -2.800880e+02
   2.262006e+01  -4.078669e+02
   4.652937e+02  -2.701922e+02
   4.465831e+02  -4.060556e+01
   2.535076e+02   1.236848e+02
  -2.549973e+01   2.022217e+02
  -1.500049e+02   1.296700e+02
  -2.725696e+00   5.151715e+01
   1.246299e+02  -1.112274e+01
   1.468716e+02   4.614763e+01
   8.582102e+00   1.205552e+02
  -1.151668e+02   1.231654e+02
  -9.282107e+01  -8.207315e+01
   2.249545e+01  -1.262396e+02
   1.556007e+02   7.870731e+01
   1.068290e+02   2.256053e+02
   1.998886e+01   3.003305e+02
  -2.185847e+02   1.782932e+02
  -3.704613e+02  -6.581254e+01
  -2.531548e+02  -2.789030e+02
  -5.051514e+01  -2.361260e+02
   1.449166e+02  -1.735084e+02
   1.203908e+02   2.119517e+01
  -1.411582e+00   7.563910e+00
  -2.375067e+01  -6.276430e+01
   1.716772e+01  -7.845658e+01
   1.348270e+02  -2.155978e+01
   1.627860e+02   1.257219e+01
   5.402871e+01   6.895012e+01
  -5.802761e+01  -1.011519e+01
  -2.981644e+01  -8.597147e+01
   1.294955e+02  -8.797422e+01
   2.383528e+02   6.471502e+01
   1.849167e+02   1.595968e+02
   1.799125e+01   2.447409e+02
  -2.072640e+02   1.862195e+02
  -2.550271e+02   8.104948e+01
  -1.240905e+02  -7.744512e+01
   2.957649e+01  -3.598626e+01
   4.336401e+01   1.681447e+01
  -5.899463e+01   8.532141e+01
  -1.795039e+02  -5.623222e+00
  -7.151304e+01  -1.264390e+02
  -3.993024e+00  -1.336647e+02
   9.293242e+01  -8.669019e+01
   1.274380e+02  -1.724397e+01
   2.413094e+01   4.001005e+01
  -4.920127e+01  -3.548964e+01
   1.381821e+01  -1.151030e+02
   7.964308e+01  -1.039406e+02
   1.727513e+02   6.863423e+00
   1.248700e+02   1.117126e+02
   9.989599e+00   1.785222e+02
  -1.550838e+02   1.339960e+02
  -1.817824e+02  -1.052930e+01
  -1.861931e+01  -8.807697e+01
   6.128561e+01  -5.659130e+01
   3.077405e+01  -2.434842e+01
   2.625883e+01   1.490895e+01
  -4.194030e+01  -2.944533e+00
   1.331250e+00  -2.748581e+01
   5.434154e+01   1.479641e+01
   1.015096e+02   7.708164e+01
   2.600697e+01   1.285611e+02
  -1.376771e+02   1.229617e+02
  -2.050680e+02  -3.079395e+01
  -1.467744e+02  -1.353059e+02
  -4.325703e+01  -2.407923e+02
   1.127237e+02  -1.840168e+02
   1.099165e+02  -2.020960e+01
   7.805727e+01   1.287657e+01
   2.615171e+01   3.770495e+01
   5.047406e+01  -3.278825e+01
   9.483157e+01   2.599361e+01
   2.839199e+01   3.236100e+01
  -3.154849e+01   7.495396e+01
  -1.458873e+02   2.697071e+01
  -1.039531e+02  -2.963076e+01
  -1.393274e+01  -1.374000e+02
   1.239806e+02  -8.879899e+01
   2.079887e+02   1.055549e+02
   8.848117e+01   2.047760e+02
  -9.785680e+01   1.740312e+02
  -2.809995e+02   9.742388e+01
  -2.091202e+02  -1.312885e+02
  -9.969232e+01  -1.449854e+02
   6.817503e+01  -9.124191e+01
   9.133905e+01  -5.014537e+01
   6.701905e+01  -6.082821e+01
   4.629315e+01  -6.329285e+01
   1.121050e+02  -4.307539e+01
   1.305593e+02   1.154301e+01
   9.136715e+01   1.643020e+02
   1.161810e+01   1.813202e+02
  -1.181762e+02   1.352076e+02
  -1.868125e+02  -1.776985e+01
  -1.173353e+02  -1.535887e+02
   2.184490e+01  -1.536803e+02
   8.461595e+01  -6.398593e+01
   3.609610e+01   1.937416e+01
  -4.802081e+01   7.025607e+00
  -2.584848e+01   4.209901e+01
   1.078142e+00  -3.469013e+00
   5.751257e+01   2.574863e+01
   4.895733e+01   2.205718e+01
  -5.295494e+01   9.446400e+00
  -1.713503e+02  -2.716646e+01
  -1.246715e+02  -6.613818e+01
   2.492904e+00  -1.130038e+02
   1.392933e+02  -5.403581e+01
   1.134511e+02  -7.116735e-01
   1.996043e+01   4.844643e+01
  -6.921838e+01   2.702320e+01
  -7.369793e+01  -7.854222e+00
  -2.677403e+01  -4.185930e+01
   7.290672e+01  -6.862592e+01
   6.978002e+01   1.312755e+01
   5.333770e+01   3.188680e+01
   4.386677e+01   2.990778e+01
   3.272369e+01  -1.059503e+01
   6.472582e+01  -2.227832e+01
   5.340479e+01   7.823130e+01
  -5.987865e+01   1.272034e+02
  -9.182983e+01   1.055664e+02
  -1.984367e+02   6.862802e+00
  -1.132606e+02  -1.200298e+02
   3.690030e+01  -1.102685e+02
   6.843545e+01  -4.488408e+01
   3.199227e+01   9.066425e-01
  -4.434037e+01   1.594787e+01
  -1.230876e+02  -3.412974e+01
  -3.720102e+01  -7.795040e+01
   9.796938e+01  -9.725960e+01
   1.700860e+02  -2.951022e+01
   1.164596e+02   6.499700e+01
   3.879373e+01   5.445123e+01
  -8.239205e+01   1.642364e+01
  -3.166095e+01  -1.315860e+01
   2.230899e+01  -2.667935e+01
   9.464887e+01  -2.817636e+00
   3.181984e+01   1.150068e+02
  -5.515356e+01   1.325793e+02
  -1.388164e+02   8.881690e+01
  -1.338713e+02  -1.112072e+02
   4.944966e+01  -1.895026e+02
   1.149087e+02  -9.283526e+01
   9.929370e+01   4.020948e+01
   3.897184e+01   9.964724e+01
  -3.472427e+01   8.760678e+01
  -4.598225e+01  -2.544415e+01
  -5.019242e+00  -3.212844e+01
  -5.768168e+00  -2.458529e+01
   8.801032e+00   2.687138e+01
  -2.478561e+01  -2.243392e+01
  -3.660160e+01  -7.983844e+01
   2.469172e+01  -1.168850e+02
   5.285301e+01  -8.273350e+01
   1.277903e+02   7.262034e+01
   8.365953e+01   8.471425e+01
   2.539593e+01   5.709856e+01
  -5.082899e+01   3.528583e+01
  -1.028530e+02   1.023462e+01
  -9.228702e+00  -3.733962e+01
   3.099393e+01  -1.803856e+01
   3.693194e+01  -9.795876e+00
  -1.045046e+01   2.565620e+00
  -8.516720e+00  -4.866033e+00
   5.661546e+01  -2.200332e+01
   8.587986e+01   4.419334e+01
   2.097065e+01   6.844513e+01
  -9.753861e+01   1.059556e+02
  -1.583401e+02   7.608579e+01
  -1.212058e+02  -7.982609e+01
  -6.091164e+01  -1.606515e+02
   9.397810e+01  -1.251673e+02
   1.013650e+02  -4.163679e+01
   9.084724e+01   3.442884e+01
   1.568273e+01   1.470216e+01
  -1.905786e+01  -1.099356e+01
   8.649594e+00   5.990668e+00
   1.010790e+01   4.918900e+01
  -5.095798e+01   1.169429e+02
  -3.976457e+01   8.753276e+01
  -1.045682e+02  -3.767487e+01
  -5.570358e+01  -7.456553e+01
  -2.175681e+00  -8.670820e+01
   8.847472e+01  -2.575686e+01
   7.164360e+01   5.731365e+01
   3.156098e+01   1.422566e+02
  -8.018781e+01   6.633765e+01
  -1.068063e+02  -5.323021e+01
  -4.978265e+01  -4.367599e+01
   6.420904e+01  -5.571259e+01
   5.631260e+01  -1.427275e+01
  -4.529811e+01   1.283360e+01
  -5.740173e+01   1.439489e+01
   9.264736e+00  -6.838661e+00
   8.045741e+01  -5.728352e+01
   1.031030e+02  -4.685540e+01
   8.298570e+01  -1.366982e+01
  -7.960213e+00   8.764160e+01
  -7.272614e+01   8.595650e+01
  -4.733118e+01   1.383514e+01
   3.994042e+00  -3.800559e+01
   1.961934e+01  -7.995514e+01
   4.481627e+01   2.937473e+00
   2.122945e+01   5.229801e+01
  -1.214690e+01   3.447101e+01
  -1.181604e+01   2.324305e+01
  -3.156877e+01  -2.225060e+01
  -2.411844e+01   2.098626e+01
   1.580143e+01   2.788926e+00
   2.727271e+01   5.650720e+00
   1.866387e+00  -3.487165e+01
   3.128140e+01  -3.205245e+01
   2.676620e+01  -1.261565e+01
   1.127431e+01   3.291446e+00
  -2.269639e+01   6.508493e+00
  -2.737204e+01   4.469849e+01
  -5.758179e+01  -3.019617e+01
  -3.278651e+01  -5.485759e+01
   8.177948e+01  -3.587537e+01
   8.773962e+01   2.674450e+01
   3.873578e+01   5.736002e+01
  -4.442132e+01   3.125016e-01
  -2.342342e+01   5.278547e+01
  -2.760772e+01  -1.141430e+00
   4.496240e+01  -2.393194e+01
   1.907527e+01  -8.358946e+00
  -2.297356e+01   7.117320e-01
  -7.068486e+01   3.602554e+01
