
 $NMID
 id='ANONYMOUS ', fmtdat='(2E16.6)'
 volume=1.0
 tramp=1.0
 $END
   2.861543e+03   3.067641e+02
   2.230416e+03   1.512481e+03
   2.243801e+02   1.627716e+03
  -1.242083e+03   1.034445e+03
  -9.189161e+02   4.255895e+02
  -1.067165e+02  -2.322432e+02
   3.208734e+02   6.068671e+01
   1.619475e+01   4.955920e+02
  -2.791288e+02   5.106904e+02
  -4.885607e+02   1.557638e+02
  -4.151704e+02  -3.497646e+02
   5.673512e+01  -6.459337e+02
   2.643477e+02  -1.848240e+02
   2.215788e+02   3.104207e+02
  -1.592044e+02   5.169663e+02
  -3.354338e+02   1.061784e+02
  -2.066213e+02  -3.627654e+02
   1.079057e+02  -6.270511e+02
   4.231011e+02  -2.302008e+02
   3.950931e+02   1.901135e+02
   1.666759e+02   3.028692e+02
  -1.156746e+02   2.034688e+02
  -8.472312e+01   1.099041e+02
   1.503212e+02   8.991343e+01
   1.679248e+02   2.968409e+02
  -3.363552e+01   3.024835e+02
  -4.258448e+02   9.941847e+01
  -4.745446e+02  -1.987891e+02
  -2.475281e+02  -3.083625e+02
   3.940687e+02  -1.638434e+02
   4.308167e+02   1.605379e+02
   2.182002e+02   3.182487e+02
  -2.405935e+02   2.972034e+02
  -3.661930e+02   2.283252e+01
  -3.068441e+02  -1.660657e+02
   1.702120e+01  -2.895423e+02
   4.541874e+01  -1.641038e+02
  -2.785843e+01   8.222407e+01
  -1.255632e+02   8.560578e+01
  -1.240916e+02  -1.641730e+02
   7.935574e+01  -4.324244e+02
   3.036076e+02  -4.545010e+02
   3.647312e+02   4.895085e+01
   1.201297e+02   3.154763e+02
  -1.308285e+02   1.921628e+02
  -1.841692e+02  -2.851728e+02
   1.062191e+02  -3.245759e+02
   3.519446e+02  -6.560888e+01
   4.486863e+02   3.704930e+02
   1.673383e+02   3.941692e+02
  -3.228703e+02   1.939253e+02
  -4.396328e+02  -8.314073e+01
  -2.700036e+02  -3.050165e+02
   4.485679e+01  -1.737120e+02
   2.599326e+02  -3.675546e+01
   1.887282e+02   4.302097e+01
   3.466403e+01   1.603432e+01
  -4.156258e-01  -3.937058e+01
   7.153049e+01  -6.248990e+01
   2.067580e+02   7.378054e+01
   8.089203e+01   1.618059e+02
  -1.824205e+02   2.226702e+02
  -2.850085e+02   1.735901e+02
  -2.842834e+02  -9.083489e+01
   1.949390e+01  -2.923526e+02
   3.259763e+02  -2.879263e+02
   3.554805e+02  -1.390392e+02
   2.024317e+02   1.602255e+02
   4.523336e+01   2.943567e+02
  -1.631405e+01   2.932403e+02
  -2.304444e+01   1.534418e+02
  -4.119173e+01   1.023289e+02
  -1.450632e+02   9.509828e+01
  -2.125765e+02   4.982573e+01
  -2.327458e+02  -1.015952e+02
  -5.670794e+01  -2.526046e+02
   1.093391e+02  -1.416395e+02
   1.742956e+02   4.206202e+01
   7.984857e+01   1.992670e+02
  -5.807850e+01   2.473177e+02
  -2.288149e+02   3.789385e+01
  -3.316630e+02  -1.922057e+02
  -1.103843e+02  -2.724514e+02
   5.709289e+01  -2.116417e+02
   1.508715e+02  -1.241250e+02
   1.315942e+02  -6.355057e+01
   1.393924e+02  -6.197370e+01
   2.412836e+02  -1.984106e+01
   3.373113e+02   1.246210e+02
   3.695827e+02   2.794606e+02
  -7.568250e+01   3.867984e+02
  -3.537434e+02   2.565002e+02
  -4.582660e+02   1.286682e+02
  -1.948518e+02  -1.113053e+02
   1.981113e+01  -2.207239e+02
   6.895150e+01  -1.654817e+02
  -2.838704e+00  -6.135231e+01
  -1.089609e+02   3.827126e+01
  -1.122303e+02  -1.124023e+01
  -1.813437e+01  -1.105873e+02
   1.021611e+02  -9.768945e+01
   1.254060e+02   6.283049e+01
  -3.854753e+01   8.462405e+01
  -1.491028e+02  -2.257812e+01
  -1.354325e+02  -1.758615e+02
  -1.778615e+01  -2.777434e+02
   2.377487e+02  -1.508233e+02
   3.704000e+02   5.904264e+01
   2.413721e+02   2.961885e+02
   9.187986e+01   2.660180e+02
  -1.033188e+02   1.530018e+02
  -1.376723e+02  -8.555067e+00
   1.778310e+00  -6.042522e+00
   4.207570e+01   5.978082e+01
  -1.306223e+01   8.833092e+01
  -1.736834e+02   5.666503e+01
  -1.526223e+02  -8.447927e+00
  -1.260156e+01  -2.797015e+01
   5.449746e+01   7.761044e+00
   5.809187e+01   8.148986e+01
  -1.306225e+02   9.624920e+01
  -2.860297e+02  -5.526505e+01
  -1.897499e+02  -1.909513e+02
  -4.375963e+01  -2.547419e+02
   2.158756e+02  -1.784439e+02
   2.828214e+02  -6.280087e+01
   1.119752e+02   4.550234e+01
  -5.952900e+01   6.076556e+01
  -5.158984e+01  -7.658819e+00
   5.900243e+01  -7.614766e+01
   1.700793e+02  -3.589147e+01
   1.087326e+02   1.078030e+02
   5.653546e+01   1.350624e+02
  -7.715781e+01   1.281506e+02
  -1.216607e+02   1.908239e+01
  -2.628157e+01  -5.158241e+00
   4.163933e+01   9.498061e+00
  -4.781991e+00   9.593726e+01
  -4.765313e+01   1.068280e+02
  -1.984964e+02  -8.412451e+00
  -1.262630e+02  -8.576613e+01
  -8.839175e+00  -1.727863e+02
   1.720528e+02  -1.486063e+02
   1.650486e+02   4.496949e+00
   2.550848e+01   6.834967e+01
  -7.346617e+01   4.901238e+01
  -7.277747e+01   1.446964e+01
  -1.637066e+01  -1.982293e+01
   5.789203e+01   5.805158e+00
   2.467277e+00   4.305955e+01
  -1.077181e+02   1.283089e+01
  -9.388642e+01  -9.334749e+01
   3.560608e+01  -1.539790e+02
   1.275611e+02  -1.363857e+02
   2.151164e+02   4.168427e+01
   1.373080e+02   1.257736e+02
   5.135684e+01   1.986302e+02
  -9.210061e+01   1.731158e+02
  -1.099586e+02  -8.490983e+00
  -8.619376e+01  -1.734736e+01
  -2.240329e+01  -2.647065e+01
  -5.090000e+01   5.075629e+00
  -6.917747e+01  -2.109895e+01
  -2.683402e+01  -3.291105e+01
   6.041891e+01  -8.389865e+01
   1.154324e+02  -4.535347e+01
   1.067525e+02   5.858627e+01
  -1.800179e+01   1.266218e+02
  -1.157439e+02   9.066200e+01
  -1.909566e+02  -9.093009e+01
  -1.175704e+02  -2.571435e+02
   1.429532e+02  -1.896128e+02
   2.575219e+02  -7.644177e+01
   2.122317e+02   1.096466e+02
   8.424888e+01   1.254658e+02
  -5.366377e+01   9.584147e+01
  -9.877827e+01   5.233079e+01
  -6.538921e+01   3.798213e+01
  -7.336392e+01   6.293378e+01
  -8.606760e+01   4.129500e+01
  -1.171359e+02  -3.201654e+01
  -1.066376e+02  -1.233054e+02
  -3.866435e+01  -2.315077e+02
   1.109008e+02  -1.652667e+02
   1.505024e+02  -3.498195e+00
   1.078287e+02   1.116343e+02
   1.075214e+01   1.343519e+02
  -7.304063e+01   6.540082e+01
  -2.549557e+01   5.830003e+00
   9.111425e+00  -3.858784e+01
   4.814625e+01  -2.959724e+01
  -5.787578e+00  -1.560067e+01
  -9.419848e+01  -3.048027e+01
  -6.063085e+01  -4.090442e+01
   8.888609e+01  -1.933657e+01
   1.607885e+02   3.627401e+00
   1.105718e+02   7.148213e+01
  -5.101742e+00   1.134216e+02
  -1.335722e+02   6.688472e+01
  -1.419935e+02  -1.475282e+01
  -2.710748e+01  -2.206838e+01
   4.287712e+01  -4.653270e+01
   6.248445e+01   2.564912e+01
   5.029891e+00   7.020579e+01
  -6.547900e+01   8.573994e+01
  -6.266170e+01   9.021030e+00
  -5.994387e+01  -4.787095e+01
  -4.083736e+01  -3.363837e+01
  -2.718245e+01  -1.717164e+01
  -5.857572e+01  -2.756050e+00
  -7.250637e+01  -7.786413e+01
   4.710840e+01  -1.178114e+02
   1.379959e+02  -1.368435e+02
   1.472696e+02  -3.026054e+01
   1.603124e+02   1.477893e+02
  -5.260529e+01   1.090045e+02
  -9.632332e+01   5.129192e+01
  -6.435293e+01  -4.561028e+00
   5.373701e+01  -3.785753e+01
   1.142033e+02   1.732726e+01
   5.629085e+01   1.238011e+02
  -8.641008e+01   9.365554e+01
  -1.731692e+02   2.076294e+01
  -1.318619e+02  -4.256548e+01
  -4.823317e+01  -7.437648e+01
   5.586409e+01  -3.350102e+01
   4.086020e+01  -4.993097e+00
  -2.616470e+01   5.186236e+01
  -9.793345e+01   7.040467e+00
  -2.209922e+01  -1.155174e+02
   5.117498e+01  -1.602522e+02
   1.622422e+02  -6.641675e+01
   1.283899e+02   7.528869e+01
  -1.030535e+01   1.576199e+02
  -9.285804e+01   1.277041e+02
  -5.930422e+01  -6.862351e+00
  -2.728728e+01  -1.075129e+02
  -1.303994e+01  -9.833715e+01
   4.609335e+01  -1.436752e+01
   2.232102e+01   4.464167e+01
   1.790308e+01  -5.804241e+00
  -1.728594e+00   1.165691e+01
   3.361438e+01   1.688227e+01
   7.265566e+01   8.169252e+01
  -2.033298e+01   1.090676e+02
  -5.508320e+01   3.135095e+01
  -1.273928e+02  -3.749863e+01
  -1.250325e+02  -3.537221e+01
   6.635545e+00  -6.104419e+01
   7.310465e+01  -3.621551e+01
   5.069134e+01   2.289547e+00
   2.447539e+01  -1.350950e+01
  -3.530354e+01   1.792174e+01
  -2.973388e+01   2.300352e+01
   2.939818e+01  -2.990327e+00
   2.759577e-01  -8.700747e+00
  -7.148271e+01   2.055988e+00
  -7.165190e+01  -3.857156e+01
  -2.261164e+01  -5.934068e+01
   1.201990e+02  -7.589126e+01
   1.642673e+02  -6.023128e+01
   1.493322e+02   4.089097e+01
   3.995177e+01   1.522683e+02
  -6.752660e+01   1.363981e+02
  -9.046291e+01   4.908922e+01
  -7.531953e+01  -3.515132e+01
  -4.059455e+01  -3.824441e+01
  -2.756502e+01  -2.783316e+01
  -1.274695e+00  -3.994613e-01
  -1.739652e+01  -7.645000e+01
   5.185974e-01  -1.000911e+02
   1.021167e+00  -7.957664e+01
   7.381795e+01   3.580053e+01
   6.004801e+01   1.154530e+02
   2.439019e+01   1.156802e+02
  -7.442682e+01   2.483952e+01
  -7.726886e+01  -6.875086e+01
  -4.535412e+01  -1.042942e+02
   5.923871e+01  -6.704268e+01
   9.469981e+01   9.165867e+00
   1.314603e+01   5.752360e+01
  -5.395750e+01   2.480234e+01
  -5.402549e+01   2.079384e+01
   5.066292e+01  -2.445859e+01
   7.917496e+01  -2.723161e+00
  -2.554624e+00   2.611248e+01
  -6.004721e+01   4.018698e+01
  -1.252375e+02   2.146314e+01
  -6.403446e+01   2.427237e+01
   1.997100e+01  -6.893978e+01
   7.056222e+01  -6.902100e+01
   2.646146e+01  -1.321728e+01
  -1.976270e+01   5.105083e+01
  -2.485028e+01   2.952170e+01
  -2.115620e+01   2.097385e+00
  -3.053462e+01  -3.514865e+01
  -3.760718e+00  -1.784059e+01
   1.008692e+01   4.064563e+00
   4.313490e+01   4.498754e+01
   1.193919e+01   9.546271e+00
   7.548302e+00  -6.183304e+00
   2.999742e+00   8.224773e+00
   8.961541e+00   6.026290e+01
   1.959401e+01   5.966596e+01
  -1.719961e+01   2.151079e+01
  -1.343900e+01  -3.575210e+01
   1.077002e+01  -3.365096e+01
   3.356225e+01  -4.281941e+01
   5.993129e+01   3.227385e+01
   1.709580e+01   8.384910e+01
  -5.573728e+01   7.569957e+00
  -7.537425e+01  -2.519678e+01
  -6.929622e+01  -6.368991e+01
   2.667183e+01  -3.470803e+01
   3.828914e+01  -4.399918e+01
   1.939532e+01  -2.296723e+01
  -2.658209e+01  -1.218741e+01
  -1.197292e+01   7.655136e+00
   1.435840e+01  -2.316824e+01
   6.649062e+01   1.070449e+01
