
 $NMID
 id='ANONYMOUS ', fmtdat='(2E16.6)'
 volume=1.0
 tramp=1.0
 $END
   2.120846e+03   2.782002e+02
   9.763614e+02   8.321660e+02
  -2.582145e+02   1.021168e+03
  -1.099853e+03   1.269938e+02
  -5.365532e+02  -2.158617e+02
   3.337682e+02  -3.183378e+02
   3.989607e+02   1.733517e+02
   3.207428e+01   4.373671e+02
  -3.237899e+02   2.789551e+02
  -4.999439e+02  -7.531776e+01
  -1.244391e+02  -3.137592e+02
   1.034732e+02  -3.321296e+02
   2.955948e+02   2.350255e+01
   4.443543e+01   2.846097e+02
  -1.864888e+02   3.800261e+02
  -2.752065e+02  -3.412452e+01
  -1.344040e+02  -2.967281e+02
   1.279965e+02  -2.448897e+02
   2.814752e+02  -6.615976e+01
   1.784933e+02   2.186674e+02
  -4.148628e+01   2.253668e+02
  -9.665191e+01   1.197166e+02
  -7.775508e+01  -5.023611e+00
   4.064372e+01   2.008720e+01
   1.315634e+02   1.192287e+02
   1.618683e+01   2.075146e+02
  -2.533120e+02   1.447384e+02
  -3.266169e+02  -2.272060e+01
  -1.540967e+02  -1.896775e+02
   2.339910e+02  -1.487900e+02
   2.984445e+02   6.434116e+01
   1.437082e+02   2.258801e+02
  -1.494143e+02   1.521776e+02
  -2.618988e+02  -2.319144e+01
  -2.289448e+02  -9.934427e+01
  -5.902645e+01  -2.088777e+02
   7.246942e+01  -1.313282e+02
   4.846739e+01   6.565223e+01
  -1.075934e+02   1.791199e+02
  -1.077493e+02  -3.558006e+01
  -9.437242e+01  -2.310622e+02
   1.609252e+02  -2.402175e+02
   2.213166e+02   2.160288e+00
   5.558645e+01   2.753963e+02
  -8.802607e+01   1.196118e+02
  -1.543265e+02  -1.642002e+02
   7.123543e+01  -1.810951e+02
   1.828582e+02  -6.009402e+01
   1.719324e+02   2.361364e+02
   8.408863e+01   2.353926e+02
  -2.296487e+02   1.130777e+02
  -2.856451e+02   3.033110e+01
  -1.974347e+02  -1.767598e+02
   7.736475e+00  -1.512517e+02
   1.714090e+02   1.865494e+01
   1.359703e+02   7.193323e+01
  -4.049586e+01   1.088656e+01
  -3.821656e+01  -4.583740e+01
   9.271908e+01  -4.633766e+01
   1.456449e+02   4.209495e+01
   6.275794e+01   1.230933e+02
  -6.501769e+01   1.151796e+02
  -1.145558e+02   1.062708e+02
  -5.535481e+01  -5.713510e+01
   7.000623e+01  -9.980955e+01
   1.930334e+02  -1.502859e+02
   2.084653e+02  -4.561752e+01
   1.205704e+02   1.186628e+01
   1.930950e+01   1.641354e+02
  -6.476873e+01   1.598608e+02
  -7.651683e+01   4.549741e+01
  -3.578291e+01  -2.001996e+01
  -1.038930e+01   1.734969e+01
  -6.155637e+01   2.853915e+00
  -9.841025e+01  -5.346329e+01
  -5.082952e+01  -1.259270e+02
   4.321390e+01  -1.255321e+02
   1.203793e+02   3.022188e+01
   6.502533e+01   1.561079e+02
  -2.279116e+00   1.334607e+02
  -5.988645e+01   5.442592e+01
  -1.354732e+02  -1.221192e+02
  -7.314923e+01  -1.447222e+02
   6.159190e+01  -1.282111e+02
   1.249842e+02  -3.420126e+01
   8.324118e+01   2.827766e+01
   4.657723e+01   3.617247e+01
   1.148118e+02   2.406974e+01
   2.139683e+02   8.386497e+01
   8.204681e+01   1.006747e+02
  -5.027994e+01   2.010277e+02
  -2.214133e+02   2.000599e+02
  -2.709601e+02   6.809451e+01
  -1.545989e+02  -5.346541e+01
  -3.550789e+01  -1.269063e+02
   7.695517e+01  -6.721836e+01
   3.207693e+01   6.617225e+00
  -5.971137e+01   3.270915e+01
  -5.583661e+01  -3.431790e+01
  -6.545798e+00  -6.725661e+01
   5.429153e+01  -4.685690e+01
   6.999243e+01   1.622784e+01
   3.749792e+00   7.183002e+01
  -1.054837e+02   1.795093e+01
  -9.902525e+01  -1.197191e+02
   5.310158e+00  -1.285794e+02
   1.156929e+02  -8.503295e+01
   1.507593e+02   5.971431e+01
   6.221970e+01   8.772205e+01
   4.935563e+01   8.302476e+01
  -4.906665e+01   7.195083e+01
  -7.388386e+01   3.331149e+01
  -5.954115e+00  -7.505393e+00
   1.042631e+01   1.368956e+01
  -2.238608e+01   5.866847e+01
  -6.773926e+01   1.972920e+01
  -5.258385e+01  -2.363327e+01
   7.630766e+00   2.304793e+00
   3.470267e+01  -9.982499e+00
   4.790777e+00   5.489750e+01
  -9.950022e+01   1.196545e+01
  -1.009456e+02   2.092624e+01
  -1.350738e+02  -6.849873e+01
  -2.626009e+01  -1.536966e+02
   1.059706e+02  -1.198325e+02
   1.663123e+02  -8.749667e+01
   6.034625e+01   4.673584e+01
   1.074312e+01   4.050087e+01
  -3.000362e+01  -4.242225e+00
   1.777481e+01  -6.236231e+01
   1.049226e+02   3.672945e+00
   8.244357e+01   5.245118e+01
   2.872004e+01   9.551775e+01
  -4.100827e+01   7.402940e+01
  -3.496981e+01   1.397764e+01
  -2.520023e+01   9.591216e+00
   1.035806e+01   1.343851e+01
   3.764153e+00   5.862908e+01
  -3.487110e+01   6.955417e+01
  -7.502967e+01  -1.846955e+01
  -9.659990e+01  -6.773024e+01
  -8.985029e+00  -5.835070e+01
   1.150547e+02  -4.955835e+01
   8.631834e+01   7.855192e+00
   1.634896e+01   3.948330e+01
  -3.207079e+01   1.211322e+01
  -1.662694e+01  -1.074669e+01
  -1.055306e+00   2.459383e+01
   2.050476e+01   3.386000e+00
  -7.179512e-01  -1.489068e+00
  -2.511989e+01   5.442500e+00
  -6.598745e+00  -1.823713e+01
   7.813419e+00  -5.206322e+01
   6.130718e+01  -5.751475e+01
   8.788404e+01   4.381587e+01
   8.691253e+01   4.908434e+01
   6.272594e+01   8.747890e+01
  -9.360126e+01   8.101694e+01
  -4.482992e+01   3.332160e+00
  -2.390909e+01  -3.583966e+01
  -5.378704e+00  -2.924498e+01
  -2.332307e+01  -8.322383e+00
  -1.568481e+01   2.718056e+01
   2.214640e+01  -3.758951e+01
   4.036609e+01  -5.136039e+01
   5.721127e+01   6.354858e-01
   2.182930e+01   2.460488e+01
   1.605399e+01   7.174683e+01
  -4.794861e+01   5.504003e+01
  -8.409197e+01  -5.441622e+01
  -1.092884e+00  -7.570387e+01
   9.131534e+01  -1.408370e+02
   1.411240e+02  -1.730966e+01
   1.113329e+02   9.910218e+00
   4.393924e+01   1.104317e+02
  -4.624997e+01   7.825793e+01
  -6.346675e+01   3.997524e+01
  -4.351257e+01   5.194432e+01
   2.223227e+01   3.099818e+01
  -5.598920e+01   3.432846e+01
  -1.866015e+01  -1.298826e+00
  -4.739492e+01  -5.879393e+01
   3.659713e+01  -1.132155e+02
   5.461882e+01  -9.443145e+01
   8.179003e+01   4.441083e+01
   5.177195e+01   7.633021e+01
   2.701197e+01   7.499194e+01
  -1.567158e+01   5.161831e+01
  -3.005519e+01   3.459420e+00
   6.680012e+00  -2.503095e+01
  -1.024741e+00  -1.723460e+01
  -2.314577e+01  -2.979643e+01
   4.996871e+00  -3.166537e+00
   2.533203e+00  -3.290546e+01
   2.961153e+01  -2.562895e+01
   9.734813e+01  -3.483916e+00
   7.557160e+01   1.572085e+01
  -2.828819e+00   2.137925e+01
  -4.737741e+01   4.966792e+01
  -6.776860e+01   4.821015e+00
  -2.952918e+01  -4.400477e+01
   1.775883e+01  -2.773712e+01
   4.269596e+01   1.889093e+01
   1.510284e+01   2.432355e+01
  -4.401551e+01   2.154632e+01
  -2.380807e+01  -2.742723e+01
  -6.852811e+00  -1.161654e+01
  -1.175229e+01   2.531015e+00
  -2.855260e+01   7.118683e+00
  -4.834985e+01  -1.967542e+01
  -2.653136e+01  -1.991606e+01
   2.148326e+01  -6.059254e+01
   7.291694e+01  -4.804892e+01
   1.170351e+02   1.125276e+01
   1.177249e+01   4.840445e+01
  -2.205525e+01   8.367065e+01
  -5.597679e+01   4.567556e+01
  -2.451865e+01   1.026825e+01
   1.979470e+01   4.252167e-03
   6.134622e+01  -9.503224e+00
   2.092522e+01   4.386024e+01
  -5.809122e+01   7.332327e+01
  -1.086234e+02   3.714503e+01
  -7.562913e+01  -2.864466e+01
  -1.460020e+01  -2.400972e+01
   4.573065e+01  -3.307904e+01
   2.792940e+01  -3.318148e+00
  -5.051690e+00  -6.414256e+00
  -2.616976e+01  -5.248307e+00
  -1.057848e+01  -7.336015e+01
   6.160261e+01  -7.655712e+01
   7.773889e+01  -1.353594e+01
   2.816158e+01   2.709563e+01
  -2.900198e+00   9.495689e+01
  -7.500362e+01   6.340152e+01
  -3.553805e+01   3.983698e+00
  -6.178784e+00  -5.816941e+01
  -8.733815e+00  -1.342292e+01
   2.866535e+01   1.215225e+00
   5.116301e+01   9.111238e+00
   1.288931e+01  -1.405321e+01
   4.539958e+00  -2.636487e+01
   1.546228e+01   1.117703e+00
  -6.291104e-01   5.950097e+01
   1.546590e+01   6.630911e+01
  -1.724571e+01   1.358678e+01
  -6.823091e+01  -2.924022e+01
  -3.700932e+01  -3.986861e+01
  -2.009023e+01  -3.267559e+01
   3.844600e+01  -8.659447e+00
   4.282556e+01  -1.188834e+01
   1.530266e+01   2.983081e+00
  -7.351101e+00   1.243422e+01
  -2.943139e+01  -7.079652e-01
   1.777505e+01  -1.085606e+01
  -2.552069e+01   2.515990e+01
  -3.646517e+01  -3.677328e+00
  -4.225318e+01  -8.354312e+00
   8.049699e+00  -2.980766e+01
   6.482224e+01  -1.013899e+02
   6.967579e+01  -2.639116e+01
   4.499674e+01   3.711975e+01
  -1.986666e+01   5.238228e+01
  -5.841515e+01   6.864110e+01
  -4.774578e+01   4.312974e+01
  -2.956650e+01  -1.183743e+01
   7.128710e+00   3.134847e+01
  -1.500300e+00   2.214592e+01
   1.195617e+01  -1.293459e+01
  -2.640919e+01  -3.942952e+01
  -2.146486e+01  -3.840277e+01
   1.656629e+01  -1.356171e+01
   2.296341e+01  -2.898544e+00
   2.384275e+01   3.922794e+01
  -2.777519e+01   3.983423e+01
  -1.438166e+01  -7.725960e+00
  -2.892011e+01  -3.519533e+01
   1.373630e+01  -5.003262e+01
   3.170992e+01   3.313364e+00
   4.585366e+01   2.206935e+01
   8.260231e+00   3.928393e+01
  -1.970915e+01   2.580056e+01
  -3.265300e+01   6.454659e-01
   1.066545e+01   3.200270e+01
   1.725809e+01  -8.524438e+00
  -3.590194e+00   1.592589e+01
  -3.855867e+01   5.372238e+01
  -8.031402e+00   1.264397e+01
   1.093539e+00  -2.479680e+01
  -7.184771e+00  -2.397731e+01
   7.493833e+00  -2.977822e+01
   2.194416e+01   1.441816e+01
   1.694115e+01  -3.354612e+00
   9.413962e+00   1.997392e+01
  -2.549861e+01   2.367868e+01
   1.059251e+00  -2.299835e+01
  -1.980791e+00   1.581159e-01
  -4.708574e-01  -3.183372e+01
   2.453409e+01  -2.526482e+00
  -7.762172e+00   4.001564e+00
  -1.670878e+00   1.293415e+01
  -9.827750e+00  -1.085620e+01
  -2.714137e+01   1.240804e+01
  -2.484960e+01   1.637526e+01
  -1.327193e+01  -6.547064e+00
  -1.054166e+01  -5.112140e+01
  -3.223840e+01  -1.260925e+01
   2.537742e+01  -2.447806e+00
   2.214626e+01   7.248395e+00
   6.947087e+00   1.017691e+01
  -2.530586e+01   3.686239e+00
  -3.483210e+01   9.149074e+00
  -3.896704e+01  -1.328883e+01
   6.385272e+00  -5.813130e+00
   2.316860e+00  -3.724144e+01
   2.447930e+01  -1.300218e+01
   1.461165e+01  -1.096776e+01
  -1.926435e+01  -1.579896e+01
   2.887842e+01  -3.805035e+01
   3.520273e+01  -1.920854e+00
