
 $NMID
 id='ANONYMOUS ', fmtdat='(2E16.6)'
 volume=1.0
 tramp=1.0
 $END
  -3.282358e+03  -7.980586e+02
  -2.157599e+03  -1.678697e+03
   3.149736e+02  -2.097886e+03
   1.369927e+03  -8.471940e+02
   8.751282e+02   1.785577e+02
  -5.462922e+01   2.832421e+02
  -4.710427e+02  -3.091778e+02
  -1.688059e+01  -6.004671e+02
   6.066041e+02  -5.873448e+02
   6.518982e+02   4.400343e+01
   4.568467e+02   5.962397e+02
  -5.150832e+01   6.382048e+02
  -3.391191e+02   8.590954e+01
  -2.609256e+02  -5.572176e+02
   2.090532e+02  -4.935576e+02
   4.212168e+02   9.881916e+00
   1.945743e+02   4.930827e+02
  -1.620486e+02   5.889595e+02
  -4.511441e+02   1.910071e+02
  -4.151511e+02  -1.844805e+02
  -1.137376e+02  -3.944460e+02
   1.371389e+02  -2.451074e+02
   8.686826e+01  -1.415756e+01
  -2.173962e+02  -8.319745e+01
  -2.932359e+02  -2.631776e+02
   2.020409e+01  -3.952728e+02
   5.179289e+02  -2.070207e+02
   6.921618e+02   1.277476e+02
   2.673541e+02   3.445882e+02
  -3.097307e+02   2.398086e+02
  -5.304875e+02  -6.116437e+01
  -3.018770e+02  -4.557514e+02
   3.386133e+02  -2.525812e+02
   4.287816e+02  -1.123098e+02
   2.696306e+02   1.950537e+02
   4.604181e+01   3.185148e+02
  -8.464509e+01   1.983187e+02
  -5.661052e+01  -8.859342e+01
   2.284335e+02  -1.820887e+02
   2.791909e+02   8.762423e+01
  -3.190741e+01   4.959632e+02
  -2.073851e+02   4.785631e+02
  -3.039733e+02   6.616036e+00
  -1.477546e+02  -2.999831e+02
   1.761597e+02  -1.803045e+02
   1.982126e+02   2.528543e+02
  -1.383181e+02   4.031424e+02
  -4.743433e+02   6.664693e+01
  -4.335878e+02  -3.459948e+02
  -1.771783e+02  -4.880433e+02
   3.043398e+02  -3.009460e+02
   5.386219e+02   1.167805e+02
   2.795717e+02   1.891340e+02
  -1.034035e+02   1.759280e+02
  -3.334828e+02   1.038038e+02
  -1.800364e+02  -5.784464e+01
   4.552508e+01  -5.472771e+00
   5.271266e+01   1.062946e+02
  -1.158029e+02   2.246723e+01
  -2.169220e+02  -8.465766e+01
  -9.877528e+01  -1.986976e+02
   1.442459e+02  -2.254906e+02
   2.617644e+02  -9.236303e+01
   2.358114e+02   7.358063e+01
  -1.000787e+01   2.513019e+02
  -2.558088e+02   3.496950e+02
  -3.246954e+02   2.018471e+02
  -2.414487e+02  -1.464360e+02
  -4.379462e+01  -3.462346e+02
   5.838631e+01  -3.554658e+02
   2.486072e+01  -1.473426e+02
   4.201424e+01  -7.484780e+01
   1.075382e+02  -7.870230e+01
   2.245545e+02  -1.042977e+02
   2.503764e+02   1.428111e+02
   1.389603e+02   2.742103e+02
  -9.950555e+01   1.769775e+02
  -2.040225e+02  -4.458126e+01
  -1.281433e+02  -2.393784e+02
   3.324527e+01  -2.101246e+02
   2.398476e+02  -4.475531e+01
   2.840575e+02   1.337462e+02
   1.422440e+02   2.786551e+02
  -4.153778e+01   3.092528e+02
  -1.971225e+02   1.135436e+02
  -1.472678e+02   7.376673e+01
  -1.350179e+02   6.465284e+01
  -2.720242e+02  -3.021686e-01
  -4.149451e+02  -8.941872e+01
  -2.701347e+02  -2.788489e+02
   4.350522e+01  -4.346775e+02
   4.308233e+02  -3.062667e+02
   4.192300e+02  -1.849181e+02
   2.498291e+02   1.283189e+02
  -9.375896e+00   2.446931e+02
  -1.146668e+02   1.709994e+02
  -9.192664e+00   5.104849e+01
   7.515976e+01  -6.955400e+01
   1.396329e+02   2.980818e+01
   1.304806e+01   1.414463e+02
  -1.382360e+02   1.021370e+02
  -1.315313e+02  -6.139695e+01
   1.298742e+01  -1.407962e+02
   1.498547e+02   9.012590e+00
   1.083680e+02   2.680884e+02
  -1.398190e+01   3.458727e+02
  -1.985987e+02   1.942412e+02
  -3.485894e+02  -5.555993e+01
  -2.587206e+02  -2.150968e+02
  -4.987699e+01  -2.363173e+02
   1.237920e+02  -1.381851e+02
   1.132646e+02  -8.107230e+00
   4.190779e+01  -1.099343e+01
  -6.330111e+01  -8.513690e+01
   2.174606e+01  -7.914007e+01
   1.153636e+02  -7.240348e+01
   1.221675e+02   5.649425e+00
   1.581188e+01   6.068994e+01
  -4.005463e+01   3.903464e+00
  -6.497067e+00  -6.169175e+01
   1.552753e+02  -9.801241e+01
   2.678890e+02   1.468106e+01
   2.642777e+02   1.559087e+02
   1.702399e+01   2.638773e+02
  -1.823749e+02   2.090731e+02
  -3.169070e+02   7.077720e+01
  -1.375376e+02  -7.221906e+01
   4.601492e+01  -8.947456e+01
   2.908874e+01   3.563490e+01
  -9.356968e+01   9.656276e+01
  -1.737791e+02   4.392024e+01
  -2.083505e+02  -1.322839e+02
  -3.808334e+01  -1.821400e+02
   1.151191e+02  -1.255844e+02
   1.145666e+02   4.182441e+00
   3.402982e+01   3.025597e+01
  -3.192386e+01  -4.071712e+01
  -4.429070e+01  -1.185767e+02
   1.060169e+02  -1.230158e+02
   1.727491e+02  -1.477174e+01
   1.504528e+02   1.648830e+02
   6.842005e+00   1.587410e+02
  -1.252925e+02   1.707134e+02
  -1.670545e+02   1.536854e+01
  -3.000319e+01  -1.057021e+02
   6.873007e+01  -9.766812e+01
   5.546182e+01  -2.156341e+01
   2.115292e+01   5.217806e+01
  -3.399230e+01   2.136270e+01
  -8.915189e+00  -6.437767e+01
   9.840374e+01   1.814385e+01
   9.497331e+01   7.392215e+01
   5.882762e+00   1.811899e+02
  -1.458306e+02   1.537056e+02
  -2.304655e+02   4.163909e+01
  -1.478142e+02  -1.540608e+02
  -2.795557e+01  -2.025477e+02
   1.159861e+02  -1.920497e+02
   1.339641e+02  -2.237375e+01
   8.801539e+01   3.040966e+01
   2.583827e+01   4.270958e+01
   5.978419e+01   1.662525e+01
   9.000520e+01   3.020189e+00
   4.626255e+01   5.035710e+01
  -5.426204e+01   9.009246e+01
  -1.424914e+02   5.996009e+01
  -9.358885e+01  -4.367364e+01
   1.204017e+01  -1.196590e+02
   1.445850e+02  -8.424864e+01
   1.898155e+02   6.265972e+01
   1.080338e+02   1.719597e+02
  -1.330669e+02   2.209887e+02
  -2.217107e+02   8.403281e+01
  -2.264145e+02  -1.319443e+02
  -8.352606e+01  -1.628832e+02
   4.297044e+01  -1.215060e+02
   1.020148e+02  -7.149011e+01
   6.705352e+01  -6.422064e+01
   6.903351e+01  -9.473284e+01
   7.801413e+01  -8.751210e+01
   1.141227e+02  -1.119415e+01
   1.137600e+02   1.406570e+02
   2.087976e+01   2.020702e+02
  -1.337131e+02   1.329420e+02
  -1.700628e+02   3.435629e+01
  -1.097710e+02  -1.228388e+02
  -6.907590e+00  -1.560981e+02
   4.503154e+01  -7.400700e+01
   6.103136e+01  -1.954117e+01
   1.074696e+01   3.527400e+01
  -3.811491e+01   4.399739e+01
   3.288854e+01  -3.698017e+00
   6.333809e+01   2.979104e+01
   4.467417e+01   6.159118e+01
  -6.059616e+01   3.173170e+01
  -1.686777e+02   1.314587e+01
  -1.049114e+02  -4.814945e+01
   3.495443e+00  -1.026219e+02
   1.048752e+02  -6.446248e+01
   1.363702e+02  -6.115019e-01
   2.546463e+01   5.036156e+01
  -5.600792e+01   5.403122e+01
  -8.954342e+01  -1.264777e+01
  -7.086601e+00  -3.280565e+01
   4.078497e+01  -8.992332e+01
   8.273119e+01  -3.959909e-01
   6.515796e+01   3.308989e+01
   8.192831e+01   5.620512e+01
   3.462368e+01  -9.712408e+00
   6.253561e+01  -1.290268e+00
   3.933167e+01   4.643502e+01
  -2.975090e+01   1.444296e+02
  -1.240893e+02   1.301716e+02
  -1.827616e+02  -6.346278e+00
  -1.197581e+02  -1.020992e+02
   5.166316e+00  -1.184321e+02
   6.374751e+01  -4.028179e+01
   5.024093e+01  -3.124025e+00
  -4.037533e+01   2.619231e+01
  -9.051115e+01  -1.810745e+01
  -5.882989e+01  -1.058415e+02
   7.209119e+01  -1.124090e+02
   1.621346e+02  -5.793755e+01
   1.687574e+02   7.477180e+01
   5.157588e+01   7.035941e+01
  -6.862956e+01   5.862665e+01
  -3.399740e+01   1.864875e+01
   7.725147e+01  -4.195645e+01
   5.112087e+01   4.234305e+00
   4.046639e+01   1.177377e+02
  -6.889913e+01   1.186538e+02
  -1.238672e+02   5.258802e+01
  -1.110177e+02  -1.056935e+02
  -2.769916e+01  -2.216450e+02
   6.983090e+01  -1.330036e+02
   1.146753e+02   3.092179e+01
   3.783623e+01   1.099773e+02
   1.443541e+01   1.315654e+02
  -5.595039e+01   4.125018e-01
  -2.642890e+01  -2.492632e+01
  -3.724260e+01  -2.189420e+01
  -1.333577e+01   3.828394e+00
  -4.507794e+01  -1.044260e+01
  -4.505266e+01  -4.853057e+01
  -4.105988e+01  -9.841750e+01
   1.033162e+01  -4.048475e+01
   1.200528e+02   4.108086e+01
   1.097396e+02   8.206319e+01
   1.622802e+01   3.314342e+01
  -6.794123e+01   5.112013e+01
  -8.131453e+01  -2.086417e+01
  -7.888285e+00  -2.269616e+00
   5.138440e+01  -2.116607e+01
   5.822941e+01   2.481625e+01
  -5.337727e+01   4.790215e-01
   3.218599e+01   8.383415e+00
   4.402077e+01  -6.576530e+00
   9.705539e+01   2.929153e+01
   2.653947e+00   5.938957e+01
  -9.958968e+01   1.002865e+02
  -1.610438e+02   5.392803e+01
  -1.232032e+02  -8.494420e+01
  -3.373968e+01  -1.186044e+02
   8.654384e+01  -1.538586e+02
   8.811924e+01  -3.714007e+01
   6.067224e+01   7.458872e+00
   1.991834e+01   2.762785e+01
  -8.888385e+00   2.908788e+01
   2.288975e+01   1.375461e+01
   7.876615e+00   4.475152e+01
   8.523473e+00   9.397373e+01
  -5.769321e+00   7.394562e+01
  -7.194064e+01  -1.867767e+01
  -4.488698e+01  -5.078791e+01
  -8.909026e-01  -1.111954e+02
   7.161005e+01  -2.433266e+01
   9.459695e+01   7.307553e+01
   2.650103e+01   1.110147e+02
  -6.460837e+01   8.618975e+01
  -1.175524e+02  -4.030517e+01
  -4.525026e+01  -4.834530e+01
   5.847627e+01  -4.025696e+01
   2.247544e+01   7.896494e+00
  -2.518424e+01  -1.144550e+01
  -4.413419e+01   4.384429e+01
  -4.771354e+00  -8.688218e+00
   6.320204e+01  -3.309582e+01
   7.871163e+01  -2.496703e+01
   6.963177e+01   3.275567e+01
   1.423204e+01   3.650073e+01
  -5.038644e+01   8.131585e+01
  -6.541333e+01   6.373782e+00
   1.179182e+01  -4.702407e+01
   5.311841e+01  -4.221044e+01
   4.658754e+01  -1.952055e+01
   4.320407e+01   6.723147e+01
  -1.639608e+01   1.156037e+01
  -3.620078e+01   9.186020e+00
  -2.585226e+01  -2.795831e+01
  -1.585129e+01  -8.657319e+00
   6.261427e-02   3.275318e+01
   1.225791e+01   1.879031e+01
   1.014994e+00  -2.542932e+01
   1.235062e+00  -6.386360e+01
   3.008522e+01  -1.076354e+01
   3.336609e+01   4.540274e+01
   1.441577e+01   1.127860e+01
  -5.576250e+01   6.644941e+01
  -5.788567e+01  -2.378658e+01
  -1.090702e+01  -7.128608e+01
   5.768299e+01  -4.084755e+00
   4.545648e+01   2.444042e+01
   5.322554e+01   1.361256e+01
   4.040116e-01   2.858304e+01
  -5.349145e+01   1.311707e+01
  -1.843049e+01  -1.006825e+01
   5.686054e+01  -5.063231e+00
   2.635601e+01  -9.281645e+00
  -5.971489e+00  -2.819992e+00
  -8.363078e+01   3.546636e+01
