
 $NMID
 id='ANONYMOUS ', fmtdat='(2E16.6)'
 volume=1.0
 tramp=1.0
 $END
   2.100315e+03   1.880421e+02
   1.361434e+03   1.568441e+03
  -5.536710e+01   1.483674e+03
  -1.265330e+03   3.014319e+02
  -5.123441e+02  -2.850582e+02
   2.624271e+02  -3.974455e+02
   3.460162e+02   1.083199e+02
  -6.762070e+01   4.954911e+02
  -4.725564e+02   4.078058e+02
  -4.228114e+02  -9.774223e+01
  -2.829020e+02  -4.860780e+02
   1.150152e+02  -4.760715e+02
   2.549753e+02   3.093800e+01
   1.831906e+02   3.426993e+02
  -8.157697e+01   3.764741e+02
  -3.196242e+02  -3.742962e+01
  -8.607171e+01  -3.383690e+02
   1.303127e+02  -3.290520e+02
   3.529892e+02  -3.375862e+01
   2.103898e+02   1.107679e+02
  -1.350147e+01   2.298156e+02
  -1.016719e+02   1.006522e+02
  -1.177738e+02   2.981150e+01
   7.939323e+01  -1.920929e+01
   1.846463e+02   1.395443e+02
   7.544339e+01   2.277463e+02
  -2.525486e+02   1.302509e+02
  -3.908602e+02   2.043724e+00
  -1.599122e+02  -2.644475e+02
   2.371694e+02  -2.014542e+02
   2.976447e+02   2.607005e+01
   1.875845e+02   3.287967e+02
  -1.333778e+02   2.090838e+02
  -3.161762e+02   9.302044e+01
  -2.155895e+02  -1.232445e+02
  -1.621715e+01  -2.067673e+02
   6.937455e+01  -1.573110e+02
   5.975211e+01   1.182857e+02
  -7.780074e+01   1.079032e+02
  -2.401233e+02  -5.005271e+01
  -1.007094e+02  -3.564337e+02
   1.244061e+02  -3.229285e+02
   2.835796e+02  -1.268971e+00
   5.844858e+01   2.229059e+02
  -1.538878e+02   1.871286e+02
  -1.590952e+02  -1.577286e+02
   7.079530e+01  -2.997618e+02
   2.755001e+02  -2.002845e+01
   2.401785e+02   1.839060e+02
   4.162450e+01   2.325223e+02
  -2.291453e+02   1.093182e+02
  -3.713627e+02   9.845867e+00
  -1.431744e+02  -1.880845e+02
   4.003458e+01  -1.571180e+02
   2.062901e+02   2.954936e+01
   1.475706e+02   8.717844e+01
  -7.926834e+01   3.413167e+01
  -3.231709e+01  -4.451383e+01
   8.253520e+01  -5.269875e+01
   1.440870e+02   5.902398e+01
   5.396823e+01   1.541248e+02
  -1.275062e+02   1.182765e+02
  -1.827098e+02   5.430490e+01
  -8.349595e+01  -5.585392e+01
   6.882927e+00  -1.230855e+02
   1.694402e+02  -1.287166e+02
   1.903562e+02  -8.789758e+01
   1.056346e+02   3.254584e+01
   4.981959e+01   1.849305e+02
  -8.159408e+01   1.833199e+02
  -6.270975e+01   6.817272e+01
   4.060337e+00   2.989369e+01
  -6.641165e+01   3.953684e+01
  -1.081606e+02   6.264593e+01
  -1.296916e+02  -6.702381e+01
  -5.754632e+01  -1.017468e+02
   6.370881e+01  -1.277466e+02
   1.228467e+02   5.784257e+00
   3.375793e+01   1.138708e+02
  -6.183509e+01   1.357835e+02
  -1.267846e+02   6.747292e+01
  -1.403525e+02  -1.090641e+02
  -9.415854e+01  -1.913710e+02
   2.981935e+01  -1.298004e+02
   7.737359e+01  -4.168525e+01
   9.945956e+01  -3.896332e+01
   7.281749e+01  -2.442385e+01
   1.548021e+02   1.959069e+01
   2.414353e+02   7.567275e+01
   1.828715e+02   1.332298e+02
  -5.915798e+01   2.268539e+02
  -3.001557e+02   2.111556e+02
  -2.743000e+02   4.070585e+01
  -1.493425e+02  -4.137589e+01
   1.564375e+00  -1.465690e+02
   8.844559e+01  -1.419614e+02
   3.860356e+01  -2.047826e+01
  -6.248136e+01   4.825462e+01
  -7.204883e+01  -5.346997e-02
  -8.083629e+00  -7.891225e+01
   1.018455e+02  -8.889765e+01
   1.001455e+02   3.314854e+01
  -1.700466e+01   7.830729e+01
  -9.370317e+01   4.689686e+00
  -6.586004e+01  -1.189525e+02
   1.866671e+01  -1.800448e+02
   1.260810e+02  -1.263641e+02
   1.755398e+02   6.485022e+01
   1.270065e+02   1.417166e+02
   8.834837e+01   1.402323e+02
  -3.629915e+01   3.367552e+01
  -8.281626e+01  -3.093172e-01
  -1.660640e+01   1.785350e+00
   4.411661e+01   4.320090e+01
  -3.403845e+01   4.279249e+01
  -4.028293e+01   6.180318e+00
  -1.100498e+02  -2.255140e+01
   1.892872e+01  -4.014739e+01
   4.950008e+01   1.963792e+00
   1.510269e+01   7.486672e+01
  -8.297711e+01   3.523802e+01
  -1.623324e+02  -4.127975e+01
  -1.477745e+02  -9.426806e+01
  -2.568947e+01  -1.495631e+02
   1.259821e+02  -1.015708e+02
   1.519369e+02  -4.284057e+01
   3.760397e+01   2.387977e+01
  -2.028787e+00   5.874347e+01
  -2.438508e+01  -1.287536e+01
   3.701386e+01  -3.873171e+01
   1.080533e+02  -3.999559e+01
   1.256910e+02   7.361393e+01
   3.026220e+01   1.461000e+02
  -4.814936e+01   1.012416e+02
  -6.991646e+01   1.504506e+00
  -3.136820e+01  -1.698818e+01
  -9.002914e+00   2.425797e+01
  -1.736868e+01   3.668494e+01
  -6.034776e+01   6.459392e+01
  -1.118901e+02   1.108758e+01
  -6.769897e+01  -9.621505e+01
  -2.987338e+00  -1.273675e+02
   8.359496e+01  -5.633870e+01
   1.120092e+02   7.927984e+00
   3.177222e+01   1.052041e+02
  -5.457200e+01   7.379125e+00
  -3.165240e+01  -2.228334e+01
  -1.252083e+01   1.563062e+01
   8.463363e+00  -7.259977e+00
   2.395910e+01  -1.561958e+01
  -5.954257e+00   2.288743e+00
  -4.544908e+01  -5.767945e+01
   1.844977e+01  -6.145021e+01
   8.199421e+01  -8.831065e+01
   1.432710e+02   2.219719e+01
   8.597492e+01   9.213447e+01
   2.988570e+01   1.282707e+02
  -3.962095e+01   7.624375e+01
  -6.524032e+01  -5.680157e+00
  -3.383071e+01  -3.817522e+01
  -8.398919e+00  -1.966444e+01
  -2.473091e+01   4.966247e+00
  -7.530101e+00  -2.815922e+01
  -1.131026e+01  -4.606007e+01
   6.978636e+01  -3.097719e+01
   6.539195e+01   1.312943e+01
   4.132329e+01   4.144657e+01
  -1.628580e+01   7.611272e+01
  -7.955392e+01   6.025635e+01
  -1.260454e+02  -6.156397e+01
  -1.081039e+00  -1.328651e+02
   5.886489e+01  -1.288448e+02
   1.435872e+02  -3.259344e+01
   1.198464e+02   8.624253e+01
   9.497212e+01   6.995750e+01
  -4.402889e+01   7.976390e+01
  -4.942425e+01   5.282077e+01
  -4.592925e+01   3.138910e+01
  -5.311769e+01   6.327974e+01
  -6.072229e+01   4.055492e+01
  -6.354542e+01  -2.235008e+01
  -5.716156e+01  -7.889414e+01
  -1.126747e+01  -1.194526e+02
   6.630332e+01  -7.136492e+01
   7.172701e+01   1.674583e+01
   4.713750e+01   8.782997e+01
   8.144125e+00   7.394284e+01
   8.830993e-01   5.948653e+01
  -2.110002e+01  -6.171108e+01
   3.414690e+01  -3.405707e+01
  -8.730494e+00  -3.751244e+01
  -3.843146e+00  -9.482615e+00
  -2.777940e+01  -1.878497e+01
  -2.449267e+01  -2.415119e+01
   1.258655e+01  -2.238064e+01
   1.056058e+02   8.082145e+00
   1.072179e+02   4.072649e+01
  -2.180473e+01   2.589115e+01
  -7.088374e+01  -5.482597e+00
  -7.406582e+01   3.578349e+00
  -3.297971e+01  -3.522676e+01
   2.023470e+01  -2.467675e+01
   5.271906e+01   5.506286e-02
   2.535799e+01   4.049957e+01
  -8.274896e+01   1.949587e+01
  -5.061875e+01  -2.585907e+01
  -2.688652e+01  -9.166823e+00
  -2.244194e+01  -3.731613e+01
  -4.846155e+01  -2.608148e+01
  -4.072062e+01  -3.098128e+00
  -1.220658e+01  -9.843986e+00
   4.321636e+01  -3.735740e+01
   4.457776e+01  -9.101743e+01
   8.343851e+01   1.863702e+01
   4.208285e+01   2.979130e+00
  -3.382564e+01   6.263137e+01
  -7.546372e+01   2.823855e+01
  -2.131498e+01  -1.368439e+01
   9.686387e+00  -1.859682e+01
   9.130029e+01   1.187815e+01
  -1.063811e+01   6.884121e+01
  -4.560890e+01   4.498183e+01
  -9.170550e+01   4.991116e+01
  -8.087644e+01  -5.004450e+01
   4.742580e+00  -4.043696e+01
   2.204406e+01  -1.480738e+01
   5.662478e+01   3.630509e+00
  -9.886718e+00   5.461557e+00
  -3.675934e+01  -1.055237e+01
  -4.712778e+01  -6.850674e+01
   9.783392e+01  -6.296436e+01
   5.347137e+01  -4.719925e+01
   7.192663e+01   7.052262e+01
   1.114801e+01   7.067560e+01
  -8.050716e+01   6.346180e+01
  -3.470391e+01   2.116528e+01
  -1.567114e+01  -6.329435e+01
   1.803916e+01  -2.029555e+01
   2.565708e+01   4.659470e+00
   3.524802e+01   3.817782e+01
   3.136253e+00  -1.317335e+01
  -1.182644e+01  -2.770966e+01
   1.293880e+01   9.340728e+00
   6.359050e+01   3.023256e+01
   3.451122e+01   3.648538e+01
  -2.641764e+00   3.256208e+01
  -7.640661e+01  -5.857172e+01
  -8.037422e+01  -3.664395e+01
  -5.759217e+00  -2.563676e+01
   7.362656e+01   7.199297e-01
   3.047606e+01   1.115507e+01
  -3.176982e+00  -3.325806e+00
  -1.426099e+01   2.498151e+01
  -2.570156e+01  -1.030537e+01
   1.857445e+01   2.160745e+01
   1.862572e+00   6.634574e+00
  -4.212281e+01   4.594511e+00
  -4.145472e+01  -1.465542e+01
   8.697761e+00  -3.029403e+01
   5.199510e+01  -4.460998e+01
   1.178252e+02  -1.294680e+01
   5.229137e+01   6.190670e+01
   1.895094e+01   6.206059e+01
  -6.344080e+01   7.201861e+01
  -7.257346e+01   1.287425e+01
  -4.649781e+01  -9.824188e+00
   4.509843e+00  -3.043525e+01
  -3.485106e+00  -7.439179e+00
  -6.929646e+00  -1.603254e+01
  -2.736137e+01  -1.683443e+01
  -1.458396e+01  -3.469494e+01
  -2.890742e+00  -4.595857e+01
   2.168878e+01   4.217439e+01
   2.475817e+01   8.202865e+01
  -1.471962e+01   6.238739e+01
  -5.613990e+01   6.572338e+00
  -1.526692e+01  -4.322179e+01
  -1.710594e+00  -8.365689e+01
   5.494527e+01  -1.107138e+01
   7.215084e+01   9.524086e-01
   3.199086e+01   2.953596e+01
  -2.825034e+01   3.691393e+01
  -2.646141e+01   1.059302e+01
   1.933436e+01   2.239613e+00
   4.375529e+01  -4.078333e-01
   2.169434e+01   1.271658e+01
  -6.205245e+01   4.398014e+01
  -6.488965e+01   2.580588e+01
  -4.327310e+01  -1.893707e+01
   1.402142e+01  -5.626267e+01
   4.125913e+01  -3.494482e+01
   4.365552e+01  -2.908626e+00
   1.313574e+01   2.068232e+01
  -1.972701e+01   1.468543e+01
  -1.340261e+01  -4.966617e+00
  -1.842679e+01  -3.659099e+01
  -9.346351e+00   2.542452e+01
   2.031982e+01   1.098771e+01
   2.421809e+01   1.001139e+01
   6.400648e+00  -2.452230e+00
   2.349566e+01  -4.627234e+00
   1.584015e+00  -5.511403e+00
  -2.632488e+01   1.610928e+01
  -3.520458e+01   2.229519e+00
  -1.878782e+01   1.813468e+01
  -3.201325e+01  -2.388535e+01
   2.397681e+00  -3.474037e+01
   4.291417e+01   5.049180e+00
   4.194568e+01  -2.200784e+01
   8.930083e+00   1.802505e+01
  -3.935927e+01   9.954641e+00
  -5.598446e+01  -8.426473e+00
  -4.767692e+01  -1.718958e+01
   1.028832e+01  -2.416098e+01
   9.369799e+00  -1.561759e+01
   1.130009e+01   1.573042e+01
  -2.072419e+01   1.028883e+01
  -2.774515e+00  -1.857512e+01
   1.870042e+01  -6.772123e+01
   4.073838e+01   1.126349e+01
