
 $NMID
 id='ANONYMOUS ', fmtdat='(2E16.6)'
 volume=1.0
 tramp=1.0
 $END
  -3.068117e+03  -1.357555e+02
  -1.858177e+03  -1.822855e+03
   1.246906e+02  -2.149531e+03
   1.471422e+03  -7.464910e+02
   6.761660e+02   2.835177e+02
  -3.128307e+02   4.704840e+02
  -5.703284e+02  -2.702401e+02
   1.253494e+01  -7.843659e+02
   4.634582e+02  -6.031620e+02
   6.442294e+02   7.976046e+01
   3.301919e+02   5.954800e+02
  -1.704743e+02   5.976005e+02
  -3.578875e+02   1.501574e+02
  -2.751737e+02  -3.733139e+02
   2.075769e+02  -5.366142e+02
   4.023987e+02   3.886176e+01
   1.559875e+02   4.996365e+02
  -1.399750e+02   4.983994e+02
  -4.729278e+02   1.215949e+02
  -3.050309e+02  -1.981731e+02
   2.391614e+01  -3.278195e+02
   1.671073e+02  -2.064738e+02
   1.279633e+02  -4.654557e+01
  -7.991844e+01   3.339210e+01
  -2.567889e+02  -1.393832e+02
  -7.624184e+01  -2.808162e+02
   3.578079e+02  -1.797981e+02
   5.611362e+02   7.236108e+01
   2.807143e+02   4.075523e+02
  -2.674837e+02   3.683355e+02
  -5.090486e+02  -5.340038e+01
  -2.650232e+02  -3.465127e+02
   1.856245e+02  -3.851330e+02
   3.884241e+02  -1.533510e+02
   3.517797e+02   1.842501e+02
   4.489456e+01   3.267857e+02
  -9.900812e+01   2.689122e+02
  -6.553433e+01  -1.443945e+02
   1.312861e+02  -2.451795e+02
   2.831746e+02  -1.324817e+01
   1.426495e+02   4.599838e+02
  -1.916434e+02   4.789854e+02
  -5.156491e+02   9.997088e+01
  -1.491664e+02  -3.739305e+02
   1.894557e+02  -1.843662e+02
   2.596129e+02   2.236051e+02
  -5.577938e+01   3.768877e+02
  -3.778857e+02   5.653180e+01
  -4.267458e+02  -2.744826e+02
  -1.715252e+02  -5.006908e+02
   2.371501e+02  -1.897224e+02
   5.578556e+02  -8.558897e+00
   2.845295e+02   3.052566e+02
  -9.622691e+01   2.633197e+02
  -2.899125e+02   7.861003e+01
  -1.864276e+02  -9.466214e+01
   1.005012e+02  -1.195397e+02
   1.015683e+02   1.040369e+02
  -1.015344e+02   1.579346e+02
  -2.493738e+02  -1.133884e+01
  -8.814296e+01  -2.286343e+02
   1.702126e+02  -1.389626e+02
   2.490943e+02  -4.576670e+01
   1.276507e+02   7.264445e+01
  -2.156541e+01   1.996870e+02
  -2.055088e+02   1.761783e+02
  -2.390322e+02   1.388549e+02
  -1.971384e+02  -1.328569e+02
  -5.690366e+01  -3.062358e+02
   6.520455e+01  -2.941363e+02
   7.846117e+01  -1.262153e+02
  -4.111848e+00   4.137551e+00
   8.145183e+01  -5.515643e+01
   1.776780e+02  -6.946451e+01
   2.302126e+02   5.408648e-01
   1.470853e+02   1.976983e+02
  -3.476000e+01   1.769924e+02
  -1.321941e+02  -1.189146e+00
  -5.630999e+01  -1.667243e+02
   1.271256e+01  -2.151961e+02
   2.314628e+02  -5.982203e+01
   2.231695e+02   1.179305e+02
   9.897226e+01   2.778109e+02
  -8.008454e+01   2.052730e+02
  -1.742319e+02   9.711089e+01
  -1.200073e+02   1.872218e+01
  -6.210585e+01   3.373807e+01
  -1.748730e+02   5.703534e+01
  -2.856994e+02  -1.327645e+02
  -2.529506e+02  -2.572834e+02
   2.486618e+01  -2.785145e+02
   2.610653e+02  -2.884317e+02
   3.721606e+02  -9.925443e+01
   2.337423e+02   4.326892e+01
   3.794180e+01   1.973011e+02
  -1.028343e+02   1.834318e+02
  -7.776096e+01   3.829305e+01
   8.894166e+01  -1.063311e+02
   1.445790e+02  -2.823681e+01
   3.369970e+01   1.191853e+02
  -1.093318e+02   1.229444e+02
  -1.189053e+02  -3.701861e+01
   5.110268e+00  -1.302286e+02
   1.012794e+02  -9.780874e+00
   1.065415e+02   1.766621e+02
  -5.239394e+01   2.445048e+02
  -2.046178e+02   2.113493e+02
  -2.420823e+02  -3.042151e+01
  -1.744658e+02  -1.683728e+02
  -8.262993e+01  -1.990929e+02
   7.068864e+01  -9.313845e+01
   1.550636e+02   2.393743e+01
   3.899833e+01   2.679494e+01
  -7.702602e+01  -6.331675e+01
  -1.687107e+01  -9.568541e+01
   6.285554e+01  -5.671030e+01
   1.239402e+02   2.676150e+01
   1.176152e+01   4.287205e+01
  -8.181576e+01   3.057228e+01
  -2.706150e+01  -9.250560e+01
   8.397692e+01  -4.295130e+01
   2.394666e+02   1.692734e+00
   1.907937e+02   1.527449e+02
   6.738271e+01   1.997041e+02
  -1.531399e+02   1.846494e+02
  -1.960458e+02   3.838855e+01
  -1.237097e+02  -3.069021e+01
   3.852541e+01  -8.199255e+01
   6.491671e+01  -8.452396e+00
  -1.247509e+01   6.116146e+01
  -1.482874e+02   5.419265e+01
  -1.507211e+02  -7.473508e+01
  -8.424864e+01  -1.623248e+02
   3.361712e+01  -1.340885e+02
   1.007017e+02  -5.406804e+01
   4.812061e+01   2.607115e+01
  -3.375368e+01  -8.835359e+00
   2.539277e+01  -5.308563e+01
   8.743670e+01  -1.286791e+02
   1.524701e+02   5.199138e+00
   1.139511e+02   8.612033e+01
  -2.608720e-01   1.954049e+02
  -1.387931e+02   1.471014e+02
  -1.346279e+02   1.371328e+01
  -3.954492e+01  -1.209182e+02
   8.996588e+01  -8.176797e+01
   7.663303e+01   9.258778e+00
   2.030922e+01  -3.948232e+00
  -6.484098e+00   1.173617e+01
  -7.210206e+00   1.070299e+01
   4.877382e+01   3.191447e+01
   3.414536e+01   1.021616e+02
   1.209210e+01   1.470398e+02
  -1.099959e+02   9.583827e+01
  -2.007591e+02  -2.767374e+01
  -1.458916e+02  -1.139517e+02
  -5.447111e+01  -1.499894e+02
   5.569536e+01  -1.424455e+02
   1.050788e+02  -1.752851e+01
   4.485569e+01   2.352859e+01
   3.482238e+01  -5.061667e-01
   3.521045e+01  -2.023583e+01
   4.398179e+01  -1.513674e+00
   2.326667e+01   5.774751e+01
  -7.515443e+01   6.166797e+01
  -6.449993e+01   2.058101e+01
  -8.188781e+01  -5.128589e+01
   3.308185e+00  -8.726685e+01
   7.778119e+01  -6.284279e+01
   1.295290e+02   4.134969e+01
   7.876581e+01   1.423269e+02
  -8.673882e+01   1.909164e+02
  -2.426182e+02   1.074769e+02
  -1.698151e+02  -7.953338e+01
  -7.838909e+01  -1.178833e+02
   3.570625e+01  -1.112099e+02
   7.895860e+01  -4.925243e+01
   4.829979e+01  -4.673568e+01
   4.288570e+01  -4.669872e+01
   5.309551e+01  -4.522555e+01
   6.304279e+01  -3.496459e+01
   7.242595e+01   8.268961e+01
   2.141216e+01   1.564164e+02
  -7.250813e+01   1.331086e+02
  -8.592290e+01   1.811592e+00
  -9.390761e+01  -7.326784e+01
  -6.566988e+00  -1.059267e+02
   3.999979e+01  -5.250921e+01
   6.158202e+01   3.359298e+01
  -1.399172e+00   3.696637e+01
  -2.810430e+01   2.871353e+01
   3.091792e+01   7.697166e+00
   4.062972e+01   4.287876e+01
   3.529114e+01   1.896482e+01
  -3.310034e+01   5.949024e+00
  -1.660743e+02   3.652466e+01
  -1.210141e+02  -1.803902e+01
  -2.304379e+01  -7.270048e+01
   7.308269e+01  -5.291048e+01
   8.585228e+01   1.543862e+01
   3.525218e+01   2.472215e+01
  -3.984250e+01   5.980138e+01
  -5.251000e+01  -3.714913e+01
  -9.291978e+00  -5.722829e+01
   5.670722e+01  -5.583952e+01
   6.560670e+01  -1.343526e+01
   5.730222e+00   9.370319e+01
   3.505120e+01   2.378907e+01
   5.017193e+01  -1.953939e+01
   6.165113e+01   8.569782e+00
   2.757281e+01   2.974104e+01
  -1.462499e+01   7.107446e+01
  -1.075028e+02   8.839249e+01
  -1.268028e+02   5.884730e+00
  -7.652207e+01  -6.478362e+01
  -6.028000e+00  -7.381300e+01
   4.767726e+01  -2.180788e+01
   4.481907e+01   1.250805e+01
  -5.519240e+01   3.172299e+01
  -1.280818e+02  -1.291817e+01
  -3.000737e+01  -9.739869e+01
   6.159516e+01  -6.494977e+01
   1.490132e+02  -3.741982e+01
   1.197282e+02   6.936089e+01
   1.747519e+01   1.085196e+02
  -1.455402e+01   6.564856e+01
  -3.778282e+01   1.553986e+01
   2.768962e+01  -2.059444e+01
   5.879867e+01   5.410639e+00
   3.194699e+01   7.990667e+01
  -1.021161e+02   1.104366e+02
  -1.442458e+02   5.555053e+01
  -1.178372e+02  -6.326105e+01
  -8.466088e+00  -1.331218e+02
   5.567545e+01  -8.925590e+01
   9.631634e+01   4.542803e+01
   1.487936e+01   1.164583e+02
  -3.478271e-01   4.172566e+01
  -4.197103e+01   1.726009e+01
  -5.285551e+01  -5.123323e+01
  -3.810053e+01   1.212083e+01
   7.021184e+00   4.184223e+01
  -1.240915e+01  -3.422172e+01
  -3.721573e+01  -6.755290e+01
  -7.694897e+01  -6.315257e+01
   1.793352e+01  -6.478761e+01
   1.186384e+02   2.867692e+01
   9.326477e+01   5.109816e+01
  -1.717951e+01   1.514548e+01
  -8.161647e+01   4.082506e+00
  -7.068034e+01   1.035198e+01
  -5.803033e+00  -9.371901e+00
   3.484597e+01  -9.571457e+00
  -9.437974e+00  -4.179132e+01
  -2.329041e+01  -6.335475e+00
  -2.524924e+00   2.312367e+00
   2.691140e+01   5.768249e+00
   4.997490e+01   1.304037e+01
  -1.586136e+01   9.252935e+01
  -9.309036e+01   5.430123e+01
  -1.623435e+02   4.424385e+01
  -1.187615e+02  -8.620185e+01
  -5.117450e+01  -1.287147e+02
   7.317318e+01  -1.074394e+02
   1.282131e+02  -5.511635e+01
   6.043006e+01   3.662789e+01
  -3.836409e+00   4.522357e+01
  -6.644672e+00   6.643647e+00
  -4.145092e+00  -2.242563e+00
   2.491979e+01   5.155610e+01
  -9.140605e+00   9.051513e+01
   8.110969e+00   6.563604e+01
  -6.409875e+01  -8.662550e+00
  -4.003274e+01  -1.021155e+02
  -8.148978e-01  -9.605366e+01
   7.767866e+01  -3.921728e+01
   6.253873e+01   8.107771e+01
   1.455147e+01   6.451735e+01
  -6.564036e+01   2.724915e+01
  -7.554391e+01  -1.166532e+01
  -5.351761e+01  -5.313546e+01
   3.427449e+01  -4.277621e+01
   2.963326e+01  -3.963787e+01
  -2.875129e+01   2.022288e+01
  -5.322706e+01  -1.859432e+01
  -7.175912e+00  -4.508991e+01
   7.936115e+01  -5.494327e+01
   1.042827e+02  -4.287843e+01
   4.738355e+01   5.651131e+00
  -1.556292e+01   6.190040e+01
  -2.329924e+01   6.267078e+01
  -4.132480e+01   1.782797e+01
  -1.061689e+01  -2.166495e+01
   1.883977e+01  -5.518877e+01
   1.572705e+01   2.982152e+01
   2.710590e+01   5.163857e+01
   8.918686e+00  -3.859637e+00
  -1.076357e+01  -8.780721e-01
  -9.869431e+00  -1.665861e+01
  -1.780529e+01   2.650979e+00
   1.344926e+00   7.367134e+00
  -5.851847e+00   1.653228e+00
   2.254110e+01  -1.253395e+01
   3.362441e+01  -3.352086e+01
   4.388931e+01   1.202100e+01
   1.775393e+01   4.159092e+01
   6.875422e+00   6.394728e+01
  -6.457864e+01   1.630742e+01
  -4.302216e+01  -5.238964e+00
  -5.030243e+00  -2.360837e+01
   6.433693e+01  -4.740173e+01
   6.114335e+01  -4.058037e+00
   5.494148e+01   3.929336e+01
   1.174114e+00   4.426042e+01
  -6.114239e+01   1.940115e+01
   6.162849e-01   2.424794e+01
   6.849921e-01   2.190785e+01
   3.674607e+01   1.151404e+01
  -4.164548e+01   3.727499e+01
  -9.772581e+01   3.464426e+01
