
 $NMID
 id='ANONYMOUS ', fmtdat='(2E16.6)'
 volume=1.0
 tramp=1.0
 $END
   2.596127e+03  -2.997992e+02
   1.759646e+03   1.801375e+03
   3.697295e+02   1.941905e+03
  -9.787163e+02   1.322011e+03
  -1.052226e+03   7.350605e+01
  -1.834685e+02  -2.158959e+02
   3.896017e+02   1.093985e+02
   1.333827e+01   4.945890e+02
  -4.377267e+02   6.640436e+02
  -5.853314e+02   1.456271e+02
  -4.422622e+02  -4.910350e+02
   7.435431e+01  -6.514105e+02
   2.844622e+02  -1.369108e+02
   3.284040e+02   3.982517e+02
  -7.407784e+01   5.357406e+02
  -3.611019e+02   1.574513e+02
  -4.235583e+02  -3.476703e+02
   1.297344e+02  -5.389729e+02
   4.866454e+02  -2.061326e+02
   3.554694e+02   2.405772e+02
   1.408854e+02   3.429718e+02
  -1.011122e+02   2.723758e+02
  -7.627936e+01   6.715371e+01
   1.756759e+02   5.072169e+01
   2.555637e+02   1.797496e+02
   9.543565e+01   2.860412e+02
  -4.017665e+02   1.955232e+02
  -4.565335e+02  -1.724070e+02
  -2.927398e+02  -3.868194e+02
   2.438465e+02  -2.158619e+02
   4.139208e+02   1.115188e+02
   1.847532e+02   3.873575e+02
  -1.769087e+02   3.590713e+02
  -4.117169e+02   1.792125e+02
  -3.323270e+02  -1.277179e+02
  -9.132463e+01  -3.340446e+02
  -1.633047e+01  -1.456683e+02
   6.025196e+01   7.430356e+01
  -7.005292e+01   1.614007e+02
  -2.063355e+02  -7.039017e+01
  -1.525523e+02  -3.485589e+02
   2.631951e+02  -4.001139e+02
   3.350719e+02   3.192042e+01
   1.589458e+02   2.984604e+02
  -1.374323e+02   1.143687e+02
  -1.738870e+02  -2.373876e+02
   7.189172e+01  -3.741554e+02
   3.869332e+02  -8.804002e+01
   5.268728e+02   2.997892e+02
   6.161454e+01   3.903879e+02
  -2.261150e+02   2.943874e+02
  -4.125298e+02   2.244179e+01
  -2.797347e+02  -2.329558e+02
   1.700635e+01  -2.123611e+02
   2.871665e+02  -7.597795e+01
   2.200549e+02   3.082349e+01
   8.301623e+00   7.956351e+01
  -7.958552e+01  -4.440691e+01
   6.546245e+01  -6.088872e+01
   2.160819e+02   5.908435e+01
   1.608563e+02   1.354712e+02
  -1.535054e+02   2.268804e+02
  -3.294604e+02   8.311598e+01
  -2.579433e+02  -9.005923e+01
   1.395466e+01  -2.436709e+02
   2.456433e+02  -3.510585e+02
   3.244017e+02  -1.382497e+02
   1.693903e+02   1.840149e+02
   1.601243e+01   3.303992e+02
  -4.137603e+01   2.789632e+02
  -1.950761e+01   1.539367e+02
  -5.350740e+01   7.781690e+01
  -7.919528e+01   1.160475e+02
  -2.044372e+02   2.963312e+01
  -2.467672e+02  -9.696106e+01
  -6.250830e+01  -2.388600e+02
   8.770790e+01  -1.866596e+02
   1.717211e+02   2.407223e+01
   1.134450e+02   1.835013e+02
  -4.116877e+01   1.886404e+02
  -2.424823e+02   3.704854e+01
  -3.374986e+02  -1.496412e+02
  -1.271137e+02  -2.729876e+02
   6.472504e+01  -2.246950e+02
   1.651923e+02  -1.469974e+02
   1.192540e+02  -6.924570e+01
   1.094047e+02  -7.005338e+01
   2.155653e+02  -7.559479e+01
   4.222349e+02   7.100962e+01
   3.085409e+02   2.633646e+02
  -2.733276e+01   3.793516e+02
  -3.161259e+02   3.863517e+02
  -4.042382e+02   1.444339e+02
  -2.788790e+02  -9.433568e+01
  -1.355766e+01  -1.436512e+02
  -1.204903e+01  -1.560210e+02
   1.941526e+01  -6.446951e+01
  -8.985750e+01   1.847240e+01
  -1.058678e+02  -5.331596e+01
  -3.033589e+01  -1.110124e+02
   1.055039e+02  -1.002514e+02
   1.155023e+02   5.923686e+01
  -2.656729e+01   1.426380e+02
  -1.208025e+02  -1.762875e+01
  -1.317997e+02  -2.262207e+02
   2.700930e+01  -3.049145e+02
   2.089190e+02  -1.833817e+02
   3.437842e+02   5.830669e+01
   2.499617e+02   2.102565e+02
   6.707766e+00   2.108156e+02
  -1.353038e+02   1.370595e+02
  -1.382619e+02   1.142473e+01
  -1.734993e+01   1.087418e+01
   5.099695e+01   5.969754e+01
   2.131641e+01   1.316274e+02
  -1.024799e+02   7.333590e+01
  -1.339557e+02  -3.972271e+01
  -6.781756e+01  -5.015308e+01
   9.302943e+01   2.757207e+00
   1.278419e+01   6.730663e+01
  -1.480068e+02   2.550088e+01
  -2.486836e+02  -1.406264e+01
  -1.830634e+02  -1.679827e+02
  -3.275933e+01  -2.707528e+02
   1.816675e+02  -1.911905e+02
   2.236616e+02  -7.780299e+01
   1.186363e+02   3.881477e+01
  -2.713814e+01   8.416026e+01
  -4.284510e+01  -3.361825e-01
   6.733896e+01  -7.045079e+01
   1.753259e+02  -7.566790e+00
   2.118008e+02   8.138701e+01
   1.369576e+01   1.508768e+02
  -5.738372e+01   1.367643e+02
  -1.212203e+02   2.337394e+01
  -2.765392e+01  -8.024402e+01
   2.342532e+01  -2.412052e-01
   1.671026e+01   8.624938e+01
  -1.027446e+02   1.168473e+02
  -1.711325e+02   1.842863e+01
  -1.743181e+02  -1.197209e+02
  -4.659692e+00  -1.770143e+02
   1.396498e+02  -1.459087e+02
   1.533199e+02   5.497530e+00
   6.351869e+01   9.519929e+01
  -9.485764e+01   9.535874e+01
  -6.892805e+01   2.410116e+01
   1.638336e+01  -3.333689e+01
   1.009367e+01  -2.114301e+01
   8.069164e+00  -5.579291e+00
  -8.904868e+01   7.422591e-01
  -9.541050e+01  -7.739491e+01
   6.676471e+00  -1.320657e+02
   1.519930e+02  -1.532559e+02
   2.178203e+02  -4.424292e+01
   1.619115e+02   1.555825e+02
   3.360210e+01   2.096727e+02
  -1.175891e+02   1.893682e+02
  -1.245124e+02   5.083637e+01
  -5.639826e+01  -3.825437e+01
  -6.067471e+01  -2.719549e+01
  -5.064624e+01  -2.254065e+00
  -7.562031e+01   1.872847e+01
  -4.598400e+01  -4.838224e+01
   5.240314e+01  -6.518024e+01
   7.669167e+01  -9.551468e+01
   9.723809e+01   4.447570e+01
  -2.474455e+01   1.072191e+02
  -1.637762e+02   6.721085e+01
  -2.219600e+02  -3.571150e+01
  -5.527576e+01  -1.766135e+02
   8.128793e+01  -1.620930e+02
   2.631064e+02  -4.114845e+01
   2.011317e+02   6.466186e+01
   9.906970e+01   1.594332e+02
  -2.836988e+01   1.241778e+02
  -8.446168e+01   6.360168e+01
  -6.485404e+01   3.428018e+01
  -2.800311e+01   8.959555e+01
  -5.316628e+01   9.252191e+01
  -8.570597e+01  -6.530026e+01
  -1.130222e+02  -1.070450e+02
  -1.870679e+01  -1.683627e+02
   8.611432e+01  -1.231413e+02
   1.487315e+02  -4.930852e+01
   1.158904e+02   1.198857e+02
   1.301615e+01   1.566642e+02
  -6.426821e+01   3.300515e+01
  -6.182784e+01  -8.194376e+00
   3.188462e+00  -3.249114e+01
   2.671362e+01  -4.703955e+01
  -2.998073e+01  -2.265443e+01
  -6.805851e+01  -1.065326e+01
  -5.178111e+01  -3.194405e+01
   3.717003e+01  -1.357297e+01
   1.524077e+02   6.791624e+00
   1.186319e+02   5.476890e+01
  -7.008649e+00   6.868607e+01
  -1.073167e+02   6.362433e+01
  -1.271189e+02   1.795372e+01
  -4.210383e+01  -6.332809e+00
   6.839124e+01  -3.583449e+01
   9.162083e+01   2.070320e+01
   1.767434e+01   6.389240e+01
  -1.780293e+01   1.067842e+02
  -7.289499e+01   6.716016e+00
  -5.963634e+01  -3.817115e+01
  -2.950443e+01  -5.370089e+01
  -4.284720e+01  -4.800431e+00
  -5.807787e+01  -4.350786e+00
  -3.531330e+01  -8.443385e+01
   1.400882e+01  -1.510801e+02
   8.463799e+01  -1.401356e+02
   1.430443e+02  -2.047813e+01
   1.123730e+02   9.008979e+01
  -4.009522e+00   1.374869e+02
  -5.916486e+01   6.571790e+01
  -3.039559e+01   1.874951e+01
   3.835313e+01  -2.862522e+01
   1.065246e+02   1.643074e+01
   6.669542e+01   6.930457e+01
  -7.230675e+01   9.572510e+01
  -1.446390e+02   2.981872e+01
  -1.516938e+02  -1.415136e+01
  -4.044387e+01  -6.689524e+01
   6.568362e+01  -3.295236e+01
   6.167768e+01  -3.072019e+01
  -5.784383e+01   4.971435e+01
  -1.097368e+02  -1.847965e+01
  -2.327478e+01  -1.196289e+02
   6.426858e+01  -1.283277e+02
   1.543606e+02  -5.014428e+01
   1.252612e+02   6.429863e+01
   3.562684e+01   1.491806e+02
  -5.984526e+01   1.532014e+02
  -7.744755e+01  -3.390412e+01
  -3.151228e+01  -1.145789e+02
   2.536983e+01  -9.807376e+01
   5.793344e+01  -2.365210e+01
   5.881176e+01   3.383370e+01
   7.741547e+00   6.059858e+00
   1.217409e+01  -6.804223e+00
   5.713124e+01   2.437384e+01
   7.735618e+01   7.055970e+01
   1.592690e+01   7.991815e+01
  -3.062249e+01   3.512643e+01
  -1.404600e+02  -2.239891e+01
  -1.243561e+02  -5.139340e+01
  -1.462307e+01  -4.988912e+01
   5.504815e+01  -2.811395e+01
   8.176702e+01  -2.248057e+01
   2.387019e+01   1.171333e+01
  -2.884923e+01   3.853083e+01
  -6.811900e+00   2.052863e+01
   1.517792e+01   1.121277e+01
  -3.304688e+00  -3.834462e+01
  -6.133925e+01  -1.614056e+01
  -7.905462e+01  -1.381352e+01
  -2.447843e+01  -6.204306e+01
   1.384894e+02  -1.066240e+02
   1.500595e+02  -3.600467e+01
   1.468727e+02   4.501057e+01
   2.811295e+01   1.931756e+02
  -5.655272e+01   1.708110e+02
  -9.518738e+01   6.636079e+01
  -7.982782e+01   2.188640e+01
  -3.678683e+01  -3.925395e+01
   1.273621e+01  -1.681605e-02
  -4.788386e+00  -1.004465e+01
  -1.847446e+01  -2.713820e+01
   1.586447e+01  -8.294782e+01
   4.287042e+01  -7.388549e+01
   8.037149e+01  -1.568450e+00
   7.058820e+01   8.638215e+01
   5.393370e+01   1.046243e+02
  -7.214166e+01   3.216312e+01
  -9.763383e+01  -8.287123e+01
  -4.765384e+01  -8.933235e+01
   7.116164e+01  -6.707690e+01
   6.794869e+01   1.583422e+01
   1.971278e+01   5.028020e+01
  -2.543208e+01   5.587291e+01
  -4.580269e+01   4.303462e+01
   5.407518e+01  -1.633831e+01
   5.403088e+01  -7.713444e+00
   6.874837e+00   1.801945e+01
  -5.487504e+01   9.472723e+01
  -7.660479e+01   2.199806e+01
  -8.558349e+01   1.259717e+00
   1.803780e+01  -9.694655e+01
   7.074230e+01  -8.831747e+01
   5.929752e+01   1.022695e+01
   1.691699e+01   4.399340e+01
  -3.493743e+01   8.186815e+01
  -2.772639e+01  -2.837742e+01
  -4.257756e+01  -4.747760e+01
   7.247248e+00  -3.828434e+01
   2.390988e+01   1.097014e+01
   2.415698e+01   4.539185e+01
   2.305895e+01   2.679905e+00
  -1.977877e+00  -8.880411e+00
   1.043194e+01   2.211341e+01
  -3.654188e+01   4.861459e+01
  -2.668778e+01   5.655339e+01
  -3.289491e+01   2.341678e+01
  -3.485597e+01  -3.661357e+01
  -6.122010e+01  -5.902718e+01
   3.492635e+01  -4.445253e+00
   5.000112e+01   4.162418e+01
   2.104390e+01   5.403242e+01
  -5.799837e+01   4.052797e+01
  -8.881528e+01   1.851975e+01
  -2.284357e+01  -5.845810e+01
   3.423667e+01  -5.426546e+01
   5.494581e+01  -5.206171e+01
   8.660330e+00   1.225218e+00
  -3.590141e+01  -1.257654e+01
  -4.809066e+01   4.412985e+01
   1.252420e+01   1.541278e+01
   7.991255e+01   5.883258e+00
