
 $NMID
 id='ANONYMOUS ', fmtdat='(2E16.6)'
 volume=1.0
 tramp=1.0
 $END
  -3.371858e+03  -2.092924e+02
  -2.301732e+03  -1.626529e+03
   1.475473e+02  -1.949349e+03
   1.653809e+03  -9.763610e+02
   9.794311e+02  -4.791338e+01
  -1.541206e+02   3.861039e+02
  -4.041562e+02  -2.246714e+02
  -3.892800e+01  -6.386292e+02
   4.626101e+02  -5.816058e+02
   5.880744e+02  -1.163233e+02
   3.994116e+02   5.173201e+02
  -1.660335e+02   6.954053e+02
  -3.771995e+02   1.783724e+02
  -2.580146e+02  -4.443288e+02
   2.047610e+02  -5.783300e+02
   3.721005e+02  -8.373531e+00
   2.331133e+02   4.525874e+02
  -1.905259e+02   5.927529e+02
  -5.183359e+02   1.390564e+02
  -4.160412e+02  -2.280966e+02
  -1.077192e+02  -3.406822e+02
   1.550868e+02  -1.794097e+02
   1.291871e+02  -1.013976e+02
  -1.101685e+02  -5.371823e+01
  -2.356327e+02  -2.780519e+02
   1.567504e+01  -3.743658e+02
   4.566965e+02  -1.523870e+02
   5.236892e+02   1.894826e+02
   3.103539e+02   4.193818e+02
  -4.580835e+02   2.773534e+02
  -5.584766e+02  -1.195530e+02
  -2.727984e+02  -4.560398e+02
   2.605971e+02  -2.608669e+02
   4.374301e+02  -8.915530e+01
   3.786863e+02   2.121507e+02
   3.108042e+01   3.677885e+02
  -8.027650e+01   1.598097e+02
   6.962761e+00  -9.409364e+01
   1.611204e+02  -1.188049e+02
   2.123110e+02   1.421369e+02
  -5.351119e+00   4.910890e+02
  -3.494845e+02   5.200521e+02
  -4.212531e+02  -1.935088e+01
  -1.377027e+02  -3.951548e+02
   1.673088e+02  -2.008560e+02
   1.865525e+02   3.057605e+02
  -1.474823e+02   3.406505e+02
  -4.566041e+02   1.146885e+02
  -5.324568e+02  -3.841278e+02
  -2.185066e+02  -5.436361e+02
   3.200940e+02  -1.724720e+02
   4.931299e+02   7.564650e+01
   2.967985e+02   3.221964e+02
  -1.245818e+02   2.628360e+02
  -2.905955e+02   5.853246e+01
  -2.126258e+02  -5.953809e+01
  -1.921026e+01  -7.258494e+00
   6.180745e+01   6.985657e+01
  -9.153036e+01   7.903717e+01
  -2.276156e+02  -6.379819e+01
  -9.408876e+01  -2.117824e+02
   2.189837e+02  -2.310669e+02
   3.079004e+02  -9.531313e+01
   2.560362e+02   9.853906e+01
  -6.134114e+01   2.773487e+02
  -2.757715e+02   3.093552e+02
  -4.175082e+02   1.616965e+02
  -2.401242e+02  -1.429964e+02
  -2.871308e+01  -3.642240e+02
   3.914279e+01  -2.861580e+02
   7.998008e+01  -1.179772e+02
   2.809428e+01  -9.755495e+01
   1.405571e+02  -7.698722e+01
   2.204971e+02  -5.533561e+01
   2.392325e+02   1.154221e+02
   1.033336e+02   2.589020e+02
  -7.881284e+01   1.726547e+02
  -2.113966e+02  -5.929832e+01
  -9.615671e+01  -1.897321e+02
   6.137509e+01  -2.300424e+02
   2.866424e+02  -3.874532e+01
   2.848072e+02   1.955466e+02
   1.389930e+02   2.851556e+02
  -5.149660e+01   2.616534e+02
  -1.772634e+02   1.354897e+02
  -1.567173e+02   5.765587e+01
  -1.322088e+02   5.438870e+01
  -2.273803e+02   9.905604e+00
  -3.597264e+02  -1.079489e+02
  -3.448381e+02  -3.084468e+02
   5.231952e+01  -3.445349e+02
   3.474691e+02  -2.833099e+02
   4.851774e+02  -1.101182e+02
   2.515212e+02   1.165294e+02
  -3.399970e+01   2.215415e+02
  -9.888877e+01   2.158118e+02
  -1.289523e+01   5.029421e+01
   1.186718e+02  -6.081111e+01
   1.571544e+02   2.566554e+01
   2.366472e+00   1.579483e+02
  -1.377149e+02   1.133214e+02
  -1.450283e+02  -3.679495e+01
   5.589619e+01  -1.344141e+02
   1.654612e+02   3.658437e+01
   1.106311e+02   2.317499e+02
  -1.465664e+01   3.081179e+02
  -2.221930e+02   1.633554e+02
  -3.256001e+02  -1.098077e+02
  -2.226937e+02  -2.832750e+02
  -9.682584e+01  -3.126048e+02
   1.241188e+02  -1.200262e+02
   1.474256e+02  -1.495851e+01
   5.809200e+01   8.443621e+00
  -7.465073e+01  -2.895461e+01
  -1.458708e+01  -8.312207e+01
   1.558941e+02  -5.462918e+01
   1.769832e+02   2.153448e+01
   3.461012e+01   6.892735e+01
  -9.918948e+01  -3.133749e+01
  -2.430929e+01  -1.062749e+02
   1.227003e+02  -9.760423e+01
   2.961221e+02   8.723998e+01
   2.195925e+02   1.935201e+02
  -1.472485e+01   2.620723e+02
  -2.108704e+02   1.962738e+02
  -3.119821e+02   5.263263e+01
  -1.093164e+02  -4.216246e+01
   5.483808e+01  -6.504602e+01
   9.968630e+01  -4.556344e+00
  -5.649899e+01   9.196600e+01
  -1.953644e+02   3.550755e+01
  -1.447887e+02  -9.703142e+01
  -6.870107e+01  -1.575615e+02
   1.021983e+02  -1.300169e+02
   1.233782e+02  -1.429457e+01
   4.551799e+01   5.195791e+01
  -5.927998e+01  -3.470281e+01
  -4.658809e+00  -9.512126e+01
   9.555144e+01  -1.541017e+02
   2.034188e+02   4.382796e+01
   1.474828e+02   8.427643e+01
   1.316018e+01   1.858075e+02
  -1.999646e+02   1.467721e+02
  -1.858350e+02  -3.314548e+01
  -3.928649e+01  -9.575783e+01
   9.484239e+01  -8.182432e+01
   5.868476e+01  -2.297218e+01
   8.724686e+00   2.300073e+01
  -4.250116e+01  -5.479443e+00
   7.114368e+00  -5.013767e+01
   1.242858e+02   2.620495e-02
   8.940421e+01   1.197844e+02
   2.147991e+01   1.880311e+02
  -1.368850e+02   1.523091e+02
  -2.383345e+02   8.724143e+00
  -1.778908e+02  -1.760579e+02
  -2.025647e+01  -2.063745e+02
   1.264248e+02  -1.742673e+02
   1.596470e+02  -1.002697e+01
   8.744417e+01   3.091815e+01
   3.690885e+01   2.807744e+01
   5.126792e+01   1.056089e-01
   7.569450e+01   8.228201e+00
   3.783384e+01   3.763275e+01
  -4.102515e+01   7.811117e+01
  -1.192466e+02   3.109740e+01
  -9.935687e+01  -5.180089e+01
   8.477774e+00  -1.031341e+02
   1.552811e+02  -7.262437e+01
   1.822151e+02   6.187772e+01
   8.433364e+01   2.326326e+02
  -1.223655e+02   1.809237e+02
  -2.805951e+02   4.372491e+01
  -2.006961e+02  -1.149207e+02
  -8.832294e+01  -1.431120e+02
   5.026483e+01  -1.148942e+02
   6.716890e+01  -6.957770e+01
   8.603683e+01  -3.792373e+01
   7.132230e+01  -4.528905e+01
   7.170804e+01  -7.064822e+01
   1.286806e+02   4.796954e+00
   9.210552e+01   1.735313e+02
   6.001736e+01   2.308520e+02
  -9.373972e+01   1.439042e+02
  -1.674499e+02  -2.593901e+01
  -1.243315e+02  -1.178197e+02
   7.338210e+00  -1.198901e+02
   1.104476e+02  -8.239488e+01
   4.209111e+01   2.491955e+01
  -1.347614e+01   1.970512e+01
  -2.689742e+01   1.077091e+01
   3.194458e+01   1.685657e+01
   9.780009e+01   4.858716e+01
   5.319196e+01   4.911274e+01
  -7.484247e+01   2.829100e+01
  -1.393048e+02   3.577933e+01
  -1.417014e+02  -6.773835e+01
   2.945702e+01  -1.179134e+02
   1.376336e+02  -6.005895e+01
   1.018681e+02   1.794069e+01
   1.576768e+00   4.787661e+01
  -4.187296e+01   4.113946e+01
  -5.815838e+01  -4.165275e+01
   5.669131e+00  -8.565169e+01
   3.926192e+01  -5.791330e+01
   6.172514e+01  -7.730452e+00
   4.215213e+01   8.563492e+01
   5.734190e+01   4.724697e+01
   4.618917e+01  -1.983730e+01
   6.319064e+01  -3.339345e+01
   5.328861e+01   6.914465e+01
  -4.571749e+01   1.180463e+02
  -1.374103e+02   1.161510e+02
  -1.567358e+02   2.896374e+01
  -1.303681e+02  -1.294723e+02
   3.756141e+01  -9.454267e+01
   8.451127e+01  -2.810810e+01
   7.260251e+01   1.796596e+01
  -5.894737e+01   1.062572e+01
  -9.936531e+01  -1.757525e+01
  -5.089205e+01  -1.313260e+02
   9.239058e+01  -8.292511e+01
   2.160744e+02  -4.880143e+00
   1.543821e+02   7.541899e+01
   3.652014e+01   5.147847e+01
  -6.988983e+01   3.505879e+01
  -5.821927e+01  -1.641870e+01
   3.032804e+01  -5.450066e+01
   6.294251e+01   2.362493e+01
   5.363297e+01   1.080255e+02
  -6.130764e+01   1.437103e+02
  -1.817832e+02   6.449621e+01
  -1.259261e+02  -7.997762e+01
  -1.093612e+01  -1.965102e+02
   8.289691e+01  -1.340714e+02
   7.846034e+01   3.314143e+01
   2.847331e+01   1.468492e+02
  -2.417073e+00   1.059166e+02
  -1.888243e+01   4.971980e+00
  -5.362454e+00  -4.843767e+00
  -3.715172e+01  -2.603012e+01
  -1.029687e+01  -2.211906e+00
  -5.693291e+01  -1.349021e+01
  -6.721214e+01  -1.021309e+02
  -1.298056e+01  -1.182770e+02
   6.795486e+01  -5.272566e+01
   9.740824e+01   3.105346e+01
   1.295129e+02   7.809331e+01
  -6.659599e+00   2.191391e+01
  -8.570465e+01   9.122045e+00
  -6.304977e+01  -5.835225e+00
  -2.708702e+01  -4.535029e-01
   6.140118e+01  -1.668113e+01
   2.429854e+01  -8.721618e+00
  -1.301073e+01   4.469912e+00
   1.991899e+01   4.331580e+01
   3.441007e+01   3.943616e+00
   9.733856e+01   1.112976e+01
   2.116157e+01   9.186240e+01
  -1.113200e+02   6.105682e+01
  -1.718440e+02   5.332201e+01
  -1.513582e+02  -6.543965e+01
  -2.257805e+01  -1.773034e+02
   1.017043e+02  -1.239154e+02
   8.154799e+01  -7.615788e+01
   6.054734e+01   2.632018e+01
   1.000735e+01   1.364625e+01
   1.041252e+01   2.199368e+01
   3.572557e+01   2.832459e+01
   1.216268e+01   7.376490e+01
  -5.773630e+00   1.109666e+02
  -5.079968e+01   4.142088e+01
  -1.058036e+02  -4.331382e+01
  -6.112803e+01  -1.235509e+02
   1.716330e+01  -9.599389e+01
   8.493162e+01  -9.436453e+00
   1.076649e+02   6.247910e+01
   2.788868e+01   8.294068e+01
  -6.495179e+01   6.689193e+01
  -9.671056e+01  -3.141665e+01
  -5.384338e+01  -7.802824e+01
   2.595045e+01  -4.976921e+01
   4.769969e+01  -2.272313e+01
  -2.788476e+01   5.201363e-01
  -5.358816e+01  -1.422947e+00
  -2.344052e+01  -4.346995e+01
   9.532505e+01  -5.746739e+01
   1.040119e+02  -5.133003e+01
   8.473392e+01   3.552035e+01
  -4.168783e+01   9.111148e+01
  -5.600923e+01   7.455949e+01
  -2.916472e+01   3.847757e+01
  -1.624724e+01  -7.083793e+01
   3.064535e+01  -4.540445e+01
   3.403724e+01  -3.302523e+01
   2.141122e+01   7.013985e+01
  -2.394153e+00   1.784932e+01
  -2.540048e+01   4.094718e+00
  -3.253029e+01  -5.112035e+01
  -1.596919e+01  -1.243952e+01
  -1.392465e+01   4.470886e+00
   2.455353e+01   8.204407e+00
   1.198434e+01  -5.254081e+00
   1.421051e+00  -7.890714e+01
   3.844337e+01  -3.466064e+01
   9.670152e+00   2.805493e+01
   5.005054e+00   5.453019e+01
  -4.433408e+01   4.037591e+01
  -4.352568e+01  -2.194520e+01
   1.070775e+01  -3.864839e+01
   5.584540e+01  -3.307287e+01
   3.605900e+01   1.260548e+01
   5.209961e+01   5.384571e+01
  -1.802846e+01   3.163574e+01
  -5.169333e+01   2.973963e+01
  -3.099282e+01   7.643085e+00
   4.096234e+01  -2.516521e+01
   4.394310e+01   4.792178e+00
  -3.445040e+01   4.246126e+01
  -7.463014e+01   1.299768e+01
