
 $NMID
 id='ANONYMOUS ', fmtdat='(2E16.6)'
 volume=1.0
 tramp=1.0
 $END
  -2.410742e+03   2.658562e+02
  -1.848725e+03  -1.207291e+03
  -3.527093e+02  -1.783500e+03
   9.571175e+02  -1.137292e+03
   8.880783e+02  -3.480303e+02
   1.227774e+02   2.146771e+02
  -3.170161e+02   5.521604e+01
  -1.766354e+02  -4.064481e+02
   2.691318e+02  -5.687932e+02
   5.586813e+02  -8.392934e+01
   5.196616e+02   3.303086e+02
   1.995818e+02   4.846618e+02
  -1.501208e+02   2.247282e+02
  -2.487074e+02  -2.982389e+02
   7.957042e+01  -3.502638e+02
   3.084275e+02  -2.149791e+02
   3.543453e+02   3.294340e+02
  -1.314201e+02   5.492786e+02
  -3.309626e+02   2.730353e+02
  -3.378118e+02  -7.678129e+01
  -1.631924e+02  -3.003294e+02
   5.070275e+00  -2.299401e+02
   4.734321e+01  -1.087425e+02
  -1.325253e+02  -7.692209e+01
  -1.674090e+02  -2.307190e+02
  -6.090915e+01  -2.142742e+02
   3.860045e+02  -1.251854e+02
   4.502513e+02   1.328662e+02
   1.907200e+02   2.221344e+02
  -1.954392e+02   1.610340e+02
  -3.291802e+02  -9.449714e+01
  -1.120365e+02  -2.889110e+02
   1.491023e+02  -2.856084e+02
   2.595968e+02  -4.164460e+01
   2.680663e+02   1.143836e+02
   1.124853e+02   2.273385e+02
   3.932452e+01   1.636526e+02
   5.451564e+01  -4.411380e+01
   5.475626e+01  -1.393758e+02
   9.248401e+01   7.626340e+01
   2.964235e+01   2.800583e+02
  -1.899290e+02   3.606114e+02
  -2.031427e+02   2.572423e+01
  -8.575991e+01  -1.641769e+02
   1.110365e+02  -1.007199e+02
   7.448529e+01   1.919852e+02
  -7.154654e+01   2.435730e+02
  -3.448745e+02   1.160134e+02
  -3.422855e+02  -2.716316e+02
  -8.133118e+01  -4.308468e+02
   1.933396e+02  -2.423395e+02
   3.989204e+02   3.177914e+01
   2.482133e+02   9.422075e+01
  -3.074332e+01   2.132145e+02
  -2.225246e+02   1.343045e+02
  -2.074361e+02  -2.850708e+00
  -7.756590e+01  -5.163909e+01
   2.098425e+01   2.189946e+01
  -3.788347e+01   7.453530e+01
  -1.259329e+02  -7.984598e+00
  -1.967368e+02  -1.679490e+02
   1.046137e+02  -1.889337e+02
   3.470360e+02  -1.080754e+02
   2.313265e+02   7.154729e+01
  -3.825353e+01   2.761258e+02
  -2.395582e+02   3.456008e+02
  -2.724349e+02   9.483461e+01
  -2.075332e+02  -1.382897e+02
  -8.474783e+01  -2.794006e+02
  -1.158954e+01  -2.600766e+02
   6.630112e+01  -1.471718e+02
   3.687896e+01  -1.329562e+02
   1.432232e+02  -1.012869e+02
   1.918741e+02   1.245910e+01
   1.840648e+02   1.176792e+02
   6.519175e+01   1.812694e+02
  -1.007170e+02   1.372787e+02
  -1.460751e+02  -1.527135e+01
  -1.153678e+02  -1.605181e+02
   6.963558e+01  -2.147727e+02
   1.823605e+02  -2.990453e+01
   2.540052e+02   8.961332e+01
   1.344128e+02   2.065126e+02
  -4.974728e+01   2.277028e+02
  -1.458322e+02   1.347787e+02
  -1.280246e+02   9.202503e+01
  -1.331785e+02   9.278763e+01
  -2.261173e+02   4.108341e+00
  -3.999066e+02  -1.020575e+02
  -2.848704e+02  -2.517418e+02
   4.457878e+01  -4.016655e+02
   2.688710e+02  -3.089551e+02
   3.503821e+02  -9.795243e+01
   2.020458e+02   2.962631e+01
   1.279980e+01   2.403017e+02
  -5.812833e+01   1.880923e+02
   1.448384e+01   5.735953e+01
   4.306434e+01  -8.729164e+00
   7.724897e+01   3.148634e+01
   1.179301e+01   1.101597e+02
  -6.429497e+01   6.814755e+01
  -9.436934e+01  -3.633551e+01
   6.947685e+01  -1.217750e+02
   1.401436e+02   7.433727e+00
   1.639777e+02   1.881979e+02
  -1.369021e+01   3.099741e+02
  -1.818776e+02   1.453257e+02
  -2.488939e+02  -4.505577e+01
  -1.679507e+02  -1.551862e+02
  -5.187426e+01  -2.110702e+02
   1.518881e+02  -1.039318e+02
   1.230628e+02   2.893534e+01
   2.208530e+01   6.773763e+00
  -7.703411e+00  -2.900724e+01
  -7.823595e+00  -7.183465e+01
   7.516522e+01  -5.694711e+01
   9.097219e+01   6.117527e+00
   4.054589e+01   3.754239e+01
  -6.411298e+01  -3.674074e+01
  -2.882951e+01  -7.692609e+01
   1.052981e+02  -5.643191e+01
   1.970534e+02   2.580119e+01
   1.881719e+02   1.901713e+02
   2.321383e+00   1.988918e+02
  -2.111161e+02   1.719748e+02
  -1.855079e+02   9.888804e+01
  -9.751153e+01  -3.906097e+01
   5.158588e+01  -7.194139e+01
   5.738195e+01  -1.438343e+01
  -5.077372e+01   4.143268e+01
  -1.657034e+02   1.051659e+01
  -1.601828e+02  -4.715502e+01
  -1.041170e+02  -1.390343e+02
   5.342930e+01  -7.576724e+01
   1.258130e+02   6.200205e+00
   1.721842e+01   6.750366e+01
  -3.568339e+01  -1.256468e+00
  -1.929164e+01  -9.348196e+01
   7.957846e+01  -1.104453e+02
   1.564734e+02  -2.863205e+01
   1.214538e+02   8.844744e+01
   4.292813e+00   1.796019e+02
  -1.146382e+02   1.326279e+02
  -1.117561e+02   1.126030e+01
  -4.851244e+01  -2.754780e+01
   3.266717e+01  -6.867376e+01
   7.425479e+01  -4.618699e+01
   2.231660e+01   1.627961e+01
  -4.078925e+01   1.203981e+00
  -2.847024e+01  -5.539336e+01
   8.652624e+01   2.358201e+01
   7.343470e+01   6.823235e+01
  -1.413876e+00   1.516563e+02
  -9.682132e+01   1.347956e+02
  -1.818979e+02   1.286112e+01
  -1.317326e+02  -1.729344e+02
  -4.776193e+01  -1.900926e+02
   8.076716e+01  -1.313297e+02
   8.685568e+01  -1.316801e+01
   6.099162e+01   4.588894e+01
   1.984066e+01  -1.328437e+01
   1.748528e+01  -2.523372e+01
   7.707523e+01   9.210306e+00
   6.125756e+00   7.100975e+01
  -5.716316e+01   4.946989e+01
  -1.163810e+02   3.746712e+01
  -7.664947e+01  -3.962826e+01
   1.369395e+01  -1.018271e+02
   1.580365e+02  -6.344416e+01
   1.534504e+02   3.245165e+01
   3.451870e+01   1.569922e+02
  -1.088997e+02   2.136847e+02
  -2.322517e+02   3.096545e+01
  -1.844571e+02  -4.550233e+01
  -5.099026e+01  -1.581424e+02
   3.485521e+01  -9.089619e+01
   5.649098e+01  -3.505003e+01
   5.549246e+01  -6.684064e+01
   3.911478e+01  -5.123830e+01
   6.434923e+01  -7.026377e+01
   9.871659e+01  -7.911573e+00
   1.012840e+02   1.429898e+02
   8.637146e+00   2.052118e+02
  -6.427131e+01   1.142654e+02
  -1.108617e+02   1.105489e+01
  -8.387369e+01  -1.278401e+02
  -2.498917e+01  -1.197525e+02
   7.148851e+01  -4.411295e+01
   4.121860e+01   1.507217e+01
  -3.584649e+01   3.950356e+01
  -2.401006e+01   2.213559e+01
   6.347964e+00  -2.943533e+00
   8.608357e+01   2.390547e+01
   5.478557e+01   3.357704e+01
  -5.863395e+01   2.695233e+01
  -1.376497e+02  -2.633814e+01
  -1.515466e+02  -6.079952e+01
  -2.745034e+00  -7.789597e+01
   1.162395e+02  -6.419786e+01
   1.038883e+02  -3.522380e+01
   2.259644e+01  -3.377491e-02
  -4.554323e+01   1.656957e+01
  -2.998097e+01   1.702312e+00
  -3.602838e+01  -4.081625e+01
   3.700878e+01  -5.579353e+01
   5.196054e+01  -4.468300e+01
   6.944503e+01   5.680366e+01
   2.206151e+01   3.793682e+01
   5.557864e+01   1.518632e+01
   2.088545e+01   4.169025e+00
   2.732249e+01   6.711918e+01
  -4.004852e+00   1.527465e+02
  -9.776937e+01   1.326054e+02
  -1.674359e+02   4.592513e+01
  -1.039119e+02  -4.974668e+01
  -9.010148e+00  -1.064979e+02
   1.077537e+02  -7.127583e+01
   8.697095e+01  -2.199929e+01
  -7.007739e+01   5.621999e+00
  -1.378101e+02  -3.876964e+01
  -4.623642e+01  -7.091569e+01
   5.517004e+01  -4.600306e+01
   1.369782e+02  -9.658315e+00
   1.513703e+02   3.037842e+01
   4.590810e+01   7.144129e+01
  -7.450043e+01   5.792920e+01
  -3.978701e+01  -4.085468e+00
   2.122591e+01  -9.149226e+00
   9.053789e+01   2.076023e+00
   3.776778e+01   6.737130e+01
  -7.102497e+01   1.551332e+02
  -1.476979e+02   2.558283e+01
  -9.410951e+01  -7.296380e+01
  -4.522688e+01  -1.385074e+02
   4.690436e+01  -9.688860e+01
   8.123763e+01   3.815709e+01
   1.168197e+01   1.030498e+02
   2.367980e-01   6.730847e+01
  -6.596518e+01   3.633659e+00
  -1.947913e+01  -4.204023e+01
  -1.912429e+01  -1.012581e+01
  -8.715275e+00   2.496590e+01
  -1.984288e+01  -2.971098e+01
  -3.220640e+01  -7.607723e+01
  -5.212108e+00  -6.282784e+01
   5.256125e+01  -3.269398e+01
   1.087274e+02   1.134309e+01
   8.526295e+01   7.371271e+01
   8.538269e+00   3.849123e+01
  -6.272522e+01   3.219717e+01
  -6.460580e+01  -2.045112e+00
  -1.179368e+01  -4.123978e+01
   3.501976e+01  -2.237554e+01
   3.428344e+00  -2.492130e+01
  -2.104773e+01   4.840070e+00
  -1.712447e+01  -2.795319e+01
   3.363062e+01   1.001364e+01
   7.682521e+01   9.555955e+00
   3.268160e+01   5.425795e+01
  -6.958416e+01   8.893749e+01
  -1.225110e+02   3.705431e+01
  -1.271565e+02  -2.271669e+01
  -1.223810e+01  -1.440135e+02
   2.816939e+01  -1.420430e+02
   5.439193e+01  -2.454937e+01
   8.137575e+01   2.986257e+00
   4.397790e+01   7.196167e+00
   3.984447e+01  -1.634068e+01
   3.515495e+01  -1.709761e+01
   2.528286e+01   1.716825e+01
   9.823408e+00   7.957773e+01
  -4.938202e+01   5.305361e+01
  -4.453010e+01   7.962225e-01
  -7.362729e+01  -6.918170e+01
   1.872707e+01  -9.973953e+01
   6.914141e+01  -2.237224e+01
   7.475295e+01   5.244098e+01
   1.752724e+01   1.097459e+02
  -4.171759e+01   6.163244e+01
  -6.958317e+01  -4.512833e+00
  -3.819610e+01  -5.857302e+01
  -1.435652e+00  -4.042151e+01
   3.962400e+01   7.358693e+00
  -1.056734e+01   2.260858e+01
  -4.250385e+01   3.101892e+01
   5.373171e+00  -1.061445e+01
   4.215929e+01  -5.187488e+01
   1.132107e+02  -1.749123e+01
   5.023887e+01  -3.820778e+00
  -6.388638e-01   7.588159e+01
  -1.721281e+01   9.274387e+01
  -5.022384e+01   3.245211e+01
  -2.138513e+01  -1.262871e+01
   3.972928e+01  -7.521486e+01
   4.675020e+01  -2.269741e+01
   3.248733e+01   5.942289e+01
  -3.267888e+00   3.848435e+01
  -2.914039e+01   2.101869e+01
  -4.861604e+01  -2.606960e+00
   1.447527e+01   2.185608e+01
   2.205570e+00  -2.970330e+01
  -1.088889e+01  -6.752945e+00
   1.250891e+01  -2.095673e+01
  -2.022465e+01  -4.169858e+01
   2.355392e+01  -2.465169e+01
   8.948324e+00   5.309632e+01
   3.014719e+00   1.922952e+01
  -5.406918e+01   6.949853e+01
  -4.224863e+01  -4.018911e+01
  -3.387129e+01  -7.006611e+01
   1.822139e+01  -2.530908e+01
   4.778967e+01   5.674560e+00
   4.538516e+01   5.621590e+01
  -1.773207e+01   1.013919e+01
  -6.354050e+01   2.470248e+01
  -1.035412e+01   1.903633e+01
   7.082293e+00   1.365661e+01
   1.910045e+01  -1.319668e+00
  -1.353587e+01   7.798370e+00
  -7.974734e+01   3.080731e+01
