
 $NMID
 id='ANONYMOUS ', fmtdat='(2E16.6)'
 volume=1.0
 tramp=1.0
 $END
   2.048885e+03  -1.134408e+01
   1.147557e+03   8.205207e+02
   4.113739e+02   1.490250e+03
  -9.315623e+02   1.010280e+03
  -7.438321e+02   3.462472e+02
  -1.196716e+02  -7.343339e+01
   2.494382e+02   7.412017e+01
   9.864816e+01   2.665214e+02
  -2.409832e+02   3.778941e+02
  -4.383504e+02   1.471040e+02
  -3.579704e+02  -2.283227e+02
  -2.041909e+02  -3.070852e+02
   2.204517e+02  -1.305954e+02
   2.690537e+02   1.775404e+02
  -1.655485e+00   3.935258e+02
  -2.743503e+02   1.447687e+02
  -2.790881e+02  -2.729474e+02
   1.418160e+01  -4.539832e+02
   3.091836e+02  -2.855210e+02
   3.491253e+02   8.335709e+01
   1.828005e+02   2.003228e+02
  -4.371586e+01   2.081885e+02
  -4.792754e+01   7.331281e+01
   1.259540e+02   8.601366e+01
   1.825427e+02   1.606124e+02
   4.701533e+01   2.506488e+02
  -3.354483e+02   1.581378e+02
  -3.236551e+02  -7.312440e+01
  -1.300769e+02  -1.999544e+02
   1.582436e+02  -2.790490e+01
   3.035114e+02   2.690198e+01
   1.664452e+02   2.065689e+02
  -1.853892e+02   2.663239e+02
  -2.664747e+02   9.018487e+01
  -2.198959e+02  -1.276206e+02
  -5.528184e+01  -2.042258e+02
  -3.438134e+01  -9.879586e+01
  -3.050991e+01  -2.933206e+01
  -1.169950e+02   1.275704e+02
  -3.884608e+01  -7.913986e+01
  -2.600594e+01  -2.990474e+02
   1.530461e+02  -2.806712e+02
   1.829861e+02   1.140922e+01
   1.133777e+02   1.178007e+02
  -7.494097e+01   7.541996e+01
  -1.306718e+02  -1.690426e+02
   2.508632e+01  -2.866324e+02
   2.933897e+02  -1.802503e+01
   3.925570e+02   1.474164e+02
   3.375536e+01   2.695512e+02
  -1.798095e+02   2.020755e+02
  -3.158457e+02  -5.768070e+01
  -2.290941e+02  -1.030207e+02
   3.171724e+01  -1.416949e+02
   1.936857e+02  -9.454297e+01
   1.761604e+02  -1.513568e+01
   2.302569e+01   8.435420e+00
  -5.080861e+01  -1.632296e+01
   3.971958e+01  -3.319965e+01
   1.517054e+02   8.896244e+00
   1.001276e+02   9.517936e+01
  -1.187897e+02   2.048698e+02
  -2.612313e+02   3.788572e+01
  -2.147906e+02  -8.199639e+01
   6.936520e+01  -2.367356e+02
   2.615216e+02  -3.017701e+02
   2.645403e+02  -4.203908e+01
   1.352738e+02   1.198433e+02
   5.946895e+00   2.671776e+02
   1.520484e+01   1.797927e+02
  -3.737949e+01   1.671639e+02
  -5.084097e+01   1.354053e+02
  -1.111699e+02   7.949106e+01
  -1.580141e+02   7.403766e+00
  -1.626459e+02  -1.143106e+02
  -7.854207e+01  -1.405774e+02
   4.451923e+01  -1.370097e+02
   1.200610e+02   1.515463e+01
   1.196471e+02   1.301875e+02
  -8.951115e+01   1.547679e+02
  -1.347930e+02   2.403397e+00
  -2.168124e+02  -7.740356e+01
  -9.720335e+01  -1.660003e+02
  -9.196613e+00  -1.730426e+02
   1.003945e+02  -1.331351e+02
   9.778863e+01  -1.059412e+02
   1.136435e+02  -7.044040e+01
   2.329280e+02  -3.932401e+01
   2.923017e+02   3.803803e+01
   2.201266e+02   2.500180e+02
  -3.152412e+00   3.026059e+02
  -1.763353e+02   3.005543e+02
  -3.162467e+02   1.221531e+02
  -1.896078e+02  -7.554486e+01
   1.096403e+01  -1.522103e+02
   5.739785e+01  -1.312624e+02
   2.467694e+01  -2.548704e+01
  -3.118026e+01  -3.018823e+01
  -5.640782e+01  -2.044569e+01
  -6.929630e+00  -7.939279e+01
   7.812059e+01  -7.067046e+01
   7.861667e+01   1.676972e+01
  -3.724828e+01   7.871594e+01
  -1.301607e+02   2.118705e+01
  -9.619820e+01  -1.617969e+02
   3.938034e+01  -2.077948e+02
   1.455281e+02  -1.734401e+02
   2.739929e+02   4.557457e+01
   1.355349e+02   1.223028e+02
  -1.547269e+00   1.766476e+02
  -1.256432e+02   1.143686e+02
  -1.035834e+02   1.956472e+01
  -2.597753e+01  -1.198951e+01
   1.576087e+01   5.335872e+01
  -3.366287e+01   5.884303e+01
  -3.890753e+01   7.281029e+01
  -6.148913e+01  -2.898602e+01
  -3.403677e+01  -2.549620e+01
   4.756296e+01   2.102311e+01
   9.036903e+00   9.304998e+01
  -9.926077e+01   7.641136e+01
  -2.142667e+02  -2.827220e+01
  -1.449543e+02  -1.404908e+02
   4.925245e+01  -1.756349e+02
   1.461769e+02  -1.347659e+02
   1.552296e+02  -5.234530e+01
   1.073119e+02   3.378882e+01
  -3.256010e+01   1.187548e+01
  -5.487655e+01   5.493134e+00
   3.144458e+01  -4.658702e+01
   1.161535e+02  -8.379806e-01
   1.377905e+02   4.425919e+01
   2.753817e+01   8.730515e+01
  -7.283213e+01   9.162221e+01
  -8.518437e+01  -1.728535e+01
  -3.335078e+01  -2.966842e+01
   1.947291e+01  -6.246902e+00
   3.541595e+01   1.289611e+02
  -6.710728e+01   7.713716e+01
  -1.501250e+02   3.840260e+00
  -1.372021e+02  -6.127168e+01
  -4.469180e+00  -1.260387e+02
   1.229144e+02  -7.904179e+01
   1.287555e+02  -4.844813e+01
   2.761321e+01   2.379509e+01
  -2.027902e+01   6.358678e+01
  -6.103325e+01   6.975187e+01
   6.946788e+00  -4.752931e+01
   3.047104e+01  -1.367972e+01
   1.451693e+01   5.862497e+01
  -9.037464e+01  -2.213284e+01
  -5.412552e+01  -8.198049e+01
   2.100109e+01  -1.396700e+02
   7.792172e+01  -8.990172e+01
   1.283155e+02  -2.781768e+01
   1.198617e+02   1.302248e+02
  -2.951253e+00   1.487160e+02
  -6.742873e+01   1.512264e+02
  -1.023109e+02   1.628847e+01
  -3.556247e+01  -4.694222e+01
  -3.000629e+01  -1.762782e+00
  -4.017326e+01   1.655094e+01
  -6.196031e+01  -1.218214e+00
  -4.289939e+00  -3.273232e+01
   2.530693e+01  -6.141906e+01
   1.170913e+02  -4.513601e+01
   5.436557e+01   5.310055e+01
  -3.391137e+01   8.367824e+01
  -1.327853e+02   5.838865e+01
  -1.682118e+02  -4.557911e+01
  -7.725318e+01  -1.165290e+02
   1.329577e+02  -1.666118e+02
   1.825729e+02  -3.850846e+01
   2.040049e+02   6.159848e+01
   4.061311e+01   1.048192e+02
  -1.040868e+01   7.470259e+01
  -7.836821e+01   6.684876e+01
  -3.998486e+01   2.847844e+01
  -1.611498e+01   9.095721e+01
  -4.993891e+01   7.404304e+01
  -9.435439e+01   2.138562e+01
  -1.032214e+02  -1.086676e+02
   4.329363e+01  -1.828572e+02
   5.354447e+01  -1.235125e+02
   1.159160e+02  -1.379788e+01
   9.731235e+01   9.808252e+01
   1.818799e+01   1.344860e+02
  -4.152078e+01   2.297090e+01
  -5.323378e+01  -1.355554e+01
  -1.097162e+01  -5.307354e+01
  -4.466969e-01  -4.668086e+01
   1.636060e-02   8.408560e+00
  -4.145019e+01  -2.446052e+01
  -6.536386e+00  -2.174129e+01
   5.775816e+01  -2.854092e+01
   1.332807e+02   2.345147e+00
   7.241642e+01   4.578280e+01
  -2.279423e+01   5.322416e+01
  -1.134683e+02   6.505628e+01
  -9.849364e+01   4.375252e+01
  -1.221097e+01  -2.591312e+01
   5.138382e+01  -5.458756e+01
   1.905568e+01   3.124688e+00
   4.944488e+01   4.469389e+01
  -1.476712e+01   7.710430e+01
  -1.739735e+01   7.150495e+00
  -5.147324e+01  -2.517077e+01
  -3.802155e+01  -3.770750e+01
  -3.714222e+01  -5.703281e+00
  -3.952227e+01   2.970152e+01
  -3.286842e+01  -4.817159e+01
   1.081614e+01  -1.106434e+02
   1.154684e+02  -9.166241e+01
   1.322020e+02  -8.634428e+01
   1.149800e+02   4.867054e+01
   1.337944e+01   8.413393e+01
  -6.582451e+01   4.996161e+01
  -4.226010e+01   1.698067e+01
   6.466469e+01  -2.329396e+01
   1.111452e+02   1.375578e+01
   7.669113e+01   5.626515e+01
  -6.321130e+01   8.279301e+01
  -8.600076e+01  -6.387278e-01
  -1.170913e+02  -1.174322e+01
  -2.263811e+01  -7.347979e+01
   5.088119e+01  -5.746540e+01
   3.086947e+01  -1.829996e+01
  -2.169555e+01   3.121993e+01
  -7.792560e+01  -7.710347e+00
  -7.204779e+01  -8.227987e+01
   6.532887e+01  -1.135300e+02
   1.258214e+02  -4.880894e+01
   1.009353e+02   3.562601e+01
   3.226837e+01   1.379678e+02
  -5.066099e+01   1.081801e+02
  -7.060814e+01  -6.750576e-01
  -4.676009e+01  -8.830392e+01
   3.680794e+00  -7.122886e+01
   5.660688e+01  -2.081181e+00
   2.730565e+01   2.263246e+01
   4.502447e+00  -2.027825e+01
   6.724841e+00  -2.003543e+01
   2.145526e+01   4.287812e+01
   4.357629e+01   6.935642e+01
   1.412490e+01   8.783305e+01
  -2.034232e+01   4.539986e+01
  -1.067110e+02  -2.368919e+01
  -7.908332e+01  -4.242768e+01
  -6.348284e+00  -3.681988e+01
   5.916334e+01  -1.902025e+01
   6.817865e+01  -6.937847e+00
   2.258031e+01   1.396408e+01
  -4.373058e+01   2.684326e+01
  -8.177496e+00  -3.159348e+00
  -6.881540e+00   1.248283e+01
   2.377289e+01   2.890964e+00
  -4.178722e+01  -7.433248e-01
  -7.443298e+01   3.683604e+00
  -5.195641e+01  -7.162187e+01
   4.919475e+01  -1.208351e+02
   1.234477e+02   1.270524e+00
   1.054340e+02   2.219612e+00
   1.804718e+01   9.515557e+01
  -1.812605e+01   1.453129e+02
  -5.448222e+01   4.254510e+01
  -7.636273e+01  -1.320316e+01
  -2.204267e+01  -2.275215e+01
  -1.367872e+01  -1.263521e+01
  -1.426400e+01   1.957600e+01
  -4.584633e+01  -5.677481e+01
  -1.028881e+00  -5.790237e+01
   4.124393e+01  -3.934446e+01
   5.074222e+01  -2.471570e+01
   5.524892e+01   9.226978e+01
  -9.949078e+00   8.506073e+01
  -6.702686e+01   1.386822e+01
  -6.403610e+01  -3.612351e+01
  -2.268705e+00  -6.074531e+01
   4.154453e+01  -5.683299e+01
   1.054311e+02   3.927120e+01
   2.519813e+01   3.316740e+01
  -9.592108e+00   5.154709e+01
  -2.699609e+01  -1.686963e+01
   1.411085e+01  -2.711686e+01
   4.900184e+01  -1.720521e+01
   5.961066e+00   9.897021e+00
  -2.575921e+01   5.233892e+01
  -6.604556e+01   2.781135e+01
  -7.772768e+01   1.402192e+00
   2.448593e+01  -9.295369e+01
   3.925669e+01  -5.413937e+01
   2.383508e+01  -2.550743e+01
   4.557828e+01   4.847287e+01
  -1.120671e+00   3.556616e+01
   2.486802e-01  -2.030220e+01
   3.578363e+00  -4.554551e+01
  -4.839657e+00  -4.372388e+01
   1.623540e+01  -9.243798e+00
   6.216085e+01  -2.324319e+00
  -2.538548e+00  -1.504292e+00
  -2.877902e+00   1.354895e+01
  -3.451798e+00   9.713265e-02
  -1.087292e+01   3.283031e+01
  -8.628014e+00   2.561599e+01
  -3.628074e+01   5.876977e+01
  -2.802891e+01  -4.295492e+01
  -2.548449e+01  -4.594348e+01
   4.092153e+01  -5.548317e+01
   6.392645e+01   4.198800e+01
   4.092973e+01   3.022527e+01
  -3.279286e+01   8.614201e+00
  -4.853340e+01  -1.228679e+01
  -8.635393e+01  -3.273960e+01
   3.340852e+01  -3.558680e+01
   5.127010e+01   7.901569e+00
   8.195180e+00  -2.944991e+01
  -1.810757e+01   2.004599e+01
  -7.598719e+00  -2.015202e+01
   1.553137e+01  -1.925655e+01
   5.134550e+01  -2.006215e+01
