
 $NMID
 id='ANONYMOUS ', fmtdat='(2E16.6)'
 volume=1.0
 tramp=1.0
 $END
  -2.131102e+03  -4.290483e+01
  -9.019117e+02  -8.537881e+02
  -9.060203e+01  -1.186233e+03
   8.407785e+02  -9.481885e+02
   6.258451e+02  -3.806804e+02
   2.504134e+02   1.177013e+02
  -8.354943e+01   2.371551e+01
  -2.771411e+01  -1.450554e+02
   1.730360e+02  -2.492358e+02
   3.094083e+02  -9.386985e+01
   2.330396e+02   2.210372e+02
   4.333905e+01   4.542212e+02
  -2.018891e+02   1.086873e+02
  -2.351810e+02  -2.457856e+02
   1.477839e+01  -2.980315e+02
   2.247103e+02  -6.623041e+01
   1.944653e+02   2.667889e+02
  -1.355325e+02   3.203963e+02
  -2.940312e+02   1.771011e+02
  -2.618468e+02  -8.338664e+01
  -1.201883e+02  -2.406486e+02
   9.519496e+01  -2.228360e+02
   2.829492e+01  -6.777779e+01
  -1.269587e+02  -3.549355e+01
  -1.462454e+02  -2.025761e+02
   2.165059e+01  -2.304617e+02
   3.275283e+02  -1.136642e+02
   2.774321e+02   1.615133e+02
   4.296634e+01   2.041860e+02
  -2.139977e+02   7.215457e+01
  -2.513039e+02   2.024497e+01
  -1.005485e+02  -1.707977e+02
   1.710729e+02  -2.454886e+02
   2.863116e+02  -1.068612e+02
   1.832353e+02   5.073719e+01
   7.122983e+01   1.545114e+02
   1.846018e+01   8.469428e+01
   5.626843e+01  -3.723664e+01
   1.811041e+02  -9.946548e+01
   8.353405e+01   8.427574e+01
  -5.670593e+01   2.934639e+02
  -2.034887e+02   2.596412e+02
  -1.730964e+02  -3.119840e+01
  -8.715429e+01  -1.828900e+02
   6.295682e+01  -2.633831e+01
   4.825711e+01   1.405108e+02
  -6.067586e+01   2.317673e+02
  -2.754006e+02  -2.986553e+01
  -3.246788e+02  -1.241124e+02
  -3.642930e+01  -2.026489e+02
   2.155593e+02  -1.640779e+02
   2.878062e+02   9.337464e+01
   2.289719e+02   1.213742e+02
  -2.094028e+00   1.421274e+02
  -1.444451e+02   9.828617e+01
  -1.402394e+02   9.166806e+00
  -7.309530e+00   3.728984e+01
   2.352388e+01   1.317605e+01
  -6.663754e+01   5.534965e+01
  -1.318549e+02   2.338152e+01
  -5.481784e+01  -1.041711e+02
   6.446410e+01  -1.265661e+02
   2.210440e+02  -5.177095e+01
   1.283205e+02   5.357078e+01
  -2.681495e+01   2.117382e+02
  -1.694463e+02   2.291543e+02
  -2.376050e+02   9.450658e+01
  -8.415412e+01  -9.024156e+01
  -2.875263e+01  -1.459930e+02
   4.100319e+01  -1.499755e+02
  -2.309582e+00  -1.481192e+02
   2.559032e+01  -1.006326e+02
   1.122963e+02  -5.182465e+01
   1.708900e+02  -2.042295e+01
   1.237060e+02   9.350412e+01
   5.342093e+01   1.238948e+02
  -3.474808e+01   6.123678e+01
  -9.987031e+01   2.979241e+00
  -8.320737e+01  -1.049128e+02
   3.644495e+01  -9.685836e+01
   1.642369e+02   9.852764e-01
   2.161594e+02   1.050831e+02
   9.894101e+01   1.587155e+02
  -1.304224e+01   1.126002e+02
  -8.607860e+01   9.043048e+01
  -8.779792e+01   9.239531e+01
  -6.547587e+01   7.768444e+01
  -1.873765e+02   4.687701e+01
  -2.920547e+02  -4.788333e+01
  -1.614058e+02  -2.243522e+02
   7.242874e+00  -2.949313e+02
   1.959049e+02  -2.890909e+02
   3.081866e+02  -7.304644e+01
   1.488295e+02   4.727067e+01
  -1.980322e+01   1.304169e+02
  -2.984278e+01   9.817499e+01
  -1.136840e+01   1.899386e+01
   4.124445e+01   2.674994e+00
   4.803361e+01   3.129095e+01
  -4.671380e+00   9.504672e+01
  -1.999479e+01   5.455149e+01
  -1.677684e+01  -1.627150e-01
   3.641312e+01  -8.716877e+01
   1.069022e+02  -6.207857e+00
   8.370362e+01   1.424239e+02
  -5.089329e-01   2.028962e+02
  -1.466294e+02   1.625922e+02
  -2.239036e+02  -4.727611e+01
  -1.836903e+02  -1.824110e+02
   4.409775e+01  -1.775804e+02
   8.121746e+01  -4.622295e+01
   6.252617e+01   1.830045e+01
   1.932618e+01  -4.591859e+00
  -6.917406e+01  -5.019080e+01
  -2.281088e+01  -5.700101e+01
   6.646076e+01  -5.399181e+01
   5.663219e+01   3.593258e+01
  -5.449999e-01   9.841830e+00
  -7.866625e+01  -4.182794e+01
  -5.736252e+01  -7.650976e+01
   7.342832e+01  -3.610533e+01
   1.668563e+02   4.227430e+01
   1.148460e+02   1.177625e+02
  -1.366747e+01   1.583854e+02
  -9.603298e+01   1.400396e+02
  -1.425026e+02   1.981342e+01
  -8.797179e+01   1.042410e+00
   4.574073e+00  -1.700731e+01
   2.166573e+01   9.681338e+00
  -5.834044e+01   5.613476e+01
  -1.172218e+02  -6.343440e+00
  -1.270091e+02  -3.512662e+01
  -3.518801e+01  -7.102084e+01
   4.361518e+01  -7.425454e+01
   6.349740e+01  -3.836086e+01
  -1.593064e+01   4.172070e+01
  -3.420703e+01  -1.072104e+01
  -1.144040e+01  -7.931926e+01
   7.976374e+01  -7.686543e+01
   1.519776e+02  -1.144638e+01
   1.575256e+02   8.696860e+01
  -2.199412e+01   1.246420e+02
  -9.941958e+01   9.614519e+01
  -1.060538e+02  -5.268570e+00
  -4.080791e+01  -2.978260e+01
   2.999612e+01  -6.876478e+01
   4.939536e+01  -2.361067e+01
  -4.866964e+00   1.540674e+01
  -4.016946e+01   5.634790e+00
  -4.429329e+00  -1.192219e+01
   5.822735e+01  -3.569305e+00
   6.678827e+01   4.798284e+01
  -3.665764e+01   1.046015e+02
  -9.264310e+01   7.581208e+01
  -1.682933e+02   1.494482e+01
  -1.036226e+02  -1.249788e+02
   5.626039e+01  -1.250801e+02
   3.744770e+01  -1.020995e+02
   7.892328e+01  -2.524929e+01
   3.926105e+01  -5.845419e+00
   1.815841e+01   3.305218e+01
   2.138204e+01  -3.063590e+00
   4.828897e+01   8.093648e+00
   2.872777e+01   2.428179e+01
  -5.094296e+01   8.490173e+01
  -7.335805e+01   5.935004e+01
  -7.110831e+01  -4.227932e+01
   1.231171e+01  -9.090504e+01
   1.091927e+02  -4.447516e+01
   1.277987e+02   2.048415e+01
   2.156454e+01   1.191717e+02
  -1.054702e+02   1.264454e+02
  -1.970383e+02   2.284913e+01
  -1.579251e+02  -3.583792e+01
  -4.162198e+01  -6.238894e+01
   1.485777e+01  -6.712421e+01
   4.474850e+01  -7.856485e+01
   6.125596e+01  -6.163891e+01
   2.239182e+01  -5.898836e+01
   4.317196e+01  -5.412332e+01
   9.959335e+01   3.029559e+00
   5.766914e+01   6.794828e+01
   1.973704e+01   1.255999e+02
  -3.414659e+01   1.074641e+02
  -1.085418e+02   8.573649e+00
  -2.310140e+01  -7.933772e+01
  -9.762820e+00  -1.021475e+02
   2.967824e+01  -2.793120e+01
   2.466043e+01   9.102430e+00
  -8.518886e+00   3.658449e+01
   3.535042e+00   1.892317e+01
   1.332319e+01  -3.252407e+00
   5.341278e+01   3.717115e+00
   3.366916e+01   1.634467e+01
  -5.889228e+01   1.944315e+01
  -1.054295e+02  -1.479338e+01
  -5.487318e+01  -4.040060e+00
   7.855830e+00  -9.106464e+01
   1.030263e+02  -2.526270e+01
   8.853817e+01  -2.531181e+01
   1.484411e+01   3.007089e+01
  -2.774601e+01   5.087791e+01
  -2.737555e+01  -3.115078e+01
  -2.037861e+01  -4.483361e+01
   4.536931e+01  -6.033081e+01
   3.734398e+01  -5.912656e+00
   2.601819e+01   1.440956e+01
   4.694882e+01   4.732727e+01
   3.377507e+01  -1.702538e+01
   7.322356e+01   4.787881e+00
   5.627120e+01   5.748364e+01
   1.100865e+00   1.055270e+02
  -6.785613e+01   7.073551e+01
  -1.222989e+02   6.084799e+01
  -1.115123e+02  -3.922956e+01
  -1.004690e+01  -7.234926e+01
   6.656434e+01  -7.098599e+01
   4.911266e+01  -9.536404e+00
  -6.288922e+00   2.792821e+01
  -8.205301e+01  -4.899986e+00
  -8.136352e+01  -8.673647e+01
   8.291746e+01  -4.000768e+01
   7.844395e+01  -3.538382e+01
   1.059272e+02   9.462251e-01
   9.217274e+00   4.886613e+01
  -5.387879e+01   4.350398e+01
  -3.163268e+01  -1.300060e+01
   2.840826e+00  -4.198785e+00
   8.117723e+01   2.461229e+01
   4.987948e+01   8.207158e+01
  -5.335236e+01   5.990141e+01
  -1.015589e+02   1.428232e+01
  -4.635795e+01  -2.593287e+01
  -1.571754e+01  -1.366658e+02
   5.817469e+01  -8.577258e+01
   5.787823e+01   8.150376e-02
   4.439742e+01   1.045926e+02
   2.012473e+01   6.381846e+01
  -1.969460e+01   1.617553e+01
  -2.832408e+01  -1.728800e+01
  -5.222600e+00  -2.369336e+01
  -2.292132e+01  -3.394307e+00
  -1.567494e+01   1.220198e+01
  -1.468269e+00  -7.727835e+01
  -5.766199e+00  -8.730728e+01
   2.246753e+01  -3.401477e+01
   3.856839e+01   2.932526e+01
   6.287352e+01   3.217989e+01
   4.813354e+01   2.267693e+01
  -3.614037e+01   3.994022e+01
  -5.070053e+01   8.353265e+00
  -1.772338e+00   1.449214e+01
   6.766135e+00  -3.091898e+01
  -9.575999e+00  -1.760660e+01
  -4.456274e+00  -1.144311e+01
  -1.332171e+01  -5.338657e+00
   3.895908e+01   9.948152e+00
   4.565658e+01  -2.129158e+01
   3.458887e+01   6.075795e+01
  -6.829130e+01   7.592273e+01
  -1.485959e+02   1.642953e+00
  -1.094473e+02  -2.934347e+01
  -1.760219e+01  -9.742582e+01
   4.073378e+01  -1.245146e+02
   6.914386e+01  -2.955896e+01
   3.109760e+01   1.738412e+01
   1.668830e+01  -1.135358e+00
   3.210717e+01  -5.776404e+00
   2.097722e+01  -7.108886e-02
  -2.002300e+01   1.999397e+01
   2.343400e+01   4.578282e+01
  -2.948296e+01   4.526814e+01
  -3.200919e+01   1.495048e+01
  -4.140487e+01  -8.930798e+01
   5.307300e+00  -9.619415e+01
   5.002560e+01  -2.749073e+01
   6.720665e+01   3.389396e+01
   1.537433e+01   8.776445e+01
  -4.405589e+01   3.854942e+01
  -7.846986e+01  -2.804152e+01
  -5.537838e+01  -6.169413e+01
   2.762178e+01  -5.806495e+01
   4.808119e+01  -1.164217e+01
  -2.327186e+01   3.023347e+01
  -5.198948e+01   2.585412e+01
  -1.470842e+01   8.508710e+00
   3.077146e+01  -5.093518e+01
   4.462808e+01  -2.191029e+01
   3.499360e+01  -2.779592e+01
  -4.194534e+00   4.750108e+01
  -3.269270e+01   4.038769e+01
  -4.487258e+01   1.040011e+00
   8.207685e+00  -4.952772e+00
   2.340570e+01  -4.665096e+01
   2.785227e+01  -2.505820e+01
   3.722809e+00   3.698452e+01
  -1.482356e+01   1.116405e+01
  -3.156358e+01   2.171664e+01
  -1.612977e+01  -2.368522e+01
   6.378959e+00  -3.850086e-01
  -1.301471e+01  -1.765489e+01
  -2.069452e+01   1.701880e+01
  -9.939234e+00  -4.039455e+01
  -1.022987e+01  -5.155875e+00
   1.100460e+01  -8.498026e+00
   3.395805e+01   4.010917e+01
   1.253804e+01   1.257119e+01
  -9.012598e+00   3.898188e+01
  -6.018699e+01  -2.677476e+00
  -1.891963e+01  -3.360464e+01
   1.315308e+01  -2.988049e+01
   8.140200e+01  -1.033946e+01
   4.960473e+01   4.512576e+01
  -7.484742e+00   6.432656e+00
  -5.098733e+01   1.362868e+01
   4.728627e+00  -4.217267e+00
   2.169249e+01   1.739231e+01
   4.560810e+00  -1.012776e+00
  -1.678329e+01   3.847193e+01
  -8.365718e+01   1.617984e+01
