
 $NMID
 id='ANONYMOUS ', fmtdat='(2E16.6)'
 volume=1.0
 tramp=1.0
 $END
  -1.780501e+03  -4.722243e+02
  -9.579126e+02  -1.088499e+03
   2.999815e+02  -1.258928e+03
   7.992395e+02  -2.546529e+02
   5.812322e+02   2.618579e+02
  -1.570948e+02   1.925097e+02
  -3.075283e+02  -2.053020e+02
   5.854217e+01  -4.172991e+02
   3.222435e+02  -2.550692e+02
   5.047366e+02   1.146553e+02
   2.561438e+02   3.001996e+02
  -5.244691e+01   3.005926e+02
  -2.292058e+02  -6.690473e+01
  -7.014512e+01  -2.499791e+02
   1.914650e+02  -2.757808e+02
   2.233805e+02   4.199640e+01
   5.608612e+01   3.112257e+02
  -1.327106e+02   2.136282e+02
  -2.791413e+02   4.450963e+01
  -1.477905e+02  -1.537643e+02
  -2.221208e+01  -2.176861e+02
   8.202809e+01  -1.042009e+02
   7.920561e+01  -4.174495e+01
  -8.403096e+01  -2.457018e+01
  -1.276429e+02  -1.298849e+02
   1.119286e+01  -1.983493e+02
   2.911016e+02  -7.069591e+01
   2.594650e+02   3.407178e+01
   1.336223e+02   2.138678e+02
  -2.084806e+02   1.353168e+02
  -2.490168e+02  -7.256933e+01
  -7.514491e+01  -2.000791e+02
   1.215563e+02  -1.970711e+02
   2.691708e+02  -3.636470e+01
   1.738893e+02   9.697460e+01
   4.494707e+00   1.791628e+02
  -9.575521e+01   1.301003e+02
  -4.371678e+01  -5.709214e+01
   1.420723e+02  -1.307347e+02
   1.609918e+02   6.522302e+01
   4.992314e+01   2.692877e+02
  -1.642655e+02   1.897636e+02
  -1.780975e+02   8.158766e+00
   5.472406e+00  -2.006609e+02
   7.589325e+01  -9.223387e+01
   6.928054e+01   1.363555e+02
  -7.551781e+01   1.908382e+02
  -1.735718e+02   2.986383e+01
  -1.783793e+02  -2.003566e+02
  -5.363655e+01  -1.910976e+02
   2.366403e+02  -8.653815e+01
   2.864639e+02   6.098703e+01
   1.991861e+02   1.708828e+02
  -1.607325e+01   9.821510e+01
  -1.867880e+02  -1.077271e+01
  -1.202427e+02  -5.779306e+01
   2.888887e+01   1.348732e+01
   3.931733e+01   5.441807e+01
  -6.583775e+01   5.924765e+01
  -1.496897e+02  -4.751165e+01
  -7.959242e+01  -1.100205e+02
   7.392714e+01  -1.084963e+02
   1.059950e+02  -6.922953e+01
   8.491355e+01   5.594820e+01
  -1.831073e+01   1.304935e+02
  -1.389091e+02   1.196017e+02
  -1.287935e+02   5.444220e+01
  -1.346413e+02  -3.575769e+01
  -3.725063e+01  -1.900434e+02
   5.686428e+01  -1.795821e+02
   5.112078e+01  -7.843529e+01
   1.989113e+01  -6.422723e+00
   7.671848e+01  -6.194637e+01
   1.241368e+02  -9.022684e+00
   1.171609e+02   3.499742e+01
   6.271621e+00   1.181002e+02
  -8.010687e+01   8.519834e+01
  -7.861045e+01  -7.790158e+00
  -6.887127e+01  -1.538584e+02
   9.981670e+00  -8.700139e+01
   8.872797e+01  -4.969516e+01
   1.241794e+02   1.068522e+02
   8.298787e+01   1.240325e+02
  -2.158194e+01   9.193496e+01
  -9.296169e+01   3.560076e+01
  -1.141678e+02   3.986207e+01
  -5.231098e+01   9.909722e+00
  -1.171326e+02  -9.278703e+00
  -2.323133e+02  -3.977464e+01
  -9.369408e+01  -9.249507e+01
   6.496401e+01  -2.221066e+02
   2.918593e+02  -1.475693e+02
   1.909890e+02  -6.213741e+01
   1.466001e+02   6.795747e+01
   1.721833e+01   9.341667e+01
  -7.234037e+01   8.140822e+01
  -7.091068e+00   8.172214e+00
   4.396514e+01  -1.202686e+01
   6.020558e+01   4.589899e+00
  -4.739685e+00   1.028930e+02
  -6.152800e+01   7.532517e+01
  -6.855548e+01  -1.668730e+01
  -2.047408e+01  -7.687179e+01
   6.306513e+01  -1.129282e+01
   4.843616e+01   1.299438e+02
  -2.212272e+00   1.659262e+02
  -1.357426e+02   1.071233e+02
  -1.730474e+02  -9.326906e+01
  -8.661723e+01  -1.325118e+02
  -5.438064e+01  -1.233807e+02
   4.294957e+01  -5.472498e+01
   5.537440e+01  -2.104927e+01
   2.604493e+01  -4.536814e+00
  -4.064235e+01  -2.845525e+01
   1.853870e+01  -1.895385e+01
   6.799408e+01  -2.226549e+01
   5.742473e+01   1.026428e+01
   4.798841e+00   4.476944e+01
  -3.777983e+01  -2.786184e+00
  -1.272319e+01  -6.319979e+01
   1.113025e+02  -1.147597e+01
   1.341936e+02  -1.095899e+01
   1.866469e+02   5.676265e+01
   2.806802e+01   1.310597e+02
  -1.039394e+02   7.889860e+01
  -1.534397e+02   2.849740e+01
  -4.333830e+01  -4.728466e+01
  -7.660913e+00  -4.885061e+01
   4.323301e+01   1.216700e+01
  -1.196182e+01   4.816022e+01
  -9.765915e+01   6.918989e+01
  -7.076073e+01  -2.504088e+01
  -1.744646e+01  -8.078796e+01
   1.904652e+01  -6.539667e+01
   6.013181e+01  -4.680119e+01
   3.576252e+01   1.005981e+01
  -1.472452e+01  -2.548690e+01
  -2.559815e+01  -4.788999e+01
   3.898621e+01  -6.256458e+01
   9.392638e+01   3.973888e-01
   6.921860e+01   8.194240e+01
   1.056023e+01   6.164161e+01
  -7.054400e+01   7.045309e+01
  -6.132323e+01  -4.747732e+01
  -1.850185e+01  -3.918983e+01
   4.805969e+01  -2.719201e+01
   3.631215e+01   1.605452e+00
  -5.949581e+00  -1.110372e+01
  -8.291387e+00  -8.115300e+00
  -1.880445e+01   2.444463e+01
  -1.210682e+01  -6.364692e+00
   2.345806e+01   3.803496e+01
  -2.512120e+00   5.685793e+01
  -7.022014e+01   2.557168e+01
  -1.016222e+02  -8.073705e+00
  -8.264789e+01  -5.462046e+01
  -2.496591e+00  -9.576851e+01
   7.250473e+01  -6.412763e+01
   8.158120e+01   1.443279e+01
   3.676647e+01   2.857617e+01
   7.411943e+00   2.312732e+01
   2.005614e+01  -3.086008e+01
   4.122342e+01   2.959956e+00
   2.287845e+01   4.648884e+01
  -6.270424e+01   5.941935e+01
  -7.315255e+01  -1.632850e+01
  -5.296561e+01  -2.724867e+01
   1.198156e+01  -7.114809e+01
   3.627088e+01   4.590069e-01
   8.771034e+01   5.433438e+01
   3.989643e+01   7.902090e+01
  -3.945019e+01   8.666584e+01
  -1.241074e+02   1.219002e+01
  -1.028062e+02  -6.721268e+01
  -5.446590e+01  -7.851472e+01
   2.959737e+01  -5.279749e+01
   2.828314e+01  -2.844994e+01
   4.001212e+01  -9.233095e+00
   1.270663e+01  -3.759880e+01
   7.306615e+01  -4.324892e+01
   6.306714e+01   8.267809e+00
   4.293885e+01   7.315268e+01
  -4.376685e+01   1.086227e+02
  -8.289285e+01   7.069193e+01
  -8.736497e+01  -3.406848e+01
  -1.118489e+01  -6.595010e+01
   2.267805e+01  -6.349526e+01
   2.579614e+01  -3.845712e+01
   3.490252e+01   5.002993e+01
  -5.121962e+00   3.087329e+01
  -2.052085e+01   1.226882e+00
   1.567897e+01  -5.078192e+00
  -5.713415e+00   5.155320e+00
  -5.686479e-01   2.011583e+01
  -2.391761e+01   8.864344e-01
  -1.122489e+02  -6.338264e+00
  -3.791949e+01  -1.690113e+01
  -1.327478e+00  -4.103675e+01
   4.453322e+01  -2.945310e+01
   5.690886e+01   4.187047e+01
   3.868641e+01   4.278164e+00
  -1.391937e+01  -3.805881e+00
  -4.920220e+01  -2.477029e+00
  -2.040861e+01   1.113784e+00
   5.192856e+01  -4.102592e+01
   9.695901e+00   3.336228e+01
   1.438981e+01   2.015887e+01
   8.250280e+00   1.620724e+01
   1.361952e+01  -1.451320e+01
   5.615748e+01  -1.600569e+01
   2.464482e+01   3.098439e+01
  -3.659112e+01   4.896340e+01
  -6.116735e+01   5.242592e+01
  -1.314843e+02  -8.087440e+00
  -1.943344e+01  -6.003822e+01
  -4.049080e-01  -6.902988e+01
   3.760938e+01  -4.596257e+01
   3.829235e+00  -2.485416e+01
  -5.198572e-01   3.171432e+01
  -5.687939e+01  -3.811667e+01
  -7.978383e+00  -7.147031e+01
   4.851994e+01  -7.252729e+01
   6.255278e+01  -5.543463e+01
   7.240948e+01   2.970154e+01
  -4.837372e+00   2.025749e+01
  -1.929327e+01   4.519368e+01
  -1.393917e+01  -2.452173e+01
   6.827299e+00  -1.378126e+00
   4.606766e+01  -2.462539e+00
   1.826189e+01   6.425310e+01
  -7.312277e+00   3.385765e+01
  -1.024663e+02   5.481143e+01
  -6.320683e+01  -3.653663e+01
  -2.146011e+01  -7.320227e+01
   7.396518e+01  -5.623281e+01
   3.703741e+01   2.499090e+00
   1.989790e+01   6.804641e+01
  -4.884927e+00   5.269293e+01
  -2.695387e+01  -1.749116e+01
  -2.909600e+00  -1.248574e+01
  -1.348797e+01  -3.594372e+01
  -2.676850e+01   2.335228e+01
  -6.166471e+00  -1.896365e+01
  -5.388974e+00  -5.349340e+01
  -1.575217e+01  -5.057371e+01
   3.538802e+01  -1.722408e+01
   7.736682e+01   3.122813e+01
   3.428458e+01   2.849289e+01
   9.112407e+00   5.656621e+00
  -5.448755e+00   9.035993e+00
  -4.605472e+01   8.509396e+00
   1.926232e+01   8.293043e+00
   7.089221e+00   1.744229e+01
  -5.608928e+00  -1.854107e+01
  -2.480699e+01   6.502468e+00
  -1.758055e+01  -7.254705e+00
   3.289561e+01  -1.122099e+00
   3.421181e+01   4.615364e+00
  -5.916687e+00   3.289958e+01
  -6.093327e+01   6.624280e+01
  -6.571331e+01  -8.126254e+00
  -3.874164e+01  -5.040220e+01
   7.133326e+00  -4.915775e+01
   2.682660e+01  -6.198888e+01
   7.525113e+01  -2.093904e+01
   2.970696e+01   3.744152e+00
  -1.013501e+01   1.570547e+01
   2.090430e+01  -2.450579e+01
   3.028566e+00  -2.860182e+00
   1.536257e+01   3.615367e+01
   6.097545e+00   3.057820e+01
  -1.215973e+01   4.663277e+01
   1.021288e+01   1.415626e+01
  -3.096416e+01  -3.905064e+01
  -3.085657e+00  -8.272209e+01
   3.676485e+01  -3.132536e+01
   2.986431e+01   2.977142e+01
  -3.261650e+00   3.131688e+01
  -5.108803e+01   1.845544e+00
  -5.223232e+01  -1.991836e+01
  -3.534797e+00  -3.357043e+01
   1.916533e+01  -2.381874e+00
   7.227649e+00  -3.812755e+01
  -1.682983e+01   2.049709e-01
  -2.044249e+01   1.182177e+01
  -1.064020e+01  -1.313047e+01
   4.819642e+01  -3.812164e+01
   6.478905e+01  -1.660327e+01
   1.789898e+01   3.692241e+00
   1.611149e+01   4.420837e+01
  -1.540828e+01   3.808121e+01
  -1.279951e+01  -3.416357e+00
  -5.114272e+01   9.433764e+00
   9.262650e-01  -1.552950e+01
   4.549625e+00  -3.951966e+00
   2.861616e+01   5.742316e+00
   3.255799e+00   1.026058e+00
  -1.676092e+01   4.584937e+01
  -1.461407e+01  -4.486695e+00
  -1.611761e+01  -1.969573e+00
  -1.922716e+01   2.759799e+01
   3.715000e+00   3.875545e+01
   1.018302e+01   5.987653e+00
   2.337748e+01   4.858492e+00
   1.351158e+00  -1.302245e+01
   2.455235e+01   3.409838e+01
   2.616696e+01   3.949842e+01
  -4.221548e+01   8.264007e+00
  -6.335040e+01   1.317049e+01
   1.058465e+01  -2.277313e+00
   5.222761e+01  -3.241710e+00
   3.682269e+01  -5.493268e+00
   3.632793e+01   2.711967e+01
   1.559261e+01  -1.245950e+01
   2.513595e+01   5.709664e+01
  -2.798984e+01  -1.469053e+01
   1.600578e+01   2.435324e+01
   1.614836e+00  -1.621659e+01
  -2.744987e+01   3.295965e+00
  -3.268241e+01   2.141471e+01
