
 $NMID
 id='ANONYMOUS ', fmtdat='(2E16.6)'
 volume=1.0
 tramp=1.0
 $END
   3.248730e+03  -2.493536e+01
   2.055386e+03   1.592200e+03
  -8.354505e+01   2.001902e+03
  -1.121557e+03   1.304753e+03
  -8.471761e+02  -9.230569e+00
   6.286968e+01  -3.444669e+02
   4.345405e+02  -1.017779e+01
   1.625522e+02   5.986351e+02
  -5.499344e+02   6.085711e+02
  -6.271743e+02   1.241549e+02
  -3.116455e+02  -6.405784e+02
  -4.939753e+01  -6.138658e+02
   2.939156e+02  -2.994118e+02
   3.075793e+02   4.217838e+02
  -8.616101e+01   5.363204e+02
  -3.658683e+02   1.643292e+02
  -3.627662e+02  -4.175193e+02
   2.069662e+02  -6.115814e+02
   3.175612e+02  -2.176227e+02
   4.273446e+02   2.498188e+02
   9.592619e+01   3.005630e+02
  -1.559879e+02   2.325946e+02
  -9.118654e+01   4.653808e+01
   9.293028e+01   4.457593e+01
   2.946232e+02   1.351177e+02
   5.257131e+01   2.688912e+02
  -3.905298e+02   2.145854e+02
  -5.996845e+02  -7.153537e+01
  -2.823519e+02  -2.310791e+02
   2.797450e+02  -2.838751e+02
   4.971014e+02   3.202337e+01
   2.419472e+02   3.299132e+02
  -1.360631e+02   2.786509e+02
  -4.158061e+02   2.053188e+02
  -3.278406e+02  -1.291337e+02
  -8.698178e+01  -3.069336e+02
   4.866533e+01  -2.407764e+02
   2.747225e+01   1.173671e+02
  -7.051177e+01   2.290974e+02
  -2.704761e+02  -2.702299e+01
  -1.312908e+02  -4.076516e+02
   2.373894e+02  -4.460069e+02
   3.967725e+02  -1.599700e+01
   2.061060e+02   3.080706e+02
  -1.533837e+02   1.580981e+02
  -2.285822e+02  -2.403019e+02
   7.343271e+01  -3.947568e+02
   3.656842e+02  -1.275917e+02
   3.808285e+02   3.668238e+02
   1.714993e+02   4.723293e+02
  -2.440893e+02   3.265835e+02
  -5.068176e+02  -4.549465e+01
  -3.347219e+02  -2.828220e+02
   1.638539e+01  -2.488520e+02
   2.893756e+02  -1.346553e+02
   2.246775e+02   5.190651e+01
  -3.904070e-01   5.100728e+01
  -7.576498e+01  -5.040352e+01
   7.577904e+01  -7.556059e+01
   2.559815e+02   2.688986e+01
   1.677807e+02   1.814400e+02
  -1.595253e+02   1.914619e+02
  -3.406758e+02   5.994484e+01
  -2.102137e+02  -9.558108e+01
   3.402514e+01  -2.384520e+02
   2.128499e+02  -3.266742e+02
   3.101239e+02  -1.806046e+02
   1.945953e+02   1.490673e+02
   6.252051e+01   3.341524e+02
  -2.990822e+01   2.975687e+02
  -4.829752e+01   1.361225e+02
  -3.090418e+01   6.797022e+01
  -8.601301e+01   9.850853e+01
  -2.008581e+02   2.097037e+01
  -2.059599e+02  -1.072989e+02
  -1.080955e+02  -2.072680e+02
   8.220121e+01  -1.892016e+02
   1.899018e+02  -2.837085e+01
   1.356041e+02   1.720163e+02
  -1.658085e+01   2.359307e+02
  -2.079914e+02   2.667854e+01
  -2.726243e+02  -7.244740e+01
  -1.565618e+02  -2.537983e+02
   2.354703e+01  -2.742532e+02
   1.595554e+02  -1.202967e+02
   1.538944e+02  -6.863332e+01
   1.345431e+02  -4.350954e+01
   2.246395e+02   2.193441e+01
   3.750042e+02   4.801243e+01
   2.100011e+02   2.922303e+02
   4.648314e+01   3.399344e+02
  -2.927261e+02   3.332505e+02
  -3.619571e+02   1.878904e+02
  -2.422999e+02  -1.034230e+02
  -3.248457e+01  -2.541206e+02
   7.538813e+01  -1.751995e+02
   2.868231e+01  -2.883635e+01
  -5.415382e+01   5.470297e+01
  -1.427331e+02  -5.225821e+01
  -4.347838e+01  -1.382299e+02
   1.132669e+02  -9.863411e+01
   1.249602e+02   6.095334e+01
   3.588823e+00   1.311593e+02
  -1.090571e+02   2.210997e+01
  -1.716429e+02  -2.135571e+02
  -6.218096e+00  -3.014695e+02
   2.153769e+02  -1.326635e+02
   2.793419e+02   7.418321e+01
   2.329856e+02   2.171712e+02
   7.078292e+01   2.362527e+02
  -1.266348e+02   9.716350e+01
  -1.632108e+02   1.968032e+01
  -1.804331e+01  -2.122487e+01
   1.806264e+01   3.762080e+01
   1.444830e+01   1.085070e+02
  -8.384883e+01   5.881629e+01
  -1.456303e+02  -3.161934e+01
  -5.676059e+01  -3.063233e+01
   7.515119e+01  -6.180810e+00
   1.657910e+00   4.086386e+01
  -1.214271e+02   6.324185e+01
  -2.560012e+02  -1.299695e+01
  -1.847773e+02  -1.386502e+02
  -7.721317e+00  -2.173809e+02
   2.245654e+02  -1.891457e+02
   1.914948e+02  -9.468942e+01
   1.190528e+02   4.177787e+01
  -5.279649e+01   5.003054e+01
  -4.872302e+01   9.925866e+00
   4.263366e+01  -3.888384e+01
   1.240597e+02  -4.520073e+01
   1.616767e+02   3.980508e+01
   3.902317e+01   1.655619e+02
  -8.515151e+01   1.244910e+02
  -7.413239e+01   1.285405e+01
  -8.075245e+01  -1.568778e+01
   4.625689e+01   1.203049e+01
   3.698239e+01   8.012032e+01
  -1.185016e+02   1.115470e+02
  -1.489400e+02  -1.610097e+01
  -1.691914e+02  -8.638980e+01
  -1.541137e+00  -1.710109e+02
   1.413726e+02  -1.741379e+02
   1.553262e+02  -3.132445e+01
   4.967527e+01   8.664133e+01
  -6.354299e+01   7.209472e+01
  -1.122592e+02   2.322868e+01
   1.769468e+00  -1.883677e+01
   1.383870e+01  -3.042328e+01
  -1.262209e+01  -6.106270e+00
  -8.886755e+01  -2.459526e+01
  -8.894048e+01  -8.481945e+01
  -3.775698e+00  -1.492159e+02
   1.016952e+02  -1.324930e+02
   2.189023e+02  -3.779932e+01
   1.641221e+02   1.345989e+02
   4.984361e+01   2.229566e+02
  -1.177786e+02   1.621010e+02
  -1.146641e+02   2.590797e+01
  -6.978323e+01  -1.403025e+01
  -4.749330e+01  -1.774798e+01
  -6.738454e+01  -3.982568e+00
  -9.432273e+01   1.105250e+01
  -4.022080e+01  -3.448052e+01
   7.681296e+01  -7.224262e+01
   8.727225e+01  -5.714776e+01
   6.202734e+01   3.916177e+01
  -3.303163e+01   1.022537e+02
  -1.251401e+02   4.915371e+01
  -1.738361e+02  -3.181243e+01
  -7.084676e+01  -1.685621e+02
   1.260119e+02  -1.680602e+02
   2.553409e+02  -8.995411e+01
   1.730336e+02   6.256866e+01
   8.009433e+01   1.383641e+02
  -1.794449e+01   1.004597e+02
  -7.992997e+01   7.188022e+01
  -8.014843e+01   4.187092e+01
  -4.648035e+01   8.012019e+01
  -7.406574e+01   8.087048e+01
  -1.199076e+02  -2.203363e+01
  -9.619353e+01  -1.378621e+02
  -6.557039e+01  -1.975022e+02
   8.923184e+01  -1.039790e+02
   1.175373e+02  -6.166820e+01
   1.323198e+02   9.477237e+01
  -6.451679e-01   1.276385e+02
  -6.238700e+01   8.333660e+01
  -3.708570e+01   5.014742e+00
  -1.644077e+01  -6.304827e+01
   1.118679e+01  -3.264590e+01
  -3.428273e+01  -3.240713e+00
  -7.458098e+01  -8.362135e+00
  -7.788742e+01  -3.553771e+01
   3.129998e+01  -1.432460e+01
   1.415489e+02   6.856183e+00
   1.091163e+02   6.029066e+01
   1.415963e+01   5.342736e+01
  -1.152898e+02   4.250285e+01
  -1.450249e+02   2.732484e+01
  -6.350328e+01  -1.897380e+01
   3.085863e+01  -5.142847e+01
   8.276898e+01   3.786190e+01
   2.881894e+01   6.337541e+01
  -4.257847e+01   8.200707e+01
  -6.557226e+01  -1.060190e+01
  -3.305149e+01  -5.604857e+01
  -1.492735e+01  -5.334154e+01
  -3.534779e+01   1.213574e+01
  -6.264752e+01   2.110662e+00
  -6.472687e+01  -6.565176e+01
   2.371739e+01  -1.397851e+02
   1.158718e+02  -1.514889e+02
   1.729137e+02  -4.312601e+01
   8.493193e+01   5.055116e+01
   2.367870e+01   1.274937e+02
  -3.521132e+01   3.747309e+01
  -5.163517e+01  -1.658459e+01
   2.293801e+01  -1.486106e+01
   1.406696e+02   3.351233e+01
   4.289106e+01   1.011578e+02
  -3.471584e+01   7.035346e+01
  -1.588633e+02   6.138507e+01
  -1.407657e+02  -4.337627e+01
  -5.129269e+01  -9.416946e+01
   2.221309e+01  -6.237739e+01
   4.363399e+01  -3.020984e+01
  -2.056073e+01   4.906494e+01
  -6.826236e+01  -3.946829e+01
  -2.617364e+01  -8.446168e+01
   6.221055e+01  -1.394676e+02
   1.573078e+02  -3.935182e+01
   1.086006e+02   6.428463e+01
   2.482170e+01   1.257015e+02
  -2.399656e+01   1.536694e+02
  -1.035603e+02  -3.405547e+01
  -3.710598e+01  -8.834965e+01
   3.301543e+01  -8.732812e+01
   5.916397e+01   6.526963e-01
   4.065001e+01   4.128672e+01
   1.707087e+01  -2.638854e-01
   2.928748e+00  -3.631287e+01
   1.572859e+01   8.868724e+00
   5.760732e+01   1.001019e+02
   2.022346e+01   5.886608e+01
  -5.974566e+01   3.937553e+01
  -1.135178e+02   1.874923e+01
  -1.168865e+02  -6.967415e+01
  -1.975144e+01  -6.085185e+01
   7.760480e+01  -4.860172e+01
   6.547888e+01  -2.813024e+01
   4.196341e+01   1.496046e+01
  -1.973981e+01   7.279715e+00
  -2.266887e+01   2.443225e+01
   2.690359e+01   2.106502e+01
  -2.033975e+01   1.565045e+01
  -5.573759e+01  -5.510888e+00
  -7.433554e+01  -3.707228e+01
  -1.200949e+01  -6.754544e+01
   1.009331e+02  -1.434188e+02
   1.815535e+02  -1.210934e+02
   1.204007e+02   4.298416e+01
  -2.919218e+01   1.590667e+02
  -7.333102e+01   1.417212e+02
  -9.641802e+01   5.354308e+01
  -8.503273e+01  -2.403950e+01
  -8.196873e+00  -4.269873e+01
  -1.646365e+01   1.228674e+01
  -3.771291e+01  -1.146943e+01
  -3.161561e+01  -3.144217e+01
  -2.366242e+01  -9.512776e+01
   3.919184e+01  -1.089486e+02
   4.828316e+01   8.506231e+00
   9.001397e+01   6.539582e+01
   3.464172e+01   1.053035e+02
  -5.781980e+01   1.086478e+01
  -7.362059e+01  -4.844999e+01
  -3.524320e+01  -1.143439e+02
   3.675146e+01  -5.731347e+01
   7.325265e+01   1.324665e+01
   3.014036e+01   4.587623e+01
  -3.054974e+01   5.512828e+01
  -3.296762e+01   2.534691e+01
   4.763978e+01  -1.598358e+01
   8.114322e+01  -2.164769e+01
   2.455528e+01   3.146292e+01
  -8.484698e+01   5.043280e+01
  -1.335332e+02   4.773486e+01
  -6.130664e+01  -1.652996e+01
   1.211179e+01  -7.039282e+01
   4.446877e+01  -8.674095e+01
   6.535985e+01  -6.515063e+00
   3.622652e+01   3.207410e+01
  -2.967098e+01   4.905364e+01
  -3.684758e+01  -1.485446e+01
  -3.526035e+01  -5.080930e+01
   5.176592e+01  -2.298307e+01
   2.287761e+01   1.657898e+01
   4.716339e+01   3.012047e+01
   2.731822e+01   4.496988e+00
  -1.657877e+01  -1.293664e+01
  -1.202417e+01   1.628245e+01
  -7.907232e+00   3.552466e+01
  -6.766680e+00   2.805386e+01
  -3.675109e+01   8.487900e+00
  -3.790295e+01  -1.616287e+01
  -4.060773e+00  -3.785030e+01
   4.116141e+01  -2.593481e+01
   3.803903e+01   2.615621e+01
   1.733059e-01   5.317341e+01
  -4.920107e+01   2.941698e+01
  -7.766728e+01  -6.722880e+00
  -4.081767e+01  -4.449784e+01
   1.368135e+01  -4.258307e+01
   5.590364e+01  -7.669170e+00
   1.825948e+01   1.962129e+01
  -4.597976e+00  -1.766247e+01
  -4.154683e+01   8.542903e+00
   2.792170e+01  -4.569645e+01
   3.327314e+01  -3.336834e+00
