
 $NMID
 id='ANONYMOUS ', fmtdat='(2E16.6)'
 volume=1.0
 tramp=1.0
 $END
  -2.282163e+03  -1.332492e+02
  -1.319628e+03  -7.786438e+02
  -4.586370e+02  -1.714777e+03
   7.063845e+02  -1.121632e+03
   8.468034e+02  -3.855771e+02
   1.404768e+02   8.034123e+01
  -2.906380e+02  -2.994267e+01
  -8.814499e+01  -3.685003e+02
   3.237601e+02  -5.280727e+02
   4.630243e+02  -1.568377e+02
   3.490646e+02   3.488817e+02
   2.083882e+02   5.025558e+02
  -2.954446e+02   1.978036e+02
  -1.402599e+02  -2.065347e+02
   9.916565e+00  -5.173379e+02
   2.978170e+02  -1.665244e+02
   2.954674e+02   3.232393e+02
  -1.989744e+01   4.891244e+02
  -3.690420e+02   3.122955e+02
  -3.832946e+02  -8.746342e+01
  -1.633731e+02  -2.198145e+02
   6.020795e+01  -2.192797e+02
   2.178492e+01  -7.027632e+01
  -1.252755e+02  -1.070501e+02
  -2.091773e+02  -2.314357e+02
  -5.829250e+01  -2.899789e+02
   3.910493e+02  -1.147237e+02
   3.506676e+02   8.904166e+01
   1.739265e+02   2.568246e+02
  -2.352722e+02   5.200717e+01
  -3.753214e+02  -1.237988e+02
  -1.764703e+02  -2.572799e+02
   1.438128e+02  -3.085373e+02
   3.315435e+02  -1.605648e+02
   2.574667e+02   1.005451e+02
   6.815822e+01   2.915221e+02
   3.663679e+01   1.221185e+02
  -7.673098e+00  -4.979501e+01
   1.100913e+02  -1.181246e+02
   8.008115e+01   9.332628e+01
   3.408561e+01   3.399864e+02
  -1.614256e+02   3.419598e+02
  -2.084207e+02  -4.735494e+01
  -1.433748e+02  -1.660275e+02
   1.143419e+02  -8.549655e+01
   1.163837e+02   2.131045e+02
  -3.675087e+00   2.771142e+02
  -3.204250e+02   1.105520e+02
  -4.340690e+02  -2.177385e+02
  -1.334962e+02  -3.878494e+02
   1.706188e+02  -2.651974e+02
   4.081332e+02   5.402857e+01
   2.637633e+02   1.818764e+02
  -8.124895e+00   1.787267e+02
  -1.996880e+02   1.128017e+02
  -1.961592e+02   1.200242e+01
  -3.816931e+01  -4.177004e+00
   2.449160e+01   1.139350e+01
  -6.129900e+01   3.448612e+01
  -1.607927e+02  -2.041978e+01
  -1.204639e+02  -1.180373e+02
   7.629895e+01  -2.181654e+02
   2.575291e+02  -1.108370e+02
   2.077813e+02   8.130051e+01
  -3.887280e+01   2.854291e+02
  -2.553751e+02   2.979431e+02
  -3.407840e+02   1.350552e+02
  -1.605406e+02  -1.597552e+02
  -4.669543e+01  -2.372505e+02
   2.403917e+01  -1.774864e+02
   1.885209e+01  -1.568923e+02
   2.739683e+01  -1.265664e+02
   1.450853e+02  -1.021605e+02
   1.691330e+02   1.061715e+01
   2.146238e+02   1.159836e+02
   8.535581e+01   1.993493e+02
  -9.472284e+01   1.535552e+02
  -1.224960e+02  -2.150095e+01
  -1.099979e+02  -1.997292e+02
   8.794723e+01  -2.024649e+02
   1.739549e+02  -6.918462e+01
   2.546970e+02   9.632308e+01
   1.566699e+02   2.010362e+02
  -7.499489e+00   2.094456e+02
  -1.077431e+02   1.456414e+02
  -1.176799e+02   1.001241e+02
  -1.166899e+02   7.933557e+01
  -1.770848e+02   5.108658e+01
  -3.144752e+02  -3.169259e+01
  -2.568170e+02  -2.246861e+02
  -2.720959e+01  -3.533078e+02
   2.672590e+02  -3.003078e+02
   3.862012e+02  -1.521475e+02
   2.068594e+02   5.952230e+01
   3.616671e+01   1.650011e+02
  -5.792520e+01   1.634070e+02
  -6.987974e+00   5.689819e+01
   7.731608e+01  -2.941301e+01
   5.524546e+01   2.331239e+01
   4.661779e+01   1.063522e+02
  -1.049558e+02   8.530465e+01
  -7.410191e+01  -3.139218e+01
   4.909922e+01  -9.256324e+01
   1.456121e+02  -1.195235e+01
   1.528956e+02   1.709161e+02
  -1.243808e+01   2.521564e+02
  -1.975272e+02   1.609804e+02
  -3.337152e+02  -2.858738e+01
  -2.237376e+02  -1.860917e+02
   1.200359e+01  -2.405117e+02
   1.028219e+02  -1.308325e+02
   1.224781e+02  -1.949570e+01
   8.716911e+00   1.817770e+01
  -2.433705e+01  -4.874124e+01
   5.585333e+00  -8.991243e+01
   1.087063e+02  -8.557026e+01
   9.213427e+01   1.545349e+01
   3.514309e+01   3.316481e+01
  -8.268502e+01   4.041755e+00
  -2.958328e+01  -6.949935e+01
   1.028711e+02  -6.724674e+01
   2.507008e+02   2.208389e+01
   1.698761e+02   1.802679e+02
   1.127130e+01   1.885379e+02
  -1.898324e+02   1.612796e+02
  -1.546381e+02   5.389889e+01
  -8.224047e+01  -1.049204e+01
   3.526889e+01  -3.282459e+01
   6.563334e+01   5.836539e+00
  -2.179839e+01   4.483527e+01
  -1.200523e+02   1.786946e+00
  -1.649973e+02  -4.072608e+01
  -2.798032e+01  -1.352709e+02
   7.076111e+01  -5.626320e+01
   7.779833e+01  -1.596881e+01
   4.070746e+01   1.933410e+01
  -1.559563e+01  -2.565545e+01
  -4.958389e+01  -1.143973e+02
   6.793967e+01  -1.219695e+02
   1.629414e+02  -6.976871e+01
   1.685868e+02   9.902979e+01
   3.197974e+01   1.791422e+02
  -1.096985e+02   8.183930e+01
  -1.144825e+02   6.566763e+01
  -3.874135e+01  -5.013216e+01
   5.901080e+01  -6.924288e+01
   7.406194e+01  -6.780243e+01
   2.374201e+01   1.788099e+01
  -3.895112e+01   3.320521e+00
  -1.657279e+01  -2.898625e+01
   8.202821e+01  -8.577820e+00
   6.374290e+01   7.218757e+01
  -1.111052e+01   1.740251e+02
  -1.043963e+02   1.142354e+02
  -1.911140e+02   1.838743e+01
  -1.415924e+02  -1.514571e+02
  -5.350047e+00  -1.802212e+02
   7.043481e+01  -1.332439e+02
   1.157261e+02  -1.116378e+01
   4.870428e+01   5.011808e+01
  -3.895832e+00  -7.247560e+00
   5.623203e+01  -2.682597e+01
   6.131393e+01  -3.626218e+00
   2.691905e+01   2.920814e+01
  -3.290169e+01   7.469080e+01
  -1.028415e+02   8.522681e+01
  -8.675757e+01  -5.749789e+01
  -1.919784e+01  -8.899015e+01
   1.696091e+02  -7.221426e+01
   1.564525e+02   4.370895e+01
   7.747954e+01   1.745025e+02
  -1.089274e+02   2.025226e+02
  -2.214125e+02   9.931162e+01
  -1.972621e+02  -4.703100e+01
  -5.715155e+01  -1.420875e+02
   2.555935e+01  -1.159546e+02
   5.370150e+01  -3.485401e+01
   3.977146e+01  -7.453522e+01
   5.708966e+01  -6.203175e+01
   7.500008e+01  -6.811427e+01
   1.358107e+02  -1.955248e+01
   9.161152e+01   1.218535e+02
  -2.898229e+01   1.738129e+02
  -7.958439e+01   1.565382e+02
  -1.228232e+02   8.162672e+00
  -8.305890e+01  -8.957270e+01
  -1.582990e+01  -1.269748e+02
   6.874983e+01  -3.338821e+01
   4.454292e+01   1.985901e+01
  -2.454198e+00   6.594263e+01
  -2.550047e+01   3.187590e+01
   1.547796e+01   1.746822e+01
   7.471561e+01   4.221402e+01
   3.246302e+01   1.533671e+01
  -3.897187e+01   3.282253e+01
  -1.477428e+02   3.653497e-01
  -1.231051e+02  -9.431691e+01
   4.686451e+00  -5.516253e+01
   1.118015e+02  -8.991336e+01
   9.879809e+01  -1.847541e+01
   1.193821e+01   6.833971e+00
  -6.442981e+01   3.373787e+01
  -5.727991e+01  -2.239724e+01
  -5.564270e-01  -5.500336e+01
   3.288102e+01  -9.288124e+01
   3.023387e+01  -2.668710e+01
   6.901869e+01   4.874485e+01
   3.910524e+01   6.263182e+01
   3.045396e+01   1.116749e+01
   4.055281e+01  -3.050081e+00
   5.821702e+01   6.553294e+01
  -4.342917e+01   1.266637e+02
  -1.034438e+02   9.102475e+01
  -1.146556e+02   5.368509e+01
  -1.429525e+02  -7.168247e+01
   2.558192e+01  -1.070802e+02
   6.534194e+01  -6.401341e+01
   7.698020e+01  -1.636879e+01
  -5.123974e+01   3.619575e+01
  -7.055967e+01  -3.497698e+00
  -6.524991e+01  -7.724336e+01
   8.365256e+01  -1.001412e+02
   1.229192e+02  -2.573053e+01
   1.308732e+02   1.533884e+00
   5.625292e+01   9.626473e+01
  -8.788180e+01   5.481212e+01
  -4.004665e+01  -1.713142e+01
   5.616246e+01  -5.775306e+00
   3.959156e+01   2.171212e+01
   6.817725e+01   8.707029e+01
  -6.029628e+01   1.083715e+02
  -1.277289e+02   4.304925e+01
  -9.403535e+01  -6.682156e+01
  -4.376071e+01  -1.405851e+02
   2.850952e+01  -1.481334e+02
   8.432692e+01  -7.727188e+00
   6.218328e+01   1.121627e+02
   9.914550e-01   9.768124e+01
  -7.153390e+01   2.070423e+01
  -2.258341e+01  -2.363863e+01
  -1.104696e+01  -4.848062e+00
  -2.704222e+01   4.057585e+01
  -2.325918e+01  -9.651925e+00
  -3.779253e+01  -6.049564e+01
  -5.532685e+00  -8.257024e+01
   3.005389e+01  -4.604945e+01
   1.022982e+02   2.942171e+01
   1.034570e+02   1.572085e+01
   2.402813e+01   3.436092e+01
  -4.759726e+01   2.014752e+01
  -8.635039e+01   2.375190e+00
  -3.561387e+01  -2.604429e+01
   2.671029e+01  -2.352331e+01
  -7.780657e+00  -1.269948e+01
  -1.349623e+01  -1.039006e+00
   3.289099e+01   1.418990e+01
   5.295072e+01  -1.749617e+01
   6.949497e+01   5.774377e+00
   2.011190e+01   6.943532e+01
  -7.106014e+01   1.397760e+02
  -1.341801e+02   2.213248e+01
  -1.549268e+02  -2.831076e+01
  -6.876356e+01  -1.304267e+02
   2.652547e+01  -1.375589e+02
   8.337207e+01  -7.894741e+01
   7.148342e+01   4.345031e+00
   3.477034e+01   2.663267e+01
   4.393243e+01   3.223206e+00
  -8.425335e-01   1.009398e+01
   2.387101e+01   3.830850e+01
   1.065782e+01   7.060319e+01
  -4.358072e+01   7.366589e+01
  -4.544212e+01  -3.032427e+01
  -8.900534e+01  -7.206464e+01
  -1.787565e+01  -6.081808e+01
   3.859499e+01  -2.727296e+01
   5.554592e+01   4.567597e+01
   2.866625e+01   7.881627e+01
  -4.935915e+01   5.877535e+01
  -1.111355e+02  -3.315397e+01
  -7.493484e+01  -5.750991e+01
   6.502525e+00  -7.071504e+01
   4.424620e+01  -8.044016e+00
  -2.736378e+01   2.337807e+01
  -4.857271e+01   2.307025e+01
  -2.959344e+01   6.663999e+00
   7.089378e+01  -4.724682e+01
   9.363494e+01  -4.864733e+01
   4.320740e+01   4.762465e+00
   1.450651e+01   7.356095e+01
  -6.430603e+01   9.420935e+01
  -5.497051e+01   1.122701e+01
  -1.227971e+01  -1.585872e+01
   2.549304e+01  -5.940943e+01
   3.215391e+01   1.768428e+01
   3.692209e+01   3.167542e+01
   6.505692e+00   3.811013e+01
  -1.679508e+01  -4.216294e-01
  -3.465114e+01  -3.536839e+01
  -1.861122e+01  -2.868505e+01
   6.725436e+00   1.290884e+01
   1.967391e+01   2.265389e+01
  -1.297874e+01  -2.577247e+01
   3.342440e+00  -5.278361e+01
   2.236748e+01  -3.101789e+01
   8.868618e+00   1.210909e+01
   4.965902e+00   4.197676e+01
  -2.102425e+01   4.142224e+01
  -6.345606e+01  -1.876315e+01
  -2.798439e+00  -6.661296e+01
   3.187008e+01  -2.669878e+00
   5.482914e+01   2.877376e+01
   6.200549e+01   3.422612e+01
  -4.787214e+01   2.256564e+01
  -2.023963e+01   3.270560e+01
  -2.078839e+01   1.717617e+01
   7.826283e+00   1.606559e+01
   3.268882e+01   9.006180e+00
  -3.933346e+01   1.703548e+00
  -7.699839e+01   4.195015e+01
