
 $NMID
 id='ANONYMOUS ', fmtdat='(2E16.6)'
 volume=1.0
 tramp=1.0
 $END
   1.670170e+03   6.181392e+02
   1.003828e+03   6.911369e+02
  -1.538756e+02   1.293285e+03
  -5.058124e+02   5.395844e+02
  -6.005815e+02  -2.037941e+01
   1.201017e+02  -8.009207e+01
   2.906563e+02   1.253930e+02
   1.521139e+01   3.031028e+02
  -2.992758e+02   2.019900e+02
  -3.772728e+02  -1.629594e+01
  -2.886830e+02  -1.858125e+02
   2.182422e+01  -3.110789e+02
   1.852993e+02   3.842460e+00
   7.041858e+01   2.066755e+02
  -1.613263e+02   2.752751e+02
  -1.751900e+02   3.019844e+01
  -9.473217e+01  -2.938357e+02
   9.791510e+01  -1.890521e+02
   1.914771e+02  -1.095623e+02
   1.790181e+02   1.007202e+02
   5.562447e+01   1.874227e+02
  -8.419242e+01   8.945242e+01
  -4.618851e+01  -1.730454e+01
   1.584149e+02   7.922938e+01
   1.496894e+02   1.374223e+02
  -5.562540e+01   1.765108e+02
  -2.656032e+02   7.538103e+01
  -2.802986e+02   1.032565e+01
  -1.818428e+02  -1.987297e+02
   1.614621e+02  -9.031969e+01
   2.754542e+02   8.365832e+01
   2.436856e+01   1.900222e+02
  -1.433290e+02   1.426468e+02
  -2.582780e+02   1.858333e+00
  -1.917785e+02  -8.862195e+01
   9.764832e+00  -1.788026e+02
   5.029351e+01  -8.572236e+01
   1.826204e+00   7.541792e+01
  -1.458842e+02   1.044713e+02
  -1.725293e+02  -8.883051e+01
  -3.029536e+01  -2.730734e+02
   1.575745e+02  -2.394507e+02
   2.441582e+02  -3.816399e+00
   3.625560e+01   1.921953e+02
  -1.110333e+02   9.308889e+01
  -6.333885e+01  -1.402114e+02
   6.777955e+01  -1.798505e+02
   2.019435e+02  -7.506212e+00
   1.759813e+02   2.336399e+02
   8.518890e+01   2.350129e+02
  -1.904551e+02   8.123669e+01
  -2.654635e+02  -1.180007e+02
  -1.414966e+02  -1.665096e+02
   3.773748e+01  -1.289891e+02
   1.463759e+02   7.394878e+00
   1.002056e+02   4.912004e+01
   6.825230e+00  -1.018347e+01
  -9.214954e+00  -2.392372e+01
   8.077495e+01  -5.051748e+01
   1.086784e+02   7.000504e+01
   6.811203e+01   9.715987e+01
  -8.809878e+01   1.092561e+02
  -1.375470e+02   3.941675e+01
  -1.168949e+02  -3.423787e+01
   1.578814e+01  -1.216017e+02
   1.370541e+02  -1.507493e+02
   1.348446e+02  -1.140199e+02
   7.837946e+01   6.129614e+01
   3.458367e+01   1.763731e+02
  -5.597634e+00   1.888960e+02
  -2.961705e+01   7.291970e+01
   8.988789e-01   7.336818e+01
  -8.808804e+01   4.429693e+01
  -1.178662e+02   1.168163e+01
  -1.190478e+02  -7.028925e+01
  -7.871016e+00  -1.210473e+02
   6.346085e+01  -7.015493e+01
   6.722344e+01   2.255924e+01
   7.146147e+01   1.077392e+02
  -3.230392e+01   1.119273e+02
  -1.217343e+02   2.920220e+01
  -1.312649e+02  -9.620182e+01
  -7.883100e+01  -1.602731e+02
   3.997292e+01  -1.059507e+02
   8.388519e+01  -8.894960e+01
   9.839699e+01  -4.928009e+01
   8.048206e+01  -2.167763e+01
   1.055714e+02  -2.027875e+01
   2.604375e+02   2.873292e+01
   9.483527e+01   8.474292e+01
  -4.383029e+01   2.127269e+02
  -2.730514e+02   1.476582e+02
  -2.656458e+02   1.374433e+02
  -1.612287e+02  -7.159322e+01
   1.745226e+00  -6.375592e+01
   6.475311e+01  -1.051276e+02
   1.934059e+01   2.506703e+01
  -2.288842e+01   3.491368e+01
  -4.858887e+01  -4.709677e+01
   3.351204e+01  -8.552217e+01
   7.020471e+01  -5.210080e+01
   7.690280e+01   2.725185e+01
  -1.113168e+01   8.060168e+01
  -9.506664e+01   1.016053e+00
  -7.629586e+01  -8.125883e+01
  -3.197965e+01  -1.809940e+02
   1.627094e+02  -7.701606e+01
   2.042298e+02   7.630568e+01
   1.415665e+02   1.702604e+02
   2.994426e+01   1.204303e+02
  -6.865023e+01   5.467606e+01
  -8.631279e+01   2.233825e+00
  -1.846890e+00   4.998910e+00
   5.162223e+01   9.260057e+00
   1.074366e+01   2.511217e+01
  -4.610586e+01   1.611040e+01
  -5.367458e+01   8.510454e+00
  -8.770336e+00  -3.219578e+01
   5.245281e+01  -1.561045e+01
   5.219088e+00   7.732054e+01
  -9.910674e+01   2.848674e+01
  -1.443115e+02  -4.216805e+01
  -1.587129e+02  -9.330237e+01
   1.027509e+01  -1.826046e+02
   9.156340e+01  -1.293170e+02
   1.348284e+02  -5.450931e+01
   3.842641e+01   4.504097e+01
   6.119331e-01   4.337465e+01
  -4.268955e+01  -3.569923e+01
   2.488877e+01  -5.353780e+01
   1.109429e+02  -6.850651e+01
   1.298859e+02   5.586134e+01
   4.491669e+01   9.639573e+01
  -5.401424e+01   8.455286e+01
  -6.302442e+01   4.526554e+00
  -1.076948e+01  -3.751954e+01
  -2.434458e-01   9.959560e+00
   3.440839e+01   4.680752e+01
  -2.276901e+01   6.189001e+01
  -1.264272e+02  -6.549647e+00
  -7.814632e+01  -7.839627e+01
  -9.002194e+00  -5.942202e+01
   7.848873e+01  -3.217830e+01
   6.990976e+01  -1.471805e+00
   2.693849e+01   4.134107e+01
  -3.942036e+01   1.096472e+01
  -2.784998e+01   7.751616e+00
  -1.059819e+01  -1.667591e+01
   3.490624e+00  -3.703971e+01
   2.921743e+01  -5.874356e+00
  -1.938619e+01  -4.064229e+00
  -1.988124e+01  -3.179519e+01
  -1.769948e+01  -8.835715e+01
   8.776775e+01  -8.416451e+01
   1.107728e+02   1.064512e+01
   7.645567e+01   9.271299e+01
  -2.328775e+01   9.708426e+01
  -5.284768e+01   8.821071e+01
  -6.711485e+01  -1.280487e+01
  -1.772621e+01  -1.911306e+01
  -1.066232e+01  -3.808443e+01
  -3.979605e+01   1.027455e+01
  -7.155784e+01   8.051545e+00
  -5.308309e+00  -4.174541e+01
   9.774505e+00  -7.582826e+01
   9.983079e+01  -1.884152e+01
   7.461958e+01   2.834450e+01
  -1.135128e+01   6.258144e+01
  -5.970094e+01   4.703098e+01
  -9.191885e+01  -4.530559e+00
  -3.823442e+01  -1.174091e+02
   6.432086e+01  -9.738035e+01
   1.316231e+02  -3.919218e+01
   1.183250e+02   7.080222e+01
   4.298235e+01   7.203778e+01
  -5.986397e+01   8.482131e+01
  -4.670187e+01   2.774195e+01
  -3.959974e+01   3.650923e+01
  -8.469022e+00   6.312490e+01
  -7.189458e+01   4.166808e+01
  -1.919653e+01  -2.011894e+00
  -5.069674e+01  -4.164525e+01
  -8.980647e+00  -1.388310e+02
   3.766559e+01  -6.368565e+01
   9.774269e+01   2.284795e+00
   6.883175e+01   4.860336e+01
  -6.002960e+00   7.484836e+01
  -3.494340e+01   4.903280e+01
  -1.365845e+01  -3.063583e+01
   5.982421e+00  -4.232898e+01
  -2.180642e+01   1.699075e+00
  -2.450323e+00   1.348678e+01
  -2.672993e+01  -2.157960e+01
  -2.692303e+01  -3.951575e+01
   9.205470e+00  -1.723232e+01
   7.470320e+01  -1.890816e+01
   7.301275e+01   2.921510e+01
   4.066214e+00   4.438064e+01
  -4.431652e+01   5.003572e+01
  -7.107631e+01  -1.302895e+01
  -8.686899e+00  -5.225614e+01
   3.534844e+01  -1.984264e+01
   2.582671e+01   1.567335e+01
   2.917573e+01  -1.610344e+00
  -2.378829e+01   1.958798e+01
  -8.811116e+00  -5.672749e+00
  -3.416535e+01  -1.978309e+01
  -2.798251e+01  -1.618897e+01
  -3.862207e+01  -3.526031e+01
  -3.692091e+01  -2.010228e+01
  -1.762019e+01  -4.622482e+01
   2.887493e+01  -1.036048e+02
   5.301700e+01  -8.845558e+01
   1.277789e+02  -1.491601e+01
   5.595267e+01   2.384737e+01
  -6.598051e+00   6.943202e+01
  -6.459814e+01   4.936196e+01
   5.942629e+00   2.265958e+01
   2.310355e+01  -3.046773e+01
   8.363262e+01   8.499701e+00
   3.247557e+01   6.485576e+01
  -5.640174e+01   4.467376e+01
  -1.145729e+02   1.756308e+01
  -7.605492e+01  -1.122518e+01
  -1.822506e+01  -3.696508e+01
   2.157586e+01  -6.337774e+01
   2.369344e+01  -1.268519e+01
  -1.227507e+01   3.109588e+01
  -5.412448e+01   2.255699e+01
  -4.156502e+01  -7.015710e+01
   1.951949e+01  -3.716035e+01
   8.636616e+01  -3.268346e+01
   4.472057e+01   6.060054e+01
  -3.568107e+01   9.812755e+01
  -5.872797e+01   6.629378e+01
  -3.975295e+01   3.393650e+00
  -4.036041e+01  -7.281602e+01
  -7.271267e+00  -7.106424e+01
   7.555222e+00  -2.810432e+01
   2.218565e+01  -1.050837e+01
  -2.685296e+01   6.567576e+00
   7.236733e+00  -4.410425e+01
   1.501773e+01   1.055984e+01
   1.950210e+01   5.255833e+01
  -6.217201e-01   6.801009e+01
  -5.651910e+01   2.757381e+01
  -4.634921e+01  -7.688595e+00
  -4.987830e+01  -3.055318e+01
  -3.128717e+00   1.627471e-01
   4.853137e+01  -2.584530e+01
   3.458635e+01   1.901068e+01
   4.323557e+00  -1.627304e+01
  -2.577133e+00  -1.550053e+01
   4.671227e+00   1.445633e+01
   2.780870e+01  -1.045481e+01
   4.677812e+00   3.565082e+00
  -3.228651e+01   1.134012e+01
  -4.882394e+01  -1.815132e+01
   3.499667e+00  -2.876205e+01
   7.921423e+01  -8.817106e+01
   6.564626e+01  -4.944546e+01
   3.940937e+01   1.853848e+01
  -1.095342e+01   6.191361e+01
  -2.972924e+01   8.109967e+01
  -8.013912e+01   4.913062e+01
  -3.596988e+01  -3.132069e+01
  -3.839750e+01   2.964614e-01
   7.141188e+00  -3.492979e+00
  -1.013262e+01  -4.390455e+00
  -7.125689e+00  -2.675756e+01
  -7.463204e+00  -3.740549e+01
   3.752926e+01  -3.428190e+01
   2.006845e+01   1.827929e+01
   5.350067e+01   5.658715e+01
   2.951396e+01   5.319419e+01
  -3.642565e+01   2.397749e+01
  -5.793536e+01  -5.708918e+01
   5.955377e+00  -4.561788e+01
   3.281946e+01  -2.123488e+01
   4.339658e+01   1.552183e+01
   4.167640e+01   4.128226e+01
  -3.352735e+01   4.140614e+01
  -5.004374e+01  -8.047001e+00
   2.820650e+01   7.714524e+00
   4.103971e+01   2.569654e+01
   4.122448e+01   1.542333e+01
  -5.624000e+01   3.860841e+01
  -8.155284e+01   2.470274e+01
  -2.661374e+01  -1.872515e+01
   8.248582e+00   2.393247e+00
   2.355124e+01  -5.246454e+01
   2.876922e+01  -1.253836e+01
   2.175287e+01   2.443149e+01
  -5.085325e+01   8.483608e+00
  -1.091776e+01  -3.578716e+00
   1.048873e+00  -2.226569e+01
   1.361141e+01  -1.240980e+01
   2.974848e+01  -2.564467e+01
   2.933423e+01   2.999796e+01
   1.517376e+01   1.915988e+01
  -4.443135e+00  -6.632757e+00
   1.173804e+00  -3.282307e+01
  -3.955667e+01   9.493513e+00
  -1.268575e+01  -2.273836e+01
   2.597398e+00   3.409953e+01
  -1.312431e+01  -2.781894e+01
  -6.993309e+00  -5.172817e+00
   1.141497e+01  -2.273121e+01
   4.118152e+01   9.489490e+00
   4.791019e+01   2.373296e+01
  -3.890120e+01  -4.857928e-01
  -4.892647e+01  -1.743079e+01
  -2.535610e+01  -7.295080e+00
  -5.408365e+00  -2.786687e+01
   2.582856e+01  -4.150422e+01
   1.036192e+01   6.417976e+00
   5.851397e+00  -6.719898e+00
  -2.329065e+01   3.859463e+00
   1.339302e+01   1.008606e+01
   6.355112e+00  -9.043412e+00
