
 $NMID
 id='ANONYMOUS ', fmtdat='(2E16.6)'
 volume=1.0
 tramp=1.0
 $END
   4.674693e+07  -5.139076e+05
   2.918604e+07   2.710022e+07
  -4.440034e+06   3.129844e+07
  -2.221270e+07   1.412254e+07
  -1.454689e+07  -3.934622e+06
   1.801852e+06  -7.960252e+06
   8.511816e+06  -2.635129e+05
   3.511879e+06   7.980592e+06
  -4.420423e+06   9.009481e+06
  -8.197706e+06   2.685223e+06
  -6.276479e+06  -5.307104e+06
  -8.109650e+05  -7.759261e+06
   3.572673e+06  -2.261105e+06
   2.553683e+06   5.335636e+06
  -3.000608e+06   6.433059e+06
  -6.870570e+06  -5.825136e+05
  -4.279707e+06  -8.619499e+06
   2.806258e+06  -1.027700e+07
   8.474270e+06  -5.150992e+06
   9.028124e+06   1.834865e+06
   5.199015e+06   6.232466e+06
   3.808202e+05   6.712677e+06
  -1.848773e+06   4.558542e+06
  -3.897652e+05   2.575743e+06
   1.678027e+06   2.923259e+06
  -1.022034e+05   4.497925e+06
  -5.602117e+06   3.876196e+06
  -9.085775e+06  -2.161577e+04
  -6.137610e+06  -3.958037e+06
   3.956467e+05  -4.411625e+06
   3.945193e+06  -1.817536e+06
   2.174714e+06   7.628234e+05
  -1.468046e+06   1.446244e+06
  -3.110475e+06   2.485497e+05
  -2.184389e+06  -2.144165e+06
  -6.771818e+04  -4.087583e+06
   1.866656e+06  -3.166178e+06
   2.333677e+06   5.903188e+05
   8.855206e+05   3.074050e+06
  -6.716797e+05   9.422490e+05
   8.985870e+04  -2.862799e+06
   2.375399e+06  -2.378550e+06
   2.360162e+06   2.581012e+06
  -1.452198e+06   5.260948e+06
  -5.251109e+06   1.154218e+06
  -4.271106e+06  -5.473460e+06
   1.226667e+06  -7.056129e+06
   6.231833e+06  -2.151848e+06
   6.475052e+06   3.774249e+06
   2.148982e+06   5.498015e+06
  -3.063524e+06   2.845505e+06
  -5.160105e+06  -9.942426e+05
  -2.701708e+06  -3.027844e+06
   1.847259e+06  -2.134315e+06
   4.011232e+06   5.265142e+05
   1.917293e+06   2.217003e+06
  -1.410458e+06   1.247731e+06
  -1.773890e+06  -8.525987e+05
   7.898812e+05  -1.134899e+06
   2.265310e+06   8.530787e+05
   1.764680e+05   2.553478e+06
  -3.334182e+06   1.870085e+06
  -4.518683e+06  -6.166319e+05
  -2.250062e+06  -3.177877e+06
   1.676191e+06  -4.719268e+06
   4.866496e+06  -4.370263e+06
   5.747256e+06  -1.395687e+06
   3.941404e+06   3.048090e+06
   7.404672e+05   5.695572e+06
  -1.444999e+06   4.564030e+06
  -1.390359e+06   1.619826e+06
  -4.511097e+05   3.024402e+05
  -6.923652e+05   1.079040e+06
  -2.123533e+06   1.373711e+06
  -2.880125e+06  -3.383357e+05
  -1.793298e+06  -2.391232e+06
   3.493793e+05  -2.358431e+06
   1.922154e+06  -1.037171e+05
   1.814003e+06   2.349054e+06
  -1.195035e+05   3.018470e+06
  -2.790128e+06   1.419273e+06
  -4.110735e+06  -1.375357e+06
  -2.748427e+06  -3.489003e+06
   1.162400e+05  -3.633337e+06
   1.902897e+06  -2.284954e+06
   1.802036e+06  -1.091608e+06
   1.619191e+06  -8.528356e+05
   2.878951e+06  -6.671274e+05
   4.338283e+06   6.051482e+05
   3.543400e+06   2.689228e+06
   1.891669e+05   4.178957e+06
  -3.288270e+06   3.966612e+06
  -4.333243e+06   2.023230e+06
  -2.645263e+06  -6.355362e+05
  -4.658657e+04  -2.336157e+06
   1.291687e+06  -1.859194e+06
   5.470459e+05   1.141184e+05
  -1.170139e+06   1.295952e+06
  -1.881949e+06   3.867659e+05
  -8.343593e+05  -1.180395e+06
   5.987951e+05  -1.143464e+06
   5.798400e+05   3.738661e+05
  -8.699854e+05   9.437900e+05
  -1.909520e+06  -7.941810e+05
  -1.128148e+06  -3.212179e+06
   1.012982e+06  -3.720380e+06
   2.995283e+06  -1.727008e+06
   3.662844e+06   1.117234e+06
   2.689589e+06   2.886478e+06
   5.779735e+05   2.845631e+06
  -1.332308e+06   1.525841e+06
  -1.661573e+06   1.880013e+05
  -5.066826e+05  -4.597124e+04
   3.771768e+05   7.643005e+05
  -3.611206e+05   1.321635e+06
  -1.844641e+06   6.001441e+05
  -2.042561e+06  -7.991067e+05
  -4.572856e+05  -1.375935e+06
   1.172327e+06  -6.255861e+05
   9.969098e+05   4.530306e+05
  -8.134282e+05   6.757258e+05
  -2.360652e+06  -1.531399e+05
  -2.007119e+06  -1.386635e+06
   1.432750e+05  -2.169651e+06
   2.388564e+06  -1.822883e+06
   2.873950e+06  -3.295552e+05
   1.248685e+06   1.244424e+06
  -8.962032e+05   1.469862e+06
  -1.507366e+06   1.869388e+05
  -1.644107e+05  -1.056296e+06
   1.533543e+06  -7.473879e+05
   1.780025e+06   7.489299e+05
   4.404749e+05   1.689354e+06
  -1.049995e+06   1.098522e+06
  -1.324068e+06  -2.103777e+05
  -3.359294e+05  -7.705706e+05
   7.682135e+05  -7.966980e+04
   7.410745e+05   1.062771e+06
  -6.060276e+05   1.449601e+06
  -2.067444e+06   5.364984e+05
  -2.080504e+06  -1.084365e+06
  -4.043830e+05  -2.116752e+06
   1.439857e+06  -1.696555e+06
   1.762162e+06  -2.591172e+05
   5.572121e+05   8.740039e+05
  -6.547924e+05   8.539422e+05
  -6.997303e+05   7.623434e+04
   8.186277e+04  -4.592537e+05
   5.768572e+05  -3.044893e+05
   2.659870e+05   9.515389e+04
  -3.936614e+05   4.734911e+04
  -5.823339e+05  -5.916193e+05
   1.348549e+05  -1.208054e+06
   1.391982e+06  -9.498265e+05
   2.144728e+06   4.009249e+05
   1.513948e+06   1.987232e+06
  -2.132077e+05   2.515076e+06
  -1.671946e+06   1.528951e+06
  -1.810497e+06  -7.357649e+04
  -9.854299e+05  -9.843586e+05
  -3.561930e+05  -8.205456e+05
  -4.121772e+05  -3.128766e+05
  -5.559629e+05  -2.817604e+05
  -8.641684e+04  -7.255774e+05
   8.690132e+05  -9.516304e+05
   1.511909e+06  -3.924864e+05
   1.154870e+06   7.589417e+05
  -2.078016e+05   1.586979e+06
  -1.781438e+06   1.172208e+06
  -2.354937e+06  -4.718222e+05
  -1.228014e+06  -2.147043e+06
   9.571705e+05  -2.443633e+06
   2.565623e+06  -1.131638e+06
   2.468782e+06   5.911615e+05
   1.102481e+06   1.376916e+06
  -1.521939e+05   1.071888e+06
  -4.676260e+05   6.117014e+05
  -1.960372e+05   7.626646e+05
  -1.564123e+05   1.273274e+06
  -6.630676e+05   1.278094e+06
  -1.294950e+06   3.182351e+05
  -1.367601e+06  -1.115858e+06
  -5.734962e+05  -1.957735e+06
   6.463488e+05  -1.486440e+06
   1.335738e+06  -1.879407e+04
   8.670422e+05   1.286612e+06
  -3.389603e+05   1.439261e+06
  -1.134352e+06   4.947432e+05
  -8.363584e+05  -6.109816e+05
   4.745765e+04  -1.054949e+06
   4.591471e+05  -8.259415e+05
   5.010470e+04  -4.682899e+05
  -4.310339e+05  -3.641388e+05
  -5.208435e+04  -4.033323e+05
   1.153436e+06  -2.353204e+05
   2.087427e+06   3.126145e+05
   1.674809e+06   1.031047e+06
   2.514036e+04   1.441089e+06
  -1.568615e+06   1.168697e+06
  -1.867438e+06   3.371492e+05
  -8.866903e+05  -4.325858e+05
   2.358388e+05  -5.550331e+05
   5.093206e+05  -6.837804e+04
   1.260224e+04   3.894251e+05
  -4.795888e+05   2.545954e+05
  -4.899791e+05  -3.523355e+05
  -2.101942e+05  -7.589449e+05
  -5.054714e+04  -4.961292e+05
  -1.491663e+05   1.352595e+05
  -3.304640e+05   3.474853e+05
  -2.959258e+05  -2.331303e+05
   1.688979e+05  -1.036758e+06
   9.210342e+05  -1.095313e+06
   1.342357e+06  -1.546333e+05
   8.223355e+05   9.403440e+05
  -4.217784e+05   1.129724e+06
  -1.260434e+06   3.051550e+05
  -7.519898e+05  -6.056188e+05
   7.101561e+05  -6.846477e+05
   1.667639e+06   6.429240e+04
   1.113917e+06   8.782270e+05
  -4.480064e+05   1.070833e+06
  -1.566511e+06   5.738479e+05
  -1.325660e+06  -1.566251e+05
  -1.670819e+05  -5.452774e+05
   6.666114e+05  -3.063084e+05
   3.838729e+05   2.862077e+05
  -6.255402e+05   5.185246e+05
  -1.219484e+06  -1.146221e+05
  -6.560197e+05  -1.237366e+06
   6.542535e+05  -1.746742e+06
   1.558030e+06  -8.912991e+05
   1.303360e+06   7.991621e+05
   2.101104e+05   1.871086e+06
  -7.670580e+05   1.372929e+06
  -9.729996e+05  -1.515935e+05
  -4.834189e+05  -1.235580e+06
   1.879966e+05  -1.032581e+06
   5.738560e+05  -1.064299e+05
   5.133480e+05   3.989606e+05
   2.002815e+05   1.538840e+05
   3.923086e+04  -1.094752e+05
   2.504052e+05   2.827860e+05
   5.184497e+05   9.933342e+05
   2.384102e+05   1.130266e+06
  -7.012670e+05   4.228396e+05
  -1.542490e+06  -4.794204e+05
  -1.368767e+06  -8.676293e+05
  -1.997908e+05  -7.192971e+05
   9.143487e+05  -4.347357e+05
   1.034647e+06  -2.037972e+05
   3.529766e+05   3.547338e+04
  -1.612093e+05   2.317500e+05
  -4.927516e+03   2.318900e+05
   3.089134e+05   1.178623e+05
   3.981002e+04   1.395048e+05
  -7.224716e+05   2.327210e+05
  -1.083500e+06  -1.808314e+04
  -4.042091e+05  -7.096068e+05
   9.008254e+05  -1.205631e+06
   1.740954e+06  -7.696289e+05
   1.427543e+06   4.592476e+05
   2.778536e+05   1.465598e+06
  -7.836140e+05   1.422621e+06
  -1.087133e+06   5.419480e+05
  -6.855041e+05  -2.567250e+05
  -1.271286e+05  -3.706608e+05
   9.816786e+04  -4.953261e+04
  -7.586477e+04   3.896401e+04
  -3.283327e+05  -3.730659e+05
  -2.718786e+05  -8.400259e+05
   1.893433e+05  -7.000365e+05
   7.129500e+05   1.427725e+05
   7.539156e+05   1.003558e+06
   9.422945e+04   1.066440e+06
  -7.961688e+05   2.336607e+05
  -1.068390e+06  -7.678285e+05
  -3.496485e+05  -1.128158e+06
   7.410225e+05  -6.875359e+05
   1.149283e+06   7.931057e+04
   5.414273e+05   6.151903e+05
  -2.917768e+05   6.824209e+05
  -3.708814e+05   3.799341e+05
   2.797406e+05   1.910541e+04
   6.807311e+05  -3.949126e+04
   1.460408e+05   3.144109e+05
  -8.553163e+05   7.122925e+05
  -1.288132e+06   5.855690e+05
  -7.714644e+05  -1.613660e+05
   9.766257e+04  -8.946636e+05
   5.495047e+05  -8.843764e+05
   4.178641e+05  -1.555093e+05
   4.548346e+04   5.060854e+05
  -2.498499e+05   4.411883e+05
  -3.663867e+05  -1.710637e+05
  -2.636686e+05  -5.993119e+05
   5.664165e+04  -4.258747e+05
   4.050470e+05   5.302165e+04
   4.898208e+05   2.751185e+05
   2.532184e+05   8.677916e+04
  -2.772803e+04  -1.397061e+05
  -8.835856e+04  -1.283907e+04
  -1.384536e+04   3.777087e+05
  -8.564395e+04   5.476338e+05
  -3.397728e+05   1.924874e+05
  -4.507625e+05  -4.126508e+05
  -1.320121e+05  -6.726417e+05
   4.315682e+05  -3.188271e+05
   6.782528e+05   2.984988e+05
   2.565446e+05   6.015043e+05
  -5.195993e+05   3.802295e+05
  -9.058478e+05  -8.130492e+04
  -4.942942e+05  -3.899508e+05
   3.020089e+05  -4.035782e+05
   6.565271e+05  -2.237835e+05
   2.454478e+05  -1.865450e+04
  -3.784234e+05   5.643364e+04
  -4.301976e+05  -8.514216e+04
   1.905709e+05  -3.144732e+05
   7.978889e+05  -2.833156e+05
