
 $NMID
 id='ANONYMOUS ', fmtdat='(2E16.6)'
 volume=1.0
 tramp=1.0
 $END
   2.976111e+07  -1.047429e+06
   2.034117e+07   1.422807e+07
   2.774850e+04   1.936700e+07
  -1.306291e+07   1.225740e+07
  -1.075621e+07   6.192498e+05
  -4.188543e+05  -5.442176e+06
   6.043298e+06  -2.288129e+06
   4.246791e+06   4.901728e+06
  -1.647966e+06   7.860598e+06
  -5.567494e+06   3.412885e+06
  -4.767741e+06  -3.680333e+06
  -6.986600e+05  -5.989656e+06
   2.718683e+06  -1.388406e+06
   2.208294e+06   4.802071e+06
  -1.745244e+06   5.776010e+06
  -4.951932e+06   4.903613e+05
  -3.693787e+06  -5.766564e+06
   1.268593e+06  -7.361433e+06
   5.565022e+06  -3.667745e+06
   5.831015e+06   1.427171e+06
   2.776962e+06   4.010847e+06
  -1.065442e+05   3.476660e+06
  -2.207446e+05   2.111049e+06
   1.686074e+06   2.234714e+06
   2.319406e+06   3.804770e+06
  -6.410205e+05   4.604777e+06
  -5.482705e+06   2.799841e+06
  -7.576047e+06  -8.174137e+05
  -4.361648e+06  -3.453086e+06
   1.304832e+06  -3.142626e+06
   3.964101e+06  -5.757465e+05
   1.563747e+06   1.811737e+06
  -2.588294e+06   2.016713e+06
  -4.034035e+06  -1.543391e+05
  -1.967838e+06  -2.995579e+06
   8.540059e+05  -3.979475e+06
   1.827099e+06  -1.940545e+06
   8.783215e+05   1.230160e+06
  -3.572771e+05   2.042418e+06
  -4.645327e+05  -5.109173e+05
   7.220037e+05  -3.200633e+06
   2.094326e+06  -2.280697e+06
   2.044708e+06   1.540192e+06
  -3.123643e+03   3.640036e+06
  -2.484407e+06   1.248276e+06
  -2.739366e+06  -3.039416e+06
   2.037912e+05  -4.458678e+06
   4.093122e+06  -1.587286e+06
   5.291088e+06   2.577711e+06
   2.374181e+06   4.343367e+06
  -2.268732e+06   2.793245e+06
  -4.616404e+06  -2.069558e+05
  -2.860958e+06  -2.167873e+06
   9.214717e+05  -1.872227e+06
   2.977600e+06  -4.784839e+04
   1.711909e+06   1.351468e+06
  -8.781598e+05   9.719626e+05
  -1.676317e+06  -5.539723e+05
  -1.772313e+03  -1.345998e+06
   1.796715e+06  -4.527733e+05
   1.255767e+06   1.130518e+06
  -1.288175e+06   1.671569e+06
  -3.080358e+06   4.384641e+05
  -1.968213e+06  -1.831837e+06
   1.391340e+06  -3.578115e+06
   4.306722e+06  -3.334465e+06
   4.674517e+06  -7.623863e+05
   2.716281e+06   2.671996e+06
   3.641887e+05   4.579680e+06
  -7.773782e+05   3.906593e+06
  -7.740140e+05   2.039279e+06
  -8.214858e+05   1.043439e+06
  -1.649074e+06   1.115017e+06
  -2.678728e+06   6.573788e+05
  -2.722981e+06  -1.140820e+06
  -1.288346e+06  -2.843529e+06
   8.660906e+05  -2.445755e+06
   2.271030e+06   6.987119e+04
   1.824901e+06   2.545832e+06
  -3.058314e+05   2.875130e+06
  -2.595910e+06   9.489658e+05
  -3.251845e+06  -1.544886e+06
  -1.838221e+06  -2.836686e+06
   2.361623e+05  -2.501326e+06
   1.234775e+06  -1.482783e+06
   1.057349e+06  -9.294621e+05
   1.190511e+06  -1.010326e+06
   2.549706e+06  -8.555450e+05
   3.947164e+06   3.597886e+05
   3.301279e+06   2.367933e+06
   2.310851e+05   3.886189e+06
  -3.137087e+06   3.689753e+06
  -4.185069e+06   1.677807e+06
  -2.386387e+06  -8.990794e+05
   2.986882e+05  -2.267538e+06
   1.457262e+06  -1.574633e+06
   4.713546e+05   2.186753e+05
  -1.188477e+06   1.150387e+06
  -1.676450e+06   3.231856e+05
  -6.263547e+05  -1.041079e+06
   6.668652e+05  -1.074993e+06
   7.409002e+05   3.224739e+05
  -5.178567e+05   1.207849e+06
  -1.813714e+06  -2.718489e+04
  -1.704654e+06  -2.540827e+06
   1.132717e+05  -3.830007e+06
   2.531855e+06  -2.441286e+06
   3.840593e+06   5.651602e+05
   3.029934e+06   2.822140e+06
   6.904559e+05   2.929958e+06
  -1.349480e+06   1.467472e+06
  -1.628696e+06   1.036673e+05
  -4.788044e+05  -4.393903e+04
   3.655775e+05   7.112941e+05
  -2.549104e+05   1.165504e+06
  -1.577898e+06   5.670259e+05
  -1.856691e+06  -5.994765e+05
  -5.148510e+05  -1.184722e+06
   1.062451e+06  -6.411614e+05
   1.060019e+06   4.103904e+05
  -6.853693e+05   8.417687e+05
  -2.404676e+06   1.035193e+05
  -2.204406e+06  -1.306662e+06
  -2.072194e+04  -2.260028e+06
   2.285821e+06  -1.892297e+06
   2.747586e+06  -3.714665e+05
   1.169876e+06   1.095624e+06
  -7.793007e+05   1.273789e+06
  -1.280283e+06   1.586965e+05
  -8.811059e+04  -9.158378e+05
   1.410921e+06  -6.833831e+05
   1.695704e+06   6.310635e+05
   5.493852e+05   1.580307e+06
  -8.851190e+05   1.173683e+06
  -1.295008e+06  -3.699217e+04
  -4.392759e+05  -6.780152e+05
   6.483534e+05  -1.072987e+05
   6.694326e+05   9.742244e+05
  -5.986050e+05   1.341113e+06
  -1.955193e+06   4.637521e+05
  -1.936447e+06  -1.037764e+06
  -3.871331e+05  -1.970718e+06
   1.300745e+06  -1.604049e+06
   1.641140e+06  -3.035374e+05
   5.838327e+05   7.956111e+05
  -5.856686e+05   8.443301e+05
  -7.327449e+05   6.475580e+04
   1.900767e+04  -5.677446e+05
   6.549347e+05  -4.213262e+05
   4.633500e+05   1.346130e+05
  -2.705437e+05   2.368273e+05
  -6.248689e+05  -4.085876e+05
   1.209844e+04  -1.120435e+06
   1.270687e+06  -9.357782e+05
   2.026709e+06   3.477300e+05
   1.430520e+06   1.861679e+06
  -1.966722e+05   2.408885e+06
  -1.599678e+06   1.551868e+06
  -1.819030e+06   9.384065e+03
  -1.083568e+06  -1.028056e+06
  -3.773285e+05  -1.004598e+06
  -2.669860e+05  -4.291430e+05
  -3.882856e+05  -2.052477e+05
  -6.903679e+04  -5.924002e+05
   7.736352e+05  -9.339418e+05
   1.463012e+06  -4.554392e+05
   1.203394e+06   7.452692e+05
  -1.259183e+05   1.629246e+06
  -1.701679e+06   1.206211e+06
  -2.286145e+06  -4.150931e+05
  -1.245896e+06  -2.010505e+06
   7.867231e+05  -2.317975e+06
   2.348477e+06  -1.167381e+06
   2.405495e+06   4.329586e+05
   1.218911e+06   1.303922e+06
  -5.628403e+04   1.164327e+06
  -5.482963e+05   7.087352e+05
  -3.665370e+05   6.986483e+05
  -2.299108e+05   1.089882e+06
  -5.896704e+05   1.129574e+06
  -1.167423e+06   2.795828e+05
  -1.271240e+06  -1.066329e+06
  -5.320727e+05  -1.863197e+06
   6.276327e+05  -1.411048e+06
   1.280896e+06  -4.405508e+04
   8.614285e+05   1.165577e+06
  -2.284222e+05   1.361733e+06
  -9.770977e+05   5.833195e+05
  -7.906883e+05  -4.143008e+05
  -7.475198e+04  -9.156484e+05
   2.923226e+05  -8.116003e+05
  -8.627726e+03  -5.049933e+05
  -3.813052e+05  -3.749977e+05
  -3.193878e+04  -3.948213e+05
   1.045003e+06  -2.470161e+05
   1.912847e+06   2.589447e+05
   1.592458e+06   9.253009e+05
   1.178643e+05   1.304771e+06
  -1.380724e+06   1.087275e+06
  -1.736874e+06   3.901401e+05
  -8.808978e+05  -2.925766e+05
   1.730723e+05  -4.743396e+05
   4.539282e+05  -1.156970e+05
  -2.022657e+04   2.969763e+05
  -4.921180e+05   2.184111e+05
  -4.505014e+05  -3.362799e+05
  -1.101713e+05  -7.411860e+05
   3.489906e+04  -4.727740e+05
  -1.546339e+05   1.884918e+05
  -3.850790e+05   4.018328e+05
  -2.986749e+05  -2.121055e+05
   2.052106e+05  -1.012443e+06
   8.695790e+05  -1.023575e+06
   1.168707e+06  -9.306870e+04
   6.768284e+05   8.917500e+05
  -3.975641e+05   9.900335e+05
  -1.133471e+06   2.062899e+05
  -6.981924e+05  -6.041904e+05
   6.531728e+05  -6.697867e+05
   1.628035e+06   1.304721e+04
   1.179540e+06   8.178389e+05
  -3.427758e+05   1.097797e+06
  -1.522002e+06   6.712241e+05
  -1.346937e+06  -8.705018e+04
  -2.043890e+05  -5.431180e+05
   6.267039e+05  -3.352776e+05
   3.381883e+05   2.432779e+05
  -6.361744e+05   4.467951e+05
  -1.148657e+06  -1.790585e+05
  -5.372230e+05  -1.211079e+06
   7.249337e+05  -1.621877e+06
   1.532524e+06  -7.785379e+05
   1.233325e+06   8.038792e+05
   1.771065e+05   1.809920e+06
  -7.450015e+05   1.357573e+06
  -9.509399e+05  -9.434108e+04
  -5.173776e+05  -1.181142e+06
   1.118907e+05  -1.035756e+06
   5.297095e+05  -1.331609e+05
   5.444323e+05   4.005947e+05
   2.509115e+05   1.716218e+05
   1.585193e+04  -1.251220e+05
   1.538038e+05   2.248944e+05
   4.603213e+05   9.342646e+05
   2.962240e+05   1.102784e+06
  -5.904388e+05   4.208250e+05
  -1.488537e+06  -4.704516e+05
  -1.377717e+06  -8.428532e+05
  -1.973223e+05  -6.761111e+05
   9.394103e+05  -4.003296e+05
   1.017207e+06  -2.113291e+05
   2.886615e+05  -3.694074e+03
  -1.796144e+05   2.128471e+05
   6.365037e+04   2.626442e+05
   3.692691e+05   1.617489e+05
   6.382711e+03   1.368358e+05
  -7.743612e+05   1.805350e+05
  -1.024214e+06  -5.278826e+04
  -2.651670e+05  -6.633539e+05
   9.463464e+05  -1.089629e+06
   1.617299e+06  -6.588521e+05
   1.259223e+06   4.958614e+05
   2.142022e+05   1.415073e+06
  -7.455380e+05   1.323326e+06
  -1.040870e+06   4.501272e+05
  -6.595498e+05  -2.983090e+05
  -8.307415e+04  -3.524697e+05
   1.580353e+05   3.149579e+03
  -5.125688e+04   8.942249e+04
  -3.453036e+05  -3.396412e+05
  -2.785194e+05  -8.071161e+05
   2.057262e+05  -6.481157e+05
   6.902353e+05   1.994116e+05
   6.556360e+05   1.017372e+06
  -9.830658e+03   1.006212e+06
  -8.044344e+05   1.355944e+05
  -9.785278e+05  -8.160029e+05
  -2.662053e+05  -1.075550e+06
   7.276138e+05  -5.881541e+05
   1.057531e+06   1.146135e+05
   4.669867e+05   5.438749e+05
  -2.812763e+05   5.797772e+05
  -2.995123e+05   3.436983e+05
   3.308710e+05   5.226603e+04
   6.668478e+05  -1.419034e+04
   1.116905e+05   2.883288e+05
  -8.285289e+05   6.741448e+05
  -1.184919e+06   5.897464e+05
  -6.700500e+05  -1.114002e+05
   1.131949e+05  -8.249243e+05
   4.801409e+05  -8.100136e+05
   3.326529e+05  -9.666291e+04
  -2.381395e+03   5.088684e+05
  -2.569068e+05   3.795456e+05
  -3.467728e+05  -2.291129e+05
  -2.307269e+05  -5.782228e+05
   7.510712e+04  -3.498870e+05
   3.812196e+05   8.424055e+04
   4.432937e+05   2.289188e+05
   2.412215e+05   5.024875e+04
   3.754832e+03  -8.542230e+04
  -8.826731e+04   8.283321e+04
  -1.054063e+05   3.938122e+05
  -2.064523e+05   4.485541e+05
  -3.596165e+05   6.573452e+04
  -3.382495e+05  -4.693836e+05
  -5.594188e+03  -6.477282e+05
   4.468397e+05  -2.638149e+05
   5.982075e+05   3.362994e+05
   2.000124e+05   6.013099e+05
  -4.846123e+05   3.438267e+05
  -8.246358e+05  -1.215014e+05
  -4.450242e+05  -3.825603e+05
   2.939503e+05  -3.331708e+05
   6.112967e+05  -1.448905e+05
   1.865347e+05  -5.437188e+03
  -4.255772e+05  -6.392910e+03
  -4.307115e+05  -1.592188e+05
   2.447593e+05  -3.331566e+05
   8.555979e+05  -2.457633e+05
