
 $NMID
 id='ANONYMOUS ', fmtdat='(2E16.6)'
 volume=1.0
 tramp=1.0
 $END
  -4.832866e+07  -1.314729e+06
  -2.847029e+07  -2.962138e+07
   6.476817e+06  -3.203915e+07
   2.339142e+07  -1.290193e+07
   1.418751e+07   5.187611e+06
  -2.515730e+06   7.912731e+06
  -8.454833e+06  -4.800879e+05
  -2.845545e+06  -8.222015e+06
   4.957078e+06  -8.538681e+06
   8.317452e+06  -2.108808e+06
   6.144044e+06   5.577546e+06
   6.107996e+05   7.793205e+06
  -3.695767e+06   2.256051e+06
  -2.471828e+06  -5.236833e+06
   3.191390e+06  -6.141196e+06
   6.854169e+06   9.894516e+05
   3.916934e+06   8.891372e+06
  -3.298551e+06   1.026398e+07
  -8.853616e+06   4.938476e+06
  -9.268068e+06  -2.154118e+06
  -5.276112e+06  -6.680903e+06
  -1.385775e+05  -7.182235e+06
   2.398996e+06  -4.719596e+06
   8.871682e+05  -2.274876e+06
  -1.563755e+06  -2.471439e+06
  -7.470836e+04  -4.307130e+06
   5.448847e+06  -3.958250e+06
   9.080055e+06  -4.211129e+04
   6.208913e+06   4.061664e+06
  -2.980639e+05   4.607457e+06
  -3.892735e+06   2.042321e+06
  -2.341715e+06  -5.423033e+05
   1.056456e+06  -1.378657e+06
   2.775718e+06  -4.547963e+05
   2.221396e+06   1.840795e+06
   2.810780e+05   3.997020e+06
  -1.903635e+06   3.286192e+06
  -2.627000e+06  -5.723600e+05
  -1.026521e+06  -3.303486e+06
   8.494156e+05  -1.219368e+06
   1.206519e+05   2.709906e+06
  -2.313994e+06   2.260002e+06
  -2.204794e+06  -2.723947e+06
   1.880285e+06  -5.225124e+06
   5.625263e+06  -7.881766e+05
   4.175956e+06   5.925996e+06
  -1.656941e+06   7.208591e+06
  -6.473374e+06   1.972646e+06
  -6.315171e+06  -3.960653e+06
  -1.886319e+06  -5.452094e+06
   3.090804e+06  -2.637550e+06
   4.942812e+06   1.167596e+06
   2.433129e+06   3.048780e+06
  -2.008044e+06   1.990885e+06
  -3.995198e+06  -7.416008e+05
  -1.771997e+06  -2.333017e+06
   1.500446e+06  -1.198158e+06
   1.675964e+06   8.881454e+05
  -9.163683e+05   9.444822e+05
  -2.120734e+06  -1.166928e+06
   2.406315e+05  -2.646503e+06
   3.664174e+06  -1.610304e+06
   4.508687e+06   9.757263e+05
   2.063759e+06   3.352007e+06
  -1.755794e+06   4.717809e+06
  -4.833104e+06   4.349815e+06
  -5.764247e+06   1.384553e+06
  -4.000566e+06  -3.095479e+06
  -6.918644e+05  -5.703233e+06
   1.583464e+06  -4.410602e+06
   1.406701e+06  -1.363491e+06
   2.441457e+05  -1.483530e+05
   4.100549e+05  -1.131337e+06
   1.955740e+06  -1.557913e+06
   2.868654e+06   1.278665e+05
   1.889221e+06   2.212996e+06
  -1.898208e+05   2.282879e+06
  -1.766821e+06   1.888717e+05
  -1.756236e+06  -2.176299e+06
   7.198528e+04  -2.923005e+06
   2.742284e+06  -1.450503e+06
   4.129553e+06   1.340886e+06
   2.764470e+06   3.551206e+06
  -1.919597e+05   3.725204e+06
  -2.038708e+06   2.288043e+06
  -1.892793e+06   9.968298e+05
  -1.610976e+06   7.325141e+05
  -2.781880e+06   5.708984e+05
  -4.182079e+06  -6.464180e+05
  -3.397184e+06  -2.630703e+06
  -1.627073e+05  -4.028075e+06
   3.160228e+06  -3.832643e+06
   4.172720e+06  -2.009620e+06
   2.606325e+06   5.578954e+05
   1.310100e+05   2.274586e+06
  -1.212813e+06   1.855864e+06
  -5.528313e+05  -9.445257e+04
   1.118481e+06  -1.276279e+06
   1.845293e+06  -3.670135e+05
   8.313704e+05   1.177096e+06
  -5.610868e+05   1.114182e+06
  -5.146933e+05  -3.491089e+05
   8.748980e+05  -8.040815e+05
   1.757369e+06   9.308837e+05
   8.787050e+05   3.133473e+06
  -1.140629e+06   3.407823e+06
  -2.859152e+06   1.434833e+06
  -3.372814e+06  -1.148273e+06
  -2.477674e+06  -2.698425e+06
  -5.481788e+05  -2.662560e+06
   1.256090e+06  -1.469404e+06
   1.591675e+06  -2.018714e+05
   4.861400e+05   4.555428e+04
  -3.607404e+05  -7.386396e+05
   3.780451e+05  -1.284668e+06
   1.817348e+06  -5.591472e+05
   1.968177e+06   8.184236e+05
   4.062215e+05   1.348572e+06
  -1.138811e+06   5.890334e+05
  -9.360012e+05  -4.282646e+05
   7.756138e+05  -5.982820e+05
   2.202222e+06   1.810171e+05
   1.859993e+06   1.298223e+06
  -1.495150e+05   2.020898e+06
  -2.271853e+06   1.717001e+06
  -2.750423e+06   3.041168e+05
  -1.192616e+06  -1.220289e+06
   8.946075e+05  -1.433948e+06
   1.488521e+06  -1.647118e+05
   1.639459e+05   1.046896e+06
  -1.489733e+06   7.210537e+05
  -1.702163e+06  -7.393122e+05
  -3.887891e+05  -1.617104e+06
   1.024354e+06  -1.013682e+06
   1.249190e+06   2.384637e+05
   2.896557e+05   7.451670e+05
  -7.569922e+05   6.584218e+04
  -7.224963e+05  -1.031164e+06
   5.754529e+05  -1.406652e+06
   1.991854e+06  -5.301538e+05
   2.010344e+06   1.041708e+06
   3.843661e+05   2.042852e+06
  -1.400594e+06   1.624220e+06
  -1.695141e+06   2.290623e+05
  -5.175715e+05  -8.461665e+05
   6.373455e+05  -8.112912e+05
   6.614417e+05  -8.129852e+04
  -7.479718e+04   4.085165e+05
  -5.146424e+05   2.784582e+05
  -2.146043e+05  -5.569335e+04
   3.771012e+05   8.546300e+03
   5.249834e+05   5.917618e+05
  -1.563049e+05   1.151277e+06
  -1.341587e+06   9.000714e+05
  -2.057974e+06  -3.904988e+05
  -1.454377e+06  -1.912865e+06
   2.032212e+05  -2.409312e+06
   1.592472e+06  -1.446013e+06
   1.706205e+06   7.904997e+04
   9.194398e+05   9.081387e+05
   3.544271e+05   7.309096e+05
   4.371971e+05   2.814612e+05
   5.590936e+05   2.968806e+05
   7.695657e+04   7.167453e+05
  -8.391491e+05   8.994427e+05
  -1.431625e+06   3.630472e+05
  -1.085137e+06  -7.066891e+05
   1.998040e+05  -1.485131e+06
   1.693938e+06  -1.106870e+06
   2.245410e+06   4.518302e+05
   1.160560e+06   2.058690e+06
  -9.449690e+05   2.336217e+06
  -2.473989e+06   1.058388e+06
  -2.344212e+06  -5.903071e+05
  -1.019322e+06  -1.305806e+06
   1.510151e+05  -9.869975e+05
   4.115009e+05  -5.687510e+05
   1.491458e+05  -7.564596e+05
   1.436600e+05  -1.258017e+06
   6.543144e+05  -1.242493e+06
   1.259986e+06  -3.049907e+05
   1.320881e+06   1.072112e+06
   5.551395e+05   1.880320e+06
  -6.171805e+05   1.429744e+06
  -1.278176e+06   1.428455e+04
  -8.197412e+05  -1.244091e+06
   3.464041e+05  -1.374292e+06
   1.100671e+06  -4.404050e+05
   7.880532e+05   6.236325e+05
  -8.018023e+04   1.020629e+06
  -4.699419e+05   7.737057e+05
  -5.529662e+04   4.308857e+05
   4.220335e+05   3.444780e+05
   5.527716e+04   3.847572e+05
  -1.114730e+06   2.163938e+05
  -2.014748e+06  -3.127421e+05
  -1.603111e+06  -1.000041e+06
   1.172599e+03  -1.389617e+06
   1.531680e+06  -1.118393e+06
   1.794912e+06  -3.052007e+05
   8.321359e+05   4.381553e+05
  -2.422624e+05   5.396789e+05
  -4.902361e+05   5.174877e+04
  -1.210920e+04  -3.916069e+05
   4.537672e+05  -2.514413e+05
   4.726571e+05   3.391639e+05
   2.230442e+05   7.311702e+05
   6.697088e+04   4.833396e+05
   1.337592e+05  -1.172265e+05
   2.932289e+05  -3.252061e+05
   2.793321e+05   2.214053e+05
  -1.471422e+05   9.912808e+05
  -8.838160e+05   1.055771e+06
  -1.315917e+06   1.533623e+05
  -8.132124e+05  -9.108033e+05
   4.116908e+05  -1.102551e+06
   1.230560e+06  -3.062911e+05
   7.275900e+05   5.756935e+05
  -6.841257e+05   6.504119e+05
  -1.585380e+06  -6.808229e+04
  -1.040113e+06  -8.342973e+05
   4.403158e+05  -1.001356e+06
   1.483331e+06  -5.262118e+05
   1.246917e+06   1.550480e+05
   1.527961e+05   5.134596e+05
  -6.374699e+05   2.842474e+05
  -3.726665e+05  -2.833481e+05
   5.946119e+05  -5.126565e+05
   1.179317e+06   9.418466e+04
   6.527426e+05   1.187007e+06
  -6.076560e+05   1.694032e+06
  -1.489217e+06   8.752576e+05
  -1.255577e+06  -7.571376e+05
  -2.098283e+05  -1.789856e+06
   7.269888e+05  -1.307105e+06
   9.232750e+05   1.533956e+05
   4.526777e+05   1.178387e+06
  -1.891336e+05   9.733941e+05
  -5.510945e+05   9.477257e+04
  -4.826855e+05  -3.724721e+05
  -1.816708e+05  -1.367124e+05
  -4.079734e+04   9.850032e+04
  -2.553948e+05  -2.882821e+05
  -5.044030e+05  -9.582139e+05
  -2.163372e+05  -1.072466e+06
   6.879986e+05  -3.952984e+05
   1.476571e+06   4.542462e+05
   1.298251e+06   8.210152e+05
   1.897882e+05   6.906397e+05
  -8.624756e+05   4.262801e+05
  -9.834450e+05   1.951891e+05
  -3.455242e+05  -4.609632e+04
   1.498232e+05  -2.263053e+05
   1.628884e+04  -2.068495e+05
  -2.844320e+05  -9.478683e+04
  -4.625293e+04  -1.354497e+05
   6.770031e+05  -2.406458e+05
   1.044171e+06   9.055177e+03
   4.136012e+05   6.934789e+05
  -8.489194e+05   1.177607e+06
  -1.684622e+06   7.520064e+05
  -1.396334e+06  -4.353203e+05
  -2.802478e+05  -1.405274e+06
   7.529300e+05  -1.371710e+06
   1.046341e+06  -5.360029e+05
   6.611019e+05   2.327279e+05
   1.310765e+05   3.587614e+05
  -8.414491e+04   6.451818e+04
   7.266282e+04  -2.411465e+04
   3.068547e+05   3.579668e+05
   2.581588e+05   8.024174e+05
  -1.770951e+05   6.784374e+05
  -6.874714e+05  -1.212270e+05
  -7.432433e+05  -9.541699e+05
  -1.120376e+05  -1.033799e+06
   7.610751e+05  -2.476807e+05
   1.041054e+06   7.206026e+05
   3.507838e+05   1.087188e+06
  -7.110230e+05   6.763466e+05
  -1.113688e+06  -6.963276e+04
  -5.270434e+05  -6.027790e+05
   2.842220e+05  -6.705756e+05
   3.687315e+05  -3.645092e+05
  -2.567589e+05  -5.359108e+03
  -6.504952e+05   4.522064e+04
  -1.452595e+05  -3.060619e+05
   8.171509e+05  -6.858312e+05
   1.241470e+06  -5.517988e+05
   7.504588e+05   1.692150e+05
  -9.113035e+04   8.658330e+05
  -5.386704e+05   8.517800e+05
  -4.192482e+05   1.550317e+05
  -5.623803e+04  -4.832475e+05
   2.385293e+05  -4.337139e+05
   3.575409e+05   1.494510e+05
   2.583826e+05   5.746287e+05
  -5.419068e+04   4.224761e+05
  -3.924684e+05  -4.361831e+04
  -4.721989e+05  -2.728801e+05
  -2.399927e+05  -9.019886e+04
   2.928737e+04   1.470621e+05
   7.563414e+04   3.276185e+04
  -1.014093e+04  -3.627979e+05
   6.077149e+04  -5.520619e+05
   3.280298e+05  -2.136205e+05
   4.590680e+05   3.866245e+05
   1.539735e+05   6.537454e+05
  -4.091581e+05   3.178478e+05
  -6.655469e+05  -2.783976e+05
  -2.587146e+05  -5.741306e+05
   5.017320e+05  -3.681647e+05
   8.809471e+05   7.087570e+04
   4.809665e+05   3.734299e+05
  -2.925079e+05   3.990848e+05
  -6.386011e+05   2.286991e+05
  -2.467229e+05   1.644520e+04
   3.540830e+05  -7.324187e+04
   4.149376e+05   6.262033e+04
  -1.658977e+05   2.999844e+05
  -7.462780e+05   2.857804e+05
