
 $NMID
 id='ANONYMOUS ', fmtdat='(2E16.6)'
 volume=1.0
 tramp=1.0
 $END
   3.720539e+07  -1.326599e+06
   2.455263e+07   1.939386e+07
  -1.469175e+06   2.457961e+07
  -1.683155e+07   1.346466e+07
  -1.249687e+07  -1.040643e+06
   3.852697e+05  -6.564317e+06
   7.128740e+06  -1.610466e+06
   4.112647e+06   6.179681e+06
  -2.679736e+06   8.509888e+06
  -6.690022e+06   3.274738e+06
  -5.530677e+06  -4.336989e+06
  -8.513164e+05  -6.813781e+06
   3.096489e+06  -1.811185e+06
   2.466685e+06   5.079706e+06
  -2.197854e+06   6.185040e+06
  -5.819551e+06   1.444904e+05
  -4.095567e+06  -6.977104e+06
   1.799320e+06  -8.707141e+06
   6.793752e+06  -4.428323e+06
   7.261555e+06   1.527873e+06
   3.874859e+06   4.943884e+06
   1.445007e+05   4.855195e+06
  -8.488344e+05   3.147007e+06
   9.152606e+05   2.392358e+06
   2.164585e+06   3.488634e+06
  -3.647091e+05   4.662893e+06
  -5.596197e+06   3.375839e+06
  -8.349684e+06  -3.937444e+05
  -5.220418e+06  -3.657676e+06
   9.141023e+05  -3.738196e+06
   4.026186e+06  -1.150577e+06
   1.869363e+06   1.399377e+06
  -2.156370e+06   1.865572e+06
  -3.743145e+06   6.705824e+04
  -2.139881e+06  -2.680491e+06
   4.372338e+05  -4.114726e+06
   1.848637e+06  -2.502580e+06
   1.502476e+06   9.816173e+05
   1.702239e+05   2.504865e+06
  -5.643049e+05   7.370868e+04
   4.316181e+05  -3.138545e+06
   2.214263e+06  -2.398267e+06
   2.237549e+06   1.959957e+06
  -5.314270e+05   4.369272e+06
  -3.633240e+06   1.275869e+06
  -3.462368e+06  -4.040447e+06
   5.500909e+05  -5.601722e+06
   5.014281e+06  -1.912338e+06
   5.916157e+06   3.029929e+06
   2.398601e+06   4.860183e+06
  -2.592193e+06   2.905780e+06
  -4.932158e+06  -4.576427e+05
  -2.887562e+06  -2.514850e+06
   1.285417e+06  -2.030580e+06
   3.454777e+06   1.367475e+05
   1.850477e+06   1.702036e+06
  -1.095894e+06   1.116942e+06
  -1.758006e+06  -6.599420e+05
   2.978154e+05  -1.288273e+06
   2.016193e+06   3.808828e+04
   8.630954e+05   1.710054e+06
  -2.115008e+06   1.806844e+06
  -3.717223e+06   6.941740e+04
  -2.150733e+06  -2.381794e+06
   1.477877e+06  -4.132262e+06
   4.566234e+06  -3.886468e+06
   5.188855e+06  -1.106686e+06
   3.307171e+06   2.834246e+06
   5.951106e+05   5.116057e+06
  -1.002008e+06   4.262631e+06
  -1.007443e+06   1.922528e+06
  -6.724033e+05   7.768308e+05
  -1.277723e+06   1.147434e+06
  -2.496860e+06   1.001252e+06
  -2.857885e+06  -7.967943e+05
  -1.561842e+06  -2.697143e+06
   6.368273e+05  -2.472340e+06
   2.176400e+06  -3.373105e+04
   1.896158e+06   2.488982e+06
  -1.921201e+05   2.995076e+06
  -2.711218e+06   1.198277e+06
  -3.687587e+06  -1.456232e+06
  -2.287067e+06  -3.127743e+06
   1.528703e+05  -3.012232e+06
   1.505825e+06  -1.856103e+06
   1.364820e+06  -1.030389e+06
   1.371933e+06  -9.855452e+05
   2.720474e+06  -8.362084e+05
   4.189632e+06   4.046626e+05
   3.501791e+06   2.493674e+06
   2.791360e+05   4.078448e+06
  -3.203344e+06   3.923880e+06
  -4.302136e+06   1.915709e+06
  -2.552351e+06  -7.734347e+05
   1.299565e+05  -2.344893e+06
   1.394942e+06  -1.743428e+06
   5.147644e+05   1.735460e+05
  -1.186925e+06   1.250635e+06
  -1.788068e+06   3.813899e+05
  -7.391543e+05  -1.108438e+06
   6.361661e+05  -1.134453e+06
   6.957877e+05   3.384207e+05
  -6.520701e+05   1.133661e+06
  -1.889781e+06  -3.095037e+05
  -1.545502e+06  -2.836937e+06
   4.201018e+05  -3.864558e+06
   2.732469e+06  -2.240768e+06
   3.854390e+06   7.403526e+05
   2.996363e+06   2.857829e+06
   7.039872e+05   2.943664e+06
  -1.346668e+06   1.541114e+06
  -1.672767e+06   1.649647e+05
  -5.002745e+05  -3.825016e+04
   3.886534e+05   7.412766e+05
  -2.847572e+05   1.255982e+06
  -1.708476e+06   6.163996e+05
  -1.978411e+06  -6.633341e+05
  -5.203578e+05  -1.277910e+06
   1.118275e+06  -6.643320e+05
   1.062225e+06   4.194614e+05
  -7.377838e+05   8.022812e+05
  -2.433426e+06   3.915578e+04
  -2.188952e+06  -1.331036e+06
   1.021409e+04  -2.268394e+06
   2.343705e+06  -1.937436e+06
   2.847749e+06  -4.044959e+05
   1.242106e+06   1.159539e+06
  -8.223039e+05   1.390633e+06
  -1.395202e+06   1.932152e+05
  -1.350024e+05  -9.895484e+05
   1.478059e+06  -7.448626e+05
   1.773523e+06   6.650277e+05
   5.408389e+05   1.647582e+06
  -9.514231e+05   1.180596e+06
  -1.333423e+06  -8.780047e+04
  -4.168920e+05  -7.223868e+05
   7.081472e+05  -1.085734e+05
   7.270319e+05   1.018938e+06
  -5.925555e+05   1.421012e+06
  -2.032249e+06   5.328445e+05
  -2.049388e+06  -1.047156e+06
  -4.324433e+05  -2.063040e+06
   1.358053e+06  -1.693657e+06
   1.718168e+06  -3.170424e+05
   5.970801e+05   8.342850e+05
  -6.123016e+05   8.742592e+05
  -7.331263e+05   8.197431e+04
   3.600144e+04  -5.356750e+05
   6.300057e+05  -3.926977e+05
   3.949537e+05   1.142883e+05
  -3.220819e+05   1.693022e+05
  -6.265717e+05  -4.809686e+05
   4.448119e+04  -1.178391e+06
   1.330457e+06  -9.798713e+05
   2.120189e+06   3.446442e+05
   1.521660e+06   1.927271e+06
  -1.699388e+05   2.502847e+06
  -1.636823e+06   1.598321e+06
  -1.851761e+06   4.123138e+03
  -1.081288e+06  -1.014270e+06
  -3.915778e+05  -9.444466e+05
  -3.374383e+05  -3.864182e+05
  -4.669894e+05  -2.340136e+05
  -8.672852e+04  -6.568265e+05
   8.130499e+05  -9.716764e+05
   1.504807e+06  -4.617663e+05
   1.219226e+06   7.469807e+05
  -1.363135e+05   1.646573e+06
  -1.749093e+06   1.242904e+06
  -2.365934e+06  -4.108116e+05
  -1.294769e+06  -2.086471e+06
   8.352533e+05  -2.427312e+06
   2.465007e+06  -1.212771e+06
   2.485892e+06   4.682606e+05
   1.216411e+06   1.340713e+06
  -7.825491e+04   1.151177e+06
  -5.157833e+05   6.920462e+05
  -2.941023e+05   7.439079e+05
  -1.877748e+05   1.189158e+06
  -6.134672e+05   1.221276e+06
  -1.237849e+06   3.189530e+05
  -1.352047e+06  -1.087838e+06
  -5.883224e+05  -1.930267e+06
   6.258186e+05  -1.479370e+06
   1.327957e+06  -5.460268e+04
   8.990438e+05   1.224379e+06
  -2.564841e+05   1.423858e+06
  -1.051181e+06   5.744701e+05
  -8.315316e+05  -4.897061e+05
  -4.121080e+04  -9.891458e+05
   3.529525e+05  -8.383030e+05
   7.173698e+03  -5.001883e+05
  -4.147335e+05  -3.721167e+05
  -4.681168e+04  -4.055725e+05
   1.105779e+06  -2.634860e+05
   2.025498e+06   2.559819e+05
   1.671888e+06   9.617211e+05
   1.031333e+05   1.384137e+06
  -1.467211e+06   1.163415e+06
  -1.818283e+06   4.035128e+05
  -9.055126e+05  -3.413372e+05
   1.944331e+05  -5.191217e+05
   4.836016e+05  -1.059765e+05
  -2.694484e+03   3.404574e+05
  -4.934495e+05   2.449080e+05
  -4.806020e+05  -3.424710e+05
  -1.641897e+05  -7.612817e+05
  -6.221911e+03  -4.920549e+05
  -1.526459e+05   1.731205e+05
  -3.645311e+05   3.937954e+05
  -3.068053e+05  -2.201424e+05
   1.789342e+05  -1.045504e+06
   8.917199e+05  -1.086445e+06
   1.260555e+06  -1.381033e+05
   7.629032e+05   9.184686e+05
  -3.997716e+05   1.072328e+06
  -1.203986e+06   2.679815e+05
  -7.431423e+05  -6.059577e+05
   6.788387e+05  -6.992793e+05
   1.676724e+06   8.824245e+03
   1.189243e+06   8.403847e+05
  -3.751777e+05   1.114198e+06
  -1.560058e+06   6.688399e+05
  -1.366625e+06  -9.609598e+04
  -2.017924e+05  -5.517096e+05
   6.501791e+05  -3.400094e+05
   3.672095e+05   2.601734e+05
  -6.375566e+05   4.944857e+05
  -1.202834e+06  -1.387688e+05
  -6.146308e+05  -1.237378e+06
   6.856503e+05  -1.715708e+06
   1.561202e+06  -8.632545e+05
   1.298571e+06   7.988770e+05
   2.219667e+05   1.867904e+06
  -7.477780e+05   1.402354e+06
  -9.803296e+05  -1.046172e+05
  -5.323010e+05  -1.218713e+06
   1.288370e+05  -1.056963e+06
   5.560628e+05  -1.332847e+05
   5.489317e+05   3.995477e+05
   2.381168e+05   1.640800e+05
   2.370427e+04  -1.215793e+05
   1.994218e+05   2.502345e+05
   5.074709e+05   9.695545e+05
   2.958534e+05   1.131384e+06
  -6.404514e+05   4.393001e+05
  -1.547264e+06  -4.604058e+05
  -1.414609e+06  -8.484039e+05
  -2.127471e+05  -7.039604e+05
   9.417906e+05  -4.366533e+05
   1.041268e+06  -2.282274e+05
   3.203675e+05   7.494183e+03
  -1.724663e+05   2.274671e+05
   4.123913e+04   2.545730e+05
   3.547087e+05   1.416277e+05
   2.213517e+04   1.404861e+05
  -7.659838e+05   2.170851e+05
  -1.069331e+06  -2.392860e+04
  -3.368830e+05  -6.909574e+05
   9.298606e+05  -1.172720e+06
   1.689127e+06  -7.418353e+05
   1.359860e+06   4.712957e+05
   2.660748e+05   1.460273e+06
  -7.551895e+05   1.401342e+06
  -1.073201e+06   5.123036e+05
  -6.877236e+05  -2.772376e+05
  -1.079930e+05  -3.654891e+05
   1.369907e+05  -2.041175e+04
  -6.089839e+04   7.166513e+04
  -3.506328e+05  -3.545905e+05
  -2.939115e+05  -8.322036e+05
   1.931330e+05  -6.851617e+05
   7.161752e+05   1.698297e+05
   7.240713e+05   1.021827e+06
   4.758823e+04   1.050596e+06
  -8.149114e+05   1.902826e+05
  -1.046832e+06  -7.976016e+05
  -3.218635e+05  -1.113997e+06
   7.383089e+05  -6.512377e+05
   1.117361e+06   8.619040e+04
   5.148443e+05   5.761780e+05
  -2.820136e+05   6.371226e+05
  -3.289272e+05   3.699141e+05
   3.175831e+05   3.489997e+04
   6.854823e+05  -3.499885e+04
   1.322656e+05   3.028266e+05
  -8.454004e+05   7.158075e+05
  -1.241105e+06   6.182537e+05
  -7.261295e+05  -1.233045e+05
   9.635527e+04  -8.712446e+05
   5.051015e+05  -8.636827e+05
   3.720960e+05  -1.275944e+05
   2.473655e+04   5.178558e+05
  -2.532316e+05   4.159423e+05
  -3.650516e+05  -2.048722e+05
  -2.575757e+05  -5.946520e+05
   6.364313e+04  -3.886629e+05
   3.996943e+05   6.740336e+04
   4.745102e+05   2.452232e+05
   2.516979e+05   6.225587e+04
  -1.027560e+04  -1.090478e+05
  -8.892216e+04   4.723344e+04
  -6.449861e+04   3.966619e+05
  -1.547482e+05   5.004998e+05
  -3.575837e+05   1.237216e+05
  -3.975650e+05  -4.504654e+05
  -6.675866e+04  -6.704284e+05
   4.454320e+05  -2.981503e+05
   6.475733e+05   3.183979e+05
   2.360988e+05   6.102042e+05
  -5.030318e+05   3.729029e+05
  -8.756704e+05  -9.485428e+04
  -4.796982e+05  -3.862314e+05
   2.978230e+05  -3.727801e+05
   6.393951e+05  -1.891173e+05
   2.139273e+05  -1.383636e+04
  -4.150473e+05   2.534033e+04
  -4.414482e+05  -1.258536e+05
   2.226557e+05  -3.359639e+05
   8.455225e+05  -2.789426e+05
