
 $NMID
 id='ANONYMOUS ', fmtdat='(2E16.6)'
 volume=1.0
 tramp=1.0
 $END
   5.431206e+07   2.236177e+06
   3.111024e+07   3.474562e+07
  -8.641607e+06   3.622069e+07
  -2.688442e+07   1.308418e+07
  -1.541820e+07  -7.153583e+06
   3.463780e+06  -8.752023e+06
   9.280528e+06   1.420845e+06
   2.367385e+06   9.355828e+06
  -6.117103e+06   8.761433e+06
  -9.260492e+06   1.650529e+06
  -6.565183e+06  -6.211648e+06
  -5.457170e+05  -8.368344e+06
   3.987777e+06  -2.527085e+06
   2.474651e+06   5.370080e+06
  -3.741006e+06   6.232509e+06
  -7.496600e+06  -1.515677e+06
  -3.949299e+06  -9.956614e+06
   4.026102e+06  -1.122864e+07
   9.963305e+06  -5.331933e+06
   1.038038e+07   2.414072e+06
   6.077361e+06   7.540090e+06
   2.411208e+05   8.373743e+06
  -3.078675e+06   5.610968e+06
  -1.758247e+06   2.385017e+06
   1.212161e+06   2.103678e+06
   2.102820e+05   4.171937e+06
  -5.447568e+06   4.217277e+06
  -9.502269e+06   2.218824e+05
  -6.744247e+06  -4.266544e+06
  -2.575633e+04  -5.007710e+06
   3.811373e+06  -2.440673e+06
   2.517530e+06   1.286981e+05
  -6.022425e+05   1.082950e+06
  -2.346541e+06   5.538816e+05
  -2.238141e+06  -1.494732e+06
  -5.971345e+05  -3.969223e+06
   1.928052e+06  -3.704526e+06
   3.164517e+06   3.214773e+05
   1.473203e+06   3.663659e+06
  -9.253542e+05   1.777820e+06
  -3.254894e+05  -2.512894e+06
   2.426778e+06  -2.217538e+06
   2.254329e+06   3.128082e+06
  -2.515926e+06   5.758087e+06
  -6.660679e+06   6.533840e+05
  -4.627820e+06  -6.866161e+06
   2.159090e+06  -8.103569e+06
   7.253041e+06  -2.060514e+06
   6.608336e+06   4.479878e+06
   1.666268e+06   5.853584e+06
  -3.396566e+06   2.557896e+06
  -5.050056e+06  -1.547547e+06
  -2.281929e+06  -3.379423e+06
   2.364135e+06  -2.029380e+06
   4.323574e+06   1.016419e+06
   1.794267e+06   2.659654e+06
  -1.697267e+06   1.262037e+06
  -1.669192e+06  -1.015076e+06
   1.232864e+06  -8.241563e+05
   2.255275e+06   1.707914e+06
  -7.124177e+05   3.171970e+06
  -4.455973e+06   1.606626e+06
  -5.003100e+06  -1.456896e+06
  -2.091499e+06  -3.874326e+06
   1.917786e+06  -5.071086e+06
   5.045581e+06  -4.613359e+06
   6.116813e+06  -1.523271e+06
   4.375750e+06   3.252649e+06
   7.446421e+05   6.060553e+06
  -1.894211e+06   4.576460e+06
  -1.659977e+06   1.154942e+06
  -1.043676e+05  -1.579296e+05
  -3.906409e+04   1.077012e+06
  -1.712882e+06   1.772721e+06
  -2.862431e+06   1.494804e+05
  -2.012479e+06  -2.008966e+06
   1.164944e+04  -2.188432e+06
   1.583434e+06  -2.226764e+05
   1.673543e+06   2.078001e+06
  -4.203716e+04   2.917148e+06
  -2.786018e+06   1.568100e+06
  -4.375852e+06  -1.309881e+06
  -3.029393e+06  -3.792070e+06
   1.944792e+05  -4.116121e+06
   2.310271e+06  -2.545760e+06
   2.183026e+06  -1.018716e+06
   1.773419e+06  -6.277093e+05
   2.876058e+06  -4.313059e+05
   4.252332e+06   8.117148e+05
   3.385383e+06   2.773394e+06
   6.963295e+04   4.071788e+06
  -3.230294e+06   3.812748e+06
  -4.185058e+06   2.037576e+06
  -2.646730e+06  -4.803788e+05
  -2.302980e+05  -2.254197e+06
   1.146747e+06  -1.913924e+06
   5.665654e+05   5.390336e+04
  -1.107338e+06   1.286650e+06
  -1.892847e+06   3.559618e+05
  -8.800874e+05  -1.218981e+06
   5.338758e+05  -1.106770e+06
   4.255866e+05   3.706502e+05
  -1.017907e+06   6.600891e+05
  -1.745710e+06  -1.263367e+06
  -5.701715e+05  -3.368621e+06
   1.549834e+06  -3.280489e+06
   3.025300e+06  -1.063658e+06
   3.219845e+06   1.415237e+06
   2.242976e+06   2.719085e+06
   4.420324e+05   2.586622e+06
  -1.251463e+06   1.443174e+06
  -1.577184e+06   2.064957e+05
  -4.881584e+05  -5.270795e+04
   3.434918e+05   7.505183e+05
  -4.363846e+05   1.313531e+06
  -1.897091e+06   5.289488e+05
  -1.987472e+06  -9.151232e+05
  -3.510492e+05  -1.401135e+06
   1.166722e+06  -5.457422e+05
   8.766169e+05   4.541236e+05
  -8.291371e+05   4.991852e+05
  -2.138287e+06  -3.294269e+05
  -1.715695e+06  -1.342826e+06
   2.536745e+05  -1.940573e+06
   2.300641e+06  -1.612221e+06
   2.752719e+06  -2.330005e+05
   1.181089e+06   1.275320e+06
  -9.465020e+05   1.469382e+06
  -1.552291e+06   1.498748e+05
  -1.741115e+05  -1.082452e+06
   1.520414e+06  -7.049342e+05
   1.687871e+06   8.018122e+05
   3.082258e+05   1.634088e+06
  -1.086842e+06   9.430090e+05
  -1.228508e+06  -3.256940e+05
  -2.265621e+05  -7.687926e+05
   7.899221e+05  -3.421397e+04
   7.136152e+05   1.062086e+06
  -5.969833e+05   1.410510e+06
  -2.009131e+06   5.099639e+05
  -2.009968e+06  -1.077784e+06
  -3.470800e+05  -2.068683e+06
   1.457593e+06  -1.605389e+06
   1.714122e+06  -1.790966e+05
   4.820489e+05   8.664142e+05
  -6.644026e+05   7.848613e+05
  -6.314348e+05   7.325901e+04
   1.106127e+05  -3.500961e+05
   4.778323e+05  -2.099381e+05
   1.240857e+05   4.538513e+04
  -4.255008e+05  -9.484371e+04
  -4.882813e+05  -6.696142e+05
   2.271188e+05  -1.165243e+06
   1.384773e+06  -8.637319e+05
   2.060220e+06   4.440900e+05
   1.425442e+06   1.954946e+06
  -2.489326e+05   2.402763e+06
  -1.616057e+06   1.380107e+06
  -1.668207e+06  -1.413527e+05
  -8.467097e+05  -8.876491e+05
  -3.281176e+05  -6.462575e+05
  -4.856459e+05  -2.363683e+05
  -6.136086e+05  -3.354366e+05
  -6.940171e+04  -7.632376e+05
   8.818583e+05  -8.765910e+05
   1.435298e+06  -3.026444e+05
   1.033199e+06   7.222520e+05
  -2.590422e+05   1.437768e+06
  -1.717671e+06   1.039812e+06
  -2.222925e+06  -5.093273e+05
  -1.091368e+06  -2.096609e+06
   1.041170e+06  -2.324071e+06
   2.534555e+06  -9.767274e+05
   2.312623e+06   6.864610e+05
   9.266862e+05   1.327420e+06
  -2.055581e+05   9.252976e+05
  -3.795602e+05   5.097734e+05
  -8.822739e+04   7.663719e+05
  -1.323454e+05   1.307922e+06
  -6.942410e+05   1.268479e+06
  -1.293922e+06   2.923079e+05
  -1.315619e+06  -1.095438e+06
  -5.273818e+05  -1.892282e+06
   6.381995e+05  -1.421267e+06
   1.274906e+06   2.003388e+04
   7.821984e+05   1.284860e+06
  -4.110674e+05   1.372533e+06
  -1.152216e+06   3.732786e+05
  -7.791711e+05  -7.091319e+05
   1.496774e+05  -1.057056e+06
   5.453388e+05  -7.542351e+05
   8.586189e+04  -4.049199e+05
  -4.299290e+05  -3.417038e+05
  -5.606109e+04  -3.832630e+05
   1.143771e+06  -1.867432e+05
   2.044278e+06   3.675189e+05
   1.587400e+06   1.054749e+06
  -6.739880e+04   1.418307e+06
  -1.601681e+06   1.101220e+06
  -1.818678e+06   2.440443e+05
  -8.083093e+05  -5.032008e+05
   2.746036e+05  -5.587026e+05
   5.050030e+05  -2.146699e+04
   1.875842e+04   4.252011e+05
  -4.444058e+05   2.559456e+05
  -4.752694e+05  -3.475892e+05
  -2.494246e+05  -7.300547e+05
  -9.390214e+04  -4.859710e+05
  -1.310036e+05   9.047584e+04
  -2.704099e+05   2.902930e+05
  -2.688246e+05  -2.333975e+05
   1.478539e+05  -9.818442e+05
   9.097802e+05  -1.048973e+06
   1.368584e+06  -1.497791e+05
   8.426078e+05   9.305666e+05
  -4.355067e+05   1.133150e+06
  -1.267769e+06   3.196512e+05
  -7.268389e+05  -5.782616e+05
   7.063337e+05  -6.320282e+05
   1.569886e+06   1.159140e+05
   9.771086e+05   8.611354e+05
  -4.935804e+05   9.620482e+05
  -1.481419e+06   4.483342e+05
  -1.209792e+06  -2.032878e+05
  -1.248728e+05  -5.063532e+05
   6.460096e+05  -2.542477e+05
   3.785272e+05   3.031184e+05
  -5.884208e+05   5.223764e+05
  -1.185137e+06  -8.655325e+04
  -6.696110e+05  -1.187602e+06
   5.959613e+05  -1.704622e+06
   1.487179e+06  -8.809217e+05
   1.248356e+06   7.622600e+05
   1.888444e+05   1.785007e+06
  -7.446781e+05   1.275380e+06
  -9.111475e+05  -1.912689e+05
  -4.077618e+05  -1.185902e+06
   2.353547e+05  -9.479202e+05
   5.605104e+05  -7.051307e+04
   4.529429e+05   3.725277e+05
   1.537003e+05   1.286336e+05
   5.113406e+04  -8.873643e+04
   2.857333e+05   3.133865e+05
   5.018846e+05   9.737813e+05
   1.685320e+05   1.065214e+06
  -7.285319e+05   3.746745e+05
  -1.462537e+06  -4.748670e+05
  -1.254389e+06  -8.373437e+05
  -1.746240e+05  -6.991880e+05
   8.425769e+05  -4.186485e+05
   9.747918e+05  -1.710025e+05
   3.651156e+05   6.905147e+04
  -1.426655e+05   2.277254e+05
  -4.813281e+04   1.884210e+05
   2.516958e+05   7.846094e+04
   5.671454e+04   1.355144e+05
  -6.465348e+05   2.473211e+05
  -1.049180e+06  -1.311530e+04
  -4.524726e+05  -7.089800e+05
   8.343062e+05  -1.190306e+06
   1.718974e+06  -7.540416e+05
   1.434488e+06   4.374993e+05
   2.773392e+05   1.405202e+06
  -7.798998e+05   1.373859e+06
  -1.056617e+06   5.458471e+05
  -6.556640e+05  -2.225009e+05
  -1.404567e+05  -3.625594e+05
   5.885786e+04  -8.526185e+04
  -8.150646e+04   2.407902e+02
  -2.865683e+05  -3.704056e+05
  -2.354074e+05  -8.047378e+05
   1.790582e+05  -6.839480e+05
   6.819507e+05   1.068471e+05
   7.543203e+05   9.432711e+05
   1.361086e+05   1.042488e+06
  -7.479923e+05   2.722399e+05
  -1.047641e+06  -7.045734e+05
  -3.604639e+05  -1.095696e+06
   7.160098e+05  -6.934872e+05
   1.130625e+06   7.380336e+04
   5.368756e+05   6.320874e+05
  -2.967484e+05   6.963099e+05
  -3.991031e+05   3.648419e+05
   2.303920e+05  -5.880319e+03
   6.450396e+05  -4.382765e+04
   1.516085e+05   3.144513e+05
  -8.247107e+05   6.742784e+05
  -1.270490e+06   5.161238e+05
  -7.755484e+05  -2.017921e+05
   9.839335e+04  -8.773312e+05
   5.736094e+05  -8.566197e+05
   4.514731e+05  -1.687649e+05
   6.768717e+04   4.743388e+05
  -2.393059e+05   4.478740e+05
  -3.575075e+05  -1.278644e+05
  -2.573349e+05  -5.773316e+05
   5.365980e+04  -4.462827e+05
   3.946678e+05   3.632367e+04
   4.773894e+05   2.961133e+05
   2.383130e+05   1.083897e+05
  -3.873421e+04  -1.685620e+05
  -7.193704e+04  -7.464548e+04
   4.355079e+04   3.503423e+05
  -1.847504e+04   5.848743e+05
  -3.187259e+05   2.589203e+05
  -4.929520e+05  -3.641466e+05
  -1.939513e+05  -6.563672e+05
   4.008808e+05  -3.286185e+05
   6.828597e+05   2.693738e+05
   2.681176e+05   5.683257e+05
  -5.138780e+05   3.673916e+05
  -8.979586e+05  -6.861512e+04
  -4.861256e+05  -3.782036e+05
   2.980705e+05  -4.163295e+05
   6.504914e+05  -2.466404e+05
   2.677861e+05  -1.683862e+04
  -3.287521e+05   9.361772e+04
  -4.065087e+05  -3.627621e+04
   1.438852e+05  -2.838939e+05
   7.118696e+05  -2.846190e+05
