
 $NMID
 id='ANONYMOUS ', fmtdat='(2E16.6)'
 volume=1.0
 tramp=1.0
 $END
  -4.962829e+07  -1.226314e+06
  -2.976476e+07  -3.040843e+07
   6.339837e+06  -3.324134e+07
   2.436463e+07  -1.360244e+07
   1.509729e+07   5.334363e+06
  -2.506171e+06   8.353674e+06
  -8.981161e+06  -4.517648e+05
  -3.058978e+06  -8.684835e+06
   5.297062e+06  -9.023215e+06
   8.773476e+06  -2.218862e+06
   6.311509e+06   5.812700e+06
   5.212260e+05   8.058098e+06
  -3.779081e+06   2.268612e+06
  -2.363947e+06  -5.493372e+06
   3.492208e+06  -6.396700e+06
   7.181806e+06   1.043053e+06
   4.042387e+06   9.267787e+06
  -3.459803e+06   1.066058e+07
  -9.146409e+06   5.089000e+06
  -9.488279e+06  -2.211708e+06
  -5.400553e+06  -6.766591e+06
  -2.630872e+05  -7.277662e+06
   2.280929e+06  -4.954243e+06
   8.969750e+05  -2.662604e+06
  -1.375259e+06  -2.820265e+06
   2.072408e+05  -4.411471e+06
   5.715652e+06  -3.792124e+06
   9.263170e+06   2.397092e+05
   6.253715e+06   4.245085e+06
  -3.802491e+05   4.566851e+06
  -3.947625e+06   1.856715e+06
  -2.203558e+06  -6.332601e+05
   1.320169e+06  -1.218205e+06
   2.898703e+06  -1.525628e+05
   2.079827e+06   2.050054e+06
   6.225345e+04   4.041368e+06
  -1.962614e+06   3.288204e+06
  -2.545745e+06  -5.217710e+05
  -1.008309e+06  -3.245990e+06
   7.038629e+05  -1.191002e+06
  -1.084729e+05   2.744908e+06
  -2.512991e+06   2.273396e+06
  -2.310732e+06  -2.856614e+06
   1.912881e+06  -5.501711e+06
   5.793730e+06  -9.675025e+05
   4.349281e+06   6.043027e+06
  -1.659247e+06   7.467166e+06
  -6.668417e+06   2.019033e+06
  -6.504266e+06  -4.232097e+06
  -1.865932e+06  -5.774242e+06
   3.317281e+06  -2.710135e+06
   5.192671e+06   1.358987e+06
   2.530227e+06   3.293688e+06
  -2.099423e+06   2.105989e+06
  -4.165133e+06  -7.867386e+05
  -1.861666e+06  -2.444738e+06
   1.549256e+06  -1.239433e+06
   1.744505e+06   9.809920e+05
  -9.953772e+05   1.069754e+06
  -2.334454e+06  -1.189213e+06
   1.100657e+05  -2.846318e+06
   3.779727e+06  -1.799378e+06
   4.757733e+06   9.795641e+05
   2.177755e+06   3.503122e+06
  -1.896622e+06   4.826376e+06
  -5.095930e+06   4.322125e+06
  -5.943583e+06   1.273857e+06
  -4.011975e+06  -3.234457e+06
  -5.785264e+05  -5.878154e+06
   1.750103e+06  -4.600113e+06
   1.583205e+06  -1.477053e+06
   4.106790e+05  -1.236866e+05
   5.502876e+05  -1.000594e+06
   2.036259e+06  -1.384534e+06
   2.841995e+06   3.071222e+05
   1.749133e+06   2.346695e+06
  -3.572219e+05   2.285498e+06
  -1.834409e+06   3.645956e+04
  -1.678903e+06  -2.371538e+06
   2.171024e+05  -3.004743e+06
   2.850956e+06  -1.373736e+06
   4.168192e+06   1.491533e+06
   2.757690e+06   3.679445e+06
  -2.238594e+05   3.808306e+06
  -2.094153e+06   2.351582e+06
  -1.974144e+06   1.052729e+06
  -1.730744e+06   7.526260e+05
  -2.951289e+06   5.014408e+05
  -4.351396e+06  -8.346429e+05
  -3.441542e+06  -2.880830e+06
   4.496257e+03  -4.204593e+06
   3.459474e+06  -3.834429e+06
   4.401572e+06  -1.875211e+06
   2.631609e+06   6.920223e+05
   7.495408e+03   2.317679e+06
  -1.323392e+06   1.830974e+06
  -5.473861e+05  -1.158212e+05
   1.210489e+06  -1.256580e+06
   1.918920e+06  -3.143381e+05
   8.159778e+05   1.227797e+06
  -6.303964e+05   1.115027e+06
  -5.267587e+05  -4.124497e+05
   9.821383e+05  -8.536645e+05
   1.896689e+06   1.021182e+06
   8.774258e+05   3.381047e+06
  -1.353107e+06   3.643127e+06
  -3.157552e+06   1.447064e+06
  -3.557429e+06  -1.387699e+06
  -2.465508e+06  -3.004606e+06
  -4.165761e+05  -2.831058e+06
   1.384106e+06  -1.460183e+06
   1.657290e+06  -1.270216e+05
   5.049009e+05   6.831470e+04
  -3.419313e+05  -7.842099e+05
   4.346438e+05  -1.325527e+06
   1.905030e+06  -5.235021e+05
   2.027468e+06   9.188549e+05
   3.833916e+05   1.422366e+06
  -1.211839e+06   5.651872e+05
  -9.550571e+05  -5.053896e+05
   8.670996e+05  -6.034711e+05
   2.330029e+06   3.118959e+05
   1.887470e+06   1.487370e+06
  -2.767677e+05   2.129150e+06
  -2.471171e+06   1.684284e+06
  -2.886378e+06   1.894463e+05
  -1.198594e+06  -1.316085e+06
   9.718660e+05  -1.455468e+06
   1.544151e+06  -1.278738e+05
   1.329497e+05   1.078352e+06
  -1.574819e+06   6.852629e+05
  -1.747724e+06  -8.441221e+05
  -3.400585e+05  -1.717421e+06
   1.124825e+06  -1.029307e+06
   1.312059e+06   3.026112e+05
   2.793005e+05   7.997761e+05
  -7.889675e+05   4.152739e+04
  -7.015846e+05  -1.101925e+06
   6.651581e+05  -1.429044e+06
   2.091611e+06  -4.536040e+05
   2.039505e+06   1.174234e+06
   3.105990e+05   2.142323e+06
  -1.528009e+06   1.635519e+06
  -1.781293e+06   1.702593e+05
  -5.082045e+05  -9.070376e+05
   7.010864e+05  -8.189693e+05
   6.893895e+05  -4.402394e+04
  -1.182544e+05   4.319934e+05
  -5.740089e+05   2.496380e+05
  -2.194268e+05  -1.052350e+05
   4.220187e+05   4.022800e+03
   5.470430e+05   6.495160e+05
  -2.101844e+05   1.210979e+06
  -1.445208e+06   8.830139e+05
  -2.129816e+06  -5.024339e+05
  -1.427634e+06  -2.059208e+06
   3.268811e+05  -2.501439e+06
   1.740549e+06  -1.434358e+06
   1.789903e+06   1.727204e+05
   9.096265e+05   1.014296e+06
   3.049281e+05   7.932658e+05
   4.184680e+05   3.013426e+05
   5.728292e+05   3.141888e+05
   6.001467e+04   7.478649e+05
  -9.220979e+05   9.088523e+05
  -1.526613e+06   3.085500e+05
  -1.099718e+06  -8.086269e+05
   2.959528e+05  -1.556131e+06
   1.834460e+06  -1.074628e+06
   2.325182e+06   5.845030e+05
   1.117672e+06   2.209681e+06
  -1.089775e+06   2.405246e+06
  -2.635923e+06   1.001926e+06
  -2.434264e+06  -7.280997e+05
  -1.007455e+06  -1.431992e+06
   2.218209e+05  -1.039131e+06
   4.784443e+05  -5.625223e+05
   1.938376e+05  -7.531456e+05
   1.933454e+05  -1.286878e+06
   7.250260e+05  -1.266128e+06
   1.320445e+06  -2.669483e+05
   1.322943e+06   1.174450e+06
   4.885783e+05   1.981875e+06
  -7.097727e+05   1.457139e+06
  -1.334859e+06  -4.628237e+04
  -8.040086e+05  -1.337364e+06
   4.211614e+05  -1.427990e+06
   1.179527e+06  -4.251368e+05
   8.151129e+05   6.805582e+05
  -1.151303e+05   1.073477e+06
  -5.249537e+05   8.046986e+05
  -8.392258e+04   4.559376e+05
   4.194236e+05   3.765553e+05
   3.731433e+04   4.027197e+05
  -1.174405e+06   1.810976e+05
  -2.088250e+06  -4.105508e+05
  -1.630156e+06  -1.116105e+06
   5.544495e+04  -1.457678e+06
   1.641168e+06  -1.106720e+06
   1.891633e+06  -2.413919e+05
   8.634790e+05   4.965007e+05
  -2.687764e+05   5.564880e+05
  -5.197782e+05   3.674707e+04
  -4.070180e+03  -4.031520e+05
   4.827454e+05  -2.366660e+05
   4.770787e+05   3.731736e+05
   1.933943e+05   7.612188e+05
   4.471721e+04   4.952883e+05
   1.545076e+05  -1.164681e+05
   3.342768e+05  -3.164437e+05
   2.825808e+05   2.486444e+05
  -2.069227e+05   1.022352e+06
  -9.701657e+05   1.057846e+06
  -1.368356e+06   1.089968e+05
  -8.010160e+05  -9.737224e+05
   4.698729e+05  -1.127274e+06
   1.283640e+06  -2.675919e+05
   7.271718e+05   6.327104e+05
  -7.452674e+05   6.498157e+05
  -1.657365e+06  -1.492480e+05
  -1.051368e+06  -9.347040e+05
   5.143538e+05  -1.037565e+06
   1.589144e+06  -4.782362e+05
   1.303258e+06   2.305139e+05
   1.330060e+05   5.491539e+05
  -6.828755e+05   2.680658e+05
  -3.771983e+05  -3.080737e+05
   6.388312e+05  -4.982779e+05
   1.213870e+06   1.547677e+05
   6.166119e+05   1.256560e+06
  -7.102692e+05   1.721322e+06
  -1.584815e+06   8.335379e+05
  -1.267043e+06  -8.479905e+05
  -1.302496e+05  -1.872927e+06
   8.264703e+05  -1.327541e+06
   9.624717e+05   2.054630e+05
   4.167169e+05   1.257324e+06
  -2.488325e+05   1.015464e+06
  -5.826330e+05   7.509207e+04
  -4.836674e+05  -4.193569e+05
  -1.806307e+05  -1.597760e+05
  -4.899464e+04   1.042194e+05
  -2.557543e+05  -2.997730e+05
  -4.807841e+05  -1.017026e+06
  -1.733760e+05  -1.137199e+06
   7.354867e+05  -3.902456e+05
   1.515802e+06   5.457381e+05
   1.314078e+06   9.271847e+05
   1.665502e+05   7.297132e+05
  -9.191380e+05   3.941940e+05
  -1.037344e+06   1.531502e+05
  -3.617433e+05  -5.699174e+04
   1.660335e+05  -2.250779e+05
   3.004212e+04  -2.254830e+05
  -2.871195e+05  -1.242675e+05
  -3.966736e+04  -1.394360e+05
   7.140676e+05  -2.056915e+05
   1.082373e+06   5.911142e+04
   3.963192e+05   7.257194e+05
  -9.346448e+05   1.173347e+06
  -1.779707e+06   7.074715e+05
  -1.423997e+06  -5.077468e+05
  -2.216948e+05  -1.471577e+06
   8.455978e+05  -1.393055e+06
   1.107371e+06  -5.060139e+05
   6.705978e+05   2.767419e+05
   1.180389e+05   3.750002e+05
  -8.598359e+04   5.294823e+04
   8.339052e+04  -2.595208e+04
   3.056028e+05   3.916149e+05
   2.301663e+05   8.508750e+05
  -2.148568e+05   6.939798e+05
  -7.018684e+05  -1.623654e+05
  -7.189559e+05  -1.022366e+06
  -6.653618e+04  -1.068544e+06
   7.941244e+05  -2.136267e+05
   1.038377e+06   7.969659e+05
   3.122775e+05   1.140591e+06
  -7.646803e+05   6.664916e+05
  -1.151034e+06  -1.215513e+05
  -5.246407e+05  -6.456247e+05
   3.190501e+05  -6.827179e+05
   3.975983e+05  -3.684923e+05
  -2.648743e+05  -2.692033e+04
  -6.776392e+05   1.316927e+04
  -1.377095e+05  -3.219990e+05
   8.836053e+05  -6.740898e+05
   1.322666e+06  -5.228351e+05
   7.778750e+05   2.018467e+05
  -1.326043e+05   8.943966e+05
  -5.959948e+05   8.670710e+05
  -4.357004e+05   1.490659e+05
  -3.104009e+04  -5.009862e+05
   2.642721e+05  -4.371624e+05
   3.567926e+05   1.741534e+05
   2.405725e+05   6.085315e+05
  -6.958986e+04   4.333538e+05
  -4.022072e+05  -6.424479e+04
  -4.828820e+05  -3.025262e+05
  -2.502257e+05  -1.043790e+05
   2.897679e+04   1.492561e+05
   9.001740e+04   3.562571e+04
   1.361782e+04  -3.671197e+05
   8.300764e+04  -5.537546e+05
   3.371843e+05  -1.992032e+05
   4.475157e+05   4.144411e+05
   1.253917e+05   6.727551e+05
  -4.371298e+05   3.060739e+05
  -6.722254e+05  -3.167099e+05
  -2.373901e+05  -6.054964e+05
   5.376206e+05  -3.607800e+05
   9.077003e+05   1.116874e+05
   4.812973e+05   4.086797e+05
  -3.168816e+05   3.997241e+05
  -6.665808e+05   2.082668e+05
  -2.549963e+05   1.168112e+04
   3.658948e+05  -4.923018e+04
   4.194190e+05   8.956386e+04
  -1.931099e+05   2.970720e+05
  -7.903506e+05   2.491817e+05
