
 $NMID
 id='ANONYMOUS ', fmtdat='(2E16.6)'
 volume=1.0
 tramp=1.0
 $END
  -4.795862e+03   1.072068e+02
  -3.114705e+03  -3.046766e+03
   8.749771e+02  -3.263057e+03
   2.329301e+03  -9.111685e+02
   1.031677e+03   7.815635e+02
  -7.004476e+02   5.747873e+02
  -9.861107e+02  -5.444429e+02
   9.244094e+01  -1.123901e+03
   8.912087e+02  -8.504098e+02
   1.106448e+03   2.286142e+02
   4.934764e+02   9.115344e+02
  -3.478335e+02   9.630151e+02
  -6.825441e+02   1.757700e+02
  -4.330554e+02  -8.071291e+02
   3.177172e+02  -8.704107e+02
   7.208296e+02  -4.910970e+01
   2.591858e+02   8.305672e+02
  -3.480875e+02   7.132103e+02
  -6.219573e+02   6.432998e+01
  -4.231738e+02  -4.248985e+02
  -2.782411e-02  -4.541009e+02
   3.030422e+02  -3.051686e+02
   2.609515e+02  -4.282847e-01
  -8.656276e+01   8.576226e+01
  -4.429921e+02  -1.274155e+02
  -2.200465e+02  -4.870832e+02
   4.654853e+02  -4.325108e+02
   9.062185e+02   9.079937e+01
   4.752573e+02   6.031532e+02
  -4.087034e+02   5.237279e+02
  -7.913727e+02  -2.168372e+01
  -3.937229e+02  -5.141632e+02
   2.894231e+02  -5.547781e+02
   6.174364e+02  -2.270817e+02
   4.469646e+02   2.336110e+02
   5.527106e+01   4.960127e+02
  -2.347311e+02   2.976262e+02
  -1.942088e+02  -2.272873e+02
   2.040425e+02  -4.425757e+02
   4.897090e+02   2.916610e+01
   2.698998e+02   7.004078e+02
  -3.413704e+02   7.151223e+02
  -6.314569e+02   1.263442e+01
  -2.716085e+02  -5.670153e+02
   3.014034e+02  -3.224210e+02
   4.082468e+02   3.291505e+02
  -6.578035e+01   5.522582e+02
  -5.853435e+02   1.271285e+02
  -6.075863e+02  -4.199861e+02
  -1.599749e+02  -5.947886e+02
   4.027835e+02  -3.481341e+02
   6.482752e+02   7.810179e+01
   3.785021e+02   4.014796e+02
  -1.653146e+02   3.777605e+02
  -4.654000e+02   4.985652e+01
  -2.559329e+02  -2.087315e+02
   1.186456e+02  -1.039164e+02
   1.452228e+02   1.742132e+02
  -1.814983e+02   1.910392e+02
  -3.715795e+02  -1.022940e+02
  -1.459055e+02  -3.304903e+02
   2.196711e+02  -2.599568e+02
   3.356936e+02  -5.553954e+01
   1.789653e+02   8.684811e+01
  -3.925369e+01   2.029379e+02
  -2.147390e+02   3.093440e+02
  -3.315952e+02   2.213145e+02
  -3.030963e+02  -1.322110e+02
  -8.985707e+01  -4.487695e+02
   1.304577e+02  -4.020485e+02
   1.491048e+02  -1.110478e+02
   3.208244e+01   3.111045e+01
   2.294577e+01  -7.578419e+01
   1.775007e+02  -1.389224e+02
   2.870424e+02   4.102894e+01
   1.801573e+02   2.780399e+02
  -6.242680e+01   2.789819e+02
  -2.404447e+02   2.454396e+01
  -2.162996e+02  -2.435966e+02
   2.159418e+00  -3.080650e+02
   2.699892e+02  -1.243913e+02
   3.734562e+02   1.660392e+02
   1.950137e+02   3.591687e+02
  -1.033278e+02   3.189511e+02
  -2.363837e+02   1.272510e+02
  -1.584408e+02  -2.789163e+00
  -9.917519e+01   2.600570e+01
  -2.345291e+02   5.809551e+01
  -4.062686e+02  -5.949558e+01
  -3.385262e+02  -2.912723e+02
   2.841224e+00  -4.500097e+02
   3.674566e+02  -4.239654e+02
   5.043440e+02  -2.105234e+02
   3.569215e+02   9.281504e+01
   6.937015e+01   3.075104e+02
  -1.343871e+02   2.730884e+02
  -9.594209e+01   3.829311e+01
   1.045329e+02  -1.146585e+02
   2.038435e+02   1.517957e+00
   5.538538e+01   2.051250e+02
  -1.683146e+02   1.831279e+02
  -1.872682e+02  -6.215457e+01
   2.083568e+01  -2.062128e+02
   2.019641e+02  -3.755189e+01
   1.617908e+02   2.551636e+02
  -3.905440e+01   3.584729e+02
  -2.310303e+02   1.928195e+02
  -3.225432e+02  -6.710807e+01
  -2.796919e+02  -2.422310e+02
  -1.038152e+02  -2.694327e+02
   1.105858e+02  -1.689421e+02
   1.872556e+02  -2.580286e+01
   7.097688e+01   3.339397e+01
  -6.510237e+01  -3.562008e+01
  -2.924921e+01  -1.267043e+02
   1.277088e+02  -1.033094e+02
   1.857771e+02   1.368617e+01
   6.298392e+01   7.918835e+01
  -7.892736e+01   2.386702e+01
  -5.466089e+01  -6.829217e+01
   1.226581e+02  -8.437185e+01
   2.789895e+02   5.810854e-01
   2.622003e+02   1.384443e+02
   6.327850e+01   2.568274e+02
  -1.821002e+02   2.693195e+02
  -2.893884e+02   1.358602e+02
  -1.811579e+02  -5.064123e+01
   1.844291e+01  -1.182615e+02
   9.346632e+01  -1.677644e+01
  -2.833098e+01   1.010470e+02
  -1.960690e+02   6.430157e+01
  -2.181511e+02  -9.999111e+01
  -7.355055e+01  -2.111983e+02
   9.372976e+01  -1.647114e+02
   1.472856e+02  -3.565091e+01
   7.632806e+01   3.853321e+01
  -2.234336e+01   5.577942e+00
  -3.592957e+01  -7.710359e+01
   6.909162e+01  -1.096147e+02
   1.966565e+02  -3.107744e+01
   1.944414e+02   1.216474e+02
   2.440382e+01   2.225740e+02
  -1.671873e+02   1.715498e+02
  -2.014098e+02   9.194894e+00
  -7.267192e+01  -1.177042e+02
   6.324777e+01  -1.175047e+02
   8.376902e+01  -3.684667e+01
   2.230749e+01   2.085435e+01
  -1.491355e+01   1.775674e+01
   1.446549e+01  -3.163630e+00
   6.943857e+01   1.484235e+01
   8.330173e+01   8.157348e+01
   1.244083e+01   1.534368e+02
  -1.251081e+02   1.503252e+02
  -2.336930e+02   2.965885e+01
  -2.048542e+02  -1.480597e+02
  -4.378376e+01  -2.417047e+02
   1.118166e+02  -1.765895e+02
   1.411610e+02  -3.005187e+01
   7.256073e+01   5.693197e+01
   2.876394e+01   3.784752e+01
   5.486857e+01  -9.789885e+00
   8.123813e+01  -1.875359e+00
   4.018858e+01   5.244735e+01
  -4.586625e+01   8.509662e+01
  -1.036728e+02   5.038988e+01
  -8.231120e+01  -3.757860e+01
   1.630689e+01  -1.075372e+02
   1.408766e+02  -8.441434e+01
   1.953764e+02   4.970856e+01
   1.020373e+02   2.003255e+02
  -1.045458e+02   2.312858e+02
  -2.681306e+02   9.950614e+01
  -2.625189e+02  -8.740788e+01
  -1.143453e+02  -1.819868e+02
   3.710533e+01  -1.515399e+02
   9.692246e+01  -8.768613e+01
   8.455294e+01  -7.186538e+01
   7.254706e+01  -9.214105e+01
   9.630391e+01  -7.282330e+01
   1.300404e+02   2.524891e+01
   1.178241e+02   1.575215e+02
   2.918081e+01   2.294125e+02
  -1.002136e+02   1.753328e+02
  -1.782666e+02   2.253579e+01
  -1.387923e+02  -1.219324e+02
  -2.030800e+01  -1.602425e+02
   6.672963e+01  -9.246972e+01
   5.934496e+01  -1.193522e+00
   4.197009e+00   4.092948e+01
  -1.025326e+01   3.347550e+01
   3.621013e+01   1.947556e+01
   7.831009e+01   2.486317e+01
   4.378076e+01   3.835594e+01
  -6.238578e+01   3.516239e+01
  -1.553539e+02   1.908394e+00
  -1.429871e+02  -5.034029e+01
  -1.838588e+01  -8.726660e+01
   1.180858e+02  -7.441900e+01
   1.459532e+02  -1.504725e+01
   5.060294e+01   3.998700e+01
  -5.921619e+01   3.724777e+01
  -7.532370e+01  -1.946439e+01
  -5.707721e+00  -6.899528e+01
   5.789773e+01  -5.751113e+01
   6.334301e+01   3.982388e+00
   4.257897e+01   5.219919e+01
   4.320780e+01   4.323149e+01
   6.297265e+01   3.333510e+00
   6.576323e+01   2.287712e+00
   3.156325e+01   6.916761e+01
  -3.689407e+01   1.457186e+02
  -1.177806e+02   1.391331e+02
  -1.637357e+02   3.017718e+01
  -1.228228e+02  -9.374744e+01
  -6.583234e+00  -1.266599e+02
   8.722210e+01  -5.984701e+01
   6.170583e+01   1.729764e+01
  -5.848892e+01   2.054821e+01
  -1.388418e+02  -4.472857e+01
  -7.777488e+01  -1.088438e+02
   8.045590e+01  -1.130695e+02
   1.920503e+02  -5.168558e+01
   1.635460e+02   3.448257e+01
   3.713016e+01   8.732105e+01
  -6.111139e+01   7.003036e+01
  -4.763215e+01   6.204047e+00
   4.121789e+01  -2.684979e+01
   9.167180e+01   2.540478e+01
   3.064067e+01   1.222687e+02
  -9.644025e+01   1.552658e+02
  -1.714650e+02   5.979594e+01
  -1.273626e+02  -1.038889e+02
  -7.942576e+00  -1.994279e+02
   8.779330e+01  -1.451888e+02
   1.054870e+02   5.355070e+00
   6.098464e+01   1.171345e+02
  -8.827702e-01   1.074223e+02
  -4.533385e+01   2.190264e+01
  -5.298579e+01  -3.058080e+01
  -2.745718e+01  -8.897248e+00
  -3.879935e+00   2.079763e+01
  -1.942856e+01  -1.503273e+01
  -5.521937e+01  -9.034175e+01
  -4.295984e+01  -1.125228e+02
   4.665411e+01  -4.628261e+01
   1.401527e+02   4.202939e+01
   1.316608e+02   7.427994e+01
   1.667982e+01   5.014563e+01
  -9.041411e+01   2.004511e+01
  -8.910415e+01   6.170520e+00
  -9.116256e+00  -7.196905e+00
   3.991901e+01  -2.219393e+01
   1.327727e+01  -1.930736e+01
  -2.256989e+01   4.154730e-01
   7.180422e+00   9.892267e+00
   7.720000e+01   6.819798e+00
   9.178541e+01   2.677961e+01
   4.528589e+00   8.112772e+01
  -1.233244e+02   1.122263e+02
  -1.874216e+02   5.458976e+01
  -1.400634e+02  -7.116030e+01
  -2.289094e+01  -1.638901e+02
   8.150275e+01  -1.494734e+02
   1.158156e+02  -5.675608e+01
   8.131397e+01   2.336934e+01
   2.461752e+01   3.615659e+01
  -3.621457e+00   8.161534e+00
   1.026242e+01   3.023791e+00
   3.347459e+01   4.572876e+01
   2.210026e+01   9.123251e+01
  -3.103379e+01   7.226173e+01
  -8.177040e+01  -2.040996e+01
  -7.444885e+01  -1.118775e+02
   3.279603e-01  -1.134596e+02
   8.551548e+01  -2.050099e+01
   1.024393e+02   8.096027e+01
   2.907376e+01   1.065141e+02
  -6.895584e+01   5.482440e+01
  -9.840411e+01  -1.364403e+01
  -3.860111e+01  -5.038610e+01
   3.273278e+01  -4.978139e+01
   3.035919e+01  -2.702790e+01
  -3.532641e+01  -5.482258e-02
  -7.017515e+01   5.761964e+00
  -1.518033e+01  -2.545723e+01
   7.928794e+01  -6.599737e+01
   1.151883e+02  -5.828609e+01
   6.247842e+01   1.261066e+01
  -1.785374e+01   8.335309e+01
  -5.440338e+01   7.766518e+01
  -3.655402e+01   1.917611e+00
   9.530719e-01  -5.889683e+01
   2.858235e+01  -4.248233e+01
   3.793836e+01   2.132923e+01
   2.610299e+01   5.647917e+01
  -4.094111e+00   3.288120e+01
  -3.396356e+01  -9.408508e+00
  -3.968394e+01  -2.116124e+01
  -2.088180e+01  -6.208494e-01
  -2.087730e-01   1.319018e+01
   6.300622e+00  -5.427446e+00
   7.955695e+00  -3.833730e+01
   1.917102e+01  -4.392961e+01
   3.363410e+01  -5.292988e+00
   2.934680e+01   4.692013e+01
  -4.270743e+00   6.129911e+01
  -4.577690e+01   1.917777e+01
  -5.580263e+01  -4.150090e+01
  -1.287833e+01  -6.459608e+01
   5.629149e+01  -3.305829e+01
   8.971525e+01   1.797473e+01
   4.909237e+01   4.619736e+01
  -2.951618e+01   4.071140e+01
  -6.599962e+01   2.025266e+01
  -2.449379e+01   4.706391e+00
   3.810861e+01   3.392219e+00
   3.791285e+01   1.661445e+01
  -3.240011e+01   3.094728e+01
  -9.329501e+01   1.842462e+01
