
 $NMID
 id='ANONYMOUS ', fmtdat='(2E16.6)'
 volume=1.0
 tramp=1.0
 $END
   4.960908e+03  -1.625765e+02
   2.870530e+03   2.877383e+03
  -8.401710e+02   3.140348e+03
  -2.423322e+03   6.652833e+02
  -1.156194e+03  -9.298924e+02
   7.006874e+02  -6.263553e+02
   9.553673e+02   4.066162e+02
  -3.779695e+01   1.194556e+03
  -8.898887e+02   8.820692e+02
  -9.961612e+02  -2.222725e+02
  -5.898089e+02  -9.927254e+02
   4.161465e+02  -9.496061e+02
   7.716752e+02  -5.523126e+01
   4.435652e+02   8.800647e+02
  -3.154586e+02   8.269436e+02
  -7.274219e+02  -2.343260e+01
  -2.683742e+02  -7.932924e+02
   3.873773e+02  -6.837716e+02
   6.038466e+02  -6.992970e+01
   3.880449e+02   4.173941e+02
  -5.391346e+01   4.580895e+02
  -2.744874e+02   2.734374e+02
  -2.545287e+02   2.339067e+00
   1.047985e+02  -9.600731e+01
   4.982757e+02   2.102645e+01
   2.805690e+02   4.744923e+02
  -4.477951e+02   4.955391e+02
  -9.635519e+02  -2.557396e+01
  -5.377575e+02  -6.259349e+02
   3.980043e+02  -5.908138e+02
   8.480099e+02  -1.522293e+01
   4.263612e+02   5.516093e+02
  -2.697850e+02   5.885397e+02
  -6.163633e+02   2.638996e+02
  -4.881270e+02  -2.399454e+02
  -1.014508e+02  -5.371142e+02
   2.528884e+02  -3.325124e+02
   2.460969e+02   2.656924e+02
  -1.914575e+02   5.164047e+02
  -5.536344e+02  -3.404354e+00
  -3.232641e+02  -8.064662e+02
   3.694085e+02  -8.186843e+02
   7.340794e+02  -1.011937e+01
   3.186515e+02   6.386492e+02
  -3.384999e+02   3.714368e+02
  -4.675386e+02  -3.525339e+02
   5.894922e+01  -6.179888e+02
   6.144284e+02  -1.618316e+02
   6.444681e+02   4.378212e+02
   1.746985e+02   6.332407e+02
  -4.170455e+02   3.695628e+02
  -6.760803e+02  -9.511956e+01
  -3.875548e+02  -4.427090e+02
   1.949889e+02  -4.077974e+02
   5.071087e+02  -4.335382e+01
   2.535482e+02   2.452457e+02
  -1.649275e+02   1.209296e+02
  -1.753679e+02  -2.013857e+02
   2.019210e+02  -2.309953e+02
   4.111588e+02   9.431066e+01
   1.589955e+02   3.512018e+02
  -2.294860e+02   2.699099e+02
  -3.402064e+02   4.412810e+01
  -1.764453e+02  -9.113012e+01
   3.035655e+01  -1.893650e+02
   1.958315e+02  -3.054471e+02
   3.251845e+02  -2.406903e+02
   3.146290e+02   1.182722e+02
   9.903418e+01   4.621137e+02
  -1.368003e+02   4.199222e+02
  -1.603512e+02   1.040035e+02
  -3.384662e+01  -5.333688e+01
  -1.661970e+01   6.590925e+01
  -1.711711e+02   1.484520e+02
  -2.839737e+02  -2.615135e+01
  -1.783998e+02  -2.645155e+02
   6.132502e+01  -2.697310e+02
   2.369146e+02  -2.518402e+01
   2.176359e+02   2.372122e+02
  -2.975710e-01   3.110006e+02
  -2.779513e+02   1.393945e+02
  -3.877002e+02  -1.629069e+02
  -2.049665e+02  -3.767444e+02
   1.092002e+02  -3.366582e+02
   2.463637e+02  -1.234329e+02
   1.628755e+02   1.225056e+01
   9.754684e+01  -2.547587e+01
   2.342268e+02  -7.264913e+01
   4.032587e+02   3.998220e+01
   3.425076e+02   2.845974e+02
   9.995206e+00   4.532969e+02
  -3.519840e+02   4.357737e+02
  -4.998035e+02   2.250735e+02
  -3.654376e+02  -8.632499e+01
  -7.702604e+01  -3.177506e+02
   1.396612e+02  -2.834145e+02
   1.032718e+02  -3.410802e+01
  -1.048231e+02   1.289795e+02
  -2.140005e+02   3.165231e+00
  -5.780339e+01  -2.181525e+02
   1.817138e+02  -1.958817e+02
   2.055096e+02   6.968854e+01
  -1.581225e+01   2.245075e+02
  -2.096678e+02   4.633319e+01
  -1.732451e+02  -2.585934e+02
   3.402220e+01  -3.595641e+02
   2.281231e+02  -1.897597e+02
   3.180105e+02   6.630919e+01
   2.805381e+02   2.324655e+02
   1.113775e+02   2.606578e+02
  -1.054855e+02   1.681071e+02
  -1.875968e+02   2.814579e+01
  -6.933440e+01  -3.481437e+01
   7.557759e+01   3.492677e+01
   4.185432e+01   1.331929e+02
  -1.241420e+02   1.148613e+02
  -1.932420e+02  -6.005783e+00
  -7.236888e+01  -7.864551e+01
   7.580967e+01  -2.651604e+01
   5.891799e+01   6.739551e+01
  -1.161802e+02   8.715843e+01
  -2.771620e+02   6.490592e+00
  -2.693135e+02  -1.309296e+02
  -7.559214e+01  -2.551405e+02
   1.750280e+02  -2.759414e+02
   2.927695e+02  -1.431571e+02
   1.871819e+02   5.078488e+01
  -1.966894e+01   1.229738e+02
  -1.004594e+02   1.614127e+01
   2.551474e+01  -1.085371e+02
   2.016621e+02  -7.030175e+01
   2.253645e+02   1.017313e+02
   7.580727e+01   2.176464e+02
  -9.620414e+01   1.694127e+02
  -1.518141e+02   3.594921e+01
  -8.104968e+01  -4.150987e+01
   2.078059e+01  -1.052646e+01
   4.000171e+01   7.347094e+01
  -6.208620e+01   1.109401e+02
  -1.936517e+02   3.622958e+01
  -1.986794e+02  -1.177845e+02
  -2.980731e+01  -2.233385e+02
   1.665701e+02  -1.736836e+02
   2.041071e+02  -8.349617e+00
   7.266491e+01   1.206192e+02
  -6.653769e+01   1.176766e+02
  -8.694295e+01   3.368710e+01
  -2.332802e+01  -2.433024e+01
   1.548999e+01  -1.925917e+01
  -1.170037e+01   2.566512e+00
  -6.550712e+01  -1.330931e+01
  -8.088786e+01  -7.838418e+01
  -1.503958e+01  -1.519186e+02
   1.197681e+02  -1.518125e+02
   2.302546e+02  -3.389939e+01
   2.052975e+02   1.452585e+02
   4.581539e+01   2.418176e+02
  -1.097354e+02   1.765541e+02
  -1.384623e+02   2.709767e+01
  -6.977614e+01  -5.970225e+01
  -2.844343e+01  -3.955459e+01
  -5.374624e+01   1.040926e+01
  -7.775537e+01   4.500788e+00
  -3.557334e+01  -4.818417e+01
   4.550550e+01  -8.196603e+01
   9.784051e+01  -5.032420e+01
   7.822837e+01   3.272529e+01
  -1.110418e+01   1.030394e+02
  -1.336420e+02   8.527148e+01
  -1.946102e+02  -4.277779e+01
  -1.098251e+02  -1.959938e+02
   9.482720e+01  -2.334773e+02
   2.656589e+02  -1.064716e+02
   2.670083e+02   8.087640e+01
   1.190554e+02   1.785046e+02
  -3.467437e+01   1.511538e+02
  -9.508186e+01   8.816814e+01
  -8.278733e+01   7.291535e+01
  -7.103046e+01   9.350454e+01
  -9.500851e+01   7.525022e+01
  -1.295211e+02  -2.216925e+01
  -1.196678e+02  -1.550689e+02
  -3.410395e+01  -2.295926e+02
   9.668954e+01  -1.784205e+02
   1.795509e+02  -2.644436e+01
   1.435780e+02   1.205032e+02
   2.418883e+01   1.636866e+02
  -6.598435e+01   9.887480e+01
  -6.168724e+01   6.191912e+00
  -9.430148e+00  -4.031766e+01
   3.768462e+00  -3.625899e+01
  -3.974548e+01  -2.252992e+01
  -7.663167e+01  -2.542490e+01
  -4.150318e+01  -3.716332e+01
   6.057993e+01  -3.497980e+01
   1.517976e+02  -5.091452e+00
   1.434961e+02   4.546834e+01
   2.343855e+01   8.431542e+01
  -1.136584e+02   7.567109e+01
  -1.451749e+02   1.911528e+01
  -5.173642e+01  -3.580721e+01
   5.870451e+01  -3.499645e+01
   7.465819e+01   1.897803e+01
   4.226562e+00   6.651404e+01
  -5.855073e+01   5.570003e+01
  -6.157865e+01  -3.259906e+00
  -4.084753e+01  -4.976598e+01
  -4.416776e+01  -4.141971e+01
  -6.517235e+01  -2.730983e+00
  -6.684566e+01  -6.572467e-01
  -3.194028e+01  -6.622213e+01
   3.359884e+01  -1.442803e+02
   1.120245e+02  -1.414958e+02
   1.588422e+02  -3.577289e+01
   1.228799e+02   8.797543e+01
   1.030113e+01   1.235903e+02
  -8.345957e+01   6.058871e+01
  -6.024571e+01  -1.534304e+01
   5.877951e+01  -2.059570e+01
   1.398550e+02   4.202063e+01
   8.001117e+01   1.065297e+02
  -7.785298e+01   1.146378e+02
  -1.913998e+02   5.740534e+01
  -1.661475e+02  -2.979919e+01
  -4.101120e+01  -8.749442e+01
   5.930300e+01  -7.461877e+01
   4.972775e+01  -1.043486e+01
  -3.800131e+01   2.643409e+01
  -9.070550e+01  -2.307619e+01
  -3.175997e+01  -1.206963e+02
   9.580780e+01  -1.556554e+02
   1.725491e+02  -6.100238e+01
   1.289439e+02   1.041024e+02
   8.987666e+00   2.016817e+02
  -8.719820e+01   1.482847e+02
  -1.061671e+02  -3.437576e+00
  -6.418186e+01  -1.176733e+02
  -3.532632e+00  -1.096130e+02
   4.306268e+01  -2.338554e+01
   5.426159e+01   3.053061e+01
   2.939831e+01   8.739820e+00
   3.263480e+00  -2.249523e+01
   1.764967e+01   1.204066e+01
   5.635405e+01   8.792630e+01
   4.729875e+01   1.119208e+02
  -4.344537e+01   4.758076e+01
  -1.411307e+02  -3.947095e+01
  -1.348737e+02  -7.175047e+01
  -1.804818e+01  -4.950457e+01
   9.157801e+01  -2.227987e+01
   8.987319e+01  -9.234408e+00
   8.102725e+00   5.853426e+00
  -4.040330e+01   2.279319e+01
  -1.132134e+01   1.965860e+01
   2.503514e+01  -1.314535e+00
  -6.858082e+00  -1.041671e+01
  -7.850852e+01  -5.335588e+00
  -9.189291e+01  -2.479843e+01
  -2.581486e+00  -8.104351e+01
   1.246622e+02  -1.137815e+02
   1.860763e+02  -5.535691e+01
   1.378838e+02   7.189217e+01
   2.289343e+01   1.647043e+02
  -7.920216e+01   1.488018e+02
  -1.137859e+02   5.545185e+01
  -8.137825e+01  -2.327162e+01
  -2.475720e+01  -3.465318e+01
   4.781671e+00  -6.618761e+00
  -8.820848e+00  -2.230662e+00
  -3.399434e+01  -4.551693e+01
  -2.428105e+01  -9.149777e+01
   2.978545e+01  -7.241903e+01
   8.315073e+01   2.091553e+01
   7.682269e+01   1.130858e+02
   5.208912e-01   1.145477e+02
  -8.665933e+01   2.089612e+01
  -1.041462e+02  -8.041375e+01
  -2.989601e+01  -1.049455e+02
   6.822405e+01  -5.303229e+01
   9.689270e+01   1.334857e+01
   3.682427e+01   4.772499e+01
  -3.298139e+01   4.807601e+01
  -2.824089e+01   2.759988e+01
   3.766061e+01   1.707102e+00
   7.018305e+01  -5.877156e+00
   1.322531e+01   2.402366e+01
  -8.038175e+01   6.575230e+01
  -1.134779e+02   6.035764e+01
  -6.045987e+01  -1.072454e+01
   1.762623e+01  -8.318340e+01
   5.195290e+01  -7.841790e+01
   3.486022e+01  -2.083705e+00
   1.336447e-01   5.895782e+01
  -2.630499e+01   4.189836e+01
  -3.700102e+01  -2.125718e+01
  -2.688435e+01  -5.477966e+01
   2.657703e+00  -3.051700e+01
   3.311582e+01   9.697458e+00
   3.935017e+01   1.886683e+01
   2.083745e+01  -8.957164e-01
   5.910516e-01  -1.202518e+01
  -6.626068e+00   7.799999e+00
  -1.019313e+01   3.852937e+01
  -2.222678e+01   4.117066e+01
  -3.439994e+01   1.683228e+00
  -2.619762e+01  -4.903076e+01
   8.377612e+00  -6.097925e+01
   4.715927e+01  -1.816848e+01
   5.450956e+01   4.205836e+01
   1.222444e+01   6.454768e+01
  -5.492970e+01   3.354308e+01
  -8.736581e+01  -1.669372e+01
  -4.813522e+01  -4.440969e+01
   2.879777e+01  -3.892652e+01
   6.369588e+01  -1.875547e+01
   2.138630e+01  -4.555321e+00
  -4.072181e+01  -5.513214e+00
  -3.820192e+01  -2.023540e+01
   3.512968e+01  -3.344261e+01
   9.698826e+01  -1.831252e+01
