
 $NMID
 id='ANONYMOUS ', fmtdat='(2E16.6)'
 volume=1.0
 tramp=1.0
 $END
  -4.107089e+03  -5.918311e+01
  -2.463180e+03  -2.431521e+03
   5.979730e+02  -2.388899e+03
   1.863785e+03  -1.025388e+03
   9.031186e+02   5.059606e+02
  -3.802248e+02   5.211193e+02
  -7.704459e+02  -3.746556e+02
  -2.742720e+01  -9.180328e+02
   6.849551e+02  -6.595945e+02
   8.992547e+02   1.254543e+02
   4.797723e+02   7.588812e+02
  -1.765608e+02   7.542942e+02
  -5.625327e+02   1.069702e+02
  -4.064316e+02  -6.429370e+02
   2.739589e+02  -7.092761e+02
   5.849316e+02  -8.525726e+00
   3.031876e+02   6.717358e+02
  -2.770637e+02   6.845952e+02
  -5.591533e+02   2.113817e+02
  -4.411959e+02  -2.486674e+02
  -8.632197e+01  -4.513791e+02
   1.698233e+02  -2.942500e+02
   2.106339e+02  -5.874210e+01
  -1.376917e+02   1.104211e+01
  -3.860544e+02  -1.468039e+02
  -1.591003e+02  -3.716140e+02
   4.292430e+02  -3.522080e+02
   7.756382e+02   9.043472e+01
   3.768352e+02   4.708978e+02
  -3.543370e+02   4.012819e+02
  -6.652177e+02  -4.380889e+01
  -2.902420e+02  -4.267297e+02
   2.684667e+02  -4.733598e+02
   5.134574e+02  -1.948284e+02
   3.925188e+02   1.998736e+02
   9.556273e+01   4.229944e+02
  -1.329070e+02   2.391571e+02
  -1.179983e+02  -1.799653e+02
   1.601925e+02  -3.465002e+02
   3.732295e+02   7.389240e+01
   1.775747e+02   6.452623e+02
  -2.930841e+02   6.277207e+02
  -5.324943e+02  -8.077937e+00
  -2.214989e+02  -4.903398e+02
   2.455401e+02  -2.691479e+02
   3.246690e+02   3.111819e+02
  -7.472880e+01   5.112594e+02
  -5.147397e+02   1.256548e+02
  -5.637662e+02  -3.860112e+02
  -1.799343e+02  -5.595934e+02
   3.337130e+02  -3.309200e+02
   5.935702e+02   5.602366e+01
   3.846882e+02   3.390904e+02
  -1.063597e+02   3.387414e+02
  -4.073583e+02   8.932339e+01
  -2.575918e+02  -1.352054e+02
   7.426743e+01  -9.681316e+01
   1.298170e+02   1.062488e+02
  -1.390314e+02   1.546530e+02
  -3.347985e+02  -4.927971e+01
  -1.672838e+02  -2.694550e+02
   1.867598e+02  -2.777830e+02
   3.626601e+02  -1.085835e+02
   2.387934e+02   9.461034e+01
  -3.273835e+01   2.646824e+02
  -2.642051e+02   3.362642e+02
  -3.534532e+02   1.894371e+02
  -2.645805e+02  -1.518499e+02
  -6.324052e+01  -4.159154e+02
   8.813164e+01  -3.742767e+02
   9.099774e+01  -1.497235e+02
   4.150047e+01  -3.687004e+01
   9.246082e+01  -9.031248e+01
   2.238548e+02  -9.172823e+01
   2.651950e+02   7.910292e+01
   1.324180e+02   2.576039e+02
  -7.729953e+01   2.266036e+02
  -2.092589e+02  -4.859190e+00
  -1.730310e+02  -2.323112e+02
   2.015399e+01  -2.740711e+02
   2.585312e+02  -1.018217e+02
   3.484696e+02   1.645230e+02
   1.909081e+02   3.387243e+02
  -7.987082e+01   3.070956e+02
  -2.154256e+02   1.429154e+02
  -1.638280e+02   3.637338e+01
  -1.257836e+02   4.539974e+01
  -2.604417e+02   5.284924e+01
  -4.135305e+02  -7.668878e+01
  -3.296618e+02  -2.982245e+02
   1.347955e+01  -4.485608e+02
   3.760428e+02  -4.114963e+02
   4.889570e+02  -1.933682e+02
   3.202777e+02   9.412232e+01
   4.591771e+01   2.822305e+02
  -1.102363e+02   2.417459e+02
  -5.563732e+01   4.264878e+01
   1.057816e+02  -7.964015e+01
   1.654617e+02   1.282928e+01
   3.405245e+01   1.721928e+02
  -1.448518e+02   1.491775e+02
  -1.562357e+02  -5.371812e+01
   1.787787e+01  -1.711083e+02
   1.856843e+02  -2.172898e+01
   1.679700e+02   2.497263e+02
  -2.552702e+01   3.577106e+02
  -2.468613e+02   2.044107e+02
  -3.538417e+02  -6.694174e+01
  -2.859005e+02  -2.544057e+02
  -7.995223e+01  -2.697074e+02
   1.226952e+02  -1.512903e+02
   1.662107e+02  -1.686129e+01
   4.639556e+01   1.914927e+01
  -6.494181e+01  -5.356656e+01
  -1.654125e+01  -1.230161e+02
   1.264274e+02  -8.713307e+01
   1.706498e+02   1.777280e+01
   5.238906e+01   6.399561e+01
  -7.773858e+01   2.104690e+00
  -4.636049e+01  -8.253233e+01
   1.360706e+02  -8.410087e+01
   2.922367e+02   1.538524e+01
   2.620154e+02   1.574784e+02
   4.706522e+01   2.605294e+02
  -1.950262e+02   2.519973e+02
  -2.807164e+02   1.179796e+02
  -1.622929e+02  -4.615716e+01
   2.145394e+01  -9.733322e+01
   7.695375e+01  -5.831057e+00
  -4.324455e+01   9.058038e+01
  -1.936194e+02   4.733026e+01
  -2.045533e+02  -1.054736e+02
  -6.311435e+01  -2.034705e+02
   9.421286e+01  -1.520240e+02
   1.372450e+02  -2.593291e+01
   6.036297e+01   3.790694e+01
  -3.225868e+01  -8.197873e+00
  -2.918830e+01  -9.365073e+01
   8.594919e+01  -1.127254e+02
   2.047242e+02  -1.980747e+01
   1.879486e+02   1.301068e+02
   1.678157e+01   2.173387e+02
  -1.630350e+02   1.621355e+02
  -1.902686e+02   9.640835e+00
  -6.445417e+01  -1.076533e+02
   6.435626e+01  -1.052603e+02
   7.808686e+01  -2.669603e+01
   9.363687e+00   2.553749e+01
  -3.004317e+01   1.112101e+01
   1.108736e+01  -1.814975e+01
   8.252362e+01   6.331930e+00
   9.492777e+01   9.114263e+01
   7.499519e+00   1.682673e+02
  -1.388122e+02   1.514987e+02
  -2.376530e+02   1.530584e+01
  -1.961832e+02  -1.576042e+02
  -3.783236e+01  -2.377098e+02
   1.082499e+02  -1.684412e+02
   1.371106e+02  -2.888187e+01
   7.623915e+01   5.303466e+01
   3.319610e+01   3.493784e+01
   5.576918e+01  -1.098160e+01
   8.552620e+01  -3.398176e+00
   4.867131e+01   5.801256e+01
  -4.565675e+01   9.954606e+01
  -1.175109e+02   6.076676e+01
  -9.805225e+01  -4.274288e+01
   1.660700e+01  -1.213072e+02
   1.538675e+02  -8.637869e+01
   2.018940e+02   6.062501e+01
   9.303510e+01   2.094027e+02
  -1.159113e+02   2.250193e+02
  -2.709591e+02   8.749970e+01
  -2.570819e+02  -9.021691e+01
  -1.084353e+02  -1.743339e+02
   3.963431e+01  -1.441025e+02
   9.396504e+01  -8.551144e+01
   7.694376e+01  -7.503023e+01
   6.556687e+01  -9.763617e+01
   9.556455e+01  -7.846289e+01
   1.346951e+02   2.261577e+01
   1.213897e+02   1.588824e+02
   2.785458e+01   2.306266e+02
  -1.023513e+02   1.722451e+02
  -1.765647e+02   1.651887e+01
  -1.337083e+02  -1.258460e+02
  -1.412290e+01  -1.607443e+02
   7.246209e+01  -8.906243e+01
   6.133847e+01   5.261659e+00
   2.147656e-02   4.696573e+01
  -1.775787e+01   3.454773e+01
   3.377353e+01   1.642682e+01
   8.307694e+01   2.354422e+01
   4.669468e+01   4.080526e+01
  -7.005842e+01   3.577154e+01
  -1.671752e+02  -3.968379e+00
  -1.448121e+02  -5.890674e+01
  -7.528363e+00  -9.087399e+01
   1.285507e+02  -7.124039e+01
   1.463644e+02  -9.596811e+00
   4.539843e+01   4.380761e+01
  -6.260044e+01   3.905152e+01
  -7.798843e+01  -2.026664e+01
  -1.084928e+01  -7.384187e+01
   5.478506e+01  -6.383959e+01
   6.735159e+01   1.197437e+00
   5.004524e+01   5.362016e+01
   4.634159e+01   4.436793e+01
   6.174056e+01   1.507443e+00
   6.866944e+01   1.453405e+00
   3.940955e+01   7.388380e+01
  -3.334684e+01   1.537361e+02
  -1.251714e+02   1.450305e+02
  -1.751861e+02   3.098538e+01
  -1.282669e+02  -9.569736e+01
  -3.580974e+00  -1.303886e+02
   9.116581e+01  -6.475883e+01
   6.271707e+01   1.288157e+01
  -5.877979e+01   1.949422e+01
  -1.370093e+02  -4.379500e+01
  -7.385838e+01  -1.075172e+02
   8.331959e+01  -1.102409e+02
   1.921181e+02  -4.663127e+01
   1.606419e+02   3.912913e+01
   3.330206e+01   8.705527e+01
  -6.432031e+01   6.549338e+01
  -4.963927e+01   1.904120e+00
   4.129862e+01  -2.982105e+01
   9.449039e+01   2.230199e+01
   3.653294e+01   1.208884e+02
  -8.967932e+01   1.590626e+02
  -1.682331e+02   6.707355e+01
  -1.286887e+02  -1.000532e+02
  -1.106266e+01  -2.009288e+02
   8.716242e+01  -1.454180e+02
   1.057177e+02   1.043352e+01
   5.832926e+01   1.221849e+02
  -6.441623e+00   1.061999e+02
  -4.867267e+01   1.725253e+01
  -5.089814e+01  -3.206111e+01
  -2.341972e+01  -7.563499e+00
  -3.993365e+00   1.886439e+01
  -2.302658e+01  -1.981293e+01
  -5.659068e+01  -9.159282e+01
  -3.904458e+01  -1.086306e+02
   5.131693e+01  -4.380339e+01
   1.409449e+02   3.937693e+01
   1.304116e+02   7.133743e+01
   1.784380e+01   5.259329e+01
  -8.724807e+01   2.508224e+01
  -8.857992e+01   7.416391e+00
  -1.213919e+01  -9.597212e+00
   3.784467e+01  -2.239158e+01
   1.478654e+01  -1.553270e+01
  -2.084887e+01   3.086266e+00
   5.234297e+00   7.524852e+00
   7.493264e+01   1.683153e+00
   9.529215e+01   2.424585e+01
   1.289566e+01   8.376945e+01
  -1.189586e+02   1.190039e+02
  -1.924437e+02   6.224192e+01
  -1.496809e+02  -6.656867e+01
  -2.866752e+01  -1.653410e+02
   8.182512e+01  -1.557238e+02
   1.183065e+02  -6.295648e+01
   8.320378e+01   2.116613e+01
   2.656412e+01   3.781388e+01
  -1.328616e+00   1.132410e+01
   1.087079e+01   5.795310e+00
   3.207673e+01   4.771597e+01
   2.144853e+01   9.277887e+01
  -2.991106e+01   7.400564e+01
  -8.296368e+01  -1.780912e+01
  -8.109107e+01  -1.099995e+02
  -7.855179e+00  -1.163891e+02
   8.371573e+01  -2.824909e+01
   1.087434e+02   7.424100e+01
   3.645389e+01   1.073662e+02
  -6.786636e+01   6.086706e+01
  -1.027546e+02  -1.077444e+01
  -4.180454e+01  -5.469362e+01
   3.514249e+01  -5.604181e+01
   3.574536e+01  -2.827087e+01
  -3.169466e+01   3.404964e+00
  -7.021178e+01   8.413037e+00
  -1.645015e+01  -2.562000e+01
   8.006045e+01  -6.606000e+01
   1.190948e+02  -5.647459e+01
   6.718324e+01   1.531273e+01
  -1.625978e+01   8.614128e+01
  -5.798306e+01   8.165673e+01
  -4.294163e+01   6.437096e+00
  -4.192011e+00  -5.767139e+01
   2.742748e+01  -4.664415e+01
   3.969909e+01   1.607627e+01
   2.830505e+01   5.580910e+01
  -3.238730e+00   3.654774e+01
  -3.443698e+01  -7.492519e+00
  -4.022462e+01  -2.279256e+01
  -2.008554e+01  -1.870658e+00
   8.762388e-01   1.733962e+01
   4.738339e+00   1.015419e+00
   1.767586e+00  -3.684337e+01
   1.220925e+01  -4.995726e+01
   3.270485e+01  -1.346658e+01
   3.590185e+01   4.301893e+01
   3.408137e+00   6.284551e+01
  -4.462882e+01   2.323101e+01
  -6.053989e+01  -3.815849e+01
  -1.691094e+01  -6.390514e+01
   5.693140e+01  -3.572578e+01
   9.294428e+01   1.389424e+01
   5.132856e+01   4.446625e+01
  -2.893847e+01   4.353185e+01
  -6.610904e+01   2.491370e+01
  -2.615692e+01   5.969925e+00
   3.499342e+01   1.416897e-01
   3.720398e+01   1.288562e+01
  -2.910319e+01   3.061595e+01
  -8.952863e+01   2.108256e+01
