
 $NMID
 id='ANONYMOUS ', fmtdat='(2E16.6)'
 volume=1.0
 tramp=1.0
 $END
   4.812742e+03  -7.923765e+01
   2.890991e+03   3.092393e+03
  -7.631661e+02   3.237811e+03
  -2.304941e+03   1.119298e+03
  -1.034678e+03  -9.162948e+02
   6.779267e+02  -5.926133e+02
   1.003482e+03   6.023926e+02
  -1.390656e+01   1.292938e+03
  -9.312619e+02   8.960386e+02
  -1.142508e+03  -1.660557e+02
  -4.133580e+02  -9.466784e+02
   3.001862e+02  -9.206427e+02
   7.456414e+02  -1.038611e+02
   4.465420e+02   8.136446e+02
  -3.478030e+02   8.388410e+02
  -7.319150e+02   5.284874e+01
  -2.690057e+02  -8.109927e+02
   3.728231e+02  -7.332625e+02
   6.280608e+02  -5.171479e+01
   4.106739e+02   4.521581e+02
   1.549602e+00   4.951629e+02
  -2.792470e+02   2.727580e+02
  -2.661732e+02   8.710990e+00
   1.003869e+02  -7.245901e+01
   4.235509e+02   9.428435e+01
   2.300637e+02   4.731821e+02
  -4.728236e+02   4.782697e+02
  -9.422820e+02  -4.451955e+01
  -5.255569e+02  -5.980666e+02
   3.863676e+02  -5.561113e+02
   8.163647e+02  -1.877031e+01
   4.072346e+02   5.036373e+02
  -2.973170e+02   5.812561e+02
  -6.277714e+02   2.450232e+02
  -4.796186e+02  -2.572076e+02
  -6.898169e+01  -5.376079e+02
   2.515041e+02  -3.145876e+02
   2.189996e+02   2.389078e+02
  -1.908365e+02   4.885535e+02
  -5.194059e+02  -9.134062e+00
  -2.858112e+02  -7.473226e+02
   3.437481e+02  -7.705536e+02
   6.759502e+02  -1.657963e+01
   3.088596e+02   6.040878e+02
  -3.112585e+02   3.610928e+02
  -4.442946e+02  -3.298460e+02
   4.062464e+01  -5.791767e+02
   5.843473e+02  -1.598050e+02
   6.314895e+02   4.074701e+02
   1.855258e+02   6.126564e+02
  -3.961184e+02   3.727232e+02
  -6.633249e+02  -7.343509e+01
  -3.934794e+02  -4.208754e+02
   1.788933e+02  -4.081082e+02
   4.898179e+02  -5.557217e+01
   2.588884e+02   2.322668e+02
  -1.438655e+02   1.297751e+02
  -1.636179e+02  -1.725321e+02
   1.922205e+02  -2.098289e+02
   3.941779e+02   8.958382e+01
   1.504276e+02   3.360511e+02
  -2.338294e+02   2.691903e+02
  -3.470615e+02   5.487473e+01
  -1.764017e+02  -8.932358e+01
   4.497659e+01  -1.973302e+02
   2.105814e+02  -3.025760e+02
   3.212379e+02  -2.249470e+02
   2.995125e+02   1.235519e+02
   9.508452e+01   4.479340e+02
  -1.275452e+02   4.085724e+02
  -1.559306e+02   1.133266e+02
  -4.124596e+01  -3.956834e+01
  -2.392598e+01   6.323779e+01
  -1.679887e+02   1.346552e+02
  -2.742829e+02  -3.306735e+01
  -1.780196e+02  -2.647045e+02
   5.474173e+01  -2.721453e+02
   2.313404e+02  -3.180152e+01
   2.188780e+02   2.314823e+02
   1.041851e+01   3.086394e+02
  -2.652557e+02   1.386656e+02
  -3.839192e+02  -1.565942e+02
  -2.090288e+02  -3.659807e+02
   1.031676e+02  -3.337491e+02
   2.502865e+02  -1.291733e+02
   1.672617e+02   1.262200e+01
   9.495038e+01  -1.652304e+01
   2.245173e+02  -6.701639e+01
   3.965177e+02   4.339552e+01
   3.398558e+02   2.818411e+02
   8.702256e+00   4.510507e+02
  -3.537207e+02   4.271899e+02
  -4.941021e+02   2.153956e+02
  -3.540486e+02  -8.681445e+01
  -7.366555e+01  -3.076405e+02
   1.311468e+02  -2.783466e+02
   1.013589e+02  -3.917806e+01
  -9.809491e+01   1.242674e+02
  -2.090989e+02   1.304553e+01
  -6.533821e+01  -2.049552e+02
   1.688023e+02  -1.957857e+02
   1.981163e+02   5.582822e+01
  -1.337501e+01   2.139758e+02
  -2.084464e+02   4.907224e+01
  -1.742777e+02  -2.547671e+02
   3.483398e+01  -3.617952e+02
   2.327784e+02  -1.937152e+02
   3.199764e+02   6.674669e+01
   2.753429e+02   2.349639e+02
   1.050243e+02   2.586038e+02
  -1.041592e+02   1.643281e+02
  -1.832439e+02   2.967130e+01
  -6.967451e+01  -2.921875e+01
   6.944110e+01   3.583167e+01
   3.532832e+01   1.268223e+02
  -1.257592e+02   1.068672e+02
  -1.897018e+02  -1.020489e+01
  -6.854834e+01  -7.939421e+01
   7.742494e+01  -2.637497e+01
   5.858215e+01   6.666571e+01
  -1.150383e+02   8.553380e+01
  -2.709451e+02   5.179069e+00
  -2.601511e+02  -1.290837e+02
  -7.114051e+01  -2.489363e+02
   1.700284e+02  -2.686383e+02
   2.832942e+02  -1.398836e+02
   1.830308e+02   4.958114e+01
  -1.588646e+01   1.222749e+02
  -9.616391e+01   1.899958e+01
   2.269852e+01  -1.054025e+02
   1.932526e+02  -7.057547e+01
   2.185466e+02   9.789121e+01
   7.466152e+01   2.125843e+02
  -9.328781e+01   1.655971e+02
  -1.475544e+02   3.485698e+01
  -7.834517e+01  -3.942430e+01
   1.993455e+01  -7.715688e+00
   3.674310e+01   7.252369e+01
  -6.372656e+01   1.052296e+02
  -1.907219e+02   3.121354e+01
  -1.932919e+02  -1.169889e+02
  -2.757597e+01  -2.184515e+02
   1.642028e+02  -1.707652e+02
   2.012708e+02  -9.988805e+00
   7.299407e+01   1.165942e+02
  -6.357664e+01   1.158169e+02
  -8.360415e+01   3.495327e+01
  -2.118070e+01  -2.170906e+01
   1.528149e+01  -1.717756e+01
  -1.482132e+01   3.668695e+00
  -6.863292e+01  -1.360284e+01
  -8.047674e+01  -7.931418e+01
  -1.277235e+01  -1.505381e+02
   1.194967e+02  -1.490925e+02
   2.263627e+02  -3.144390e+01
   2.008121e+02   1.436671e+02
   4.477936e+01   2.372160e+02
  -1.084666e+02   1.729180e+02
  -1.375800e+02   2.705875e+01
  -7.052515e+01  -5.798895e+01
  -2.798302e+01  -3.645481e+01
  -5.433375e+01   1.150080e+01
  -8.058169e+01   3.570203e+00
  -3.886956e+01  -5.181484e+01
   4.562790e+01  -8.515843e+01
   9.946242e+01  -5.152301e+01
   7.977742e+01   3.461920e+01
  -1.183185e+01   1.051534e+02
  -1.327690e+02   8.482172e+01
  -1.915190e+02  -4.356228e+01
  -1.072924e+02  -1.940643e+02
   9.410487e+01  -2.289775e+02
   2.611955e+02  -1.026119e+02
   2.621792e+02   8.089922e+01
   1.183524e+02   1.763379e+02
  -3.406280e+01   1.495288e+02
  -9.591022e+01   8.858941e+01
  -8.343189e+01   7.288714e+01
  -7.116291e+01   9.142996e+01
  -9.414877e+01   7.210205e+01
  -1.275196e+02  -2.317560e+01
  -1.175933e+02  -1.525658e+02
  -3.196049e+01  -2.244606e+02
   9.527508e+01  -1.742756e+02
   1.745730e+02  -2.570732e+01
   1.391122e+02   1.169994e+02
   2.391560e+01   1.578318e+02
  -6.311072e+01   9.385906e+01
  -5.823301e+01   4.889656e+00
  -6.661054e+00  -3.785684e+01
   6.912159e+00  -3.273439e+01
  -3.716001e+01  -2.043750e+01
  -7.606892e+01  -2.530603e+01
  -4.209193e+01  -3.718761e+01
   6.037568e+01  -3.330868e+01
   1.506546e+02  -2.167128e+00
   1.403097e+02   4.733123e+01
   1.984495e+01   8.391186e+01
  -1.140854e+02   7.344865e+01
  -1.429384e+02   1.699554e+01
  -5.009188e+01  -3.701238e+01
   5.795071e+01  -3.608596e+01
   7.371481e+01   1.798061e+01
   5.137337e+00   6.668868e+01
  -5.673746e+01   5.650163e+01
  -6.063473e+01  -2.671274e+00
  -4.030976e+01  -4.989433e+01
  -4.265495e+01  -4.150862e+01
  -6.323507e+01  -2.191440e+00
  -6.569218e+01  -7.502254e-01
  -3.143149e+01  -6.672609e+01
   3.470480e+01  -1.428895e+02
   1.128201e+02  -1.380770e+02
   1.587349e+02  -3.204183e+01
   1.213527e+02   8.960828e+01
   8.575657e+00   1.232214e+02
  -8.391993e+01   5.970394e+01
  -6.074359e+01  -1.574438e+01
   5.721429e+01  -2.068949e+01
   1.375326e+02   4.173579e+01
   7.866444e+01   1.056976e+02
  -7.704712e+01   1.130531e+02
  -1.890240e+02   5.557293e+01
  -1.634962e+02  -3.034937e+01
  -4.001598e+01  -8.641845e+01
   5.844381e+01  -7.245365e+01
   4.828317e+01  -9.400580e+00
  -3.857426e+01   2.606788e+01
  -9.016066e+01  -2.349757e+01
  -3.152784e+01  -1.199093e+02
   9.439390e+01  -1.544425e+02
   1.703983e+02  -6.097806e+01
   1.274801e+02   1.020601e+02
   9.690855e+00   1.982668e+02
  -8.525330e+01   1.452877e+02
  -1.035016e+02  -4.239957e+00
  -6.166575e+01  -1.154014e+02
  -1.946329e+00  -1.057862e+02
   4.296278e+01  -2.112268e+01
   5.317275e+01   3.040056e+01
   2.833050e+01   8.175354e+00
   3.001869e+00  -2.190764e+01
   1.689492e+01   1.322950e+01
   5.486480e+01   8.752916e+01
   4.614299e+01   1.098584e+02
  -4.251479e+01   4.592472e+01
  -1.384332e+02  -3.925602e+01
  -1.326378e+02  -7.056057e+01
  -1.783467e+01  -4.865838e+01
   9.033280e+01  -2.156929e+01
   8.931240e+01  -8.178256e+00
   9.047623e+00   7.000087e+00
  -3.965126e+01   2.354606e+01
  -1.230869e+01   2.045570e+01
   2.297411e+01   5.886746e-02
  -8.014956e+00  -9.289720e+00
  -7.811257e+01  -5.525193e+00
  -9.147923e+01  -2.574091e+01
  -4.313375e+00  -8.105162e+01
   1.219864e+02  -1.127260e+02
   1.843334e+02  -5.484277e+01
   1.375232e+02   7.065256e+01
   2.300579e+01   1.621522e+02
  -7.928760e+01   1.471222e+02
  -1.138688e+02   5.523853e+01
  -8.048598e+01  -2.354417e+01
  -2.372983e+01  -3.555561e+01
   5.440841e+00  -7.447788e+00
  -8.662073e+00  -2.144917e+00
  -3.346483e+01  -4.388776e+01
  -2.348633e+01  -8.945307e+01
   2.950838e+01  -7.134430e+01
   8.125251e+01   2.028004e+01
   7.454881e+01   1.112689e+02
  -1.991218e-01   1.130497e+02
  -8.539155e+01   2.065155e+01
  -1.019885e+02  -7.978596e+01
  -2.921440e+01  -1.045156e+02
   6.718535e+01  -5.308996e+01
   9.545988e+01   1.330253e+01
   3.641944e+01   4.807713e+01
  -3.255298e+01   4.793005e+01
  -2.841809e+01   2.673294e+01
   3.647776e+01   6.154367e-01
   6.929176e+01  -6.156735e+00
   1.364591e+01   2.398906e+01
  -7.864962e+01   6.491336e+01
  -1.124981e+02   5.887732e+01
  -6.044779e+01  -1.132033e+01
   1.714075e+01  -8.235699e+01
   5.227317e+01  -7.712390e+01
   3.550362e+01  -2.210411e+00
   1.325851e-01   5.784307e+01
  -2.705558e+01   4.128496e+01
  -3.718501e+01  -2.105736e+01
  -2.603917e+01  -5.432380e+01
   3.775758e+00  -3.085468e+01
   3.288059e+01   9.356578e+00
   3.848586e+01   1.937750e+01
   2.057821e+01  -3.995713e-01
   1.309483e+00  -1.232844e+01
  -5.658677e+00   6.816099e+00
  -9.403574e+00   3.832733e+01
  -2.180626e+01   4.254849e+01
  -3.464428e+01   3.848279e+00
  -2.742048e+01  -4.792943e+01
   6.362088e+00  -6.154739e+01
   4.568408e+01  -1.922800e+01
   5.438049e+01   4.138946e+01
   1.277145e+01   6.397029e+01
  -5.428263e+01   3.307602e+01
  -8.753022e+01  -1.712098e+01
  -4.882943e+01  -4.429131e+01
   2.821850e+01  -3.917158e+01
   6.426341e+01  -1.996559e+01
   2.310987e+01  -5.468168e+00
  -3.895695e+01  -4.584599e+00
  -3.797137e+01  -1.791508e+01
   3.341122e+01  -3.194146e+01
   9.468077e+01  -1.893738e+01
