
 $NMID
 id='ANONYMOUS ', fmtdat='(2E16.6)'
 volume=1.0
 tramp=1.0
 $END
   4.422879e+03  -1.181120e+02
   2.873723e+03   2.717688e+03
  -6.837953e+02   2.835404e+03
  -1.909409e+03   1.083895e+03
  -1.247193e+03  -4.578331e+02
   4.917652e+02  -5.942475e+02
   8.679944e+02   3.766510e+02
   6.473697e+01   1.057195e+03
  -6.811721e+02   8.694581e+02
  -1.012113e+03  -4.555548e+01
  -5.189242e+02  -8.470986e+02
   2.566079e+02  -8.420550e+02
   5.665035e+02  -1.170949e+02
   3.941538e+02   7.237196e+02
  -2.783679e+02   7.191725e+02
  -5.843486e+02   4.360177e+01
  -2.331586e+02  -6.946806e+02
   2.358620e+02  -7.157658e+02
   5.606689e+02  -1.975629e+02
   4.196779e+02   3.650950e+02
   4.517783e+01   4.865144e+02
  -2.484723e+02   2.745567e+02
  -2.078232e+02   3.329102e+01
   1.245886e+02  -8.784628e+01
   4.304255e+02   1.273567e+02
   2.130278e+02   4.431348e+02
  -4.312926e+02   4.238552e+02
  -8.470099e+02  -5.901657e+01
  -4.772397e+02  -5.223671e+02
   3.716150e+02  -4.586184e+02
   7.432816e+02   1.002556e+01
   3.754624e+02   4.564080e+02
  -2.576573e+02   5.108855e+02
  -5.597715e+02   2.307363e+02
  -4.288347e+02  -2.124229e+02
  -8.803432e+01  -4.603882e+02
   1.976014e+02  -2.978150e+02
   1.708635e+02   1.801360e+02
  -1.799933e+02   4.266801e+02
  -4.523526e+02  -1.569213e+01
  -2.453964e+02  -6.693432e+02
   3.144277e+02  -7.077637e+02
   5.941228e+02  -2.691930e+01
   2.527504e+02   5.257667e+02
  -2.891493e+02   3.029065e+02
  -3.794308e+02  -3.231829e+02
   7.329390e+01  -5.387608e+02
   5.739824e+02  -1.320447e+02
   5.982693e+02   4.044004e+02
   1.633276e+02   5.820127e+02
  -3.865723e+02   3.398060e+02
  -6.334664e+02  -6.674525e+01
  -3.784775e+02  -3.772478e+02
   1.469837e+02  -3.644353e+02
   4.375184e+02  -6.329821e+01
   2.419921e+02   1.846960e+02
  -1.160967e+02   9.534083e+01
  -1.425248e+02  -1.672577e+02
   1.694133e+02  -1.932205e+02
   3.558709e+02   8.018998e+01
   1.454087e+02   3.085686e+02
  -2.081454e+02   2.564988e+02
  -3.300528e+02   5.855873e+01
  -1.827440e+02  -9.821458e+01
   3.916945e+01  -2.222688e+02
   2.190005e+02  -3.157064e+02
   3.271285e+02  -2.170806e+02
   2.908991e+02   1.270275e+02
   9.227777e+01   4.322324e+02
  -1.033859e+02   3.971131e+02
  -1.251956e+02   1.294041e+02
  -4.113340e+01  -1.096969e+01
  -5.516182e+01   7.006191e+01
  -1.935975e+02   1.135463e+02
  -2.699388e+02  -5.492267e+01
  -1.540445e+02  -2.605568e+02
   6.797291e+01  -2.472309e+02
   2.231048e+02  -9.366920e+00
   1.978347e+02   2.313063e+02
  -3.348497e+00   2.865421e+02
  -2.582789e+02   1.177810e+02
  -3.655164e+02  -1.556865e+02
  -1.975875e+02  -3.455191e+02
   9.393907e+01  -3.125873e+02
   2.322834e+02  -1.307272e+02
   1.600994e+02  -2.984674e+00
   1.052402e+02  -2.096043e+01
   2.288263e+02  -5.620296e+01
   3.917736e+02   5.201704e+01
   3.264612e+02   2.744744e+02
   3.936705e-01   4.346703e+02
  -3.521601e+02   4.119218e+02
  -4.799128e+02   2.070355e+02
  -3.312429e+02  -8.652698e+01
  -5.939793e+01  -2.904096e+02
   1.251565e+02  -2.578499e+02
   8.373833e+01  -3.809601e+01
  -1.013751e+02   1.072522e+02
  -1.936378e+02   4.871760e+00
  -5.502870e+01  -1.853258e+02
   1.532271e+02  -1.722854e+02
   1.744553e+02   5.408948e+01
  -1.719338e+01   1.907055e+02
  -1.957233e+02   3.468145e+01
  -1.659454e+02  -2.463065e+02
   2.809688e+01  -3.484526e+02
   2.255685e+02  -1.919828e+02
   3.186282e+02   5.958465e+01
   2.735325e+02   2.276630e+02
   9.986233e+01   2.520172e+02
  -1.040569e+02   1.581878e+02
  -1.729828e+02   2.743979e+01
  -6.017316e+01  -2.476700e+01
   6.813339e+01   4.001706e+01
   2.938932e+01   1.235748e+02
  -1.245049e+02   9.997209e+01
  -1.816006e+02  -1.087439e+01
  -6.189278e+01  -7.188484e+01
   7.696616e+01  -1.663476e+01
   5.334998e+01   7.124714e+01
  -1.215966e+02   8.258275e+01
  -2.744795e+02  -3.889384e+00
  -2.555490e+02  -1.364894e+02
  -6.052344e+01  -2.455112e+02
   1.749948e+02  -2.546548e+02
   2.753882e+02  -1.294386e+02
   1.713043e+02   4.472918e+01
  -1.703544e+01   1.085393e+02
  -8.665681e+01   1.348261e+01
   2.992747e+01  -9.715331e+01
   1.902807e+02  -5.993631e+01
   2.112551e+02   9.922642e+01
   7.133939e+01   2.060859e+02
  -9.094402e+01   1.586475e+02
  -1.419011e+02   3.195183e+01
  -7.158053e+01  -3.758818e+01
   2.373406e+01  -1.492874e+00
   3.357082e+01   7.931165e+01
  -7.022357e+01   1.064983e+02
  -1.921797e+02   2.699482e+01
  -1.873573e+02  -1.194386e+02
  -2.210437e+01  -2.135465e+02
   1.610780e+02  -1.633608e+02
   1.926502e+02  -8.541984e+00
   6.660031e+01   1.118502e+02
  -6.438823e+01   1.097515e+02
  -8.031455e+01   3.021748e+01
  -1.634676e+01  -2.413896e+01
   2.047977e+01  -1.649177e+01
  -1.276366e+01   7.177029e+00
  -6.991675e+01  -1.093405e+01
  -8.178385e+01  -8.103193e+01
  -9.082689e+00  -1.523311e+02
   1.238106e+02  -1.461038e+02
   2.247718e+02  -2.528304e+01
   1.949980e+02   1.449464e+02
   4.192803e+01   2.326226e+02
  -1.046751e+02   1.683710e+02
  -1.332433e+02   2.829143e+01
  -6.983754e+01  -5.438670e+01
  -2.906799e+01  -3.591613e+01
  -5.355332e+01   1.006595e+01
  -7.983777e+01   3.605576e+00
  -4.029187e+01  -5.014321e+01
   4.388331e+01  -8.629958e+01
   1.013836e+02  -5.377064e+01
   8.335346e+01   3.490986e+01
  -1.307292e+01   1.067716e+02
  -1.364467e+02   8.375954e+01
  -1.918559e+02  -4.747744e+01
  -1.005789e+02  -1.949741e+02
   1.003081e+02  -2.245053e+02
   2.602963e+02  -9.748742e+01
   2.553630e+02   8.176787e+01
   1.119112e+02   1.737600e+02
  -3.493199e+01   1.454182e+02
  -9.113353e+01   8.511450e+01
  -7.787517e+01   7.120410e+01
  -6.840427e+01   9.222109e+01
  -9.391858e+01   7.443685e+01
  -1.275595e+02  -2.112120e+01
  -1.155980e+02  -1.511773e+02
  -2.943890e+01  -2.223395e+02
   9.522249e+01  -1.702402e+02
   1.707136e+02  -2.167627e+01
   1.334332e+02   1.188573e+02
   1.880491e+01   1.566258e+02
  -6.664686e+01   9.023548e+01
  -5.969777e+01   3.141450e-02
  -4.664507e+00  -4.228515e+01
   1.087209e+01  -3.430493e+01
  -3.521376e+01  -1.898053e+01
  -7.775358e+01  -2.367770e+01
  -4.342175e+01  -3.757239e+01
   6.238001e+01  -3.434802e+01
   1.535307e+02  -1.142269e+00
   1.393880e+02   4.954112e+01
   1.630159e+01   8.380216e+01
  -1.151008e+02   7.080383e+01
  -1.401005e+02   1.491864e+01
  -4.782508e+01  -3.665330e+01
   5.703121e+01  -3.428760e+01
   7.251707e+01   1.893389e+01
   7.049640e+00   6.636662e+01
  -5.389486e+01   5.607065e+01
  -6.067680e+01  -2.773404e+00
  -4.239656e+01  -4.919045e+01
  -4.333565e+01  -4.006270e+01
  -6.201979e+01  -8.223549e-01
  -6.556152e+01  -3.383276e-01
  -3.351709e+01  -6.743001e+01
   3.347970e+01  -1.435836e+02
   1.140195e+02  -1.376697e+02
   1.600608e+02  -3.112940e+01
   1.204884e+02   8.915099e+01
   6.841454e+00   1.223050e+02
  -8.454220e+01   5.936999e+01
  -5.997812e+01  -1.418742e+01
   5.686350e+01  -1.877766e+01
   1.351862e+02   4.261877e+01
   7.578853e+01   1.041046e+02
  -7.857536e+01   1.092725e+02
  -1.876007e+02   5.090452e+01
  -1.598353e+02  -3.270301e+01
  -3.682509e+01  -8.460130e+01
   5.948566e+01  -6.874368e+01
   4.770608e+01  -6.811251e+00
  -3.847764e+01   2.652883e+01
  -8.890197e+01  -2.249456e+01
  -3.206637e+01  -1.171495e+02
   8.981548e+01  -1.516836e+02
   1.635670e+02  -6.086761e+01
   1.230397e+02   9.853912e+01
   9.117771e+00   1.927752e+02
  -8.349756e+01   1.398661e+02
  -1.009858e+02  -7.476189e+00
  -5.809179e+01  -1.155541e+02
   1.982224e+00  -1.040073e+02
   4.473429e+01  -2.011212e+01
   5.165346e+01   3.002128e+01
   2.643470e+01   8.357126e+00
   3.923040e+00  -1.960061e+01
   1.904300e+01   1.546947e+01
   5.418935e+01   8.693229e+01
   4.238101e+01   1.068827e+02
  -4.453724e+01   4.361662e+01
  -1.355205e+02  -3.922664e+01
  -1.279484e+02  -6.973648e+01
  -1.675358e+01  -4.825478e+01
   8.748499e+01  -2.104447e+01
   8.674507e+01  -6.768199e+00
   9.476277e+00   7.663462e+00
  -3.835303e+01   2.181627e+01
  -1.276747e+01   1.748466e+01
   2.188721e+01  -1.382279e+00
  -6.832619e+00  -8.709386e+00
  -7.498912e+01  -3.905288e+00
  -9.016540e+01  -2.439712e+01
  -6.431784e+00  -7.996333e+01
   1.182828e+02  -1.123068e+02
   1.823718e+02  -5.644576e+01
   1.383700e+02   6.716877e+01
   2.482248e+01   1.593904e+02
  -7.741616e+01   1.467049e+02
  -1.119470e+02   5.696169e+01
  -7.938101e+01  -2.144464e+01
  -2.428709e+01  -3.489927e+01
   3.598251e+00  -8.336666e+00
  -9.342600e+00  -3.233503e+00
  -3.217718e+01  -4.434414e+01
  -2.219915e+01  -8.845325e+01
   2.908305e+01  -7.034844e+01
   7.976933e+01   1.941523e+01
   7.470957e+01   1.084748e+02
   2.004676e+00   1.111274e+02
  -8.315401e+01   2.227701e+01
  -1.018560e+02  -7.616111e+01
  -3.064963e+01  -1.025993e+02
   6.619938e+01  -5.451049e+01
   9.592690e+01   1.142877e+01
   3.771979e+01   4.880233e+01
  -3.240489e+01   5.015703e+01
  -3.029930e+01   2.793352e+01
   3.354327e+01   6.890392e-02
   6.766926e+01  -7.146456e+00
   1.451199e+01   2.309016e+01
  -7.686002e+01   6.343703e+01
  -1.118660e+02   5.691493e+01
  -6.142425e+01  -1.188129e+01
   1.621475e+01  -8.134243e+01
   5.283958e+01  -7.699835e+01
   3.731366e+01  -3.676151e+00
   1.457910e+00   5.650343e+01
  -2.666002e+01   4.251749e+01
  -3.709513e+01  -1.868751e+01
  -2.634652e+01  -5.378784e+01
   3.331722e+00  -3.218223e+01
   3.252646e+01   8.450635e+00
   3.824436e+01   2.019482e+01
   2.015079e+01   4.003457e-01
   8.504807e-01  -1.368285e+01
  -4.962097e+00   4.070396e+00
  -6.348047e+00   3.678607e+01
  -1.759762e+01   4.345472e+01
  -3.240305e+01   6.822595e+00
  -2.904986e+01  -4.426421e+01
   2.853745e+00  -5.867715e+01
   4.373868e+01  -1.919192e+01
   5.496215e+01   3.886682e+01
   1.421600e+01   6.160256e+01
  -5.335289e+01   3.345467e+01
  -8.733476e+01  -1.455118e+01
  -4.924437e+01  -4.256399e+01
   2.711592e+01  -3.957283e+01
   6.298051e+01  -2.132569e+01
   2.359525e+01  -5.583011e+00
  -3.646406e+01  -2.885560e+00
  -3.657094e+01  -1.592462e+01
   3.104637e+01  -3.059026e+01
   8.992352e+01  -1.880824e+01
