
 $NMID
 id='ANONYMOUS ', fmtdat='(2E16.6)'
 volume=1.0
 tramp=1.0
 $END
   4.324645e+03  -2.917463e+01
   2.813207e+03   2.705160e+03
  -3.758137e+02   2.872366e+03
  -2.010605e+03   1.383234e+03
  -1.161753e+03  -9.676292e+01
   4.329490e+02  -4.366017e+02
   7.324814e+02   4.908805e+02
   2.986199e+01   1.011483e+03
  -6.969383e+02   6.783054e+02
  -9.939534e+02  -6.453108e+01
  -5.101784e+02  -8.399253e+02
   6.499270e+01  -9.492580e+02
   6.666055e+02  -2.157951e+02
   4.163283e+02   6.675358e+02
  -2.369228e+02   8.188488e+02
  -6.761093e+02   8.878885e+01
  -2.841694e+02  -6.839227e+02
   2.645018e+02  -6.913563e+02
   6.269795e+02  -1.153158e+02
   4.678233e+02   3.483312e+02
   3.913370e+01   4.532655e+02
  -2.426187e+02   2.520039e+02
  -1.946476e+02   3.760930e+01
   1.083566e+02   5.081461e+00
   3.835975e+02   1.871846e+02
   1.243704e+02   4.520331e+02
  -5.020954e+02   3.264322e+02
  -7.982312e+02  -1.253397e+02
  -3.536152e+02  -5.100689e+02
   4.044743e+02  -4.311352e+02
   6.941543e+02   4.611816e+01
   3.204509e+02   4.843346e+02
  -2.975593e+02   5.170400e+02
  -6.057983e+02   2.015257e+02
  -4.251780e+02  -2.300711e+02
  -6.803079e+01  -4.613034e+02
   1.742448e+02  -2.711465e+02
   1.143712e+02   2.000391e+02
  -1.886244e+02   3.492797e+02
  -3.930853e+02  -7.116044e+01
  -1.939018e+02  -6.585496e+02
   3.250428e+02  -6.477728e+02
   5.609530e+02   1.090515e+01
   2.301982e+02   5.053281e+02
  -2.568786e+02   2.821008e+02
  -3.297959e+02  -3.199670e+02
   8.662820e+01  -5.114849e+02
   5.492909e+02  -1.149330e+02
   5.693066e+02   4.181791e+02
   1.566667e+02   5.911262e+02
  -3.750186e+02   3.460762e+02
  -6.164504e+02  -7.763713e+01
  -3.799105e+02  -3.706966e+02
   1.246932e+02  -3.465081e+02
   4.101695e+02  -6.022459e+01
   2.404519e+02   1.609560e+02
  -8.660514e+01   8.442403e+01
  -1.144955e+02  -1.330572e+02
   1.623341e+02  -1.494875e+02
   3.228428e+02   8.503101e+01
   1.223738e+02   2.856478e+02
  -2.175998e+02   2.539030e+02
  -3.521939e+02   7.788913e+01
  -2.142748e+02  -1.020365e+02
   3.638865e+01  -2.653380e+02
   2.573847e+02  -3.544397e+02
   3.666796e+02  -2.111240e+02
   2.958609e+02   1.552928e+02
   7.864899e+01   4.381951e+02
  -1.012052e+02   3.836817e+02
  -1.058206e+02   1.361824e+02
  -2.988900e+01   2.390722e+01
  -6.359160e+01   9.717419e+01
  -2.096600e+02   1.072559e+02
  -2.775146e+02  -7.986030e+01
  -1.527103e+02  -2.781084e+02
   7.856557e+01  -2.449544e+02
   2.316948e+02   6.917242e+00
   1.990187e+02   2.532772e+02
  -1.418806e+01   2.958732e+02
  -2.685615e+02   1.072330e+02
  -3.640026e+02  -1.709736e+02
  -1.889215e+02  -3.436371e+02
   9.242078e+01  -3.024290e+02
   2.207569e+02  -1.310169e+02
   1.537328e+02  -2.493622e+01
   1.122244e+02  -4.420209e+01
   2.518625e+02  -5.565308e+01
   4.213947e+02   7.101117e+01
   3.501051e+02   3.032170e+02
  -5.906666e+00   4.612186e+02
  -3.833143e+02   4.252386e+02
  -5.113151e+02   2.004066e+02
  -3.415173e+02  -9.959833e+01
  -4.833273e+01  -2.944337e+02
   1.297625e+02  -2.518269e+02
   7.035141e+01  -3.551708e+01
  -1.130012e+02   9.829300e+01
  -1.850201e+02  -8.536051e+00
  -4.161298e+01  -1.852593e+02
   1.528840e+02  -1.603824e+02
   1.637584e+02   6.050764e+01
  -2.682154e+01   1.854699e+02
  -1.966979e+02   2.673881e+01
  -1.686993e+02  -2.544457e+02
   2.764605e+01  -3.665140e+02
   2.406064e+02  -2.101535e+02
   3.457972e+02   6.283734e+01
   2.910724e+02   2.545979e+02
   9.370336e+01   2.764428e+02
  -1.189136e+02   1.591891e+02
  -1.789632e+02   1.612445e+01
  -5.845030e+01  -2.528357e+01
   6.431427e+01   5.168154e+01
   1.999268e+01   1.298796e+02
  -1.301550e+02   9.234204e+01
  -1.782610e+02  -2.172719e+01
  -5.536897e+01  -7.512589e+01
   8.134511e+01  -1.260070e+01
   5.199565e+01   7.891488e+01
  -1.315187e+02   8.987810e+01
  -2.912211e+02  -3.820133e+00
  -2.670232e+02  -1.502477e+02
  -5.478258e+01  -2.664043e+02
   1.934093e+02  -2.660724e+02
   2.885499e+02  -1.247651e+02
   1.701377e+02   5.384497e+01
  -2.320339e+01   1.092627e+02
  -8.532098e+01   8.385839e+00
   3.845022e+01  -9.765642e+01
   1.968279e+02  -5.345188e+01
   2.108754e+02   1.066240e+02
   6.704629e+01   2.089752e+02
  -9.563107e+01   1.569571e+02
  -1.442885e+02   2.781045e+01
  -6.858425e+01  -3.980633e+01
   3.075575e+01   3.099649e+00
   3.661376e+01   9.022778e+01
  -7.878135e+01   1.149604e+02
  -2.071755e+02   2.476389e+01
  -1.957769e+02  -1.292620e+02
  -1.918088e+01  -2.219137e+02
   1.690239e+02  -1.662117e+02
   1.970019e+02  -8.675366e+00
   6.650235e+01   1.123912e+02
  -6.626182e+01   1.114112e+02
  -8.143060e+01   3.214307e+01
  -1.404257e+01  -2.372719e+01
   2.596518e+01  -1.468292e+01
  -1.020763e+01   1.254431e+01
  -7.837314e+01  -6.692833e+00
  -9.720920e+01  -8.552698e+01
  -1.651701e+01  -1.659740e+02
   1.336296e+02  -1.566806e+02
   2.419584e+02  -2.501472e+01
   2.062256e+02   1.533209e+02
   4.316755e+01   2.400174e+02
  -1.098419e+02   1.724507e+02
  -1.383182e+02   3.132066e+01
  -7.341279e+01  -5.234791e+01
  -3.126252e+01  -3.456784e+01
  -5.667681e+01   1.293292e+01
  -8.530043e+01   5.266112e+00
  -4.798463e+01  -5.387321e+01
   4.185834e+01  -9.649370e+01
   1.114585e+02  -6.198100e+01
   9.489894e+01   3.704643e+01
  -1.227867e+01   1.187184e+02
  -1.500669e+02   9.246750e+01
  -2.047606e+02  -5.442254e+01
  -9.975445e+01  -2.101009e+02
   1.125535e+02  -2.327798e+02
   2.731871e+02  -9.489321e+01
   2.609389e+02   8.836486e+01
   1.120280e+02   1.785299e+02
  -3.813380e+01   1.489002e+02
  -9.543916e+01   8.917376e+01
  -8.148411e+01   7.499125e+01
  -6.944321e+01   9.439862e+01
  -9.615467e+01   7.527674e+01
  -1.326907e+02  -2.267359e+01
  -1.220145e+02  -1.578379e+02
  -3.090863e+01  -2.325300e+02
   1.012827e+02  -1.775108e+02
   1.798848e+02  -2.035289e+01
   1.392366e+02   1.260823e+02
   1.848354e+01   1.628994e+02
  -7.052590e+01   9.132475e+01
  -6.226285e+01  -2.628625e+00
  -2.800003e+00  -4.465872e+01
   1.500332e+01  -3.388344e+01
  -3.431572e+01  -1.692533e+01
  -8.222479e+01  -2.289840e+01
  -4.786977e+01  -4.005628e+01
   6.607914e+01  -3.809054e+01
   1.645404e+02  -1.205988e+00
   1.473040e+02   5.564956e+01
   1.338765e+01   9.284453e+01
  -1.260027e+02   7.607683e+01
  -1.495797e+02   1.263858e+01
  -5.047841e+01  -4.394820e+01
   6.018469e+01  -4.085815e+01
   7.794795e+01   1.774677e+01
   1.112949e+01   7.073974e+01
  -5.412620e+01   6.189855e+01
  -6.548646e+01  -3.941780e-01
  -4.811006e+01  -5.204976e+01
  -4.568790e+01  -4.455795e+01
  -6.213316e+01  -3.159891e+00
  -6.771810e+01  -8.403459e-01
  -3.755904e+01  -7.080337e+01
   3.360102e+01  -1.515716e+02
   1.227451e+02  -1.460921e+02
   1.730249e+02  -3.355986e+01
   1.286423e+02   9.510893e+01
   5.994237e+00   1.314242e+02
  -9.011948e+01   6.493799e+01
  -6.252968e+01  -1.482454e+01
   6.008123e+01  -2.090502e+01
   1.401068e+02   4.392030e+01
   7.683815e+01   1.097520e+02
  -8.290663e+01   1.144471e+02
  -1.947968e+02   5.163457e+01
  -1.649722e+02  -3.584216e+01
  -3.651108e+01  -8.790856e+01
   6.286320e+01  -6.961057e+01
   4.915966e+01  -5.790040e+00
  -4.106087e+01   2.803792e+01
  -9.390630e+01  -2.247146e+01
  -3.589639e+01  -1.210115e+02
   9.030609e+01  -1.589039e+02
   1.689364e+02  -6.708218e+01
   1.298746e+02   9.911047e+01
   1.248303e+01   1.996720e+02
  -8.572121e+01   1.456235e+02
  -1.054880e+02  -8.558712e+00
  -5.903076e+01  -1.211159e+02
   5.745942e+00  -1.070969e+02
   4.851814e+01  -1.805198e+01
   5.123722e+01   3.300490e+01
   2.415162e+01   8.632658e+00
   4.596316e+00  -2.074763e+01
   2.340975e+01   1.656977e+01
   5.700518e+01   9.089532e+01
   4.037301e+01   1.108485e+02
  -4.962147e+01   4.538677e+01
  -1.399427e+02  -4.005935e+01
  -1.306158e+02  -7.231903e+01
  -1.808423e+01  -5.145023e+01
   8.802147e+01  -2.344356e+01
   9.015914e+01  -7.626359e+00
   1.336534e+01   7.968597e+00
  -3.784112e+01   2.254771e+01
  -1.562812e+01   1.829900e+01
   2.010590e+01  -9.005840e-01
  -5.418495e+00  -8.033934e+00
  -7.428600e+01  -3.686224e+00
  -9.382574e+01  -2.501142e+01
  -1.154119e+01  -8.239503e+01
   1.190359e+02  -1.170336e+02
   1.907942e+02  -6.097663e+01
   1.475643e+02   6.693232e+01
   2.767806e+01   1.652050e+02
  -8.164614e+01   1.549684e+02
  -1.175269e+02   6.181182e+01
  -8.229528e+01  -2.211249e+01
  -2.568585e+01  -3.796383e+01
   1.753880e+00  -1.049992e+01
  -1.131094e+01  -4.888843e+00
  -3.282159e+01  -4.717414e+01
  -2.110947e+01  -9.237983e+01
   3.062179e+01  -7.325492e+01
   8.218806e+01   1.840926e+01
   7.888634e+01   1.095220e+02
   6.242869e+00   1.137901e+02
  -8.211911e+01   2.548586e+01
  -1.053269e+02  -7.517023e+01
  -3.411122e+01  -1.055233e+02
   6.762206e+01  -5.797523e+01
   1.016756e+02   1.168307e+01
   4.204280e+01   5.363150e+01
  -3.328521e+01   5.514789e+01
  -3.421721e+01   2.910120e+01
   3.225889e+01  -1.460389e+00
   7.025170e+01  -7.260916e+00
   1.647239e+01   2.607710e+01
  -7.991206e+01   6.759846e+01
  -1.186481e+02   5.900437e+01
  -6.687271e+01  -1.302198e+01
   1.547143e+01  -8.471633e+01
   5.511985e+01  -8.131984e+01
   3.928819e+01  -6.648341e+00
   2.084888e+00   5.693044e+01
  -2.662973e+01   4.512765e+01
  -3.817903e+01  -1.755833e+01
  -2.814899e+01  -5.605099e+01
   2.311747e+00  -3.590560e+01
   3.445198e+01   7.349988e+00
   4.203331e+01   2.229339e+01
   2.155941e+01   2.138831e+00
  -1.849196e+00  -1.545832e+01
  -7.828924e+00   5.056343e-01
  -4.449660e+00   3.575092e+01
  -1.237741e+01   4.684135e+01
  -3.056775e+01   1.123850e+01
  -3.296458e+01  -4.281482e+01
  -1.725720e+00  -6.121633e+01
   4.380046e+01  -2.191273e+01
   5.858086e+01   3.858077e+01
   1.556224e+01   6.362649e+01
  -5.660370e+01   3.525860e+01
  -9.190544e+01  -1.477917e+01
  -5.108838e+01  -4.506785e+01
   2.845196e+01  -4.364999e+01
   6.598434e+01  -2.483592e+01
   2.667192e+01  -6.526334e+00
  -3.449900e+01  -1.193405e+00
  -3.660867e+01  -1.273262e+01
   2.948532e+01  -2.933625e+01
   8.947502e+01  -2.015453e+01
