
 $NMID
 id='ANONYMOUS ', fmtdat='(2E16.6)'
 volume=1.0
 tramp=1.0
 $END
  -3.852326e+03   2.145434e+01
  -2.638635e+03  -2.163382e+03
   4.435572e+02  -2.367817e+03
   1.374487e+03  -1.143160e+03
   7.579185e+02   1.764719e+01
  -1.320792e+02   2.952066e+02
  -5.226142e+02  -1.687656e+02
   2.494410e+01  -6.821265e+02
   5.900712e+02  -6.680056e+02
   6.798717e+02   2.135044e+01
   4.064151e+02   6.631830e+02
  -7.790224e+01   8.095342e+02
  -4.423330e+02   1.619830e+02
  -3.842567e+02  -5.658664e+02
   1.562791e+02  -6.391505e+02
   5.469128e+02  -3.721891e+01
   2.461744e+02   6.459303e+02
  -2.603750e+02   6.405907e+02
  -5.137030e+02   2.316662e+02
  -4.681076e+02  -2.716352e+02
  -1.034908e+02  -4.440362e+02
   1.525486e+02  -2.894379e+02
   1.216752e+02  -1.039909e+02
  -1.868897e+02  -5.396994e+01
  -3.332231e+02  -2.040446e+02
  -5.218082e+01  -3.765573e+02
   4.555521e+02  -2.655218e+02
   6.997255e+02   1.401703e+02
   3.035454e+02   4.447494e+02
  -3.365223e+02   3.090679e+02
  -5.858356e+02  -6.607705e+01
  -2.520413e+02  -4.064017e+02
   2.603948e+02  -4.249367e+02
   4.935539e+02  -1.835539e+02
   3.829530e+02   1.792760e+02
   1.095418e+02   3.712461e+02
  -7.412503e+01   2.239476e+02
  -4.316081e+01  -1.238134e+02
   1.749116e+02  -2.406202e+02
   2.949154e+02   1.042430e+02
   9.796059e+01   5.761272e+02
  -2.759667e+02   5.465248e+02
  -4.318018e+02   3.825114e+00
  -1.720600e+02  -3.872512e+02
   1.910505e+02  -1.973245e+02
   2.370069e+02   2.781293e+02
  -1.089430e+02   4.339888e+02
  -4.782853e+02   7.949221e+01
  -4.939260e+02  -3.779679e+02
  -1.462593e+02  -5.173132e+02
   3.157431e+02  -2.883557e+02
   5.454655e+02   6.586218e+01
   3.576057e+02   2.957181e+02
  -7.206794e+01   2.806876e+02
  -3.431489e+02   8.454499e+01
  -2.319862e+02  -7.755698e+01
   3.950944e+01  -5.109272e+01
   9.493560e+01   8.278839e+01
  -1.186150e+02   1.070517e+02
  -2.839737e+02  -4.705495e+01
  -1.464849e+02  -2.252233e+02
   1.735859e+02  -2.535969e+02
   3.591899e+02  -1.163110e+02
   2.567170e+02   9.821353e+01
  -2.493215e+01   2.941061e+02
  -2.760043e+02   3.579855e+02
  -3.549448e+02   1.911163e+02
  -2.490080e+02  -1.373577e+02
  -6.721753e+01  -3.729713e+02
   4.629522e+01  -3.403999e+02
   4.852511e+01  -1.557318e+02
   3.607207e+01  -5.980269e+01
   1.080887e+02  -9.124567e+01
   2.192466e+02  -7.361314e+01
   2.362554e+02   8.546316e+01
   1.086241e+02   2.423130e+02
  -7.686330e+01   2.076404e+02
  -1.912704e+02  -1.091223e+01
  -1.543123e+02  -2.238678e+02
   2.761321e+01  -2.576807e+02
   2.417916e+02  -8.482891e+01
   3.216731e+02   1.603438e+02
   1.799277e+02   3.120433e+02
  -6.772256e+01   2.799431e+02
  -1.896925e+02   1.406721e+02
  -1.474750e+02   5.077016e+01
  -1.258493e+02   5.419315e+01
  -2.576337e+02   5.080964e+01
  -4.025339e+02  -7.539732e+01
  -3.194204e+02  -2.881151e+02
   1.919233e+01  -4.324044e+02
   3.721567e+02  -3.955191e+02
   4.745490e+02  -1.782538e+02
   2.954650e+02   9.726454e+01
   3.519168e+01   2.651406e+02
  -9.724277e+01   2.197936e+02
  -3.252835e+01   4.184300e+01
   1.052387e+02  -5.935490e+01
   1.402720e+02   2.272017e+01
   1.626158e+01   1.535310e+02
  -1.287765e+02   1.257896e+02
  -1.263128e+02  -4.985243e+01
   2.751222e+01  -1.473635e+02
   1.689269e+02  -1.263533e+01
   1.512621e+02   2.322817e+02
  -2.501153e+01   3.383695e+02
  -2.363571e+02   2.042329e+02
  -3.433955e+02  -5.548863e+01
  -2.770887e+02  -2.485326e+02
  -7.426991e+01  -2.701806e+02
   1.201705e+02  -1.510183e+02
   1.573762e+02  -1.705883e+01
   4.422473e+01   1.388063e+01
  -5.314877e+01  -5.527245e+01
  -2.946937e+00  -1.131658e+02
   1.250418e+02  -7.170036e+01
   1.558724e+02   2.425672e+01
   4.063384e+01   5.848263e+01
  -7.778023e+01  -4.998693e+00
  -4.007604e+01  -8.401106e+01
   1.381635e+02  -8.237818e+01
   2.863096e+02   1.749786e+01
   2.509560e+02   1.580075e+02
   3.866495e+01   2.554744e+02
  -1.916242e+02   2.396727e+02
  -2.658025e+02   1.066450e+02
  -1.481445e+02  -4.514991e+01
   2.189096e+01  -8.666420e+01
   6.715948e+01  -8.023081e-01
  -4.674499e+01   8.329792e+01
  -1.828583e+02   3.908978e+01
  -1.885197e+02  -1.011192e+02
  -5.640011e+01  -1.882825e+02
   8.779962e+01  -1.387401e+02
   1.247113e+02  -2.215422e+01
   5.054757e+01   3.362987e+01
  -3.420908e+01  -1.492514e+01
  -2.403161e+01  -9.698273e+01
   9.105376e+01  -1.098327e+02
   2.020910e+02  -1.404301e+01
   1.790381e+02   1.293322e+02
   1.259650e+01   2.074669e+02
  -1.553513e+02   1.533696e+02
  -1.777242e+02   1.307166e+01
  -5.947839e+01  -9.479687e+01
   5.910018e+01  -9.598768e+01
   6.956925e+01  -2.625112e+01
   2.096479e+00   2.246726e+01
  -3.456068e+01   8.843495e+00
   9.491999e+00  -2.112749e+01
   8.375573e+01   1.524442e+00
   9.728773e+01   8.815132e+01
   7.945190e+00   1.676407e+02
  -1.383672e+02   1.485694e+02
  -2.329055e+02   1.218245e+01
  -1.886176e+02  -1.545795e+02
  -3.510596e+01  -2.255821e+02
   1.020155e+02  -1.582732e+02
   1.287556e+02  -2.897061e+01
   7.059619e+01   4.539720e+01
   3.123168e+01   3.025303e+01
   5.423635e+01  -1.118101e+01
   8.607310e+01  -2.538508e+00
   5.174616e+01   5.685533e+01
  -4.336582e+01   9.947995e+01
  -1.201134e+02   6.214694e+01
  -1.018367e+02  -4.260807e+01
   1.558145e+01  -1.232124e+02
   1.560824e+02  -8.704702e+01
   1.994375e+02   6.172675e+01
   8.540201e+01   2.066648e+02
  -1.184429e+02   2.179992e+02
  -2.625870e+02   8.173063e+01
  -2.445948e+02  -8.873466e+01
  -1.013508e+02  -1.672367e+02
   3.763552e+01  -1.375558e+02
   8.796518e+01  -8.282540e+01
   7.179060e+01  -7.220503e+01
   6.222650e+01  -9.357044e+01
   9.296496e+01  -7.603503e+01
   1.308003e+02   2.091213e+01
   1.167806e+02   1.529913e+02
   2.520644e+01   2.227790e+02
  -9.953054e+01   1.652611e+02
  -1.686097e+02   1.323470e+01
  -1.258878e+02  -1.230394e+02
  -1.078434e+01  -1.523723e+02
   7.207495e+01  -8.028273e+01
   5.980643e+01   1.050265e+01
  -3.232522e+00   4.852154e+01
  -2.329384e+01   3.383109e+01
   2.852269e+01   1.446513e+01
   8.084034e+01   2.149151e+01
   4.637546e+01   3.981487e+01
  -7.012722e+01   3.568738e+01
  -1.657384e+02  -4.355398e+00
  -1.403334e+02  -6.029241e+01
  -3.626606e+00  -9.212830e+01
   1.274529e+02  -7.127990e+01
   1.423246e+02  -8.140435e+00
   4.546090e+01   4.621525e+01
  -5.792061e+01   4.230086e+01
  -7.633479e+01  -1.730410e+01
  -1.624836e+01  -7.269934e+01
   4.806609e+01  -6.540414e+01
   6.697317e+01  -1.787649e+00
   5.397186e+01   5.149697e+01
   4.641713e+01   4.397148e+01
   5.709695e+01   1.998954e+00
   6.504328e+01   1.132066e+00
   4.103848e+01   7.133038e+01
  -2.929886e+01   1.499132e+02
  -1.224707e+02   1.420324e+02
  -1.738916e+02   3.122013e+01
  -1.267930e+02  -9.275544e+01
  -3.219146e+00  -1.280250e+02
   8.958802e+01  -6.527947e+01
   6.174381e+01   1.123839e+01
  -5.541751e+01   1.943018e+01
  -1.308128e+02  -4.091156e+01
  -7.078315e+01  -1.033982e+02
   7.975428e+01  -1.059046e+02
   1.839532e+02  -4.315632e+01
   1.537293e+02   3.993895e+01
   3.082846e+01   8.399435e+01
  -6.287144e+01   6.078626e+01
  -4.830398e+01  -1.147582e+00
   3.969663e+01  -3.075806e+01
   9.198778e+01   2.035338e+01
   3.800101e+01   1.162575e+02
  -8.213655e+01   1.549504e+02
  -1.589293e+02   6.832159e+01
  -1.247515e+02  -9.248833e+01
  -1.388383e+01  -1.909663e+02
   8.154612e+01  -1.388045e+02
   1.008642e+02   1.072711e+01
   5.395872e+01   1.175389e+02
  -1.017504e+01   1.010573e+02
  -4.888806e+01   1.492503e+01
  -4.677597e+01  -3.135243e+01
  -1.965543e+01  -7.001590e+00
  -4.635949e+00   1.783029e+01
  -2.561478e+01  -2.030091e+01
  -5.549128e+01  -8.876769e+01
  -3.474307e+01  -1.040363e+02
   5.186122e+01  -4.139505e+01
   1.345662e+02   3.791420e+01
   1.231053e+02   6.897571e+01
   1.722823e+01   5.167249e+01
  -8.224716e+01   2.475757e+01
  -8.532391e+01   6.249217e+00
  -1.422146e+01  -1.004702e+01
   3.477637e+01  -2.113355e+01
   1.533334e+01  -1.416854e+01
  -1.861621e+01   2.527030e+00
   3.771659e+00   5.645288e+00
   6.957393e+01  -2.321892e-02
   9.259535e+01   2.244172e+01
   1.718889e+01   8.034958e+01
  -1.101229e+02   1.153385e+02
  -1.851863e+02   6.264312e+01
  -1.474781e+02  -6.054907e+01
  -3.051921e+01  -1.574402e+02
   7.794659e+01  -1.513248e+02
   1.139541e+02  -6.327317e+01
   8.000924e+01   1.865175e+01
   2.617875e+01   3.645497e+01
   4.821211e-01   1.162148e+01
   1.196910e+01   6.387466e+00
   3.039650e+01   4.645625e+01
   1.912615e+01   8.882321e+01
  -2.865912e+01   7.090501e+01
  -7.799030e+01  -1.569983e+01
  -7.731694e+01  -1.030049e+02
  -9.632277e+00  -1.102743e+02
   7.736639e+01  -2.910572e+01
   1.040817e+02   6.814032e+01
   3.719238e+01   1.025122e+02
  -6.372179e+01   6.108171e+01
  -1.002639e+02  -8.429525e+00
  -4.275222e+01  -5.369771e+01
   3.336405e+01  -5.660777e+01
   3.667795e+01  -2.772057e+01
  -2.832811e+01   4.507245e+00
  -6.801048e+01   8.634459e+00
  -1.804281e+01  -2.589548e+01
   7.645960e+01  -6.482324e+01
   1.167651e+02  -5.399545e+01
   6.753198e+01   1.577598e+01
  -1.426639e+01   8.404315e+01
  -5.624932e+01   8.015922e+01
  -4.294986e+01   8.460673e+00
  -5.956775e+00  -5.431572e+01
   2.446227e+01  -4.612287e+01
   3.731091e+01   1.305810e+01
   2.798000e+01   5.324654e+01
  -1.585720e+00   3.680239e+01
  -3.279120e+01  -6.131773e+00
  -4.016257e+01  -2.317580e+01
  -1.999457e+01  -3.070542e+00
   2.173408e+00   1.805351e+01
   5.204439e+00   4.257449e+00
  -1.228671e+00  -3.360336e+01
   6.530627e+00  -4.998012e+01
   2.902825e+01  -1.730930e+01
   3.739025e+01   3.794252e+01
   8.030633e+00   5.947439e+01
  -4.107485e+01   2.359827e+01
  -6.000954e+01  -3.467902e+01
  -1.832907e+01  -6.038295e+01
   5.478908e+01  -3.509999e+01
   9.073419e+01   1.161553e+01
   5.049044e+01   4.197543e+01
  -2.729465e+01   4.338941e+01
  -6.401654e+01   2.654580e+01
  -2.703621e+01   6.823727e+00
   3.061118e+01  -1.852118e+00
   3.396046e+01   8.703774e+00
  -2.613668e+01   2.667781e+01
  -8.182927e+01   2.042521e+01
