
 $NMID
 id='ANONYMOUS ', fmtdat='(2E16.6)'
 volume=1.0
 tramp=1.0
 $END
  -3.026755e+03  -1.721236e+02
  -1.910197e+03  -1.542678e+03
   5.251974e+01  -1.644177e+03
   1.224876e+03  -1.174831e+03
   7.543458e+02  -1.979773e+02
  -9.963442e+01   3.525964e+02
  -3.318590e+02  -1.336361e+02
  -7.599694e+00  -5.748615e+02
   4.781487e+02  -6.585024e+02
   5.520949e+02  -1.314543e+02
   3.727493e+02   4.880701e+02
   2.285581e+01   6.548597e+02
  -2.106698e+02   1.516315e+02
  -1.120387e+02  -4.297630e+02
   1.197847e+02  -4.781475e+02
   3.692744e+02  -5.687571e+01
   2.263121e+02   4.365207e+02
  -1.110634e+02   5.297699e+02
  -4.582508e+02   2.817242e+02
  -3.589819e+02  -1.431310e+02
  -1.482869e+02  -3.441828e+02
   8.050551e+01  -2.806118e+02
   4.200671e+01  -6.917145e+01
  -2.244543e+02  -8.993731e+01
  -2.824482e+02  -2.715299e+02
   2.179239e+01  -3.474290e+02
   4.460390e+02  -1.699216e+02
   5.709586e+02   1.750490e+02
   1.978464e+02   3.251138e+02
  -2.853020e+02   1.561328e+02
  -4.489455e+02  -1.572309e+02
  -1.687178e+02  -3.165268e+02
   2.357940e+02  -3.344195e+02
   4.113958e+02  -1.086126e+02
   2.947289e+02   1.488181e+02
   9.691033e+01   2.722462e+02
   1.131166e+01   1.707598e+02
   6.301741e+01  -7.046766e+01
   1.654246e+02  -1.339456e+02
   1.589709e+02   1.402129e+02
  -1.788812e+01   4.548179e+02
  -2.250614e+02   4.041506e+02
  -2.842763e+02   1.993542e+01
  -1.060756e+02  -2.749989e+02
   1.409466e+02  -1.295914e+02
   1.403098e+02   2.522472e+02
  -1.156842e+02   3.715790e+02
  -4.319410e+02   5.893807e+01
  -4.739583e+02  -3.620103e+02
  -1.614098e+02  -4.881240e+02
   2.833645e+02  -2.719464e+02
   4.984451e+02   4.013454e+01
   3.408588e+02   2.112200e+02
  -1.582503e+01   1.977937e+02
  -2.484045e+02   9.128713e+01
  -2.014358e+02  -6.230517e-01
  -2.011424e+01  -1.373852e+01
   4.333718e+01   3.164543e+01
  -7.822274e+01   5.175317e+01
  -2.021329e+02  -2.673990e+01
  -1.246019e+02  -1.731921e+02
   1.362701e+02  -2.548740e+02
   3.465772e+02  -1.530704e+02
   2.917179e+02   1.102242e+02
  -6.856019e+00   3.577325e+02
  -3.091126e+02   3.892366e+02
  -3.866566e+02   1.583655e+02
  -2.375666e+02  -1.653299e+02
  -5.387118e+01  -3.461047e+02
   1.146807e+01  -3.064164e+02
  -3.149342e+00  -1.812764e+02
   3.478693e+01  -1.265672e+02
   1.579253e+02  -1.249482e+02
   2.590278e+02  -4.622828e+01
   2.286528e+02   1.324167e+02
   7.139494e+01   2.590093e+02
  -1.053536e+02   1.825245e+02
  -1.875210e+02  -5.454368e+01
  -1.229112e+02  -2.500763e+02
   6.107737e+01  -2.433012e+02
   2.442023e+02  -4.995134e+01
   2.907209e+02   1.722455e+02
   1.559819e+02   2.833928e+02
  -3.955399e+01   2.474485e+02
  -1.478806e+02   1.573878e+02
  -1.412291e+02   9.668895e+01
  -1.556784e+02   8.024100e+01
  -2.882482e+02   3.628530e+01
  -4.105185e+02  -9.673662e+01
  -3.148095e+02  -2.899571e+02
   2.264980e+01  -4.280899e+02
   3.717805e+02  -3.931872e+02
   4.615148e+02  -1.738955e+02
   2.676430e+02   9.491175e+01
   9.017740e+00   2.356467e+02
  -8.294603e+01   1.766887e+02
   4.016774e+00   2.718995e+01
   1.259113e+02  -3.408689e+01
   1.237407e+02   4.474337e+01
   3.734458e+00   1.350406e+02
  -1.055076e+02   9.417034e+01
  -9.518808e+01  -4.870265e+01
   2.771645e+01  -1.171392e+02
   1.500919e+02   5.681637e+00
   1.463886e+02   2.277428e+02
  -1.534775e+01   3.344991e+02
  -2.378792e+02   2.115850e+02
  -3.602135e+02  -5.406783e+01
  -2.803643e+02  -2.607080e+02
  -5.758911e+01  -2.735980e+02
   1.259869e+02  -1.378988e+02
   1.379178e+02  -6.306545e+00
   2.388613e+01   8.035158e+00
  -4.915643e+01  -6.691952e+01
   1.200777e+01  -1.130256e+02
   1.258542e+02  -6.244872e+01
   1.399615e+02   2.579251e+01
   2.426580e+01   4.876585e+01
  -8.447993e+01  -1.805860e+01
  -3.640460e+01  -9.577049e+01
   1.538946e+02  -8.877720e+01
   3.068739e+02   2.312963e+01
   2.562584e+02   1.743700e+02
   1.958851e+01   2.639570e+02
  -2.129194e+02   2.271026e+02
  -2.619248e+02   8.716278e+01
  -1.255433e+02  -4.696040e+01
   3.331833e+01  -7.005011e+01
   5.632526e+01   1.225671e+01
  -6.106011e+01   7.860773e+01
  -1.825582e+02   2.615027e+01
  -1.795026e+02  -1.078076e+02
  -5.116505e+01  -1.856395e+02
   8.670405e+01  -1.299147e+02
   1.191481e+02  -1.200114e+01
   4.011395e+01   3.673589e+01
  -4.537312e+01  -2.754790e+01
  -2.497443e+01  -1.192714e+02
   1.027778e+02  -1.228132e+02
   2.137247e+02  -1.021606e+01
   1.798646e+02   1.367085e+02
   9.935544e+00   2.042301e+02
  -1.496552e+02   1.444616e+02
  -1.645095e+02   1.163122e+01
  -4.991396e+01  -8.822123e+01
   6.039807e+01  -8.964250e+01
   6.617116e+01  -2.175000e+01
  -2.208110e+00   2.706938e+01
  -4.102885e+01   1.003037e+01
   6.987425e+00  -2.896988e+01
   9.131927e+01  -6.219918e+00
   1.096766e+02   9.187927e+01
   1.181898e+01   1.809357e+02
  -1.463678e+02   1.565460e+02
  -2.422400e+02   7.989914e+00
  -1.926537e+02  -1.606459e+02
  -3.704717e+01  -2.260886e+02
   9.934103e+01  -1.574586e+02
   1.268789e+02  -3.313511e+01
   7.375281e+01   4.013800e+01
   3.319103e+01   2.550275e+01
   5.601558e+01  -1.658321e+01
   9.058845e+01  -9.368709e+00
   6.180144e+01   5.771486e+01
  -3.665293e+01   1.117561e+02
  -1.256719e+02   7.363253e+01
  -1.128045e+02  -4.529174e+01
   1.654881e+01  -1.347734e+02
   1.680069e+02  -9.173525e+01
   2.086021e+02   6.790421e+01
   8.367223e+01   2.149616e+02
  -1.271594e+02   2.200697e+02
  -2.661440e+02   7.906621e+01
  -2.391789e+02  -8.694919e+01
  -9.502862e+01  -1.637143e+02
   3.940049e+01  -1.334633e+02
   8.348569e+01  -7.747612e+01
   6.270482e+01  -6.865991e+01
   5.167413e+01  -9.574649e+01
   8.647505e+01  -8.370240e+01
   1.309117e+02   1.303070e+01
   1.202701e+02   1.498830e+02
   2.839112e+01   2.226080e+02
  -9.766762e+01   1.639266e+02
  -1.665179e+02   9.785202e+00
  -1.233976e+02  -1.269432e+02
  -7.643658e+00  -1.546996e+02
   7.668133e+01  -7.872376e+01
   6.349890e+01   1.717124e+01
  -5.120006e+00   5.767804e+01
  -2.995275e+01   3.821368e+01
   2.602793e+01   1.029858e+01
   8.642791e+01   1.467428e+01
   5.158091e+01   3.997216e+01
  -7.633328e+01   4.315324e+01
  -1.787967e+02   5.407119e-01
  -1.453772e+02  -6.446291e+01
   4.147267e+00  -1.009066e+02
   1.372048e+02  -7.519830e+01
   1.443703e+02  -4.291772e+00
   4.261780e+01   5.310461e+01
  -5.981043e+01   4.641973e+01
  -7.947351e+01  -1.753874e+01
  -2.371053e+01  -7.547217e+01
   4.252294e+01  -6.824975e+01
   7.082155e+01  -3.988981e+00
   6.249323e+01   4.963499e+01
   4.841141e+01   4.167921e+01
   5.248502e+01  -4.455381e-01
   6.520898e+01  -3.032894e-01
   5.019290e+01   7.264886e+01
  -2.162562e+01   1.551270e+02
  -1.251930e+02   1.497327e+02
  -1.835890e+02   3.796934e+01
  -1.333202e+02  -9.225837e+01
  -3.118692e+00  -1.340950e+02
   9.179435e+01  -7.282753e+01
   6.174755e+01   8.444933e+00
  -5.714579e+01   2.217773e+01
  -1.321632e+02  -3.802035e+01
  -7.022680e+01  -1.036712e+02
   8.161799e+01  -1.080079e+02
   1.857150e+02  -4.360211e+01
   1.534593e+02   4.019220e+01
   2.850879e+01   8.325149e+01
  -6.574116e+01   5.834236e+01
  -4.951449e+01  -3.692057e+00
   3.952662e+01  -3.392639e+01
   9.390815e+01   1.501783e+01
   4.531423e+01   1.117357e+02
  -7.019680e+01   1.563535e+02
  -1.505404e+02   7.595028e+01
  -1.267593e+02  -8.442302e+01
  -2.220524e+01  -1.874734e+02
   7.705433e+01  -1.387686e+02
   1.029941e+02   1.127119e+01
   5.535258e+01   1.186026e+02
  -1.449370e+01   1.006737e+02
  -5.297701e+01   1.437878e+01
  -4.353879e+01  -3.106770e+01
  -1.361580e+01  -7.217755e+00
  -5.963854e+00   1.575448e+01
  -3.397084e+01  -2.191544e+01
  -6.030391e+01  -8.682841e+01
  -3.091102e+01  -1.005999e+02
   5.763852e+01  -4.273905e+01
   1.341645e+02   3.126763e+01
   1.203517e+02   6.429401e+01
   1.943472e+01   5.372770e+01
  -7.615256e+01   2.956549e+01
  -8.407034e+01   7.209017e+00
  -1.908796e+01  -1.281114e+01
   3.217961e+01  -2.169662e+01
   2.047311e+01  -1.047056e+01
  -1.290300e+01   5.743830e+00
   1.657721e+00   3.837202e+00
   6.301807e+01  -6.074977e+00
   9.313998e+01   1.694926e+01
   2.883475e+01   8.015013e+01
  -9.783346e+01   1.224235e+02
  -1.839399e+02   7.486154e+01
  -1.565555e+02  -4.996070e+01
  -4.004851e+01  -1.552926e+02
   7.405861e+01  -1.574732e+02
   1.140505e+02  -7.123168e+01
   8.096314e+01   1.495974e+01
   2.867203e+01   3.738383e+01
   4.547613e+00   1.477822e+01
   1.449069e+01   1.010912e+01
   3.002228e+01   4.866769e+01
   1.902774e+01   8.923021e+01
  -2.610555e+01   7.134173e+01
  -7.699160e+01  -1.096005e+01
  -8.390806e+01  -9.523398e+01
  -2.128534e+01  -1.082356e+02
   7.080061e+01  -3.772500e+01
   1.083159e+02   5.664299e+01
   4.652530e+01   1.006249e+02
  -5.971251e+01   6.935807e+01
  -1.046438e+02  -2.309638e+00
  -4.894768e+01  -5.816430e+01
   3.224333e+01  -6.502008e+01
   4.102703e+01  -3.006758e+01
  -2.332103e+01   8.732564e+00
  -6.659682e+01   1.153263e+01
  -1.937369e+01  -2.743507e+01
   7.582523e+01  -6.671369e+01
   1.197526e+02  -5.386998e+01
   7.318294e+01   1.679560e+01
  -9.968999e+00   8.581263e+01
  -5.653389e+01   8.606567e+01
  -4.761329e+01   1.727616e+01
  -1.204953e+01  -4.990447e+01
   2.024429e+01  -5.076594e+01
   3.695147e+01   5.210726e+00
   3.111604e+01   5.139126e+01
   1.512373e+00   4.143154e+01
  -3.340857e+01  -2.522702e+00
  -4.290179e+01  -2.511625e+01
  -2.048748e+01  -5.306283e+00
   5.702851e+00   2.147322e+01
   7.096284e+00   1.217203e+01
  -7.983586e+00  -2.949341e+01
  -5.528035e+00  -5.417752e+01
   2.355775e+01  -2.686714e+01
   4.439388e+01   2.984746e+01
   1.927725e+01   5.821821e+01
  -3.725300e+01   2.893076e+01
  -6.503315e+01  -2.771563e+01
  -2.362112e+01  -5.758138e+01
   5.479835e+01  -3.823938e+01
   9.306538e+01   6.597530e+00
   5.151206e+01   4.049714e+01
  -2.712841e+01   4.683569e+01
  -6.368628e+01   3.095584e+01
  -2.893369e+01   7.278210e+00
   2.610153e+01  -6.315270e+00
   3.234426e+01   3.279531e+00
  -1.952710e+01   2.540311e+01
  -7.236673e+01   2.429802e+01
