
 $NMID
 id='ANONYMOUS ', fmtdat='(2E16.6)'
 volume=1.0
 tramp=1.0
 $END
   3.527415e+03   7.802580e+01
   2.210900e+03   1.943176e+03
  -4.841477e+02   2.272970e+03
  -1.539617e+03   1.027327e+03
  -9.963226e+02  -2.927621e+02
   2.148201e+02  -3.149622e+02
   5.166676e+02   1.835207e+02
   6.609713e+01   7.041916e+02
  -4.886372e+02   5.835894e+02
  -7.284266e+02   6.035826e+01
  -5.588291e+02  -5.515761e+02
   1.146057e+02  -7.517448e+02
   4.875729e+02  -8.540369e+01
   3.440062e+02   5.512661e+02
  -1.671773e+02   5.741834e+02
  -4.813627e+02   7.772744e+01
  -2.759326e+02  -5.392162e+02
   1.894501e+02  -5.316171e+02
   4.191707e+02  -1.965760e+02
   3.671088e+02   2.525349e+02
   5.880407e+01   3.740409e+02
  -1.714809e+02   2.268773e+02
  -1.522429e+02   5.934480e+01
   9.162862e+01  -9.282139e+00
   2.970906e+02   1.210133e+02
   8.589872e+01   3.076280e+02
  -3.631254e+02   2.920939e+02
  -6.421751e+02  -5.137180e+01
  -3.316051e+02  -3.759528e+02
   2.944479e+02  -3.571289e+02
   5.553220e+02   2.593369e+00
   2.782307e+02   3.442892e+02
  -1.946507e+02   3.986375e+02
  -4.406508e+02   1.919947e+02
  -3.396930e+02  -1.535470e+02
  -7.680974e+01  -3.622658e+02
   1.257484e+02  -2.275141e+02
   1.067544e+02   1.321267e+02
  -1.357780e+02   2.839638e+02
  -2.985360e+02  -3.821688e+01
  -1.578649e+02  -4.972047e+02
   2.235200e+02  -5.086965e+02
   4.252594e+02  -1.385362e+01
   1.896765e+02   3.627321e+02
  -1.883479e+02   1.967288e+02
  -2.624470e+02  -2.257267e+02
   5.883090e+01  -3.743677e+02
   4.183960e+02  -7.657054e+01
   4.475063e+02   2.966362e+02
   1.295062e+02   4.230722e+02
  -2.851018e+02   2.511362e+02
  -4.795659e+02  -4.295746e+01
  -2.992567e+02  -2.639298e+02
   8.829750e+01  -2.680086e+02
   3.263787e+02  -7.248272e+01
   2.063351e+02   1.054197e+02
  -5.810264e+01   6.632697e+01
  -1.001092e+02  -9.725499e+01
   1.135928e+02  -1.238114e+02
   2.612656e+02   5.178917e+01
   1.213587e+02   2.209658e+02
  -1.499536e+02   2.093550e+02
  -2.681897e+02   6.905195e+01
  -1.651865e+02  -7.774870e+01
   2.734522e+01  -1.986661e+02
   1.871786e+02  -2.597779e+02
   2.614784e+02  -1.594974e+02
   2.148334e+02   1.018914e+02
   6.838964e+01   3.152302e+02
  -5.916170e+01   2.911504e+02
  -7.034022e+01   1.170414e+02
  -2.633976e+01   2.827976e+01
  -5.753425e+01   7.206651e+01
  -1.653104e+02   7.667397e+01
  -2.165706e+02  -5.885908e+01
  -1.235373e+02  -2.053863e+02
   4.601194e+01  -1.861085e+02
   1.667264e+02  -5.825031e+00
   1.529766e+02   1.761745e+02
  -1.493108e+00   2.190473e+02
  -2.027106e+02   8.514805e+01
  -2.839262e+02  -1.280807e+02
  -1.568718e+02  -2.738374e+02
   7.100787e+01  -2.446098e+02
   1.768335e+02  -1.034366e+02
   1.219718e+02  -9.431245e+00
   8.344974e+01  -2.451699e+01
   1.884020e+02  -4.814062e+01
   3.214296e+02   4.047085e+01
   2.664107e+02   2.221817e+02
   1.681950e+00   3.523686e+02
  -2.857874e+02   3.336618e+02
  -3.841013e+02   1.654595e+02
  -2.616928e+02  -6.729421e+01
  -4.850491e+01  -2.223079e+02
   8.386953e+01  -1.984056e+02
   4.981360e+01  -3.817143e+01
  -7.743153e+01   7.041122e+01
  -1.361509e+02  -6.232345e-01
  -3.907860e+01  -1.382838e+02
   1.073427e+02  -1.303479e+02
   1.262213e+02   3.465713e+01
  -9.755483e+00   1.416513e+02
  -1.460984e+02   2.864674e+01
  -1.352445e+02  -1.896605e+02
   1.312447e+01  -2.829538e+02
   1.838206e+02  -1.678926e+02
   2.690296e+02   4.288294e+01
   2.251910e+02   1.919950e+02
   7.280163e+01   2.104541e+02
  -9.051477e+01   1.237431e+02
  -1.351088e+02   1.594419e+01
  -4.276953e+01  -2.042825e+01
   5.285174e+01   3.361912e+01
   1.999679e+01   9.519574e+01
  -9.623925e+01   7.492040e+01
  -1.368836e+02  -8.449269e+00
  -4.422529e+01  -5.239377e+01
   6.259326e+01  -1.003988e+01
   4.236490e+01   5.850374e+01
  -9.880858e+01   6.910630e+01
  -2.239134e+02   9.693914e-01
  -2.084680e+02  -1.076332e+02
  -4.932471e+01  -1.966256e+02
   1.395114e+02  -2.042217e+02
   2.160763e+02  -1.060945e+02
   1.314940e+02   2.962522e+01
  -1.461156e+01   8.091487e+01
  -6.576056e+01   1.028307e+01
   2.582899e+01  -7.496185e+01
   1.495912e+02  -4.903530e+01
   1.660471e+02   7.316400e+01
   5.789623e+01   1.579951e+02
  -6.834122e+01   1.229858e+02
  -1.078308e+02   2.393930e+01
  -5.141507e+01  -2.933699e+01
   2.300723e+01   2.713853e+00
   2.642060e+01   6.867130e+01
  -6.016049e+01   8.855759e+01
  -1.564688e+02   2.219766e+01
  -1.498589e+02  -9.465646e+01
  -1.886164e+01  -1.701839e+02
   1.249003e+02  -1.336000e+02
   1.499978e+02  -1.263357e+01
   5.328711e+01   8.513211e+01
  -4.807298e+01   8.697054e+01
  -6.031221e+01   2.420142e+01
  -7.953705e+00  -1.927599e+01
   2.194437e+01  -1.042629e+01
  -9.001574e+00   1.249649e+01
  -6.237009e+01  -3.051835e+00
  -7.487183e+01  -6.551375e+01
  -1.178008e+01  -1.274574e+02
   9.986756e+01  -1.211698e+02
   1.826350e+02  -2.128702e+01
   1.585831e+02   1.155070e+02
   3.775140e+01   1.844324e+02
  -7.973205e+01   1.334476e+02
  -1.056221e+02   2.385270e+01
  -5.805833e+01  -4.126025e+01
  -2.355227e+01  -2.588862e+01
  -4.108381e+01   1.235449e+01
  -6.525672e+01   5.925312e+00
  -3.767275e+01  -4.263527e+01
   3.289408e+01  -7.595924e+01
   8.784314e+01  -4.836900e+01
   7.481207e+01   2.931044e+01
  -9.272298e+00   9.114667e+01
  -1.144273e+02   7.243206e+01
  -1.568719e+02  -3.719729e+01
  -7.793771e+01  -1.579020e+02
   8.279777e+01  -1.813646e+02
   2.081532e+02  -7.938950e+01
   2.041311e+02   6.350290e+01
   9.043731e+01   1.368327e+02
  -2.565290e+01   1.167644e+02
  -7.112737e+01   7.006695e+01
  -5.889984e+01   5.904875e+01
  -4.999131e+01   7.568435e+01
  -7.306357e+01   6.218806e+01
  -1.042737e+02  -1.400990e+01
  -9.652486e+01  -1.188532e+02
  -2.697593e+01  -1.780928e+02
   7.416231e+01  -1.375145e+02
   1.353497e+02  -1.849717e+01
   1.071210e+02   9.411834e+01
   1.734699e+01   1.235182e+02
  -5.091225e+01   6.971982e+01
  -4.625539e+01  -2.305537e+00
  -1.857344e+00  -3.418554e+01
   1.139784e+01  -2.521312e+01
  -2.709952e+01  -1.135370e+01
  -6.433386e+01  -1.579626e+01
  -3.757867e+01  -2.926314e+01
   5.054080e+01  -2.934131e+01
   1.263242e+02  -3.278479e+00
   1.131649e+02   3.872140e+01
   1.081702e+01   6.897191e+01
  -9.539690e+01   5.994617e+01
  -1.137040e+02   1.337605e+01
  -3.844719e+01  -3.196873e+01
   4.649555e+01  -3.292329e+01
   6.110141e+01   1.196262e+01
   1.047818e+01   5.549206e+01
  -4.030020e+01   5.038067e+01
  -5.091363e+01   1.306838e+00
  -3.885681e+01  -3.968881e+01
  -3.647514e+01  -3.366775e+01
  -4.770800e+01  -3.773618e-01
  -5.171473e+01   9.176756e-01
  -2.957959e+01  -5.406304e+01
   2.298140e+01  -1.176209e+02
   9.152045e+01  -1.139633e+02
   1.326107e+02  -2.806445e+01
   1.010893e+02   7.073179e+01
   7.435741e+00   1.007516e+02
  -6.825516e+01   5.211470e+01
  -4.931243e+01  -9.049342e+00
   4.455192e+01  -1.684755e+01
   1.080018e+02   3.068630e+01
   6.135328e+01   8.176602e+01
  -6.119520e+01   8.852383e+01
  -1.481940e+02   4.240744e+01
  -1.268761e+02  -2.495403e+01
  -2.909315e+01  -6.643616e+01
   4.758251e+01  -5.389725e+01
   3.814580e+01  -4.567177e+00
  -3.102441e+01   2.313381e+01
  -7.301686e+01  -1.467660e+01
  -2.998268e+01  -9.209619e+01
   6.669312e+01  -1.248079e+02
   1.286294e+02  -5.575207e+01
   1.011813e+02   7.392986e+01
   1.313628e+01   1.540881e+02
  -6.230176e+01   1.140688e+02
  -7.981258e+01  -5.017131e+00
  -4.727491e+01  -9.192399e+01
   1.395885e+00  -8.129177e+01
   3.617642e+01  -1.358748e+01
   4.027294e+01   2.452244e+01
   1.907562e+01   5.522353e+00
   2.397716e+00  -1.600687e+01
   1.677872e+01   1.315143e+01
   4.498568e+01   6.954753e+01
   3.327029e+01   8.424000e+01
  -3.771756e+01   3.505678e+01
  -1.095107e+02  -2.926980e+01
  -1.024071e+02  -5.421153e+01
  -1.393742e+01  -4.019240e+01
   6.873287e+01  -2.014615e+01
   6.983929e+01  -7.151017e+00
   1.005722e+01   6.750114e+00
  -2.901918e+01   1.863072e+01
  -1.133175e+01   1.443760e+01
   1.556560e+01  -9.135776e-01
  -5.011157e+00  -6.065456e+00
  -5.849307e+01  -1.965268e+00
  -7.354800e+01  -1.862617e+01
  -1.034192e+01  -6.475265e+01
   9.027718e+01  -9.331852e+01
   1.471784e+02  -5.070232e+01
   1.163386e+02   4.913830e+01
   2.526211e+01   1.267107e+02
  -5.970943e+01   1.209084e+02
  -8.962781e+01   5.002540e+01
  -6.419278e+01  -1.480966e+01
  -2.057033e+01  -2.794885e+01
   1.239963e+00  -7.682656e+00
  -8.795469e+00  -3.760712e+00
  -2.607983e+01  -3.611289e+01
  -1.797049e+01  -7.125359e+01
   2.259679e+01  -5.739151e+01
   6.441667e+01   1.321512e+01
   6.278601e+01   8.399525e+01
   6.104600e+00   8.879270e+01
  -6.410653e+01   2.144612e+01
  -8.307515e+01  -5.660877e+01
  -2.782079e+01  -8.142978e+01
   5.147240e+01  -4.667364e+01
   7.839668e+01   6.673813e+00
   3.291683e+01   4.051566e+01
  -2.499121e+01   4.340805e+01
  -2.546010e+01   2.326898e+01
   2.509239e+01  -1.926535e+00
   5.397939e+01  -7.369981e+00
   1.307696e+01   1.930184e+01
  -6.043634e+01   5.312663e+01
  -9.070382e+01   4.706951e+01
  -5.177538e+01  -9.616272e+00
   1.114765e+01  -6.652168e+01
   4.275474e+01  -6.387091e+01
   3.194870e+01  -5.407935e+00
   3.207995e+00   4.446218e+01
  -2.003015e+01   3.561315e+01
  -2.952840e+01  -1.247484e+01
  -2.172091e+01  -4.210439e+01
   1.946823e+00  -2.661810e+01
   2.617610e+01   6.126114e+00
   3.158644e+01   1.671091e+01
   1.642591e+01   8.343323e-01
  -3.786879e-01  -1.214299e+01
  -4.268124e+00   1.475935e+00
  -2.623407e+00   2.950392e+01
  -1.040792e+01   3.799466e+01
  -2.540888e+01   9.708072e+00
  -2.714858e+01  -3.300997e+01
  -2.635831e+00  -4.788793e+01
   3.344479e+01  -1.819793e+01
   4.627785e+01   2.833371e+01
   1.388396e+01   4.894155e+01
  -4.291898e+01   2.888133e+01
  -7.173310e+01  -8.964092e+00
  -4.091391e+01  -3.336451e+01
   2.148490e+01  -3.418302e+01
   5.120589e+01  -2.003468e+01
   2.033716e+01  -4.943938e+00
  -2.803918e+01   3.905544e-01
  -3.008086e+01  -9.063682e+00
   2.172714e+01  -2.353293e+01
   6.922359e+01  -1.742695e+01
