
 $NMID
 id='ANONYMOUS ', fmtdat='(2E16.6)'
 volume=1.0
 tramp=1.0
 $END
  -4.152748e+03   6.376190e+01
  -2.740584e+03  -2.420951e+03
   4.169957e+02  -2.743285e+03
   1.855639e+03  -1.277964e+03
   1.172086e+03   3.443408e+02
  -4.267673e+02   6.921375e+02
  -9.925510e+02  -2.046779e+02
  -8.301426e+01  -1.094112e+03
   7.438446e+02  -8.430046e+02
   1.042535e+03   4.059258e+01
   4.609150e+02   8.253258e+02
  -1.591743e+02   8.398303e+02
  -6.165103e+02   2.198528e+02
  -4.075248e+02  -7.537227e+02
   2.415971e+02  -7.417062e+02
   6.108868e+02  -4.164177e+01
   3.225693e+02   7.401349e+02
  -3.025864e+02   7.251788e+02
  -5.866968e+02   1.904432e+02
  -5.003445e+02  -3.438916e+02
  -8.294553e+01  -4.621296e+02
   2.104513e+02  -2.936636e+02
   1.732927e+02  -8.207396e+00
  -1.314574e+02   4.685902e+01
  -4.218067e+02  -1.639069e+02
  -1.955564e+02  -4.207855e+02
   4.519077e+02  -4.382809e+02
   8.601837e+02   7.194183e+01
   4.517542e+02   5.330915e+02
  -3.568951e+02   4.792817e+02
  -7.256254e+02  -5.191155e+00
  -3.512609e+02  -4.666960e+02
   2.725443e+02  -5.145469e+02
   5.701136e+02  -2.200864e+02
   4.346870e+02   2.205320e+02
   9.104643e+01   4.456666e+02
  -1.637880e+02   2.582880e+02
  -1.520038e+02  -1.922218e+02
   1.790377e+02  -4.132466e+02
   4.336574e+02   5.327454e+01
   2.350516e+02   6.862969e+02
  -3.200804e+02   6.955715e+02
  -5.918600e+02   2.494196e+01
  -2.529252e+02  -5.298206e+02
   2.759295e+02  -2.978930e+02
   3.732773e+02   3.292548e+02
  -8.373977e+01   5.468573e+02
  -5.646932e+02   1.196051e+02
  -5.925443e+02  -4.243543e+02
  -1.593452e+02  -5.901753e+02
   3.935318e+02  -3.244154e+02
   6.383688e+02   9.136743e+01
   3.866398e+02   3.855113e+02
  -1.487424e+02   3.619808e+02
  -4.513775e+02   7.064364e+01
  -2.648186e+02  -1.696211e+02
   9.775261e+01  -1.006485e+02
   1.367911e+02   1.386866e+02
  -1.663423e+02   1.786101e+02
  -3.621860e+02  -6.840915e+01
  -1.622601e+02  -3.075708e+02
   2.053851e+02  -2.914702e+02
   3.611682e+02  -9.675515e+01
   2.249088e+02   1.015723e+02
  -2.795193e+01   2.613490e+02
  -2.450139e+02   3.435080e+02
  -3.543002e+02   2.059364e+02
  -2.902924e+02  -1.556716e+02
  -7.542943e+01  -4.454041e+02
   1.108257e+02  -3.924124e+02
   1.185401e+02  -1.329550e+02
   4.123696e+01  -1.367407e+01
   7.697550e+01  -9.707422e+01
   2.284760e+02  -1.179126e+02
   2.932222e+02   7.300496e+01
   1.572320e+02   2.815878e+02
  -7.705899e+01   2.564538e+02
  -2.250819e+02   5.644506e+00
  -1.913319e+02  -2.363629e+02
   1.133084e+01  -2.887776e+02
   2.660540e+02  -1.177685e+02
   3.695796e+02   1.591533e+02
   2.086847e+02   3.532993e+02
  -8.608445e+01   3.285778e+02
  -2.302539e+02   1.480841e+02
  -1.680621e+02   1.969796e+01
  -1.159082e+02   3.975342e+01
  -2.494459e+02   6.549545e+01
  -4.210542e+02  -5.572308e+01
  -3.489327e+02  -2.929970e+02
  -3.920572e+00  -4.674154e+02
   3.767052e+02  -4.404701e+02
   5.087398e+02  -2.153677e+02
   3.452669e+02   9.286221e+01
   5.742966e+01   3.010939e+02
  -1.227217e+02   2.605742e+02
  -6.761887e+01   3.675984e+01
   1.171225e+02  -1.032945e+02
   1.928051e+02   5.925444e+00
   4.116840e+01   1.950709e+02
  -1.658428e+02   1.717320e+02
  -1.775048e+02  -5.976514e+01
   1.818500e+01  -1.955535e+02
   2.019893e+02  -3.360306e+01
   1.749478e+02   2.559509e+02
  -2.689147e+01   3.657549e+02
  -2.418446e+02   2.040926e+02
  -3.478573e+02  -6.504090e+01
  -2.915214e+02  -2.481684e+02
  -9.486252e+01  -2.715176e+02
   1.187116e+02  -1.623438e+02
   1.771207e+02  -2.245604e+01
   5.399080e+01   2.590776e+01
  -7.162448e+01  -4.721712e+01
  -2.489022e+01  -1.318257e+02
   1.316785e+02  -1.019720e+02
   1.854704e+02   1.346486e+01
   6.037729e+01   7.374022e+01
  -8.219925e+01   1.426586e+01
  -5.566725e+01  -7.762810e+01
   1.301698e+02  -8.866101e+01
   2.934430e+02   4.022029e+00
   2.718440e+02   1.468928e+02
   6.076260e+01   2.611773e+02
  -1.888795e+02   2.664201e+02
  -2.882528e+02   1.323231e+02
  -1.738255e+02  -4.602121e+01
   2.085854e+01  -1.080778e+02
   8.759606e+01  -9.550562e+00
  -3.589294e+01   1.010909e+02
  -1.999944e+02   5.964435e+01
  -2.187877e+02  -1.052835e+02
  -7.164589e+01  -2.149010e+02
   9.739030e+01  -1.633791e+02
   1.480464e+02  -2.896869e+01
   7.031870e+01   4.331324e+01
  -3.018027e+01  -1.384639e-01
  -3.527702e+01  -9.070496e+01
   7.965653e+01  -1.179220e+02
   2.076475e+02  -2.741622e+01
   1.983126e+02   1.302939e+02
   2.325065e+01   2.266954e+02
  -1.677045e+02   1.718695e+02
  -2.001827e+02   9.730514e+00
  -6.916594e+01  -1.162277e+02
   6.735041e+01  -1.148886e+02
   8.528364e+01  -3.087336e+01
   1.626917e+01   2.829978e+01
  -2.514501e+01   1.811381e+01
   1.072473e+01  -1.305118e+01
   7.781942e+01   5.727276e+00
   9.464704e+01   8.652865e+01
   1.354241e+01   1.690126e+02
  -1.341724e+02   1.607123e+02
  -2.438724e+02   2.448870e+01
  -2.088012e+02  -1.584654e+02
  -4.407668e+01  -2.474290e+02
   1.123041e+02  -1.769222e+02
   1.426135e+02  -2.919458e+01
   7.524428e+01   5.652447e+01
   3.038737e+01   3.589721e+01
   5.541519e+01  -1.495039e+01
   8.576430e+01  -8.321097e+00
   4.776306e+01   5.296309e+01
  -4.259412e+01   9.611300e+01
  -1.098685e+02   6.273255e+01
  -9.485722e+01  -3.743240e+01
   1.239179e+01  -1.182745e+02
   1.487764e+02  -9.205052e+01
   2.059445e+02   5.321594e+01
   1.052527e+02   2.101637e+02
  -1.096683e+02   2.373953e+02
  -2.762398e+02   1.006379e+02
  -2.688573e+02  -8.757298e+01
  -1.169171e+02  -1.807180e+02
   3.647507e+01  -1.517132e+02
   9.519030e+01  -8.932803e+01
   7.980124e+01  -7.609748e+01
   6.835948e+01  -9.938633e+01
   9.680664e+01  -8.082144e+01
   1.357763e+02   2.008128e+01
   1.249946e+02   1.588667e+02
   3.266813e+01   2.347171e+02
  -1.006785e+02   1.794358e+02
  -1.806777e+02   2.202196e+01
  -1.402502e+02  -1.260455e+02
  -1.839383e+01  -1.657015e+02
   7.162698e+01  -9.503528e+01
   6.364409e+01   1.445787e+00
   4.386844e+00   4.664832e+01
  -1.267420e+01   3.700757e+01
   3.711369e+01   1.922017e+01
   8.374929e+01   2.422325e+01
   4.705182e+01   4.065573e+01
  -6.825448e+01   3.827956e+01
  -1.665823e+02   2.034700e+00
  -1.490538e+02  -5.374441e+01
  -1.445070e+01  -9.172352e+01
   1.257903e+02  -7.675593e+01
   1.497200e+02  -1.427966e+01
   4.947017e+01   4.284612e+01
  -6.241399e+01   3.983291e+01
  -7.928387e+01  -1.979219e+01
  -1.035186e+01  -7.319531e+01
   5.618125e+01  -6.263488e+01
   6.684100e+01   1.863150e+00
   4.877240e+01   5.293509e+01
   4.671028e+01   4.342204e+01
   6.348353e+01   7.881627e-01
   6.899864e+01   3.378487e-02
   3.902062e+01   7.162083e+01
  -3.133671e+01   1.538196e+02
  -1.205802e+02   1.488415e+02
  -1.723670e+02   3.614456e+01
  -1.299707e+02  -9.361719e+01
  -7.925039e+00  -1.304157e+02
   8.928823e+01  -6.431180e+01
   6.261867e+01   1.466728e+01
  -6.072592e+01   2.128127e+01
  -1.429848e+02  -4.389259e+01
  -8.012467e+01  -1.101854e+02
   8.197640e+01  -1.163388e+02
   1.968952e+02  -5.420755e+01
   1.682974e+02   3.454489e+01
   3.827733e+01   8.904760e+01
  -6.380178e+01   7.143113e+01
  -5.090544e+01   5.725193e+00
   4.109772e+01  -2.985440e+01
   9.595882e+01   2.196328e+01
   3.717059e+01   1.231139e+02
  -9.157944e+01   1.625846e+02
  -1.718981e+02   6.837694e+01
  -1.322243e+02  -1.015376e+02
  -1.309293e+01  -2.042190e+02
   8.699082e+01  -1.496132e+02
   1.081791e+02   7.583324e+00
   6.275080e+01   1.230826e+02
  -2.917391e+00   1.104306e+02
  -4.897365e+01   2.056787e+01
  -5.411783e+01  -3.212165e+01
  -2.586963e+01  -8.717356e+00
  -3.630639e+00   2.062459e+01
  -2.257073e+01  -1.706719e+01
  -5.958553e+01  -9.220344e+01
  -4.395520e+01  -1.128415e+02
   5.034535e+01  -4.716338e+01
   1.458032e+02   3.961377e+01
   1.363005e+02   7.297883e+01
   1.846739e+01   5.301966e+01
  -9.169535e+01   2.502714e+01
  -9.203378e+01   8.470896e+00
  -1.105940e+01  -8.412151e+00
   4.023932e+01  -2.322950e+01
   1.462387e+01  -1.774833e+01
  -2.231857e+01   2.299105e+00
   6.123799e+00   8.397149e+00
   7.811832e+01   2.681904e+00
   9.697410e+01   2.479144e+01
   1.074696e+01   8.542964e+01
  -1.223924e+02   1.217374e+02
  -1.940065e+02   6.378408e+01
  -1.499537e+02  -6.799298e+01
  -2.961735e+01  -1.683598e+02
   8.036306e+01  -1.576991e+02
   1.186938e+02  -6.313772e+01
   8.514975e+01   2.165176e+01
   2.716435e+01   3.753373e+01
  -3.049315e+00   1.006736e+01
   9.659672e+00   4.800713e+00
   3.383492e+01   4.780141e+01
   2.416502e+01   9.401135e+01
  -2.972354e+01   7.518976e+01
  -8.513413e+01  -1.864976e+01
  -8.259848e+01  -1.126357e+02
  -6.490141e+00  -1.179794e+02
   8.599094e+01  -2.670148e+01
   1.093141e+02   7.721808e+01
   3.539269e+01   1.083031e+02
  -6.834914e+01   5.958003e+01
  -1.020048e+02  -1.131841e+01
  -4.137222e+01  -5.260449e+01
   3.335032e+01  -5.378220e+01
   3.210618e+01  -2.870168e+01
  -3.482068e+01   1.412925e+00
  -7.129620e+01   7.659375e+00
  -1.595005e+01  -2.572404e+01
   8.045332e+01  -6.832899e+01
   1.186506e+02  -6.113379e+01
   6.704347e+01   1.203273e+01
  -1.482463e+01   8.660374e+01
  -5.529115e+01   8.392112e+01
  -4.136070e+01   7.054202e+00
  -4.438199e+00  -5.878593e+01
   2.655701e+01  -4.670650e+01
   3.952011e+01   1.728809e+01
   2.905091e+01   5.611772e+01
  -2.911646e+00   3.510646e+01
  -3.489612e+01  -8.328306e+00
  -4.115343e+01  -2.219585e+01
  -2.093991e+01  -9.035036e-01
   4.353547e-01   1.589403e+01
   5.674449e+00  -1.726011e+00
   4.753231e+00  -3.804968e+01
   1.519373e+01  -4.813704e+01
   3.297909e+01  -1.017635e+01
   3.260445e+01   4.521205e+01
  -3.030095e-01   6.282172e+01
  -4.568717e+01   2.182113e+01
  -5.943004e+01  -4.021218e+01
  -1.605593e+01  -6.519167e+01
   5.678279e+01  -3.577839e+01
   9.282369e+01   1.442492e+01
   5.146063e+01   4.435777e+01
  -2.916930e+01   4.243030e+01
  -6.661565e+01   2.356331e+01
  -2.475885e+01   5.828117e+00
   3.819967e+01   1.602998e+00
   3.868151e+01   1.530097e+01
  -3.146890e+01   3.241028e+01
  -9.402102e+01   2.156728e+01
