
 $NMID
 id='ANONYMOUS ', fmtdat='(2E16.6)'
 volume=1.0
 tramp=1.0
 $END
  -2.692656e+03  -4.101824e+01
  -1.877697e+03  -1.417387e+03
  -2.450534e+02  -1.840337e+03
   1.248765e+03  -1.063377e+03
   8.390549e+02  -1.128368e+02
   1.110837e+02   3.350925e+02
  -3.035460e+02  -1.901536e+01
  -3.669230e+01  -5.058522e+02
   4.867098e+02  -5.314958e+02
   5.662033e+02  -1.130329e+02
   4.395894e+02   3.797284e+02
   4.553605e+01   6.016022e+02
  -1.443636e+02   1.925623e+02
  -1.373870e+02  -3.512183e+02
   9.879886e+01  -4.965371e+02
   3.462189e+02  -5.460874e+01
   2.770304e+02   3.796473e+02
  -9.979148e+01   6.521776e+02
  -4.791421e+02   3.147830e+02
  -4.332181e+02  -1.380531e+02
  -1.492394e+02  -3.302308e+02
   7.888688e+01  -3.055470e+02
   7.682028e+01  -1.042640e+02
  -2.064088e+02  -1.200836e+02
  -2.526778e+02  -3.392115e+02
   7.558158e+01  -3.739004e+02
   4.928448e+02  -1.018514e+02
   5.518588e+02   2.219089e+02
   1.532742e+02   3.186879e+02
  -3.085098e+02   1.149982e+02
  -4.274244e+02  -1.775579e+02
  -1.421876e+02  -3.236203e+02
   2.609983e+02  -3.088978e+02
   4.240191e+02  -9.042647e+01
   2.819340e+02   1.485286e+02
   6.778588e+01   2.755065e+02
   1.107247e+01   1.614038e+02
   1.048107e+02  -6.738335e+01
   1.879295e+02  -9.403460e+01
   1.390954e+02   1.814661e+02
  -4.358313e+01   4.488071e+02
  -2.200907e+02   3.845992e+02
  -2.683425e+02   3.328899e+00
  -9.706739e+01  -2.813548e+02
   1.142352e+02  -1.083679e+02
   1.158317e+02   2.658906e+02
  -1.245246e+02   3.581722e+02
  -4.178423e+02   4.339890e+01
  -4.661490e+02  -3.814630e+02
  -1.589260e+02  -4.904084e+02
   2.785543e+02  -2.574217e+02
   4.919358e+02   5.351422e+01
   3.314934e+02   2.093874e+02
  -1.339765e+01   1.859536e+02
  -2.410769e+02   8.697080e+01
  -2.046605e+02   5.139123e+00
  -3.717780e+01  -1.707998e+01
   3.428297e+01   9.248672e+00
  -6.397052e+01   2.861923e+01
  -1.801465e+02  -2.736273e+01
  -1.155556e+02  -1.554363e+02
   1.350676e+02  -2.405931e+02
   3.477657e+02  -1.497324e+02
   2.914538e+02   1.119447e+02
  -1.943471e+01   3.602756e+02
  -3.282126e+02   3.823156e+02
  -3.942686e+02   1.433732e+02
  -2.278479e+02  -1.720152e+02
  -4.099354e+01  -3.375052e+02
   1.083161e+01  -2.988715e+02
  -1.624561e+01  -1.903535e+02
   2.667402e+01  -1.455516e+02
   1.665490e+02  -1.369144e+02
   2.757752e+02  -4.386697e+01
   2.358925e+02   1.460923e+02
   6.283684e+01   2.755927e+02
  -1.182631e+02   1.895851e+02
  -1.956779e+02  -6.460288e+01
  -1.230342e+02  -2.704625e+02
   6.305232e+01  -2.530814e+02
   2.450051e+02  -4.676871e+01
   2.896376e+02   1.851389e+02
   1.544511e+02   2.820256e+02
  -3.781963e+01   2.391480e+02
  -1.382801e+02   1.548149e+02
  -1.379281e+02   1.045436e+02
  -1.608057e+02   8.909499e+01
  -3.020309e+02   3.817190e+01
  -4.294359e+02  -1.099776e+02
  -3.246013e+02  -3.117442e+02
   3.326805e+01  -4.459507e+02
   3.930574e+02  -3.978883e+02
   4.809441e+02  -1.655036e+02
   2.721609e+02   1.058566e+02
   1.698311e+00   2.379400e+02
  -8.963367e+01   1.739751e+02
   9.679360e+00   2.979728e+01
   1.329432e+02  -2.214376e+01
   1.202968e+02   5.567213e+01
  -7.939196e+00   1.335907e+02
  -1.140024e+02   8.121907e+01
  -9.148830e+01  -5.947596e+01
   3.866877e+01  -1.151359e+02
   1.562864e+02   1.536818e+01
   1.425432e+02   2.361412e+02
  -2.346077e+01   3.381854e+02
  -2.467487e+02   2.093420e+02
  -3.667556e+02  -6.574302e+01
  -2.787906e+02  -2.760217e+02
  -4.967523e+01  -2.815569e+02
   1.349305e+02  -1.316838e+02
   1.433693e+02   5.103297e+00
   2.480389e+01   1.167635e+01
  -4.831364e+01  -7.270811e+01
   1.450216e+01  -1.169342e+02
   1.268542e+02  -5.775004e+01
   1.372606e+02   3.527835e+01
   1.908196e+01   5.226528e+01
  -8.761259e+01  -2.474755e+01
  -3.316199e+01  -1.073199e+02
   1.641920e+02  -9.439398e+01
   3.193957e+02   2.969182e+01
   2.624048e+02   1.891579e+02
   1.493657e+01   2.765475e+02
  -2.243122e+02   2.305681e+02
  -2.709436e+02   8.390513e+01
  -1.269304e+02  -4.969526e+01
   3.649407e+01  -6.898611e+01
   5.759681e+01   1.419025e+01
  -6.369406e+01   7.799301e+01
  -1.868135e+02   2.361812e+01
  -1.822774e+02  -1.094486e+02
  -5.064659e+01  -1.851111e+02
   8.927458e+01  -1.282310e+02
   1.202944e+02  -1.026451e+01
   3.683363e+01   3.634708e+01
  -5.079592e+01  -3.147596e+01
  -2.597878e+01  -1.246073e+02
   1.084466e+02  -1.247414e+02
   2.212102e+02  -6.420734e+00
   1.818723e+02   1.430195e+02
   4.869021e+00   2.075378e+02
  -1.562922e+02   1.431669e+02
  -1.673771e+02   8.706664e+00
  -4.828547e+01  -9.015691e+01
   6.378239e+01  -8.901232e+01
   6.752704e+01  -2.089085e+01
  -4.060474e+00   2.709626e+01
  -4.317466e+01   8.135013e+00
   7.727548e+00  -3.236122e+01
   9.740806e+01  -6.855712e+00
   1.155293e+02   9.797603e+01
   1.048219e+01   1.893302e+02
  -1.552656e+02   1.600205e+02
  -2.508965e+02   3.701757e+00
  -1.949477e+02  -1.689042e+02
  -3.325063e+01  -2.315946e+02
   1.041133e+02  -1.580805e+02
   1.286728e+02  -3.168915e+01
   7.276769e+01   4.073345e+01
   3.373179e+01   2.525462e+01
   5.922719e+01  -1.782312e+01
   9.567475e+01  -9.116142e+00
   6.511024e+01   6.241675e+01
  -3.923852e+01   1.176067e+02
  -1.333149e+02   7.472542e+01
  -1.172532e+02  -5.062402e+01
   2.128390e+01  -1.424348e+02
   1.783026e+02  -9.330248e+01
   2.163304e+02   7.582562e+01
   8.113637e+01   2.259681e+02
  -1.375681e+02   2.237044e+02
  -2.746964e+02   7.452399e+01
  -2.419563e+02  -9.491708e+01
  -9.307703e+01  -1.680885e+02
   4.374667e+01  -1.344182e+02
   8.702546e+01  -7.704135e+01
   6.558088e+01  -6.963280e+01
   5.457619e+01  -9.752487e+01
   8.974099e+01  -8.414855e+01
   1.343948e+02   1.669446e+01
   1.213060e+02   1.567477e+02
   2.541864e+01   2.294752e+02
  -1.034177e+02   1.664636e+02
  -1.715779e+02   6.548381e+00
  -1.248934e+02  -1.330368e+02
  -5.334298e+00  -1.590503e+02
   8.062589e+01  -7.885430e+01
   6.614047e+01   1.987314e+01
  -6.195366e+00   5.973200e+01
  -3.260497e+01   3.852029e+01
   2.552738e+01   1.022956e+01
   8.858479e+01   1.608290e+01
   5.249427e+01   4.191957e+01
  -7.988581e+01   4.272233e+01
  -1.845959e+02  -3.622155e+00
  -1.471863e+02  -7.037247e+01
   8.787951e+00  -1.040540e+02
   1.442986e+02  -7.359267e+01
   1.482796e+02   1.495370e-01
   4.145829e+01   5.627090e+01
  -6.295353e+01   4.656531e+01
  -8.159931e+01  -1.969517e+01
  -2.349165e+01  -7.807121e+01
   4.406853e+01  -6.993790e+01
   7.311811e+01  -3.771745e+00
   6.478836e+01   5.167581e+01
   5.025284e+01   4.404292e+01
   5.329588e+01   1.288678e+00
   6.659613e+01   1.083402e+00
   5.099317e+01   7.615138e+01
  -2.418464e+01   1.598908e+02
  -1.326593e+02   1.525944e+02
  -1.920455e+02   3.616954e+01
  -1.368226e+02  -9.795701e+01
   2.243124e-01  -1.396592e+02
   9.699824e+01  -7.454152e+01
   6.267159e+01   9.314682e+00
  -6.094794e+01   2.160134e+01
  -1.352665e+02  -4.148054e+01
  -6.826931e+01  -1.083250e+02
   8.787528e+01  -1.103073e+02
   1.919949e+02  -4.165842e+01
   1.559269e+02   4.460141e+01
   2.696285e+01   8.659822e+01
  -6.789128e+01   5.874797e+01
  -4.964168e+01  -5.018959e+00
   4.167217e+01  -3.452709e+01
   9.586966e+01   1.700677e+01
   4.440333e+01   1.156857e+02
  -7.427800e+01   1.594730e+02
  -1.554172e+02   7.583496e+01
  -1.289673e+02  -8.840367e+01
  -2.008086e+01  -1.928114e+02
   8.177225e+01  -1.411714e+02
   1.061689e+02   1.367350e+01
   5.416924e+01   1.231659e+02
  -1.822433e+01   1.033351e+02
  -5.518794e+01   1.338762e+01
  -4.299093e+01  -3.293297e+01
  -1.284902e+01  -7.237429e+00
  -7.248108e+00   1.633827e+01
  -3.634555e+01  -2.341729e+01
  -6.061726e+01  -9.102339e+01
  -2.815888e+01  -1.043786e+02
   6.111864e+01  -4.238736e+01
   1.363779e+02   3.536211e+01
   1.205714e+02   6.845882e+01
   1.868389e+01   5.520487e+01
  -7.762158e+01   2.813505e+01
  -8.575825e+01   4.815952e+00
  -1.984808e+01  -1.401579e+01
   3.339322e+01  -2.129007e+01
   2.234987e+01  -9.463475e+00
  -1.216493e+01   6.210841e+00
   1.416564e+00   3.933800e+00
   6.399704e+01  -5.212013e+00
   9.546750e+01   1.905271e+01
   2.916212e+01   8.298534e+01
  -1.020746e+02   1.245493e+02
  -1.909916e+02   7.478960e+01
  -1.607188e+02  -5.301218e+01
  -3.838496e+01  -1.598730e+02
   7.922533e+01  -1.607808e+02
   1.179857e+02  -7.159787e+01
   8.186988e+01   1.660870e+01
   2.818713e+01   3.898548e+01
   4.830085e+00   1.549399e+01
   1.545173e+01   1.096329e+01
   3.018554e+01   5.087170e+01
   1.779159e+01   9.186934e+01
  -2.802644e+01   7.281364e+01
  -7.887972e+01  -1.176930e+01
  -8.514768e+01  -9.787517e+01
  -2.148794e+01  -1.111623e+02
   7.220927e+01  -3.884022e+01
   1.106516e+02   5.829547e+01
   4.725540e+01   1.039909e+02
  -6.233475e+01   7.127440e+01
  -1.087874e+02  -3.815586e+00
  -5.084112e+01  -6.209559e+01
   3.434041e+01  -6.792010e+01
   4.452520e+01  -3.068247e+01
  -2.259816e+01   8.984122e+00
  -6.864004e+01   1.066547e+01
  -2.016136e+01  -2.904258e+01
   7.905201e+01  -6.752334e+01
   1.248131e+02  -5.326524e+01
   7.606914e+01   1.794913e+01
  -1.091911e+01   8.724634e+01
  -5.878530e+01   8.770421e+01
  -4.838022e+01   1.856254e+01
  -1.129335e+01  -5.015379e+01
   2.098037e+01  -5.194138e+01
   3.718350e+01   5.093286e+00
   3.119069e+01   5.313120e+01
   1.226176e+00   4.325554e+01
  -3.421928e+01  -3.066377e+00
  -4.416115e+01  -2.723881e+01
  -2.092149e+01  -6.584958e+00
   6.944668e+00   2.263943e+01
   7.994220e+00   1.390840e+01
  -8.639335e+00  -2.957126e+01
  -6.527652e+00  -5.650502e+01
   2.396983e+01  -2.846301e+01
   4.589904e+01   3.072309e+01
   1.971896e+01   5.992662e+01
  -3.909348e+01   2.874573e+01
  -6.697116e+01  -3.021503e+01
  -2.272715e+01  -6.051903e+01
   5.861376e+01  -3.898147e+01
   9.708253e+01   8.223623e+00
   5.259451e+01   4.283669e+01
  -2.906602e+01   4.857827e+01
  -6.620453e+01   3.179193e+01
  -3.008968e+01   7.824933e+00
   2.638677e+01  -6.128333e+00
   3.295216e+01   2.664986e+00
  -1.981446e+01   2.454782e+01
  -7.357898e+01   2.400471e+01
