
 $NMID
 id='ANONYMOUS ', fmtdat='(2E16.6)'
 volume=1.0
 tramp=1.0
 $END
  -3.903660e+03   3.803104e+02
  -2.225831e+03  -1.918988e+03
   3.716809e+02  -2.466875e+03
   1.592121e+03  -8.683055e+02
   9.510633e+02   7.885002e+01
  -1.385292e+02   3.967386e+02
  -5.568400e+02  -1.133292e+02
  -8.782727e+01  -7.229861e+02
   5.503778e+02  -6.540854e+02
   7.879406e+02  -8.748889e+01
   4.594842e+02   6.520464e+02
  -2.949780e+01   7.959940e+02
  -4.990558e+02   1.638011e+02
  -4.041870e+02  -5.143138e+02
   1.362247e+02  -6.729120e+02
   4.966971e+02  -8.603193e+01
   3.233904e+02   5.614319e+02
  -1.705195e+02   6.606301e+02
  -5.282659e+02   2.224514e+02
  -4.588611e+02  -2.319597e+02
  -1.042326e+02  -3.888074e+02
   1.649580e+02  -2.407710e+02
   1.342504e+02  -8.446520e+01
  -1.192918e+02  -4.269353e+01
  -2.882912e+02  -2.049395e+02
  -4.981286e+01  -3.642552e+02
   4.309830e+02  -2.647846e+02
   6.868811e+02   1.156587e+02
   2.927247e+02   3.925331e+02
  -3.291770e+02   3.338509e+02
  -5.681657e+02  -5.805574e+01
  -2.557039e+02  -3.965716e+02
   2.487279e+02  -4.091064e+02
   4.892321e+02  -1.608081e+02
   3.592165e+02   1.730991e+02
   9.289472e+01   3.585161e+02
  -6.927324e+01   2.196626e+02
  -4.507318e+01  -1.277120e+02
   1.587473e+02  -2.246602e+02
   2.828097e+02   9.674370e+01
   1.039337e+02   5.401160e+02
  -2.536497e+02   5.268321e+02
  -4.129113e+02   7.977336e+00
  -1.651055e+02  -3.825691e+02
   1.959217e+02  -1.996958e+02
   2.416848e+02   2.795360e+02
  -9.173048e+01   4.282857e+02
  -4.639076e+02   9.255059e+01
  -4.989408e+02  -3.571914e+02
  -1.548588e+02  -4.986303e+02
   2.980232e+02  -2.840074e+02
   5.235846e+02   5.603874e+01
   3.469510e+02   2.749798e+02
  -6.259663e+01   2.660753e+02
  -3.218962e+02   8.284771e+01
  -2.241457e+02  -7.396396e+01
   2.925617e+01  -4.872772e+01
   7.783955e+01   7.955849e+01
  -1.246561e+02   9.609056e+01
  -2.701599e+02  -6.143336e+01
  -1.234040e+02  -2.282738e+02
   1.826484e+02  -2.387259e+02
   3.401333e+02  -9.752585e+01
   2.256853e+02   9.780854e+01
  -3.737830e+01   2.723134e+02
  -2.632814e+02   3.336182e+02
  -3.375203e+02   1.831217e+02
  -2.441550e+02  -1.282967e+02
  -6.667384e+01  -3.600274e+02
   5.289361e+01  -3.363151e+02
   5.399470e+01  -1.635752e+02
   3.102275e+01  -7.163262e+01
   9.858515e+01  -9.415273e+01
   2.187350e+02  -6.336333e+01
   2.431319e+02   1.016829e+02
   1.127263e+02   2.506427e+02
  -8.002541e+01   2.013082e+02
  -1.953828e+02  -2.178251e+01
  -1.575131e+02  -2.297161e+02
   1.996625e+01  -2.535994e+02
   2.334115e+02  -8.141300e+01
   3.159579e+02   1.598609e+02
   1.759238e+02   3.038855e+02
  -6.241833e+01   2.727386e+02
  -1.841434e+02   1.392276e+02
  -1.451902e+02   5.184117e+01
  -1.256342e+02   5.184369e+01
  -2.507853e+02   4.312765e+01
  -3.953914e+02  -7.954943e+01
  -3.195882e+02  -2.827214e+02
   8.562134e+00  -4.220580e+02
   3.593682e+02  -3.897382e+02
   4.670498e+02  -1.803802e+02
   3.006975e+02   8.904134e+01
   3.488266e+01   2.533920e+02
  -1.052031e+02   2.127055e+02
  -3.985421e+01   3.821199e+01
   1.070852e+02  -6.364953e+01
   1.490657e+02   1.926037e+01
   2.695161e+01   1.514059e+02
  -1.234273e+02   1.248367e+02
  -1.293957e+02  -4.914039e+01
   2.268060e+01  -1.477808e+02
   1.664786e+02  -1.421877e+01
   1.539841e+02   2.313324e+02
  -1.875067e+01   3.359559e+02
  -2.313224e+02   1.988781e+02
  -3.410593e+02  -5.978044e+01
  -2.734902e+02  -2.461072e+02
  -6.845227e+01  -2.611682e+02
   1.226831e+02  -1.412726e+02
   1.558429e+02  -1.044795e+01
   3.926780e+01   1.894998e+01
  -5.895581e+01  -5.199801e+01
  -9.700640e+00  -1.137617e+02
   1.191462e+02  -7.572448e+01
   1.525725e+02   2.122237e+01
   4.001326e+01   5.917236e+01
  -7.878730e+01  -3.478121e+00
  -4.315434e+01  -8.621765e+01
   1.359969e+02  -8.795722e+01
   2.868739e+02   1.210471e+01
   2.525355e+02   1.551105e+02
   3.910975e+01   2.535424e+02
  -1.908020e+02   2.380657e+02
  -2.617491e+02   1.072552e+02
  -1.431413e+02  -4.281809e+01
   2.444110e+01  -8.527461e+01
   6.721326e+01  -1.325248e+00
  -4.646339e+01   8.328070e+01
  -1.817193e+02   4.183935e+01
  -1.888384e+02  -9.686414e+01
  -5.776245e+01  -1.855103e+02
   8.768762e+01  -1.370163e+02
   1.250154e+02  -2.015770e+01
   4.849587e+01   3.544268e+01
  -3.960674e+01  -1.510288e+01
  -2.971067e+01  -9.939780e+01
   8.808071e+01  -1.124055e+02
   2.016388e+02  -1.655194e+01
   1.793930e+02   1.261860e+02
   1.440740e+01   2.038774e+02
  -1.518283e+02   1.509574e+02
  -1.737070e+02   1.241228e+01
  -5.730939e+01  -9.531484e+01
   5.894430e+01  -9.637033e+01
   6.863902e+01  -2.530782e+01
   2.506177e+00   2.510987e+01
  -3.392385e+01   1.071081e+01
   9.639128e+00  -2.257703e+01
   8.381484e+01  -2.562888e+00
   9.958241e+01   8.432023e+01
   1.191358e+01   1.662267e+02
  -1.342582e+02   1.501110e+02
  -2.298212e+02   1.605563e+01
  -1.883318e+02  -1.498448e+02
  -3.889446e+01  -2.231302e+02
   9.864102e+01  -1.580669e+02
   1.267850e+02  -3.108495e+01
   7.094131e+01   4.392052e+01
   3.159013e+01   2.898927e+01
   5.413508e+01  -1.434000e+01
   8.563264e+01  -6.615343e+00
   5.479404e+01   5.443919e+01
  -3.742105e+01   9.976921e+01
  -1.161043e+02   6.529519e+01
  -1.002981e+02  -3.943543e+01
   1.455588e+01  -1.216307e+02
   1.530621e+02  -8.805140e+01
   1.982527e+02   5.792013e+01
   8.758057e+01   2.022579e+02
  -1.139939e+02   2.167299e+02
  -2.576882e+02   8.484263e+01
  -2.411093e+02  -8.318303e+01
  -1.017752e+02  -1.638976e+02
   3.641726e+01  -1.367112e+02
   8.686677e+01  -8.140701e+01
   6.978634e+01  -7.019649e+01
   5.791728e+01  -9.148277e+01
   8.826319e+01  -7.658000e+01
   1.281872e+02   1.678471e+01
   1.177573e+02   1.468892e+02
   2.905744e+01   2.183317e+02
  -9.468311e+01   1.648795e+02
  -1.650121e+02   1.628985e+01
  -1.249885e+02  -1.198544e+02
  -1.304700e+01  -1.507511e+02
   6.858371e+01  -7.952842e+01
   5.790671e+01   1.142625e+01
  -2.548004e+00   4.911870e+01
  -2.210773e+01   3.273639e+01
   2.825262e+01   1.150271e+01
   7.975245e+01   1.798973e+01
   4.649542e+01   3.837223e+01
  -6.870551e+01   3.773867e+01
  -1.638905e+02  -8.155840e-01
  -1.391936e+02  -5.810889e+01
  -3.637242e+00  -9.275673e+01
   1.264297e+02  -7.303529e+01
   1.414455e+02  -9.185290e+00
   4.500475e+01   4.674456e+01
  -5.767283e+01   4.379580e+01
  -7.606271e+01  -1.571974e+01
  -1.713736e+01  -7.131511e+01
   4.609462e+01  -6.497185e+01
   6.548589e+01  -2.764005e+00
   5.360957e+01   5.003805e+01
   4.622750e+01   4.273377e+01
   5.502262e+01   1.179238e+00
   6.279338e+01  -6.551300e-01
   4.119278e+01   6.844555e+01
  -2.585333e+01   1.468889e+02
  -1.175773e+02   1.411151e+02
  -1.703558e+02   3.332686e+01
  -1.258690e+02  -9.011573e+01
  -4.470563e+00  -1.269695e+02
   8.778282e+01  -6.549369e+01
   6.040459e+01   1.192393e+01
  -5.585344e+01   2.180498e+01
  -1.307558e+02  -3.841495e+01
  -7.104025e+01  -1.024561e+02
   7.775547e+01  -1.076572e+02
   1.808306e+02  -4.622225e+01
   1.519622e+02   3.668985e+01
   3.191771e+01   8.216956e+01
  -6.007148e+01   6.129503e+01
  -4.685932e+01   7.984820e-01
   3.802846e+01  -3.023049e+01
   8.983656e+01   1.755556e+01
   3.932463e+01   1.113134e+02
  -7.705634e+01   1.520505e+02
  -1.539199e+02   7.042587e+01
  -1.238201e+02  -8.707531e+01
  -1.683001e+01  -1.863822e+02
   7.779812e+01  -1.378280e+02
   9.946165e+01   8.840614e+00
   5.427122e+01   1.151482e+02
  -9.658303e+00   9.965735e+01
  -4.869276e+01   1.474102e+01
  -4.582915e+01  -3.138232e+01
  -1.811525e+01  -7.433606e+00
  -3.968249e+00   1.807909e+01
  -2.617627e+01  -1.847717e+01
  -5.641432e+01  -8.579953e+01
  -3.562868e+01  -1.021181e+02
   5.067583e+01  -4.233973e+01
   1.323343e+02   3.505231e+01
   1.214145e+02   6.599878e+01
   1.813372e+01   5.051703e+01
  -7.934635e+01   2.509613e+01
  -8.362103e+01   6.920413e+00
  -1.500703e+01  -9.670502e+00
   3.393229e+01  -2.080444e+01
   1.694487e+01  -1.371610e+01
  -1.611982e+01   3.282419e+00
   3.235392e+00   6.467612e+00
   6.568250e+01   9.673138e-02
   8.911030e+01   2.074872e+01
   1.858465e+01   7.741640e+01
  -1.047506e+02   1.137216e+02
  -1.804228e+02   6.444815e+01
  -1.464278e+02  -5.623519e+01
  -3.292174e+01  -1.541131e+02
   7.462617e+01  -1.504996e+02
   1.113536e+02  -6.445991e+01
   7.911330e+01   1.728421e+01
   2.691319e+01   3.583968e+01
   1.860550e+00   1.182511e+01
   1.232834e+01   6.862029e+00
   2.997003e+01   4.589581e+01
   1.965718e+01   8.734863e+01
  -2.656538e+01   6.994790e+01
  -7.569775e+01  -1.371843e+01
  -7.793779e+01  -9.811215e+01
  -1.337205e+01  -1.063266e+02
   7.320667e+01  -2.985312e+01
   1.023899e+02   6.375060e+01
   3.845296e+01   9.908098e+01
  -6.180560e+01   6.093848e+01
  -9.964870e+01  -6.997036e+00
  -4.369934e+01  -5.364535e+01
   3.216382e+01  -5.763678e+01
   3.668842e+01  -2.854190e+01
  -2.700741e+01   4.807246e+00
  -6.647078e+01   9.033659e+00
  -1.789120e+01  -2.557728e+01
   7.463434e+01  -6.459637e+01
   1.147345e+02  -5.446355e+01
   6.731757e+01   1.426553e+01
  -1.223669e+01   8.203340e+01
  -5.376425e+01   8.026608e+01
  -4.167302e+01   1.115948e+01
  -6.867474e+00  -5.154841e+01
   2.227803e+01  -4.561006e+01
   3.588837e+01   1.135786e+01
   2.813165e+01   5.132124e+01
  -5.844118e-01   3.645745e+01
  -3.237873e+01  -5.238261e+00
  -4.050104e+01  -2.247508e+01
  -2.027145e+01  -3.257654e+00
   2.953006e+00   1.740501e+01
   6.400141e+00   4.875108e+00
  -1.687540e+00  -3.197765e+01
   4.299330e+00  -4.895371e+01
   2.690392e+01  -1.847158e+01
   3.726896e+01   3.513378e+01
   9.738398e+00   5.797616e+01
  -3.929966e+01   2.444277e+01
  -5.948086e+01  -3.269865e+01
  -1.864395e+01  -5.972235e+01
   5.439850e+01  -3.600761e+01
   9.026861e+01   1.072167e+01
   5.039074e+01   4.214268e+01
  -2.700432e+01   4.448826e+01
  -6.340413e+01   2.792006e+01
  -2.742839e+01   7.437282e+00
   2.931481e+01  -2.478276e+00
   3.328149e+01   6.939433e+00
  -2.436747e+01   2.593758e+01
  -7.893011e+01   2.194676e+01
