
 $NMID
 id='ANONYMOUS ', fmtdat='(2E16.6)'
 volume=1.0
 tramp=1.0
 $END
  -3.776890e+03   6.872218e+01
  -2.245179e+03  -2.033531e+03
   2.079932e+02  -2.504798e+03
   1.714868e+03  -1.019726e+03
   1.074864e+03   2.753368e+02
  -4.628499e+02   2.545259e+02
  -5.679748e+02  -3.324913e+02
  -7.828383e+01  -7.060282e+02
   6.510356e+02  -6.014492e+02
   6.765277e+02   4.759945e+01
   4.190649e+02   5.478628e+02
  -1.257259e+02   6.736680e+02
  -4.216676e+02   1.704046e+02
  -3.193411e+02  -4.471305e+02
   1.388989e+02  -6.000726e+02
   5.130861e+02  -8.240406e+01
   2.673208e+02   5.324728e+02
  -2.350531e+02   6.131048e+02
  -4.966896e+02   1.623202e+02
  -4.067589e+02  -2.566842e+02
  -8.010802e+01  -4.131106e+02
   2.078890e+02  -2.220018e+02
   1.793895e+02  -3.149759e+01
  -1.644860e+02  -1.899634e+01
  -3.048826e+02  -1.946496e+02
  -5.413988e+01  -3.996116e+02
   5.192906e+02  -2.300193e+02
   7.020982e+02   1.775381e+02
   2.745265e+02   4.330076e+02
  -3.942606e+02   2.985621e+02
  -6.201689e+02  -1.180549e+02
  -2.354518e+02  -4.297320e+02
   3.004671e+02  -3.969873e+02
   5.049603e+02  -1.448546e+02
   3.501023e+02   1.863323e+02
   6.087741e+01   3.920497e+02
  -1.102894e+02   2.319550e+02
  -1.107154e+01  -1.437556e+02
   1.964918e+02  -2.715214e+02
   3.052201e+02   8.599519e+01
   7.201509e+01   5.696295e+02
  -2.851141e+02   5.273812e+02
  -4.228760e+02  -1.354002e+01
  -1.616475e+02  -3.980137e+02
   2.156054e+02  -1.842597e+02
   2.680291e+02   3.132006e+02
  -9.369587e+01   4.499904e+02
  -4.994026e+02   7.753228e+01
  -5.498389e+02  -3.922701e+02
  -1.828703e+02  -5.275402e+02
   3.277015e+02  -2.962899e+02
   5.711988e+02   6.853297e+01
   3.537643e+02   2.998195e+02
  -9.437344e+01   2.693876e+02
  -3.475380e+02   6.170380e+01
  -2.150452e+02  -9.177525e+01
   4.246962e+01  -4.023797e+01
   7.209224e+01   9.999410e+01
  -1.393426e+02   1.045370e+02
  -2.781392e+02  -6.652338e+01
  -1.334088e+02  -2.352448e+02
   1.616594e+02  -2.501799e+02
   3.268638e+02  -1.184937e+02
   2.391465e+02   8.521848e+01
  -1.565304e+01   2.830333e+02
  -2.700824e+02   3.504559e+02
  -3.756266e+02   1.752797e+02
  -2.750618e+02  -1.609885e+02
  -6.664929e+01  -3.893075e+02
   6.662086e+01  -3.459897e+02
   5.778737e+01  -1.681361e+02
   3.004851e+01  -8.973169e+01
   1.112471e+02  -1.227547e+02
   2.435356e+02  -8.281722e+01
   2.666575e+02   1.044161e+02
   1.214038e+02   2.726506e+02
  -8.535570e+01   2.261451e+02
  -2.086196e+02  -1.561273e+01
  -1.640206e+02  -2.470051e+02
   3.548166e+01  -2.782894e+02
   2.609221e+02  -8.794143e+01
   3.331760e+02   1.787694e+02
   1.763806e+02   3.290181e+02
  -7.026239e+01   2.884874e+02
  -1.893684e+02   1.453971e+02
  -1.452549e+02   5.818349e+01
  -1.320184e+02   6.201005e+01
  -2.728604e+02   5.197093e+01
  -4.177944e+02  -8.523143e+01
  -3.353673e+02  -3.026585e+02
   1.673033e+01  -4.516249e+02
   3.814070e+02  -4.091361e+02
   4.918650e+02  -1.848072e+02
   3.094955e+02   1.018617e+02
   2.934733e+01   2.691169e+02
  -1.095005e+02   2.144946e+02
  -3.053170e+01   3.032798e+01
   1.237437e+02  -6.147358e+01
   1.580679e+02   3.432411e+01
   2.328737e+01   1.684669e+02
  -1.355038e+02   1.302750e+02
  -1.365289e+02  -6.031717e+01
   2.381810e+01  -1.540323e+02
   1.733814e+02  -7.672751e+00
   1.585045e+02   2.471345e+02
  -2.498356e+01   3.481508e+02
  -2.431649e+02   2.013563e+02
  -3.524442e+02  -6.570804e+01
  -2.802757e+02  -2.587211e+02
  -6.989063e+01  -2.734216e+02
   1.261721e+02  -1.454203e+02
   1.592564e+02  -7.607201e+00
   4.030763e+01   2.115349e+01
  -5.891491e+01  -5.684047e+01
  -6.177270e+00  -1.234360e+02
   1.268827e+02  -8.225905e+01
   1.590353e+02   2.224209e+01
   3.975425e+01   6.318616e+01
  -8.239305e+01  -2.714205e+00
  -4.153161e+01  -9.081361e+01
   1.482845e+02  -9.268132e+01
   3.062108e+02   1.541268e+01
   2.670719e+02   1.693063e+02
   3.808939e+01   2.736500e+02
  -2.082375e+02   2.520318e+02
  -2.831344e+02   1.075691e+02
  -1.526206e+02  -5.069386e+01
   2.977018e+01  -8.945642e+01
   7.539331e+01   3.644278e+00
  -4.850995e+01   9.071821e+01
  -1.954141e+02   4.230389e+01
  -2.041581e+02  -1.058042e+02
  -6.444409e+01  -1.974135e+02
   9.186746e+01  -1.449238e+02
   1.344864e+02  -2.103050e+01
   5.328896e+01   3.841320e+01
  -4.341600e+01  -1.526510e+01
  -3.523745e+01  -1.069682e+02
   9.172109e+01  -1.231263e+02
   2.148609e+02  -2.025176e+01
   1.905536e+02   1.347662e+02
   1.255853e+01   2.175714e+02
  -1.638857e+02   1.573215e+02
  -1.830273e+02   7.118865e+00
  -5.734829e+01  -1.054071e+02
   6.522916e+01  -1.032552e+02
   7.535843e+01  -2.640527e+01
   7.164718e+00   2.757211e+01
  -3.199091e+01   1.340338e+01
   1.040807e+01  -2.081141e+01
   8.549660e+01  -3.250698e-01
   1.032717e+02   9.021226e+01
   1.533201e+01   1.761130e+02
  -1.396905e+02   1.590108e+02
  -2.427543e+02   1.698413e+01
  -2.011967e+02  -1.585837e+02
  -4.077260e+01  -2.364229e+02
   1.052401e+02  -1.664670e+02
   1.327748e+02  -3.043704e+01
   7.270869e+01   4.875945e+01
   3.277530e+01   3.201157e+01
   5.626579e+01  -1.596661e+01
   8.709057e+01  -1.131291e+01
   5.458760e+01   5.323024e+01
  -3.861538e+01   1.029029e+02
  -1.151536e+02   6.701352e+01
  -1.001274e+02  -4.031373e+01
   1.614365e+01  -1.265015e+02
   1.598333e+02  -9.032394e+01
   2.078470e+02   6.174834e+01
   9.271163e+01   2.137888e+02
  -1.211381e+02   2.298627e+02
  -2.740131e+02   8.899014e+01
  -2.538932e+02  -9.137790e+01
  -1.024270e+02  -1.765063e+02
   4.364218e+01  -1.439287e+02
   9.386122e+01  -8.083825e+01
   7.313903e+01  -6.773976e+01
   5.902620e+01  -9.302803e+01
   9.041885e+01  -7.980075e+01
   1.331820e+02   1.850126e+01
   1.219392e+02   1.561069e+02
   2.813992e+01   2.301248e+02
  -1.024761e+02   1.714822e+02
  -1.754946e+02   1.397931e+01
  -1.317819e+02  -1.287158e+02
  -1.262350e+01  -1.607934e+02
   7.375967e+01  -8.584368e+01
   6.323015e+01   1.002836e+01
  -2.813872e-01   5.160451e+01
  -2.140357e+01   3.646632e+01
   3.050848e+01   1.321963e+01
   8.427300e+01   1.737309e+01
   5.036431e+01   3.859695e+01
  -6.966979e+01   4.082912e+01
  -1.704169e+02   2.475295e+00
  -1.460755e+02  -5.907625e+01
  -4.134865e+00  -9.674229e+01
   1.329087e+02  -7.493511e+01
   1.478105e+02  -6.842183e+00
   4.509229e+01   4.937766e+01
  -6.206249e+01   4.284217e+01
  -7.908403e+01  -1.894733e+01
  -1.629256e+01  -7.302829e+01
   4.902353e+01  -6.440009e+01
   6.781718e+01  -2.101306e+00
   5.517995e+01   4.982248e+01
   4.783347e+01   4.262590e+01
   5.778363e+01   1.988138e+00
   6.575299e+01   1.451709e-01
   4.307742e+01   7.042984e+01
  -2.699290e+01   1.519690e+02
  -1.230663e+02   1.479777e+02
  -1.786315e+02   3.619916e+01
  -1.314594e+02  -9.418792e+01
  -3.367674e+00  -1.344107e+02
   9.243254e+01  -6.983896e+01
   6.212513e+01   1.245301e+01
  -6.112007e+01   2.262389e+01
  -1.384622e+02  -4.164740e+01
  -7.356502e+01  -1.093936e+02
   8.481071e+01  -1.143773e+02
   1.936394e+02  -4.875680e+01
   1.616246e+02   3.968030e+01
   3.316497e+01   8.801652e+01
  -6.488026e+01   6.530456e+01
  -5.063097e+01   1.318056e+00
   3.932003e+01  -3.075649e+01
   9.347900e+01   2.007884e+01
   3.961225e+01   1.174783e+02
  -8.239918e+01   1.570370e+02
  -1.622335e+02   6.917722e+01
  -1.295293e+02  -9.462885e+01
  -1.684211e+01  -1.959871e+02
   8.326054e+01  -1.443297e+02
   1.062945e+02   8.498813e+00
   5.899986e+01   1.201967e+02
  -8.854851e+00   1.054827e+02
  -5.003057e+01   1.710896e+01
  -4.734092e+01  -3.259793e+01
  -1.911992e+01  -8.294706e+00
  -5.234444e+00   1.932476e+01
  -2.886932e+01  -1.781026e+01
  -5.887630e+01  -8.920875e+01
  -3.554397e+01  -1.079807e+02
   5.433114e+01  -4.507594e+01
   1.379643e+02   3.740134e+01
   1.256258e+02   7.058776e+01
   1.836917e+01   5.295882e+01
  -8.264726e+01   2.491438e+01
  -8.727779e+01   6.361540e+00
  -1.611754e+01  -9.967642e+00
   3.540894e+01  -2.137765e+01
   1.859864e+01  -1.410952e+01
  -1.601190e+01   3.552108e+00
   3.329937e+00   6.915964e+00
   6.785503e+01  -2.777317e-01
   9.246276e+01   2.075592e+01
   1.941963e+01   8.001639e+01
  -1.086530e+02   1.188986e+02
  -1.870471e+02   6.766766e+01
  -1.513488e+02  -5.867244e+01
  -3.306799e+01  -1.606550e+02
   7.840464e+01  -1.562291e+02
   1.160790e+02  -6.582663e+01
   8.177095e+01   1.910244e+01
   2.719824e+01   3.743988e+01
   1.640417e+00   1.196517e+01
   1.335671e+01   7.149240e+00
   3.181236e+01   4.869415e+01
   2.018248e+01   9.202454e+01
  -2.855314e+01   7.327136e+01
  -7.965236e+01  -1.483188e+01
  -8.103085e+01  -1.030084e+02
  -1.369580e+01  -1.112418e+02
   7.574983e+01  -3.079943e+01
   1.055888e+02   6.654871e+01
   3.992123e+01   1.030013e+02
  -6.319241e+01   6.331657e+01
  -1.027323e+02  -7.020786e+00
  -4.565689e+01  -5.555532e+01
   3.235914e+01  -6.021940e+01
   3.732052e+01  -3.027572e+01
  -2.857350e+01   4.826400e+00
  -6.952442e+01   9.534935e+00
  -1.825977e+01  -2.706327e+01
   7.879475e+01  -6.832577e+01
   1.208291e+02  -5.783021e+01
   7.103046e+01   1.452378e+01
  -1.266707e+01   8.589694e+01
  -5.586564e+01   8.411384e+01
  -4.268530e+01   1.221138e+01
  -6.544925e+00  -5.305134e+01
   2.293177e+01  -4.744636e+01
   3.646496e+01   1.156435e+01
   2.911224e+01   5.297654e+01
   1.005799e-01   3.775442e+01
  -3.323263e+01  -5.571650e+00
  -4.220248e+01  -2.371421e+01
  -2.108864e+01  -3.588542e+00
   3.916874e+00   1.811495e+01
   7.590241e+00   5.473926e+00
  -1.458358e+00  -3.256839e+01
   3.764344e+00  -5.034004e+01
   2.712972e+01  -1.911320e+01
   3.865666e+01   3.613224e+01
   1.068365e+01   5.956841e+01
  -4.053716e+01   2.549855e+01
  -6.183108e+01  -3.330790e+01
  -1.987507e+01  -6.089954e+01
   5.601421e+01  -3.673080e+01
   9.335246e+01   1.112093e+01
   5.166744e+01   4.356150e+01
  -2.887810e+01   4.554340e+01
  -6.667515e+01   2.732178e+01
  -2.878460e+01   5.993394e+00
   3.095138e+01  -3.211810e+00
   3.533958e+01   7.720970e+00
  -2.470857e+01   2.703899e+01
  -8.154315e+01   2.185735e+01
