
 $NMID
 id='ANONYMOUS ', fmtdat='(2E16.6)'
 volume=1.0
 tramp=1.0
 $END
   4.680023e+03  -6.875859e+01
   2.528280e+03   2.891672e+03
  -6.811909e+02   2.825732e+03
  -2.209259e+03   8.457833e+02
  -9.594705e+02  -7.862956e+02
   6.726629e+02  -6.541216e+02
   1.069890e+03   4.025461e+02
  -5.031363e+01   1.153996e+03
  -9.526699e+02   7.162073e+02
  -1.027745e+03  -1.615307e+02
  -5.255461e+02  -9.766858e+02
   3.512837e+02  -9.119284e+02
   7.095196e+02  -7.171015e+01
   4.213529e+02   8.005778e+02
  -3.120084e+02   8.053404e+02
  -7.332365e+02  -1.325391e+01
  -2.578489e+02  -7.667709e+02
   4.418960e+02  -6.923792e+02
   6.587741e+02  -6.332252e+01
   3.698655e+02   4.138110e+02
  -5.213360e+01   4.782265e+02
  -2.904148e+02   3.041202e+02
  -2.655469e+02   8.956060e+00
   1.114046e+02  -1.203621e+02
   4.294692e+02   1.099727e+02
   2.125400e+02   4.756378e+02
  -5.014072e+02   4.439136e+02
  -9.523641e+02  -6.419399e+01
  -4.857510e+02  -6.142823e+02
   4.339530e+02  -5.642666e+02
   8.176144e+02   4.165913e+01
   3.800575e+02   5.243605e+02
  -3.297159e+02   5.529866e+02
  -6.270894e+02   2.001860e+02
  -4.482120e+02  -2.413413e+02
  -4.079146e+01  -5.189698e+02
   2.436300e+02  -3.056655e+02
   1.967432e+02   2.660701e+02
  -2.093752e+02   4.985089e+02
  -5.262546e+02  -3.041921e+01
  -2.718002e+02  -7.599442e+02
   3.598942e+02  -7.673986e+02
   6.799389e+02   1.638231e+01
   2.751334e+02   6.444080e+02
  -3.427542e+02   3.753777e+02
  -4.458088e+02  -3.451338e+02
   5.086013e+01  -5.974270e+02
   5.854523e+02  -1.609339e+02
   6.272433e+02   4.214822e+02
   1.727572e+02   6.143304e+02
  -4.146055e+02   3.667672e+02
  -6.681354e+02  -8.382229e+01
  -3.772066e+02  -4.260378e+02
   1.935415e+02  -4.016972e+02
   4.920302e+02  -4.910144e+01
   2.616179e+02   2.439260e+02
  -1.333951e+02   1.450591e+02
  -1.586713e+02  -1.553896e+02
   1.743833e+02  -1.983790e+02
   3.694746e+02   8.953299e+01
   1.476117e+02   3.323919e+02
  -2.187780e+02   2.761364e+02
  -3.461369e+02   7.326591e+01
  -2.024410e+02  -7.720948e+01
   2.009559e+01  -2.070725e+02
   2.169058e+02  -3.254421e+02
   3.493937e+02  -2.345841e+02
   3.138837e+02   1.345953e+02
   8.429914e+01   4.603036e+02
  -1.355385e+02   4.057509e+02
  -1.369564e+02   1.074088e+02
  -1.151291e+01  -2.470166e+01
  -1.595124e+01   9.510807e+01
  -1.887381e+02   1.541350e+02
  -2.998445e+02  -4.451423e+01
  -1.788237e+02  -2.896452e+02
   7.653152e+01  -2.823411e+02
   2.544069e+02  -1.678950e+01
   2.227296e+02   2.595116e+02
  -8.863145e+00   3.232830e+02
  -2.851351e+02   1.298213e+02
  -3.794256e+02  -1.822211e+02
  -1.845451e+02  -3.797004e+02
   1.201624e+02  -3.188440e+02
   2.415554e+02  -1.039133e+02
   1.452269e+02   1.902857e+01
   8.219470e+01  -3.174931e+01
   2.281318e+02  -8.317474e+01
   4.087989e+02   4.349839e+01
   3.436757e+02   2.880080e+02
   5.686056e+00   4.524066e+02
  -3.551353e+02   4.241133e+02
  -4.971299e+02   2.069939e+02
  -3.558861e+02  -9.713724e+01
  -5.843147e+01  -3.078736e+02
   1.513636e+02  -2.627981e+02
   1.047151e+02  -1.561158e+01
  -1.174474e+02   1.337044e+02
  -2.252279e+02   2.016138e+00
  -6.523220e+01  -2.168088e+02
   1.784422e+02  -1.884488e+02
   1.998886e+02   7.265715e+01
  -2.455140e+01   2.205047e+02
  -2.205812e+02   4.313121e+01
  -1.794063e+02  -2.609429e+02
   3.090555e+01  -3.645211e+02
   2.299094e+02  -1.988441e+02
   3.238123e+02   6.018098e+01
   2.817701e+02   2.354437e+02
   1.032955e+02   2.652562e+02
  -1.152107e+02   1.648403e+02
  -1.909929e+02   1.737132e+01
  -6.491634e+01  -4.417300e+01
   8.016293e+01   3.213058e+01
   4.178580e+01   1.330779e+02
  -1.262028e+02   1.107797e+02
  -1.898259e+02  -1.310513e+01
  -6.306479e+01  -8.200225e+01
   8.559903e+01  -2.263679e+01
   6.194130e+01   7.578862e+01
  -1.224237e+02   9.504225e+01
  -2.875646e+02   8.367920e+00
  -2.743464e+02  -1.370003e+02
  -7.126792e+01  -2.636930e+02
   1.831183e+02  -2.786372e+02
   2.954997e+02  -1.377036e+02
   1.822455e+02   5.718805e+01
  -2.647953e+01   1.220969e+02
  -1.023357e+02   8.938048e+00
   2.910017e+01  -1.144865e+02
   2.063306e+02  -6.976076e+01
   2.272973e+02   1.062590e+02
   7.374020e+01   2.194117e+02
  -1.006060e+02   1.653814e+02
  -1.531596e+02   2.859804e+01
  -7.466023e+01  -4.642037e+01
   3.123436e+01  -8.351679e+00
   4.562083e+01   8.070984e+01
  -6.559141e+01   1.167781e+02
  -2.008178e+02   3.638101e+01
  -1.999327e+02  -1.216823e+02
  -2.378530e+01  -2.262000e+02
   1.728273e+02  -1.723139e+02
   2.047693e+02  -3.799952e+00
   6.853191e+01   1.252096e+02
  -7.107607e+01   1.196978e+02
  -8.874902e+01   3.135250e+01
  -2.205694e+01  -2.823433e+01
   1.966675e+01  -2.017433e+01
  -9.850116e+00   7.293252e+00
  -7.021474e+01  -8.036223e+00
  -9.026146e+01  -8.029734e+01
  -2.045528e+01  -1.593997e+02
   1.236682e+02  -1.597028e+02
   2.393900e+02  -3.480033e+01
   2.117030e+02   1.503520e+02
   4.580496e+01   2.462722e+02
  -1.134371e+02   1.770239e+02
  -1.401617e+02   2.574488e+01
  -7.000758e+01  -6.121755e+01
  -2.603162e+01  -3.729990e+01
  -5.189149e+01   1.570780e+01
  -7.745008e+01   1.113950e+01
  -4.006934e+01  -4.635638e+01
   4.009175e+01  -8.429888e+01
   9.657134e+01  -5.331855e+01
   8.082311e+01   3.457520e+01
  -1.297031e+01   1.098372e+02
  -1.395225e+02   8.917359e+01
  -2.016248e+02  -4.581134e+01
  -1.096473e+02  -2.029115e+02
   1.027827e+02  -2.366747e+02
   2.724792e+02  -1.039092e+02
   2.660356e+02   8.562593e+01
   1.133793e+02   1.827308e+02
  -4.019368e+01   1.531440e+02
  -9.760180e+01   8.716545e+01
  -8.235907e+01   6.993460e+01
  -6.932316e+01   9.075380e+01
  -9.413803e+01   7.383132e+01
  -1.295401e+02  -2.305859e+01
  -1.190015e+02  -1.557110e+02
  -3.177660e+01  -2.294153e+02
   9.890650e+01  -1.775481e+02
   1.801234e+02  -2.504257e+01
   1.441932e+02   1.217576e+02
   2.607735e+01   1.645989e+02
  -6.433841e+01   9.900232e+01
  -6.196002e+01   6.016888e+00
  -9.750890e+00  -4.002281e+01
   5.206548e+00  -3.423919e+01
  -3.870751e+01  -1.905685e+01
  -7.885490e+01  -2.320032e+01
  -4.506854e+01  -3.868894e+01
   6.106671e+01  -3.945852e+01
   1.560796e+02  -7.473185e+00
   1.460991e+02   4.797001e+01
   2.022839e+01   8.922211e+01
  -1.193078e+02   7.701227e+01
  -1.477927e+02   1.500017e+01
  -5.019081e+01  -4.121793e+01
   6.181028e+01  -3.741677e+01
   7.705171e+01   1.982992e+01
   5.271107e+00   6.805875e+01
  -5.907292e+01   5.596290e+01
  -6.286775e+01  -3.306494e+00
  -4.119630e+01  -4.951328e+01
  -4.234796e+01  -4.114179e+01
  -6.268911e+01  -2.389770e+00
  -6.732313e+01  -8.286211e-02
  -3.514978e+01  -6.555654e+01
   3.171698e+01  -1.441515e+02
   1.131846e+02  -1.426015e+02
   1.615916e+02  -3.685015e+01
   1.236796e+02   8.865356e+01
   8.455707e+00   1.258340e+02
  -8.472899e+01   6.185027e+01
  -5.962736e+01  -1.523977e+01
   6.022676e+01  -2.045497e+01
   1.395024e+02   4.332121e+01
   7.733752e+01   1.086028e+02
  -8.146681e+01   1.156538e+02
  -1.946774e+02   5.585605e+01
  -1.677503e+02  -3.246586e+01
  -4.085947e+01  -9.006333e+01
   6.062460e+01  -7.592338e+01
   5.094687e+01  -1.110785e+01
  -3.717654e+01   2.639542e+01
  -9.055158e+01  -2.239828e+01
  -3.266921e+01  -1.199717e+02
   9.403098e+01  -1.557793e+02
   1.712645e+02  -6.188805e+01
   1.287218e+02   1.030273e+02
   9.496306e+00   2.007946e+02
  -8.740306e+01   1.472727e+02
  -1.067157e+02  -4.888345e+00
  -6.361307e+01  -1.192235e+02
  -1.537246e+00  -1.101459e+02
   4.447956e+01  -2.286223e+01
   5.362293e+01   3.151857e+01
   2.814947e+01   9.327141e+00
   3.762155e+00  -2.263432e+01
   1.928352e+01   1.140319e+01
   5.669390e+01   8.748137e+01
   4.552915e+01   1.120158e+02
  -4.458514e+01   4.770565e+01
  -1.399975e+02  -3.982124e+01
  -1.327450e+02  -7.232346e+01
  -1.760978e+01  -4.936199e+01
   9.056519e+01  -2.114095e+01
   9.014056e+01  -7.788951e+00
   9.663516e+00   6.634329e+00
  -4.054987e+01   2.293839e+01
  -1.425164e+01   1.981135e+01
   2.253207e+01  -1.295068e+00
  -5.584497e+00  -1.099766e+01
  -7.513792e+01  -5.304363e+00
  -9.129312e+01  -2.300516e+01
  -6.589264e+00  -7.877947e+01
   1.198513e+02  -1.138411e+02
   1.845076e+02  -5.902611e+01
   1.398064e+02   6.756351e+01
   2.529974e+01   1.628970e+02
  -7.796305e+01   1.502105e+02
  -1.134758e+02   5.781658e+01
  -8.125766e+01  -2.231959e+01
  -2.524199e+01  -3.529253e+01
   3.723217e+00  -7.984668e+00
  -9.824533e+00  -3.340689e+00
  -3.417096e+01  -4.570538e+01
  -2.384361e+01  -9.073539e+01
   2.941792e+01  -7.216917e+01
   8.204785e+01   1.926895e+01
   7.670243e+01   1.094602e+02
   2.722942e+00   1.118496e+02
  -8.311679e+01   2.142216e+01
  -1.021788e+02  -7.747545e+01
  -3.062667e+01  -1.026545e+02
   6.653917e+01  -5.314894e+01
   9.679551e+01   1.252704e+01
   3.841198e+01   4.810673e+01
  -3.209506e+01   4.917648e+01
  -2.971402e+01   2.833394e+01
   3.581762e+01   1.413085e+00
   7.050703e+01  -5.686512e+00
   1.461431e+01   2.509222e+01
  -8.027862e+01   6.679893e+01
  -1.161837e+02   6.062535e+01
  -6.325311e+01  -1.064960e+01
   1.608758e+01  -8.324446e+01
   5.172680e+01  -7.992166e+01
   3.481321e+01  -5.286011e+00
   2.295732e-01   5.625783e+01
  -2.492852e+01   4.168510e+01
  -3.486444e+01  -1.939801e+01
  -2.611996e+01  -5.298417e+01
   2.042774e+00  -3.067484e+01
   3.224507e+01   9.228958e+00
   3.958618e+01   1.960530e+01
   2.131533e+01   5.425285e-01
  -4.477442e-01  -1.173341e+01
  -8.318320e+00   6.314309e+00
  -1.003969e+01   3.716569e+01
  -2.015303e+01   4.162619e+01
  -3.324229e+01   3.643342e+00
  -2.785746e+01  -4.721655e+01
   5.416912e+00  -6.076584e+01
   4.597871e+01  -1.952003e+01
   5.556894e+01   4.045609e+01
   1.342374e+01   6.405181e+01
  -5.495590e+01   3.436425e+01
  -8.860632e+01  -1.615823e+01
  -4.912665e+01  -4.474564e+01
   2.903295e+01  -4.024479e+01
   6.509409e+01  -2.001349e+01
   2.356432e+01  -4.485802e+00
  -3.928198e+01  -3.792169e+00
  -3.865475e+01  -1.773303e+01
   3.270421e+01  -3.222522e+01
   9.433853e+01  -1.911276e+01
