
 $NMID
 id='ANONYMOUS ', fmtdat='(2E16.6)'
 volume=1.0
 tramp=1.0
 $END
   4.064840e+03  -1.046066e+02
   2.632453e+03   2.348210e+03
  -5.503363e+02   2.516168e+03
  -1.876758e+03   1.070118e+03
  -8.820488e+02  -6.656606e+02
   6.088688e+02  -5.739583e+02
   7.956019e+02   3.603626e+02
  -2.382022e+01   1.135520e+03
  -7.966169e+02   8.733800e+02
  -9.807466e+02  -9.525571e+01
  -4.630155e+02  -8.625917e+02
   1.760702e+02  -8.191066e+02
   5.702423e+02  -1.490693e+02
   3.717150e+02   7.309071e+02
  -2.971790e+02   7.286881e+02
  -5.614082e+02   4.221887e+01
  -2.936334e+02  -7.312113e+02
   3.085529e+02  -6.985510e+02
   6.472932e+02  -9.965981e+01
   4.040431e+02   4.054713e+02
   2.580114e+00   4.501610e+02
  -2.619176e+02   2.726146e+02
  -2.303613e+02  -2.520247e+01
   1.337723e+02  -1.065837e+02
   4.342586e+02   1.195110e+02
   2.383750e+02   4.810699e+02
  -4.647865e+02   4.494132e+02
  -8.725692e+02  -9.382141e+01
  -4.655179e+02  -5.785138e+02
   3.983182e+02  -4.976027e+02
   7.628303e+02   9.913092e+01
   3.572098e+02   5.194541e+02
  -3.031686e+02   5.191577e+02
  -6.008139e+02   1.750118e+02
  -4.199697e+02  -2.296310e+02
  -5.385760e+01  -4.936606e+02
   2.273805e+02  -2.946008e+02
   1.789803e+02   2.349556e+02
  -1.857455e+02   4.902982e+02
  -5.064617e+02   4.375532e+00
  -2.677698e+02  -7.253967e+02
   3.600180e+02  -7.531835e+02
   6.672969e+02   6.272634e+00
   2.651056e+02   6.185228e+02
  -3.538497e+02   3.464509e+02
  -4.370124e+02  -3.627932e+02
   7.341229e+01  -5.909458e+02
   6.104101e+02  -1.323380e+02
   6.365390e+02   4.411283e+02
   1.533203e+02   6.243370e+02
  -4.293380e+02   3.535768e+02
  -6.688802e+02  -9.300646e+01
  -3.804951e+02  -4.191830e+02
   1.839454e+02  -3.852176e+02
   4.725850e+02  -4.024306e+01
   2.399529e+02   2.281774e+02
  -1.425188e+02   1.173927e+02
  -1.547060e+02  -1.772235e+02
   1.786117e+02  -2.103056e+02
   3.628364e+02   8.355348e+01
   1.385010e+02   3.252436e+02
  -2.121788e+02   2.651639e+02
  -3.264515e+02   5.827451e+01
  -1.871728e+02  -9.313768e+01
   2.129320e+01  -2.155937e+02
   2.125766e+02  -3.188632e+02
   3.485639e+02  -2.152929e+02
   3.168026e+02   1.546017e+02
   8.740691e+01   4.670035e+02
  -1.366509e+02   3.991379e+02
  -1.489338e+02   1.011758e+02
  -3.435109e+01  -2.163274e+01
  -3.989705e+01   9.922160e+01
  -1.987361e+02   1.491344e+02
  -2.911534e+02  -5.017998e+01
  -1.682076e+02  -2.830099e+02
   7.142943e+01  -2.672974e+02
   2.311499e+02  -1.064022e+01
   1.994482e+02   2.419508e+02
  -9.765420e+00   2.954571e+02
  -2.751701e+02   1.142699e+02
  -3.753971e+02  -1.711832e+02
  -1.881798e+02  -3.588602e+02
   1.154156e+02  -3.124143e+02
   2.460142e+02  -1.206319e+02
   1.557853e+02   3.364817e+00
   8.807299e+01  -3.090035e+01
   2.266993e+02  -7.047414e+01
   4.055044e+02   5.022043e+01
   3.446781e+02   2.876304e+02
   3.729320e+00   4.588381e+02
  -3.658117e+02   4.304195e+02
  -5.030472e+02   2.102485e+02
  -3.510660e+02  -9.949091e+01
  -5.314285e+01  -3.052828e+02
   1.405288e+02  -2.566047e+02
   8.454928e+01  -1.923073e+01
  -1.286107e+02   1.189803e+02
  -2.191076e+02  -1.215707e+01
  -5.540213e+01  -2.156826e+02
   1.788972e+02  -1.843562e+02
   1.964046e+02   6.794968e+01
  -1.756246e+01   2.066313e+02
  -2.046374e+02   3.787616e+01
  -1.689134e+02  -2.529185e+02
   3.183081e+01  -3.531932e+02
   2.275977e+02  -1.917674e+02
   3.214421e+02   6.297863e+01
   2.786225e+02   2.372022e+02
   1.003751e+02   2.648111e+02
  -1.125176e+02   1.640745e+02
  -1.835625e+02   1.879761e+01
  -6.124898e+01  -4.106321e+01
   7.709389e+01   3.473004e+01
   3.668275e+01   1.328173e+02
  -1.262470e+02   1.112858e+02
  -1.873346e+02  -8.640857e+00
  -6.293108e+01  -7.656286e+01
   8.197018e+01  -2.156899e+01
   5.769777e+01   6.999639e+01
  -1.235929e+02   8.495017e+01
  -2.837481e+02  -3.644357e-02
  -2.656639e+02  -1.380156e+02
  -6.079421e+01  -2.563414e+02
   1.883738e+02  -2.679750e+02
   2.925174e+02  -1.317943e+02
   1.770402e+02   5.578876e+01
  -2.619105e+01   1.187199e+02
  -9.787849e+01   9.641441e+00
   3.094287e+01  -1.095892e+02
   2.034135e+02  -6.524671e+01
   2.243005e+02   1.078514e+02
   7.498819e+01   2.198830e+02
  -9.736629e+01   1.667336e+02
  -1.526041e+02   3.090037e+01
  -7.889103e+01  -4.392601e+01
   2.471706e+01  -5.912491e+00
   4.076735e+01   8.173808e+01
  -6.681589e+01   1.145326e+02
  -1.985851e+02   3.172360e+01
  -1.971786e+02  -1.245889e+02
  -2.363600e+01  -2.240422e+02
   1.702861e+02  -1.677550e+02
   2.024464e+02  -1.197577e+00
   6.684997e+01   1.244439e+02
  -7.226189e+01   1.178606e+02
  -9.032640e+01   3.039133e+01
  -2.409394e+01  -2.945102e+01
   1.855200e+01  -2.286146e+01
  -8.389760e+00   4.697457e+00
  -6.595210e+01  -9.826292e+00
  -8.529882e+01  -7.940991e+01
  -1.836146e+01  -1.557669e+02
   1.227104e+02  -1.540386e+02
   2.365464e+02  -2.988567e+01
   2.089245e+02   1.500157e+02
   4.349593e+01   2.437399e+02
  -1.146358e+02   1.753075e+02
  -1.400545e+02   2.720029e+01
  -6.922718e+01  -5.961006e+01
  -2.674012e+01  -3.783049e+01
  -5.428066e+01   1.306101e+01
  -7.853706e+01   8.290947e+00
  -3.897949e+01  -4.749813e+01
   4.294218e+01  -8.409592e+01
   9.621511e+01  -5.304858e+01
   7.915982e+01   3.244911e+01
  -1.314172e+01   1.058334e+02
  -1.366360e+02   8.470826e+01
  -1.951703e+02  -4.759676e+01
  -1.037661e+02  -1.999504e+02
   1.042602e+02  -2.321546e+02
   2.697649e+02  -1.008601e+02
   2.620330e+02   8.582912e+01
   1.119455e+02   1.812518e+02
  -3.967809e+01   1.510319e+02
  -9.737234e+01   8.489560e+01
  -8.158346e+01   6.852289e+01
  -6.830083e+01   8.982582e+01
  -9.175360e+01   7.276993e+01
  -1.269136e+02  -2.235512e+01
  -1.179387e+02  -1.540175e+02
  -3.125650e+01  -2.272664e+02
   9.868497e+01  -1.751847e+02
   1.787746e+02  -2.359564e+01
   1.407434e+02   1.219189e+02
   2.150894e+01   1.639881e+02
  -6.730582e+01   9.780585e+01
  -6.159631e+01   3.790068e+00
  -7.656030e+00  -4.267085e+01
   6.452159e+00  -3.639069e+01
  -3.916728e+01  -2.037532e+01
  -7.938897e+01  -2.389344e+01
  -4.347286e+01  -3.854450e+01
   6.365728e+01  -3.776039e+01
   1.568083e+02  -5.348754e+00
   1.439291e+02   4.847725e+01
   1.845543e+01   8.716947e+01
  -1.177524e+02   7.465152e+01
  -1.444087e+02   1.481917e+01
  -4.878179e+01  -3.878455e+01
   5.968741e+01  -3.494870e+01
   7.467727e+01   1.977931e+01
   5.669532e+00   6.598417e+01
  -5.678679e+01   5.442797e+01
  -6.170648e+01  -3.322757e+00
  -4.140261e+01  -4.870616e+01
  -4.231435e+01  -4.091388e+01
  -6.195844e+01  -1.975390e+00
  -6.618405e+01   7.393798e-01
  -3.463942e+01  -6.473810e+01
   3.240035e+01  -1.436470e+02
   1.136074e+02  -1.417888e+02
   1.610367e+02  -3.541465e+01
   1.220392e+02   8.989291e+01
   7.248409e+00   1.252358e+02
  -8.447552e+01   6.014960e+01
  -5.823710e+01  -1.598995e+01
   6.122510e+01  -1.881497e+01
   1.393184e+02   4.604277e+01
   7.632681e+01   1.090075e+02
  -8.240469e+01   1.132348e+02
  -1.939506e+02   5.303365e+01
  -1.658191e+02  -3.237275e+01
  -3.917675e+01  -8.734873e+01
   6.074603e+01  -7.329259e+01
   5.033543e+01  -1.063752e+01
  -3.676949e+01   2.546075e+01
  -8.894109e+01  -2.270956e+01
  -3.132103e+01  -1.183077e+02
   9.277756e+01  -1.527126e+02
   1.681250e+02  -5.951182e+01
   1.260028e+02   1.032382e+02
   8.408945e+00   1.986326e+02
  -8.736700e+01   1.441239e+02
  -1.058883e+02  -7.043362e+00
  -6.215261e+01  -1.191420e+02
   1.358790e-01  -1.089796e+02
   4.550551e+01  -2.255641e+01
   5.379464e+01   3.099715e+01
   2.833988e+01   9.495101e+00
   4.806141e+00  -2.078058e+01
   1.975340e+01   1.374746e+01
   5.559583e+01   8.826717e+01
   4.322384e+01   1.106459e+02
  -4.573520e+01   4.624291e+01
  -1.385523e+02  -3.977350e+01
  -1.312619e+02  -7.136154e+01
  -1.821903e+01  -4.878924e+01
   8.838396e+01  -2.151616e+01
   8.852334e+01  -8.480297e+00
   1.006242e+01   5.837808e+00
  -3.896444e+01   2.198477e+01
  -1.336436e+01   1.867065e+01
   2.243776e+01  -2.144156e+00
  -5.826470e+00  -1.027956e+01
  -7.517427e+01  -4.069243e+00
  -9.132382e+01  -2.278538e+01
  -6.505108e+00  -7.966290e+01
   1.202785e+02  -1.145209e+02
   1.849702e+02  -5.849057e+01
   1.392870e+02   6.855147e+01
   2.394962e+01   1.627827e+02
  -7.903671e+01   1.487015e+02
  -1.134891e+02   5.635876e+01
  -8.013771e+01  -2.268265e+01
  -2.438081e+01  -3.516563e+01
   4.029191e+00  -8.118030e+00
  -9.281223e+00  -3.948516e+00
  -3.311558e+01  -4.579872e+01
  -2.284819e+01  -8.995978e+01
   2.987746e+01  -7.107953e+01
   8.175073e+01   1.971492e+01
   7.619749e+01   1.098522e+02
   2.258453e+00   1.126258e+02
  -8.304994e+01   2.236652e+01
  -1.015667e+02  -7.729437e+01
  -3.049453e+01  -1.028559e+02
   6.570333e+01  -5.289589e+01
   9.510493e+01   1.333721e+01
   3.696906e+01   4.906156e+01
  -3.256501e+01   4.917185e+01
  -2.943392e+01   2.757646e+01
   3.537254e+01   9.705203e-01
   6.916196e+01  -5.463356e+00
   1.353769e+01   2.488428e+01
  -8.052135e+01   6.539783e+01
  -1.156478e+02   5.905565e+01
  -6.308439e+01  -1.099763e+01
   1.561387e+01  -8.242459e+01
   5.125279e+01  -7.957986e+01
   3.466490e+01  -6.254639e+00
   4.471917e-01   5.469481e+01
  -2.526811e+01   4.102624e+01
  -3.515176e+01  -2.007730e+01
  -2.534000e+01  -5.396800e+01
   3.393636e+00  -3.161874e+01
   3.311737e+01   9.639704e+00
   3.924903e+01   2.064028e+01
   2.047551e+01   3.760022e-01
  -3.769377e-01  -1.318873e+01
  -7.367912e+00   4.769137e+00
  -8.982988e+00   3.688158e+01
  -1.952104e+01   4.230640e+01
  -3.274005e+01   4.015298e+00
  -2.720081e+01  -4.734928e+01
   5.760844e+00  -6.063795e+01
   4.556420e+01  -1.889204e+01
   5.489038e+01   4.075394e+01
   1.342911e+01   6.323889e+01
  -5.412077e+01   3.288672e+01
  -8.733131e+01  -1.665768e+01
  -4.838665e+01  -4.416909e+01
   2.906221e+01  -3.899391e+01
   6.465086e+01  -1.894735e+01
   2.327996e+01  -3.861538e+00
  -3.899607e+01  -3.705999e+00
  -3.848544e+01  -1.854894e+01
   3.192757e+01  -3.265907e+01
   9.330955e+01  -1.861254e+01
