
 $NMID
 id='ANONYMOUS ', fmtdat='(2E16.6)'
 volume=1.0
 tramp=1.0
 $END
  -3.386607e+03  -1.886984e+02
  -2.226923e+03  -1.613960e+03
   2.081861e+02  -1.907100e+03
   1.209148e+03  -1.177657e+03
   7.878370e+02  -2.275284e+02
  -7.517099e+01   2.510654e+02
  -3.899263e+02  -2.202516e+02
  -1.067891e+02  -6.019069e+02
   5.008636e+02  -7.008118e+02
   6.033556e+02  -1.414350e+01
   3.855340e+02   4.850093e+02
   5.011919e+01   5.904770e+02
  -3.068286e+02   2.350522e+02
  -3.052784e+02  -4.012100e+02
   8.553152e+01  -5.317506e+02
   3.933015e+02  -6.676203e+01
   3.162412e+02   4.686502e+02
  -1.384490e+02   6.228592e+02
  -4.669407e+02   2.704332e+02
  -4.213430e+02  -1.691992e+02
  -1.378108e+02  -3.583628e+02
   1.287531e+02  -2.400414e+02
   8.909113e+01  -6.385583e+01
  -1.894122e+02  -1.104056e+02
  -3.127415e+02  -2.757825e+02
  -3.683316e+01  -3.797369e+02
   4.512609e+02  -1.797727e+02
   6.234021e+02   1.833654e+02
   2.470665e+02   3.748089e+02
  -3.172926e+02   2.019428e+02
  -5.109342e+02  -1.599081e+02
  -2.206029e+02  -3.997310e+02
   2.384412e+02  -3.527416e+02
   4.571584e+02  -1.119178e+02
   3.215386e+02   1.754013e+02
   7.249427e+01   3.246889e+02
  -6.295067e+01   1.922084e+02
   7.290524e+00  -1.044250e+02
   1.731552e+02  -1.919561e+02
   2.374944e+02   1.180100e+02
   5.147746e+01   5.197841e+02
  -2.548562e+02   4.748798e+02
  -3.615454e+02  -5.343164e+00
  -1.387448e+02  -3.566898e+02
   1.796761e+02  -1.694059e+02
   2.076140e+02   2.958169e+02
  -1.081289e+02   4.396742e+02
  -4.659256e+02   7.975484e+01
  -5.138356e+02  -3.969663e+02
  -1.640168e+02  -5.339411e+02
   3.108321e+02  -2.858008e+02
   5.366068e+02   7.009802e+01
   3.506892e+02   2.727944e+02
  -5.944529e+01   2.428409e+02
  -3.073142e+02   7.393825e+01
  -2.114186e+02  -5.773064e+01
   1.885101e+01  -4.417092e+01
   7.146447e+01   5.745926e+01
  -1.011570e+02   8.707167e+01
  -2.404997e+02  -3.031126e+01
  -1.282337e+02  -1.947364e+02
   1.552186e+02  -2.516301e+02
   3.413665e+02  -1.358480e+02
   2.594107e+02   9.828982e+01
  -2.407061e+01   3.182728e+02
  -2.977413e+02   3.668022e+02
  -3.792287e+02   1.640399e+02
  -2.480450e+02  -1.685754e+02
  -5.103866e+01  -3.763973e+02
   4.678275e+01  -3.323379e+02
   3.185633e+01  -1.736590e+02
   3.453891e+01  -1.029091e+02
   1.393014e+02  -1.221526e+02
   2.594700e+02  -6.618594e+01
   2.503380e+02   1.166186e+02
   9.072678e+01   2.639680e+02
  -1.013315e+02   1.996078e+02
  -1.917431e+02  -4.209801e+01
  -1.279099e+02  -2.473131e+02
   5.343342e+01  -2.483116e+02
   2.448659e+02  -6.074183e+01
   3.001871e+02   1.728057e+02
   1.630392e+02   2.951206e+02
  -5.256282e+01   2.615867e+02
  -1.680250e+02   1.501543e+02
  -1.486573e+02   7.371971e+01
  -1.496399e+02   6.369608e+01
  -2.810025e+02   3.489338e+01
  -4.112337e+02  -9.383532e+01
  -3.210804e+02  -2.979224e+02
   2.215691e+01  -4.435001e+02
   3.773407e+02  -4.078195e+02
   4.774462e+02  -1.841366e+02
   2.890045e+02   9.575885e+01
   2.232156e+01   2.499396e+02
  -9.235728e+01   1.962907e+02
  -7.168198e+00   3.345879e+01
   1.266817e+02  -4.292802e+01
   1.384405e+02   4.467502e+01
   8.959140e+00   1.522355e+02
  -1.235467e+02   1.095946e+02
  -1.154855e+02  -5.581078e+01
   2.705619e+01  -1.348657e+02
   1.597972e+02   1.054120e-01
   1.473683e+02   2.352633e+02
  -2.364022e+01   3.387418e+02
  -2.403495e+02   2.022881e+02
  -3.531034e+02  -6.505501e+01
  -2.780592e+02  -2.641899e+02
  -6.313301e+01  -2.757859e+02
   1.280674e+02  -1.419176e+02
   1.526813e+02  -7.166614e+00
   3.633375e+01   1.485621e+01
  -5.255515e+01  -6.105153e+01
   2.287503e+00  -1.153870e+02
   1.257613e+02  -6.975545e+01
   1.508095e+02   2.435011e+01
   3.477140e+01   5.474007e+01
  -8.104719e+01  -1.093832e+01
  -3.834220e+01  -9.049192e+01
   1.488474e+02  -8.394134e+01
   3.008993e+02   2.598636e+01
   2.543791e+02   1.733253e+02
   2.419690e+01   2.637053e+02
  -2.111258e+02   2.320224e+02
  -2.705445e+02   9.293238e+01
  -1.381505e+02  -4.941209e+01
   3.006731e+01  -7.928793e+01
   6.371988e+01   6.857003e+00
  -5.518979e+01   8.257574e+01
  -1.865459e+02   3.244510e+01
  -1.876452e+02  -1.083277e+02
  -5.461616e+01  -1.924067e+02
   8.959035e+01  -1.374130e+02
   1.251522e+02  -1.611252e+01
   4.676821e+01   3.751912e+01
  -4.103484e+01  -2.208570e+01
  -2.568674e+01  -1.121232e+02
   9.885618e+01  -1.188703e+02
   2.127935e+02  -1.006053e+01
   1.825890e+02   1.385029e+02
   9.170135e+00   2.096192e+02
  -1.587201e+02   1.480783e+02
  -1.756613e+02   7.318280e+00
  -5.348289e+01  -9.722626e+01
   6.497700e+01  -9.528656e+01
   7.299074e+01  -2.289394e+01
   2.382495e+00   2.768213e+01
  -3.792510e+01   1.085023e+01
   7.643769e+00  -2.618864e+01
   8.800980e+01  -3.580460e+00
   1.050266e+02   9.154298e+01
   1.090857e+01   1.784657e+02
  -1.453222e+02   1.548656e+02
  -2.422801e+02   7.448506e+00
  -1.938518e+02  -1.644973e+02
  -3.399235e+01  -2.328177e+02
   1.061728e+02  -1.609306e+02
   1.314720e+02  -3.110861e+01
   7.281230e+01   4.454557e+01
   3.422145e+01   3.041906e+01
   5.899713e+01  -1.253761e+01
   9.041189e+01  -5.325884e+00
   5.577528e+01   5.825841e+01
  -4.255804e+01   1.069987e+02
  -1.239366e+02   6.884637e+01
  -1.057693e+02  -4.411257e+01
   1.869758e+01  -1.303836e+02
   1.656551e+02  -9.013346e+01
   2.072625e+02   6.785657e+01
   8.407330e+01   2.161142e+02
  -1.286821e+02   2.229396e+02
  -2.721277e+02   7.925414e+01
  -2.448963e+02  -9.299930e+01
  -9.526231e+01  -1.700772e+02
   4.292745e+01  -1.370021e+02
   8.787998e+01  -7.829457e+01
   6.753805e+01  -6.965319e+01
   5.793648e+01  -9.603550e+01
   9.119311e+01  -8.144984e+01
   1.321736e+02   1.789858e+01
   1.188730e+02   1.562970e+02
   2.559840e+01   2.282171e+02
  -1.018879e+02   1.660830e+02
  -1.717730e+02   8.040652e+00
  -1.270393e+02  -1.308517e+02
  -7.552053e+00  -1.577668e+02
   7.830293e+01  -8.036102e+01
   6.444303e+01   1.518808e+01
  -3.937283e+00   5.426481e+01
  -2.724655e+01   3.659730e+01
   2.801569e+01   1.311637e+01
   8.566180e+01   1.915824e+01
   4.996985e+01   4.097579e+01
  -7.509853e+01   3.974176e+01
  -1.759683e+02  -3.009994e+00
  -1.448225e+02  -6.432181e+01
   2.126062e+00  -9.766909e+01
   1.359423e+02  -7.169030e+01
   1.445127e+02  -3.779387e+00
   4.122984e+01   4.989162e+01
  -6.226001e+01   4.169706e+01
  -7.794815e+01  -1.990419e+01
  -1.722264e+01  -7.383962e+01
   4.715216e+01  -6.516675e+01
   6.823095e+01  -2.262871e+00
   5.703871e+01   5.005674e+01
   4.805847e+01   4.250728e+01
   5.615807e+01   1.421543e+00
   6.596669e+01   1.251183e+00
   4.506494e+01   7.332786e+01
  -2.699556e+01   1.543756e+02
  -1.267650e+02   1.473274e+02
  -1.820633e+02   3.346725e+01
  -1.310999e+02  -9.608122e+01
  -1.011935e+00  -1.337588e+02
   9.337522e+01  -6.836435e+01
   6.085922e+01   1.226712e+01
  -6.114154e+01   2.078718e+01
  -1.353701e+02  -4.318048e+01
  -6.965575e+01  -1.084906e+02
   8.566810e+01  -1.100401e+02
   1.897729e+02  -4.369809e+01
   1.559740e+02   4.151609e+01
   2.964895e+01   8.578738e+01
  -6.464992e+01   6.170566e+01
  -4.849169e+01  -1.054274e+00
   3.998276e+01  -3.224457e+01
   9.236641e+01   1.782139e+01
   3.974095e+01   1.151235e+02
  -7.883536e+01   1.568028e+02
  -1.572335e+02   7.102335e+01
  -1.266102e+02  -9.259340e+01
  -1.633280e+01  -1.939088e+02
   8.287948e+01  -1.404870e+02
   1.052787e+02   1.311328e+01
   5.576930e+01   1.213503e+02
  -1.332379e+01   1.025520e+02
  -5.248071e+01   1.449179e+01
  -4.612188e+01  -3.127720e+01
  -1.731229e+01  -6.274707e+00
  -6.538179e+00   1.695955e+01
  -3.123075e+01  -2.318136e+01
  -5.789589e+01  -9.131352e+01
  -3.116434e+01  -1.045955e+02
   5.697550e+01  -4.159785e+01
   1.357986e+02   3.679288e+01
   1.220904e+02   6.829194e+01
   1.798148e+01   5.291085e+01
  -8.006588e+01   2.641897e+01
  -8.568659e+01   5.609810e+00
  -1.673056e+01  -1.260238e+01
   3.499914e+01  -2.219731e+01
   2.004155e+01  -1.216555e+01
  -1.476822e+01   5.350610e+00
   2.507591e+00   5.657511e+00
   6.698099e+01  -2.759262e+00
   9.495803e+01   2.019303e+01
   2.370052e+01   8.182539e+01
  -1.066532e+02   1.210377e+02
  -1.889523e+02   6.920387e+01
  -1.537649e+02  -5.750169e+01
  -3.276805e+01  -1.593909e+02
   7.989007e+01  -1.553608e+02
   1.156449e+02  -6.575905e+01
   7.936269e+01   1.887671e+01
   2.612685e+01   3.745753e+01
   2.832099e+00   1.288036e+01
   1.425545e+01   8.435682e+00
   3.044648e+01   4.897619e+01
   1.804252e+01   9.089346e+01
  -2.922631e+01   7.228424e+01
  -7.918398e+01  -1.393636e+01
  -8.163194e+01  -1.014652e+02
  -1.553688e+01  -1.121272e+02
   7.518385e+01  -3.468034e+01
   1.075729e+02   6.363178e+01
   4.201729e+01   1.039314e+02
  -6.328368e+01   6.600409e+01
  -1.041176e+02  -7.320538e+00
  -4.559752e+01  -5.905220e+01
   3.493658e+01  -6.246389e+01
   4.050626e+01  -2.861196e+01
  -2.628063e+01   7.167988e+00
  -6.838725e+01   9.599775e+00
  -1.781795e+01  -2.785489e+01
   7.939368e+01  -6.625057e+01
   1.214526e+02  -5.320478e+01
   7.149134e+01   1.751222e+01
  -1.278847e+01   8.586427e+01
  -5.697325e+01   8.425583e+01
  -4.473025e+01   1.430529e+01
  -8.168259e+00  -5.101809e+01
   2.242111e+01  -4.818272e+01
   3.653060e+01   9.637262e+00
   2.893062e+01   5.337009e+01
  -4.534745e-01   4.023914e+01
  -3.385044e+01  -4.710859e+00
  -4.221957e+01  -2.569780e+01
  -2.060330e+01  -5.239950e+00
   4.206059e+00   2.034882e+01
   6.575613e+00   9.540893e+00
  -4.431332e+00  -3.191859e+01
   9.765737e-01  -5.393633e+01
   2.725551e+01  -2.267370e+01
   4.150152e+01   3.559382e+01
   1.314777e+01   6.129891e+01
  -4.085181e+01   2.635827e+01
  -6.369927e+01  -3.384471e+01
  -2.022610e+01  -6.151550e+01
   5.730276e+01  -3.664536e+01
   9.416252e+01   1.124997e+01
   5.160829e+01   4.317056e+01
  -2.839948e+01   4.579286e+01
  -6.519025e+01   2.864238e+01
  -2.829104e+01   7.040478e+00
   2.944091e+01  -3.663734e+00
   3.416049e+01   6.573964e+00
  -2.300332e+01   2.703923e+01
  -7.881450e+01   2.342728e+01
