
 $NMID
 id='ANONYMOUS ', fmtdat='(2E16.6)'
 volume=1.0
 tramp=1.0
 $END
  -3.706004e+03  -1.903744e+02
  -2.261629e+03  -2.052245e+03
   3.700240e+02  -2.245515e+03
   1.349468e+03  -1.275293e+03
   9.277455e+02   2.078223e+02
  -1.628090e+02   3.213228e+02
  -5.288278e+02  -2.060292e+02
  -1.117901e+02  -7.756588e+02
   4.977193e+02  -6.574872e+02
   8.099381e+02  -1.334709e+02
   5.167458e+02   5.635917e+02
  -1.375258e+01   7.002260e+02
  -4.562145e+02   1.752774e+02
  -2.652236e+02  -5.615293e+02
   1.525776e+02  -5.819164e+02
   4.601578e+02  -6.122309e+01
   3.734028e+02   5.252370e+02
  -1.450135e+02   6.247518e+02
  -5.108496e+02   2.622147e+02
  -4.239417e+02  -2.145552e+02
  -1.389378e+02  -4.215660e+02
   1.615765e+02  -3.031751e+02
   8.331296e+01  -8.777444e+01
  -1.598397e+02  -5.770368e+01
  -3.003760e+02  -2.239099e+02
  -5.449266e+01  -3.811558e+02
   4.781449e+02  -2.485538e+02
   6.950305e+02   1.179801e+02
   3.211782e+02   4.124103e+02
  -3.073681e+02   2.973749e+02
  -5.855467e+02  -6.406313e+01
  -2.634985e+02  -3.814719e+02
   2.378814e+02  -4.176538e+02
   4.702452e+02  -1.850434e+02
   3.806007e+02   1.726556e+02
   1.230231e+02   3.566365e+02
  -6.667835e+01   2.410917e+02
  -4.796337e+01  -1.144825e+02
   1.445108e+02  -2.600276e+02
   2.842656e+02   8.330548e+01
   1.148379e+02   5.584371e+02
  -2.619149e+02   5.470313e+02
  -4.246174e+02   2.381135e+01
  -1.916062e+02  -3.796290e+02
   1.939581e+02  -2.066936e+02
   2.344841e+02   2.825377e+02
  -1.012299e+02   4.462898e+02
  -4.806847e+02   8.742114e+01
  -5.292617e+02  -3.804223e+02
  -1.623728e+02  -5.271585e+02
   3.296685e+02  -2.944816e+02
   5.577152e+02   6.542631e+01
   3.596402e+02   2.932758e+02
  -8.243516e+01   2.756334e+02
  -3.512148e+02   8.073786e+01
  -2.377008e+02  -7.971507e+01
   3.549679e+01  -5.399174e+01
   9.173730e+01   7.958816e+01
  -1.159749e+02   1.068789e+02
  -2.735981e+02  -4.658180e+01
  -1.360097e+02  -2.279449e+02
   1.708837e+02  -2.592768e+02
   3.393367e+02  -1.182876e+02
   2.320890e+02   1.028279e+02
  -3.732263e+01   2.958110e+02
  -2.721924e+02   3.442351e+02
  -3.433103e+02   1.661950e+02
  -2.373704e+02  -1.572652e+02
  -5.521908e+01  -3.783646e+02
   5.766468e+01  -3.376006e+02
   5.411887e+01  -1.547112e+02
   3.689565e+01  -6.180228e+01
   1.123419e+02  -8.997636e+01
   2.322218e+02  -6.577880e+01
   2.488466e+02   9.733026e+01
   1.113028e+02   2.505466e+02
  -8.195149e+01   2.081388e+02
  -1.911281e+02  -1.719670e+01
  -1.506857e+02  -2.255374e+02
   2.886360e+01  -2.514270e+02
   2.455189e+02  -7.823725e+01
   3.240334e+02   1.678466e+02
   1.794469e+02   3.194552e+02
  -6.704187e+01   2.877988e+02
  -1.999360e+02   1.479476e+02
  -1.611201e+02   4.561107e+01
  -1.364626e+02   4.477807e+01
  -2.580401e+02   3.909211e+01
  -4.001817e+02  -7.858722e+01
  -3.200717e+02  -2.843463e+02
   1.931656e+01  -4.356547e+02
   3.705447e+02  -4.028155e+02
   4.752755e+02  -1.852892e+02
   2.970613e+02   9.349991e+01
   3.408402e+01   2.626100e+02
  -9.729262e+01   2.158448e+02
  -3.245808e+01   4.114147e+01
   1.078094e+02  -5.519727e+01
   1.454574e+02   2.565045e+01
   2.132890e+01   1.521191e+02
  -1.258207e+02   1.237313e+02
  -1.316280e+02  -5.122629e+01
   1.846243e+01  -1.479731e+02
   1.670122e+02  -1.454630e+01
   1.563857e+02   2.320615e+02
  -2.125362e+01   3.416162e+02
  -2.374258e+02   2.032521e+02
  -3.455548e+02  -6.102309e+01
  -2.746320e+02  -2.561824e+02
  -6.792249e+01  -2.711578e+02
   1.243806e+02  -1.472790e+02
   1.575610e+02  -1.216905e+01
   4.225970e+01   2.017947e+01
  -5.608614e+01  -5.184157e+01
  -6.451980e+00  -1.154323e+02
   1.237689e+02  -7.753325e+01
   1.578915e+02   2.012656e+01
   4.218442e+01   5.943472e+01
  -8.000492e+01  -2.953008e+00
  -4.393608e+01  -8.461482e+01
   1.380762e+02  -8.333856e+01
   2.892400e+02   1.879823e+01
   2.516094e+02   1.590571e+02
   3.530364e+01   2.517861e+02
  -1.949063e+02   2.326867e+02
  -2.651268e+02   1.023536e+02
  -1.444857e+02  -4.512640e+01
   2.607127e+01  -8.499234e+01
   7.043425e+01   8.404726e-01
  -4.550707e+01   8.529357e+01
  -1.846665e+02   4.022554e+01
  -1.923764e+02  -1.033986e+02
  -5.787960e+01  -1.932272e+02
   9.098235e+01  -1.415981e+02
   1.294533e+02  -2.002869e+01
   5.242341e+01   3.794178e+01
  -3.663036e+01  -1.330855e+01
  -2.716709e+01  -1.002455e+02
   9.034210e+01  -1.144349e+02
   2.040123e+02  -1.648660e+01
   1.812079e+02   1.303905e+02
   1.296350e+01   2.097977e+02
  -1.573185e+02   1.539216e+02
  -1.794698e+02   9.350153e+00
  -5.843190e+01  -1.010656e+02
   6.240179e+01  -1.000259e+02
   7.324314e+01  -2.578760e+01
   6.082127e+00   2.528885e+01
  -3.209361e+01   1.105869e+01
   1.035966e+01  -2.089144e+01
   8.217829e+01   2.788069e+00
   9.572478e+01   8.996114e+01
   7.871969e+00   1.686419e+02
  -1.379495e+02   1.482781e+02
  -2.320353e+02   1.009337e+01
  -1.901537e+02  -1.566410e+02
  -3.640904e+01  -2.279749e+02
   1.035787e+02  -1.595372e+02
   1.317139e+02  -2.791184e+01
   7.375935e+01   4.833146e+01
   3.166882e+01   3.272590e+01
   5.282632e+01  -1.051053e+01
   8.431998e+01  -3.910261e+00
   5.063802e+01   5.651943e+01
  -4.185257e+01   1.005895e+02
  -1.180395e+02   6.345666e+01
  -1.021164e+02  -4.107684e+01
   1.509233e+01  -1.223817e+02
   1.552680e+02  -8.695427e+01
   2.001730e+02   6.217335e+01
   8.647926e+01   2.074264e+02
  -1.195215e+02   2.200925e+02
  -2.652359e+02   8.244952e+01
  -2.447438e+02  -8.846361e+01
  -9.956595e+01  -1.683471e+02
   3.844263e+01  -1.379311e+02
   8.701602e+01  -7.986151e+01
   6.965245e+01  -7.048318e+01
   6.100958e+01  -9.446899e+01
   9.246518e+01  -7.827930e+01
   1.303863e+02   1.865243e+01
   1.161290e+02   1.526437e+02
   2.528295e+01   2.240231e+02
  -9.844987e+01   1.664687e+02
  -1.681995e+02   1.259142e+01
  -1.262660e+02  -1.254497e+02
  -1.108186e+01  -1.546894e+02
   7.288676e+01  -8.071969e+01
   6.074043e+01   1.162454e+01
  -3.158830e+00   4.943860e+01
  -2.382465e+01   3.397768e+01
   2.918660e+01   1.400263e+01
   8.267423e+01   2.079982e+01
   4.768248e+01   3.962812e+01
  -7.111817e+01   3.629767e+01
  -1.682799e+02  -4.049045e+00
  -1.417831e+02  -6.067831e+01
  -2.607436e+00  -9.288786e+01
   1.297171e+02  -7.145998e+01
   1.435155e+02  -7.829472e+00
   4.529351e+01   4.608599e+01
  -5.836626e+01   4.099190e+01
  -7.572561e+01  -1.806174e+01
  -1.537252e+01  -7.153455e+01
   4.854262e+01  -6.253961e+01
   6.635291e+01   1.509335e-01
   5.337715e+01   5.136100e+01
   4.624848e+01   4.302940e+01
   5.633690e+01   1.872064e+00
   6.395082e+01   1.768614e+00
   3.999127e+01   7.181624e+01
  -3.036996e+01   1.495025e+02
  -1.231100e+02   1.416919e+02
  -1.743930e+02   3.101764e+01
  -1.264062e+02  -9.362995e+01
  -2.761293e+00  -1.292048e+02
   9.001175e+01  -6.562534e+01
   6.102852e+01   1.183037e+01
  -5.761680e+01   1.988330e+01
  -1.330018e+02  -4.241026e+01
  -7.082383e+01  -1.058711e+02
   8.187047e+01  -1.078061e+02
   1.867715e+02  -4.387103e+01
   1.553060e+02   3.978236e+01
   3.152729e+01   8.392342e+01
  -6.232532e+01   6.108843e+01
  -4.760315e+01  -1.423898e-01
   4.010774e+01  -2.969706e+01
   9.177816e+01   2.058331e+01
   3.807111e+01   1.160700e+02
  -8.162959e+01   1.549063e+02
  -1.588166e+02   6.834659e+01
  -1.250170e+02  -9.316057e+01
  -1.394844e+01  -1.920296e+02
   8.251630e+01  -1.391408e+02
   1.023550e+02   1.177021e+01
   5.475899e+01   1.190012e+02
  -1.046912e+01   1.015820e+02
  -4.937320e+01   1.501142e+01
  -4.683231e+01  -3.104761e+01
  -1.972667e+01  -7.030184e+00
  -5.557984e+00   1.748909e+01
  -2.711289e+01  -2.107684e+01
  -5.587376e+01  -8.962813e+01
  -3.385403e+01  -1.045719e+02
   5.345375e+01  -4.221102e+01
   1.356006e+02   3.708901e+01
   1.240251e+02   6.875407e+01
   1.814833e+01   5.241759e+01
  -8.175521e+01   2.564880e+01
  -8.582358e+01   6.519913e+00
  -1.519645e+01  -1.071717e+01
   3.494238e+01  -2.167389e+01
   1.740135e+01  -1.426050e+01
  -1.635574e+01   2.616437e+00
   4.672892e+00   5.654118e+00
   6.963120e+01   5.590607e-01
   9.299701e+01   2.370903e+01
   1.818855e+01   8.207266e+01
  -1.099186e+02   1.168396e+02
  -1.865884e+02   6.344641e+01
  -1.489149e+02  -6.060943e+01
  -3.053549e+01  -1.580603e+02
   7.905855e+01  -1.518393e+02
   1.147698e+02  -6.330141e+01
   7.982903e+01   1.913177e+01
   2.611779e+01   3.701051e+01
   1.193809e+00   1.215619e+01
   1.239235e+01   7.562245e+00
   2.992370e+01   4.763066e+01
   1.859688e+01   8.950969e+01
  -2.881926e+01   7.077500e+01
  -7.835691e+01  -1.569744e+01
  -7.863404e+01  -1.024853e+02
  -1.108589e+01  -1.100869e+02
   7.728165e+01  -2.980083e+01
   1.046139e+02   6.738827e+01
   3.697052e+01   1.028140e+02
  -6.494335e+01   6.203718e+01
  -1.015048e+02  -8.521213e+00
  -4.252814e+01  -5.553720e+01
   3.419305e+01  -5.813671e+01
   3.688845e+01  -2.791676e+01
  -2.887910e+01   5.352445e+00
  -6.805937e+01   8.822304e+00
  -1.714203e+01  -2.644261e+01
   7.735738e+01  -6.501244e+01
   1.172859e+02  -5.346860e+01
   6.779226e+01   1.649616e+01
  -1.461425e+01   8.431540e+01
  -5.738592e+01   8.082343e+01
  -4.457146e+01   9.126201e+00
  -6.669935e+00  -5.469584e+01
   2.483543e+01  -4.785991e+01
   3.832012e+01   1.184741e+01
   2.875301e+01   5.371637e+01
  -1.551157e+00   3.801860e+01
  -3.320346e+01  -5.449670e+00
  -4.050355e+01  -2.359211e+01
  -2.046579e+01  -3.128749e+00
   1.601818e+00   1.862250e+01
   4.574880e+00   4.816065e+00
  -1.967176e+00  -3.466017e+01
   6.017226e+00  -5.203129e+01
   2.954169e+01  -1.847768e+01
   3.865987e+01   3.797709e+01
   9.017991e+00   6.007036e+01
  -4.121177e+01   2.417225e+01
  -6.100399e+01  -3.448799e+01
  -1.859227e+01  -6.056744e+01
   5.574186e+01  -3.556074e+01
   9.156549e+01   1.140085e+01
   5.052871e+01   4.217913e+01
  -2.772332e+01   4.402326e+01
  -6.419829e+01   2.695247e+01
  -2.701079e+01   6.723692e+00
   3.069998e+01  -2.268365e+00
   3.419446e+01   8.919724e+00
  -2.526100e+01   2.750346e+01
  -8.152744e+01   2.148572e+01
