
 $NMID
 id='ANONYMOUS ', fmtdat='(2E16.6)'
 volume=1.0
 tramp=1.0
 $END
   4.151057e+03  -5.109830e+01
   2.501019e+03   2.407323e+03
  -9.426662e+01   2.491946e+03
  -1.722338e+03   1.015132e+03
  -1.035143e+03  -1.481411e+02
   3.876269e+02  -4.499318e+02
   6.737167e+02   3.594944e+02
  -2.741566e+01   8.173188e+02
  -7.146884e+02   6.009088e+02
  -7.540394e+02  -1.079177e+02
  -4.028945e+02  -7.311239e+02
   1.804593e+02  -7.563709e+02
   4.577923e+02  -1.733965e+02
   3.277237e+02   5.529142e+02
  -1.803934e+02   6.575205e+02
  -5.071251e+02   3.249816e+01
  -2.432012e+02  -5.624869e+02
   2.715491e+02  -5.814324e+02
   4.863644e+02  -1.959165e+02
   3.935790e+02   2.955105e+02
   5.922302e+01   4.226736e+02
  -2.178681e+02   2.415448e+02
  -1.519692e+02   7.342752e+01
   1.236184e+02  -3.014091e+01
   3.337824e+02   1.606903e+02
   1.063404e+02   3.789752e+02
  -4.474364e+02   2.725232e+02
  -7.143334e+02  -1.194809e+02
  -3.273150e+02  -4.593249e+02
   3.749651e+02  -3.755866e+02
   6.538361e+02   6.637852e+01
   2.918218e+02   4.364827e+02
  -2.703675e+02   4.532250e+02
  -5.173926e+02   1.793133e+02
  -3.579497e+02  -1.936061e+02
  -5.115238e+01  -4.112273e+02
   1.292400e+02  -2.537771e+02
   6.225105e+01   1.559348e+02
  -1.890421e+02   3.072962e+02
  -3.208562e+02  -6.355071e+01
  -1.412990e+02  -5.608216e+02
   2.731021e+02  -5.780761e+02
   4.597185e+02  -1.441196e+01
   2.153480e+02   4.210658e+02
  -1.971543e+02   2.311472e+02
  -2.879944e+02  -2.672444e+02
   7.097146e+01  -4.556294e+02
   4.889936e+02  -9.369703e+01
   5.416937e+02   3.874579e+02
   1.680768e+02   5.354934e+02
  -3.417929e+02   3.142344e+02
  -5.853901e+02  -5.851288e+01
  -3.701399e+02  -3.248465e+02
   9.385607e+01  -3.115160e+02
   3.716885e+02  -7.874538e+01
   2.424273e+02   1.169052e+02
  -4.864485e+01   6.961709e+01
  -1.074819e+02  -1.055581e+02
   1.161862e+02  -1.302133e+02
   2.869257e+02   5.596184e+01
   1.522921e+02   2.386000e+02
  -1.529298e+02   2.433846e+02
  -3.205010e+02   1.061510e+02
  -2.304700e+02  -7.355237e+01
   1.028239e+01  -2.494657e+02
   2.442414e+02  -3.343156e+02
   3.533847e+02  -1.934256e+02
   2.753310e+02   1.413881e+02
   7.197919e+01   3.947047e+02
  -8.019850e+01   3.529379e+02
  -7.942247e+01   1.433133e+02
  -2.754574e+01   4.895152e+01
  -7.923286e+01   1.087785e+02
  -2.130525e+02   1.022772e+02
  -2.586465e+02  -8.187168e+01
  -1.276253e+02  -2.639669e+02
   8.194064e+01  -2.237304e+02
   2.069420e+02   1.901092e+01
   1.574541e+02   2.441263e+02
  -3.901309e+01   2.700840e+02
  -2.552116e+02   8.932115e+01
  -3.226669e+02  -1.684452e+02
  -1.728683e+02  -3.269904e+02
   7.513402e+01  -2.890860e+02
   1.949611e+02  -1.380785e+02
   1.475882e+02  -3.817254e+01
   1.264207e+02  -4.443879e+01
   2.498256e+02  -4.724963e+01
   3.950714e+02   7.769078e+01
   3.181444e+02   2.886570e+02
  -1.269507e+01   4.298980e+02
  -3.587713e+02   3.908889e+02
  -4.724773e+02   1.799224e+02
  -3.103082e+02  -9.324210e+01
  -4.211358e+01  -2.633620e+02
   1.085209e+02  -2.204905e+02
   4.779893e+01  -3.478838e+01
  -1.100299e+02   7.113698e+01
  -1.607104e+02  -2.408940e+01
  -2.871001e+01  -1.716098e+02
   1.390383e+02  -1.389852e+02
   1.430218e+02   5.880702e+01
  -2.594071e+01   1.646698e+02
  -1.778897e+02   1.488500e+01
  -1.500442e+02  -2.400408e+02
   3.246791e+01  -3.371629e+02
   2.347150e+02  -1.887703e+02
   3.299819e+02   6.507309e+01
   2.657086e+02   2.430721e+02
   7.447454e+01   2.601858e+02
  -1.192157e+02   1.460179e+02
  -1.618955e+02   1.213573e+01
  -4.574563e+01  -2.564913e+01
   6.274429e+01   4.650287e+01
   1.822072e+01   1.187177e+02
  -1.178990e+02   8.578093e+01
  -1.587541e+02  -1.631591e+01
  -4.435732e+01  -6.107203e+01
   7.790604e+01   9.930994e-01
   4.166617e+01   8.584893e+01
  -1.391638e+02   8.792632e+01
  -2.896415e+02  -1.302894e+01
  -2.546974e+02  -1.572996e+02
  -4.030739e+01  -2.586112e+02
   1.950985e+02  -2.439185e+02
   2.727800e+02  -1.067641e+02
   1.513465e+02   5.158168e+01
  -2.872148e+01   9.371258e+01
  -7.904702e+01   4.549983e-01
   4.067125e+01  -9.070172e+01
   1.873811e+02  -4.554511e+01
   1.980124e+02   1.009043e+02
   6.203865e+01   1.921154e+02
  -8.918890e+01   1.418245e+02
  -1.312841e+02   2.284955e+01
  -5.684638e+01  -3.585809e+01
   3.419407e+01   1.066930e+01
   3.105650e+01   9.371377e+01
  -8.290348e+01   1.110952e+02
  -2.001511e+02   1.907525e+01
  -1.826607e+02  -1.269421e+02
  -1.453934e+01  -2.096340e+02
   1.593092e+02  -1.544066e+02
   1.827770e+02  -7.400528e+00
   6.032821e+01   1.044886e+02
  -6.295248e+01   1.025165e+02
  -7.661273e+01   2.746635e+01
  -1.123147e+01  -2.365906e+01
   2.700733e+01  -1.184903e+01
  -1.081943e+01   1.599659e+01
  -7.797099e+01  -6.260548e+00
  -9.369681e+01  -8.842396e+01
  -1.054362e+01  -1.643390e+02
   1.339345e+02  -1.479221e+02
   2.316305e+02  -1.577006e+01
   1.917906e+02   1.525092e+02
   3.747531e+01   2.287359e+02
  -1.026890e+02   1.607395e+02
  -1.274160e+02   2.679347e+01
  -6.894299e+01  -4.985021e+01
  -3.119354e+01  -3.095106e+01
  -5.423845e+01   1.455151e+01
  -8.044621e+01   6.512618e+00
  -4.473385e+01  -5.334156e+01
   4.252673e+01  -9.344596e+01
   1.096388e+02  -5.521902e+01
   9.061572e+01   4.381283e+01
  -1.815597e+01   1.171401e+02
  -1.493696e+02   8.394974e+01
  -1.967407e+02  -5.805360e+01
  -9.003884e+01  -2.010285e+02
   1.128742e+02  -2.197868e+02
   2.615646e+02  -8.688914e+01
   2.468655e+02   8.718858e+01
   1.012383e+02   1.708957e+02
  -4.005864e+01   1.407082e+02
  -9.050696e+01   7.990292e+01
  -7.398177e+01   6.704095e+01
  -6.197177e+01   8.981180e+01
  -8.986563e+01   7.466701e+01
  -1.272423e+02  -2.072252e+01
  -1.143338e+02  -1.518801e+02
  -2.535792e+01  -2.211304e+02
   9.849267e+01  -1.648173e+02
   1.690523e+02  -1.418885e+01
   1.281723e+02   1.229085e+02
   1.412039e+01   1.546209e+02
  -6.956954e+01   8.388031e+01
  -6.064928e+01  -6.895834e+00
  -1.155970e+00  -4.601518e+01
   1.824288e+01  -3.295605e+01
  -3.011192e+01  -1.418730e+01
  -7.907318e+01  -2.037550e+01
  -4.640189e+01  -3.886331e+01
   6.545153e+01  -3.687913e+01
   1.599137e+02   1.515361e+00
   1.385891e+02   5.756409e+01
   5.747230e+00   8.999066e+01
  -1.255214e+02   6.861872e+01
  -1.416594e+02   5.595487e+00
  -4.326236e+01  -4.613037e+01
   6.117294e+01  -3.915133e+01
   7.607808e+01   1.978701e+01
   1.203516e+01   7.069691e+01
  -5.109427e+01   6.041377e+01
  -6.464348e+01  -1.046029e+00
  -4.892446e+01  -5.070340e+01
  -4.386234e+01  -4.225648e+01
  -5.630966e+01  -2.262743e+00
  -6.299842e+01  -1.064450e+00
  -3.760527e+01  -6.833291e+01
   2.946980e+01  -1.452484e+02
   1.173749e+02  -1.389150e+02
   1.678804e+02  -3.106456e+01
   1.239337e+02   9.127312e+01
   3.908338e+00   1.263450e+02
  -8.844834e+01   6.273994e+01
  -6.099275e+01  -1.387452e+01
   5.737240e+01  -2.105693e+01
   1.335740e+02   4.042862e+01
   7.293677e+01   1.037359e+02
  -7.933531e+01   1.082784e+02
  -1.847798e+02   4.787516e+01
  -1.552606e+02  -3.526889e+01
  -3.327977e+01  -8.335897e+01
   6.019461e+01  -6.491207e+01
   4.682168e+01  -4.583336e+00
  -3.848034e+01   2.712691e+01
  -8.853114e+01  -2.076753e+01
  -3.431765e+01  -1.142705e+02
   8.453732e+01  -1.511758e+02
   1.598596e+02  -6.447392e+01
   1.247482e+02   9.409116e+01
   1.364733e+01   1.905500e+02
  -8.196550e+01   1.392544e+02
  -1.024300e+02  -7.938033e+00
  -5.713386e+01  -1.149022e+02
   6.943235e+00  -1.012565e+02
   4.756810e+01  -1.724722e+01
   4.767253e+01   3.029726e+01
   2.083093e+01   7.695877e+00
   4.241940e+00  -1.817859e+01
   2.405261e+01   1.763805e+01
   5.466988e+01   8.647103e+01
   3.575880e+01   1.039863e+02
  -5.006369e+01   4.257789e+01
  -1.329084e+02  -3.760182e+01
  -1.217163e+02  -6.930490e+01
  -1.626735e+01  -5.070676e+01
   8.217647e+01  -2.265191e+01
   8.438096e+01  -4.759762e+00
   1.312907e+01   1.031713e+01
  -3.593084e+01   2.086831e+01
  -1.672273e+01   1.384622e+01
   1.741123e+01  -3.405033e+00
  -3.513189e+00  -6.941435e+00
  -6.720933e+01  -6.810521e-01
  -8.904820e+01  -2.151263e+01
  -1.558295e+01  -7.813604e+01
   1.083115e+02  -1.131790e+02
   1.809451e+02  -6.073597e+01
   1.435021e+02   6.127763e+01
   2.850786e+01   1.559952e+02
  -7.777360e+01   1.475545e+02
  -1.123329e+02   5.955207e+01
  -7.806323e+01  -2.005714e+01
  -2.463103e+01  -3.576409e+01
   1.274011e-01  -1.098204e+01
  -1.162169e+01  -6.492227e+00
  -3.016467e+01  -4.595144e+01
  -1.911847e+01  -8.754248e+01
   2.843330e+01  -6.961711e+01
   7.748341e+01   1.590776e+01
   7.679397e+01   1.020309e+02
   9.382926e+00   1.087394e+02
  -7.685585e+01   2.758387e+01
  -1.021219e+02  -6.865181e+01
  -3.478848e+01  -1.010663e+02
   6.457982e+01  -5.785034e+01
   9.851993e+01   1.102660e+01
   4.034083e+01   5.376194e+01
  -3.388627e+01   5.460562e+01
  -3.527198e+01   2.666920e+01
   2.964319e+01  -3.557980e+00
   6.724334e+01  -7.357664e+00
   1.636374e+01   2.574224e+01
  -7.641804e+01   6.393982e+01
  -1.148446e+02   5.422726e+01
  -6.596600e+01  -1.402498e+01
   1.367104e+01  -8.161946e+01
   5.364643e+01  -7.907930e+01
   3.984319e+01  -9.352746e+00
   4.123423e+00   5.207510e+01
  -2.422825e+01   4.370122e+01
  -3.541110e+01  -1.418095e+01
  -2.582743e+01  -5.264608e+01
   2.916176e+00  -3.526115e+01
   3.271239e+01   6.878916e+00
   3.952949e+01   2.309786e+01
   2.005449e+01   3.093018e+00
  -1.843961e+00  -1.658020e+01
  -5.934220e+00  -2.430627e+00
  -1.352249e+00   3.404755e+01
  -9.364530e+00   4.794127e+01
  -2.951371e+01   1.432656e+01
  -3.491176e+01  -3.976983e+01
  -4.702273e+00  -5.957012e+01
   4.243465e+01  -2.227730e+01
   5.847450e+01   3.613695e+01
   1.612514e+01   6.079923e+01
  -5.521266e+01   3.390776e+01
  -8.907244e+01  -1.387009e+01
  -4.816170e+01  -4.315877e+01
   2.920993e+01  -4.196154e+01
   6.486890e+01  -2.332844e+01
   2.661806e+01  -4.386980e+00
  -3.280406e+01   1.741182e+00
  -3.662881e+01  -1.017097e+01
   2.472299e+01  -2.812088e+01
   8.260710e+01  -2.080622e+01
