
 $NMID
 id='ANONYMOUS ', fmtdat='(2E16.6)'
 volume=1.0
 tramp=1.0
 $END
   4.130830e+03  -9.006622e-01
   2.610976e+03   2.534327e+03
  -7.660491e+02   2.591651e+03
  -1.913240e+03   9.023662e+02
  -8.744653e+02  -3.470785e+02
   5.929228e+02  -4.068605e+02
   7.383594e+02   4.047097e+02
  -2.610138e+01   9.725727e+02
  -8.519978e+02   8.086025e+02
  -1.056536e+03  -4.531781e+01
  -4.775987e+02  -8.126528e+02
   2.135209e+02  -8.639236e+02
   5.677056e+02  -1.119480e+02
   4.190553e+02   7.216585e+02
  -2.494603e+02   7.346244e+02
  -6.179248e+02  -5.959147e+01
  -3.112259e+02  -6.766914e+02
   3.702178e+02  -6.808986e+02
   6.371756e+02  -9.141290e+01
   4.070409e+02   3.740307e+02
   3.971380e+01   4.182736e+02
  -2.590563e+02   2.605178e+02
  -2.053727e+02   6.492470e+00
   1.167467e+02  -5.714597e+01
   4.013878e+02   1.403387e+02
   1.922264e+02   4.697628e+02
  -4.641313e+02   4.172244e+02
  -8.738843e+02  -7.294913e+01
  -4.348266e+02  -5.682487e+02
   3.951752e+02  -4.922903e+02
   7.684008e+02   4.873622e+01
   3.603238e+02   5.038085e+02
  -2.784890e+02   5.258314e+02
  -5.761158e+02   2.055027e+02
  -4.473611e+02  -2.451027e+02
  -7.283884e+01  -5.019591e+02
   2.221021e+02  -3.021147e+02
   1.995598e+02   2.296159e+02
  -1.744640e+02   4.542528e+02
  -4.842347e+02  -9.680024e+00
  -2.679481e+02  -7.142837e+02
   3.337653e+02  -7.254542e+02
   6.391046e+02  -4.296834e+00
   2.799639e+02   5.833985e+02
  -3.133957e+02   3.316803e+02
  -4.035869e+02  -3.397037e+02
   8.393116e+01  -5.696991e+02
   5.810284e+02  -1.474888e+02
   6.200212e+02   4.227515e+02
   1.641204e+02   6.102280e+02
  -4.077661e+02   3.552482e+02
  -6.582580e+02  -8.299634e+01
  -3.821235e+02  -4.015387e+02
   1.685685e+02  -3.696808e+02
   4.584255e+02  -4.511721e+01
   2.360572e+02   2.013644e+02
  -1.402244e+02   9.388069e+01
  -1.561630e+02  -1.758909e+02
   1.719495e+02  -1.999203e+02
   3.577489e+02   7.541555e+01
   1.413231e+02   3.022610e+02
  -2.064755e+02   2.547474e+02
  -3.243404e+02   6.835048e+01
  -1.846709e+02  -8.332384e+01
   2.990258e+01  -2.179616e+02
   2.156826e+02  -3.239709e+02
   3.299327e+02  -2.185493e+02
   2.846236e+02   1.402420e+02
   7.464110e+01   4.438366e+02
  -1.143819e+02   3.909262e+02
  -1.164575e+02   1.177344e+02
  -2.458256e+01  -7.721616e+00
  -5.327519e+01   8.846137e+01
  -2.119940e+02   1.305408e+02
  -2.934385e+02  -4.989424e+01
  -1.684614e+02  -2.697918e+02
   6.680384e+01  -2.646065e+02
   2.306128e+02  -2.196476e+01
   2.058545e+02   2.376986e+02
  -4.946242e+00   3.036554e+02
  -2.732138e+02   1.293612e+02
  -3.749002e+02  -1.698695e+02
  -1.979786e+02  -3.643691e+02
   9.791370e+01  -3.178017e+02
   2.316077e+02  -1.240286e+02
   1.531129e+02   1.276993e+00
   9.866531e+01  -3.391808e+01
   2.357314e+02  -7.156587e+01
   4.067549e+02   4.563470e+01
   3.434464e+02   2.807723e+02
   6.849415e+00   4.518508e+02
  -3.566875e+02   4.341555e+02
  -4.947727e+02   2.152744e+02
  -3.472943e+02  -9.312920e+01
  -6.047009e+01  -3.049205e+02
   1.314800e+02  -2.588577e+02
   8.395415e+01  -2.749506e+01
  -1.126096e+02   1.103671e+02
  -2.039802e+02  -9.747202e+00
  -5.490810e+01  -2.060891e+02
   1.638474e+02  -1.781028e+02
   1.847349e+02   6.092764e+01
  -1.417238e+01   1.959672e+02
  -1.915242e+02   3.407758e+01
  -1.616578e+02  -2.479964e+02
   3.167400e+01  -3.509151e+02
   2.269378e+02  -1.975977e+02
   3.253699e+02   5.532063e+01
   2.845093e+02   2.370331e+02
   1.057629e+02   2.706909e+02
  -1.086164e+02   1.694278e+02
  -1.813220e+02   2.408861e+01
  -6.286908e+01  -3.589427e+01
   7.119227e+01   3.707475e+01
   3.118961e+01   1.295586e+02
  -1.271603e+02   1.060564e+02
  -1.848534e+02  -1.026547e+01
  -6.130292e+01  -7.467212e+01
   8.155794e+01  -2.174948e+01
   5.821219e+01   6.632008e+01
  -1.202751e+02   8.241108e+01
  -2.784775e+02   2.909000e+00
  -2.622829e+02  -1.315058e+02
  -6.326102e+01  -2.507137e+02
   1.807920e+02  -2.656851e+02
   2.853813e+02  -1.334439e+02
   1.756740e+02   5.097803e+01
  -2.239035e+01   1.142021e+02
  -9.409189e+01   9.524012e+00
   2.996335e+01  -1.058880e+02
   1.988153e+02  -6.349543e+01
   2.211994e+02   1.038291e+02
   7.556986e+01   2.141687e+02
  -9.431531e+01   1.651434e+02
  -1.494755e+02   3.331266e+01
  -7.767389e+01  -4.243256e+01
   2.441884e+01  -7.426135e+00
   3.986295e+01   7.990906e+01
  -6.614794e+01   1.147197e+02
  -1.964436e+02   3.379666e+01
  -1.962322e+02  -1.211335e+02
  -2.622305e+01  -2.207719e+02
   1.654395e+02  -1.678451e+02
   1.992530e+02  -6.355035e+00
   6.823304e+01   1.188093e+02
  -6.866029e+01   1.164627e+02
  -8.857199e+01   3.335097e+01
  -2.423438e+01  -2.673815e+01
   1.831922e+01  -2.326722e+01
  -8.944453e+00   2.865307e+00
  -6.632127e+01  -1.052845e+01
  -8.465829e+01  -7.903274e+01
  -1.641737e+01  -1.546232e+02
   1.232799e+02  -1.521196e+02
   2.343131e+02  -2.893042e+01
   2.058681e+02   1.493009e+02
   4.433953e+01   2.402090e+02
  -1.109590e+02   1.746896e+02
  -1.391753e+02   2.994940e+01
  -7.231689e+01  -5.559113e+01
  -2.973163e+01  -3.804842e+01
  -5.394615e+01   9.707970e+00
  -7.934502e+01   5.996491e+00
  -4.076343e+01  -4.810362e+01
   4.058383e+01  -8.524541e+01
   9.745462e+01  -5.598755e+01
   8.195797e+01   3.053452e+01
  -1.009317e+01   1.061427e+02
  -1.361593e+02   8.683244e+01
  -1.955673e+02  -4.543224e+01
  -1.050914e+02  -1.986766e+02
   1.015914e+02  -2.327755e+02
   2.668209e+02  -1.031577e+02
   2.613898e+02   8.156673e+01
   1.138427e+02   1.766375e+02
  -3.645732e+01   1.498137e+02
  -9.341817e+01   8.558642e+01
  -7.876370e+01   7.006175e+01
  -6.659552e+01   9.169879e+01
  -9.144405e+01   7.580904e+01
  -1.279683e+02  -1.981150e+01
  -1.194381e+02  -1.528092e+02
  -3.281143e+01  -2.274053e+02
   9.766049e+01  -1.748322e+02
   1.781070e+02  -2.187111e+01
   1.401509e+02   1.232489e+02
   2.052183e+01   1.625763e+02
  -6.866239e+01   9.475206e+01
  -6.205735e+01   1.804179e+00
  -6.790482e+00  -4.256476e+01
   8.660748e+00  -3.525532e+01
  -3.724407e+01  -1.957858e+01
  -7.894084e+01  -2.302036e+01
  -4.423328e+01  -3.779912e+01
   6.308285e+01  -3.734490e+01
   1.572765e+02  -5.667969e+00
   1.451974e+02   4.799679e+01
   1.921561e+01   8.784407e+01
  -1.172979e+02   7.668698e+01
  -1.443730e+02   1.744289e+01
  -4.950115e+01  -3.772185e+01
   5.885910e+01  -3.600946e+01
   7.451085e+01   1.855435e+01
   6.632528e+00   6.673588e+01
  -5.567860e+01   5.692399e+01
  -6.187822e+01  -1.645685e+00
  -4.280104e+01  -4.880396e+01
  -4.364928e+01  -4.104502e+01
  -6.250139e+01  -1.958709e+00
  -6.678720e+01   4.718520e-01
  -3.501374e+01  -6.605620e+01
   3.247646e+01  -1.450832e+02
   1.144284e+02  -1.421978e+02
   1.620976e+02  -3.484890e+01
   1.223336e+02   9.024931e+01
   7.210657e+00   1.255765e+02
  -8.461212e+01   6.056738e+01
  -5.885497e+01  -1.591891e+01
   5.984435e+01  -2.036771e+01
   1.386989e+02   4.339161e+01
   7.745675e+01   1.073210e+02
  -7.942819e+01   1.135027e+02
  -1.914282e+02   5.467481e+01
  -1.646470e+02  -3.148784e+01
  -3.937043e+01  -8.686434e+01
   6.014801e+01  -7.257388e+01
   4.980717e+01  -9.027971e+00
  -3.747650e+01   2.734297e+01
  -8.960325e+01  -2.106259e+01
  -3.285404e+01  -1.179008e+02
   9.059004e+01  -1.543822e+02
   1.665995e+02  -6.253621e+01
   1.265460e+02   1.006521e+02
   1.115776e+01   1.980155e+02
  -8.467254e+01   1.452962e+02
  -1.055562e+02  -5.747921e+00
  -6.284803e+01  -1.180757e+02
  -5.252817e-02  -1.082272e+02
   4.580831e+01  -2.192179e+01
   5.320528e+01   3.062169e+01
   2.694586e+01   8.756080e+00
   4.249387e+00  -2.103219e+01
   2.095995e+01   1.413380e+01
   5.697421e+01   8.829116e+01
   4.363795e+01   1.105063e+02
  -4.612994e+01   4.688677e+01
  -1.390053e+02  -3.805445e+01
  -1.318741e+02  -7.006280e+01
  -1.904112e+01  -4.944746e+01
   8.750534e+01  -2.313949e+01
   8.824683e+01  -9.458439e+00
   1.035522e+01   6.069010e+00
  -3.881349e+01   2.236869e+01
  -1.289251e+01   1.867680e+01
   2.306825e+01  -1.505948e+00
  -5.845283e+00  -9.174775e+00
  -7.653321e+01  -3.471695e+00
  -9.338735e+01  -2.345961e+01
  -7.596909e+00  -8.087054e+01
   1.205974e+02  -1.155951e+02
   1.859507e+02  -5.916243e+01
   1.400184e+02   6.763836e+01
   2.455011e+01   1.623960e+02
  -7.824722e+01   1.494600e+02
  -1.127821e+02   5.779448e+01
  -8.016008e+01  -2.194035e+01
  -2.487439e+01  -3.515997e+01
   3.359244e+00  -7.978740e+00
  -1.018776e+01  -3.126011e+00
  -3.441092e+01  -4.484570e+01
  -2.441330e+01  -9.007932e+01
   2.883072e+01  -7.231850e+01
   8.186679e+01   1.805629e+01
   7.680507e+01   1.086161e+02
   2.718944e+00   1.122683e+02
  -8.390138e+01   2.277734e+01
  -1.028923e+02  -7.694224e+01
  -3.090902e+01  -1.038869e+02
   6.636896e+01  -5.487935e+01
   9.639724e+01   1.203801e+01
   3.797302e+01   4.934317e+01
  -3.231321e+01   5.032870e+01
  -2.993995e+01   2.787625e+01
   3.475680e+01  -1.221348e-02
   6.864095e+01  -7.034488e+00
   1.373505e+01   2.404442e+01
  -7.934638e+01   6.565626e+01
  -1.142798e+02   5.966647e+01
  -6.263359e+01  -1.072498e+01
   1.538851e+01  -8.293591e+01
   5.115209e+01  -8.022035e+01
   3.525864e+01  -6.240672e+00
   1.022112e+00   5.582254e+01
  -2.529863e+01   4.250709e+01
  -3.612582e+01  -1.914625e+01
  -2.681356e+01  -5.449541e+01
   2.512543e+00  -3.243774e+01
   3.290670e+01   8.967826e+00
   3.949994e+01   2.059470e+01
   2.044572e+01  -1.644812e-01
  -9.486114e-01  -1.452699e+01
  -7.431830e+00   3.548914e+00
  -7.727821e+00   3.685128e+01
  -1.742637e+01   4.360074e+01
  -3.144992e+01   5.482183e+00
  -2.775268e+01  -4.649698e+01
   3.845112e+00  -6.034864e+01
   4.449071e+01  -1.890890e+01
   5.483593e+01   4.026851e+01
   1.331821e+01   6.289935e+01
  -5.453036e+01   3.351612e+01
  -8.786523e+01  -1.556884e+01
  -4.878406e+01  -4.369202e+01
   2.817279e+01  -4.026014e+01
   6.362174e+01  -2.126647e+01
   2.311998e+01  -5.203112e+00
  -3.802533e+01  -3.117629e+00
  -3.734629e+01  -1.711473e+01
   3.203252e+01  -3.211488e+01
   9.239499e+01  -1.956361e+01
