
 $NMID
 id='ANONYMOUS ', fmtdat='(2E16.6)'
 volume=1.0
 tramp=1.0
 $END
  -4.039683e+03   1.239202e+02
  -2.599352e+03  -2.375876e+03
   3.384306e+02  -2.452652e+03
   1.851696e+03  -8.815805e+02
   8.814212e+02   4.334476e+02
  -2.390994e+02   3.474799e+02
  -6.220385e+02  -2.450387e+02
   1.871974e+01  -8.327663e+02
   6.307666e+02  -5.875581e+02
   7.257689e+02   4.748108e+01
   4.053748e+02   6.173030e+02
  -6.626723e+01   7.864632e+02
  -4.647271e+02   1.085043e+02
  -3.709024e+02  -6.275385e+02
   2.037054e+02  -7.087246e+02
   5.674623e+02  -8.532599e+01
   2.936204e+02   5.927125e+02
  -2.618007e+02   6.281997e+02
  -5.813576e+02   2.242565e+02
  -4.004227e+02  -2.484819e+02
  -4.002935e+01  -3.974253e+02
   1.517750e+02  -3.146347e+02
   1.537932e+02  -1.098710e+02
  -1.701515e+02  -2.303485e+01
  -3.361671e+02  -1.844315e+02
  -4.871280e+01  -3.518545e+02
   4.861600e+02  -2.402227e+02
   7.294963e+02   1.391420e+02
   3.194919e+02   4.409185e+02
  -3.519449e+02   3.180973e+02
  -6.122120e+02  -1.042164e+02
  -2.451772e+02  -4.354515e+02
   3.060849e+02  -4.199534e+02
   5.271095e+02  -1.650957e+02
   3.757362e+02   1.901173e+02
   8.171689e+01   4.101046e+02
  -8.922622e+01   2.369898e+02
  -4.505440e+01  -1.644248e+02
   1.861687e+02  -3.102435e+02
   3.115521e+02   7.824518e+01
   1.055298e+02   5.987974e+02
  -2.870895e+02   5.836305e+02
  -4.722682e+02   4.375296e+00
  -1.743721e+02  -4.464917e+02
   2.344054e+02  -2.331603e+02
   2.831225e+02   3.001704e+02
  -9.228162e+01   4.812868e+02
  -5.137598e+02   1.023990e+02
  -5.447394e+02  -3.923991e+02
  -1.610156e+02  -5.513045e+02
   3.434498e+02  -3.179070e+02
   5.777603e+02   6.326819e+01
   3.587712e+02   3.210797e+02
  -9.899160e+01   3.058919e+02
  -3.661086e+02   6.887797e+01
  -2.317821e+02  -1.272373e+02
   5.200966e+01  -8.660036e+01
   9.575599e+01   8.424239e+01
  -1.252984e+02   1.177024e+02
  -2.764912e+02  -5.628117e+01
  -1.242127e+02  -2.441108e+02
   1.865954e+02  -2.612484e+02
   3.520360e+02  -1.171492e+02
   2.501445e+02   9.242706e+01
  -1.467384e+01   2.922050e+02
  -2.657078e+02   3.689232e+02
  -3.640139e+02   1.981513e+02
  -2.634509e+02  -1.525168e+02
  -5.999020e+01  -3.947937e+02
   6.917381e+01  -3.390839e+02
   5.516232e+01  -1.363508e+02
   1.932697e+01  -5.774127e+01
   9.473809e+01  -1.172998e+02
   2.321355e+02  -9.649898e+01
   2.638390e+02   9.588646e+01
   1.233579e+02   2.757798e+02
  -8.454811e+01   2.269068e+02
  -2.081130e+02  -2.036543e+01
  -1.623427e+02  -2.477971e+02
   3.406724e+01  -2.725359e+02
   2.587998e+02  -8.253329e+01
   3.320340e+02   1.767205e+02
   1.723181e+02   3.294145e+02
  -7.900743e+01   2.841012e+02
  -1.956751e+02   1.364996e+02
  -1.479646e+02   4.543906e+01
  -1.209920e+02   5.310899e+01
  -2.587113e+02   5.320836e+01
  -4.119054e+02  -7.855382e+01
  -3.286667e+02  -2.972740e+02
   1.583357e+01  -4.432414e+02
   3.764319e+02  -4.033364e+02
   4.901440e+02  -1.802977e+02
   3.127001e+02   1.045773e+02
   2.911066e+01   2.770557e+02
  -1.240896e+02   2.224162e+02
  -5.312814e+01   2.544698e+01
   1.125484e+02  -8.244656e+01
   1.649906e+02   1.572942e+01
   3.199425e+01   1.676851e+02
  -1.386291e+02   1.382006e+02
  -1.425239e+02  -5.581970e+01
   2.677286e+01  -1.626499e+02
   1.812078e+02  -1.561365e+01
   1.574055e+02   2.445384e+02
  -3.057592e+01   3.488740e+02
  -2.421665e+02   2.019275e+02
  -3.456853e+02  -6.742161e+01
  -2.747058e+02  -2.585630e+02
  -6.835658e+01  -2.730262e+02
   1.302915e+02  -1.466591e+02
   1.670018e+02  -5.332662e+00
   4.386080e+01   2.730307e+01
  -6.369540e+01  -5.187441e+01
  -1.202358e+01  -1.216203e+02
   1.275189e+02  -8.111965e+01
   1.643980e+02   2.564412e+01
   4.311736e+01   6.783801e+01
  -8.514957e+01  -3.647932e-01
  -4.832471e+01  -9.035594e+01
   1.404188e+02  -9.227834e+01
   2.999192e+02   1.412187e+01
   2.654554e+02   1.651402e+02
   4.112368e+01   2.691884e+02
  -2.051918e+02   2.510724e+02
  -2.844573e+02   1.074236e+02
  -1.558931e+02  -5.524801e+01
   3.064914e+01  -9.726920e+01
   8.099574e+01  -5.191751e-01
  -4.372590e+01   9.330292e+01
  -1.941496e+02   4.640332e+01
  -2.037083e+02  -1.058488e+02
  -6.198382e+01  -2.006760e+02
   9.545631e+01  -1.470179e+02
   1.376477e+02  -2.061660e+01
   5.624924e+01   4.114799e+01
  -4.075578e+01  -9.567050e+00
  -3.530856e+01  -9.949696e+01
   8.692567e+01  -1.184871e+02
   2.094562e+02  -2.042908e+01
   1.879703e+02   1.326059e+02
   1.176702e+01   2.175989e+02
  -1.657969e+02   1.578385e+02
  -1.869337e+02   5.005287e+00
  -5.951171e+01  -1.096357e+02
   6.653209e+01  -1.058569e+02
   7.790605e+01  -2.625390e+01
   9.108370e+00   2.768527e+01
  -3.147173e+01   1.397417e+01
   8.028930e+00  -1.934211e+01
   8.218090e+01   6.072064e-01
   1.010290e+02   8.704888e+01
   1.575787e+01   1.704882e+02
  -1.351961e+02   1.570826e+02
  -2.396733e+02   2.054222e+01
  -2.004751e+02  -1.546364e+02
  -4.028119e+01  -2.344242e+02
   1.064321e+02  -1.656237e+02
   1.336674e+02  -2.800035e+01
   7.129153e+01   5.192015e+01
   2.869038e+01   3.296666e+01
   5.081839e+01  -1.579899e+01
   8.178113e+01  -1.037785e+01
   5.051182e+01   5.261645e+01
  -4.012239e+01   9.808403e+01
  -1.139211e+02   6.248051e+01
  -9.910246e+01  -4.242086e+01
   1.450986e+01  -1.242253e+02
   1.552031e+02  -9.018540e+01
   2.053634e+02   5.964643e+01
   9.353957e+01   2.120594e+02
  -1.189204e+02   2.280867e+02
  -2.714817e+02   8.829880e+01
  -2.526840e+02  -9.187135e+01
  -1.025220e+02  -1.775744e+02
   4.225298e+01  -1.444768e+02
   9.310988e+01  -8.095353e+01
   7.488114e+01  -6.700948e+01
   6.264893e+01  -9.126665e+01
   9.190118e+01  -7.722124e+01
   1.301732e+02   2.069247e+01
   1.180617e+02   1.559988e+02
   2.661134e+01   2.281368e+02
  -1.015011e+02   1.693438e+02
  -1.749843e+02   1.425323e+01
  -1.331717e+02  -1.252873e+02
  -1.487546e+01  -1.574807e+02
   7.249567e+01  -8.639031e+01
   6.269390e+01   6.100822e+00
  -1.272486e-01   4.747517e+01
  -2.090477e+01   3.498257e+01
   3.077882e+01   1.421730e+01
   8.383681e+01   1.905230e+01
   5.042326e+01   3.893076e+01
  -6.800798e+01   3.970848e+01
  -1.677580e+02   1.581575e+00
  -1.448178e+02  -5.858622e+01
  -5.165927e+00  -9.522522e+01
   1.312831e+02  -7.364941e+01
   1.471621e+02  -6.661188e+00
   4.529523e+01   4.890565e+01
  -6.223469e+01   4.208637e+01
  -7.865140e+01  -1.887399e+01
  -1.395375e+01  -7.194153e+01
   5.079179e+01  -6.214987e+01
   6.608687e+01   1.320563e-02
   5.098890e+01   5.019138e+01
   4.551110e+01   4.246872e+01
   5.763303e+01   2.215755e+00
   6.503519e+01   1.320251e+00
   4.039241e+01   7.061203e+01
  -2.911080e+01   1.496478e+02
  -1.212038e+02   1.442567e+02
  -1.744098e+02   3.432568e+01
  -1.297506e+02  -9.279889e+01
  -5.191432e+00  -1.310070e+02
   9.052599e+01  -6.733438e+01
   6.209351e+01   1.227571e+01
  -5.923862e+01   2.126964e+01
  -1.369912e+02  -4.180544e+01
  -7.364107e+01  -1.079658e+02
   8.300219e+01  -1.121442e+02
   1.911626e+02  -4.767234e+01
   1.599385e+02   3.894980e+01
   3.366807e+01   8.676128e+01
  -6.302191e+01   6.541037e+01
  -4.965732e+01   3.247039e+00
   3.798004e+01  -2.801115e+01
   9.088330e+01   2.158079e+01
   3.712092e+01   1.161098e+02
  -8.387850e+01   1.537466e+02
  -1.619793e+02   6.654070e+01
  -1.280559e+02  -9.464715e+01
  -1.537116e+01  -1.940313e+02
   8.319892e+01  -1.431852e+02
   1.052356e+02   8.004973e+00
   5.866508e+01   1.190060e+02
  -7.555452e+00   1.054335e+02
  -4.934701e+01   1.769512e+01
  -4.879969e+01  -3.250403e+01
  -2.124340e+01  -9.164243e+00
  -5.249080e+00   1.869784e+01
  -2.612534e+01  -1.774062e+01
  -5.636700e+01  -8.885223e+01
  -3.540157e+01  -1.073253e+02
   5.286387e+01  -4.388339e+01
   1.366688e+02   3.879071e+01
   1.244427e+02   7.112278e+01
   1.653039e+01   5.194170e+01
  -8.445098e+01   2.333356e+01
  -8.741127e+01   5.628789e+00
  -1.449675e+01  -9.950372e+00
   3.652022e+01  -2.190130e+01
   1.814689e+01  -1.578065e+01
  -1.647459e+01   2.438189e+00
   4.049886e+00   7.625230e+00
   6.806091e+01   1.821646e+00
   9.037843e+01   2.225082e+01
   1.590924e+01   7.914248e+01
  -1.102018e+02   1.154155e+02
  -1.848924e+02   6.338457e+01
  -1.476856e+02  -6.140425e+01
  -3.063625e+01  -1.601909e+02
   7.871432e+01  -1.533220e+02
   1.150429e+02  -6.317678e+01
   8.063372e+01   1.982697e+01
   2.590635e+01   3.631613e+01
   6.733549e-01   1.052041e+01
   1.348734e+01   6.256440e+00
   3.261333e+01   4.815429e+01
   2.017603e+01   9.124170e+01
  -2.955759e+01   7.190244e+01
  -7.990097e+01  -1.617334e+01
  -7.896009e+01  -1.035019e+02
  -1.058292e+01  -1.098776e+02
   7.664813e+01  -2.802843e+01
   1.034679e+02   6.847471e+01
   3.663675e+01   1.014742e+02
  -6.438277e+01   5.954499e+01
  -1.011919e+02  -9.335403e+00
  -4.365380e+01  -5.444434e+01
   3.300825e+01  -5.765679e+01
   3.648917e+01  -2.956490e+01
  -2.911540e+01   3.156083e+00
  -6.873183e+01   8.046182e+00
  -1.783851e+01  -2.648220e+01
   7.777096e+01  -6.684192e+01
   1.185688e+02  -5.761764e+01
   6.922759e+01   1.279788e+01
  -1.252349e+01   8.309115e+01
  -5.373007e+01   8.212859e+01
  -4.011166e+01   1.149666e+01
  -4.341608e+00  -5.179581e+01
   2.373662e+01  -4.436129e+01
   3.511862e+01   1.402781e+01
   2.627599e+01   5.325367e+01
  -2.334750e+00   3.603109e+01
  -3.356619e+01  -7.079499e+00
  -4.097050e+01  -2.387422e+01
  -2.102852e+01  -3.900750e+00
   2.650472e+00   1.665079e+01
   7.230696e+00   2.672196e+00
   1.275826e+00  -3.442877e+01
   8.056828e+00  -4.934703e+01
   2.913959e+01  -1.592838e+01
   3.670890e+01   3.918950e+01
   7.092167e+00   6.054961e+01
  -4.207431e+01   2.415017e+01
  -6.086336e+01  -3.499340e+01
  -1.842374e+01  -6.161217e+01
   5.568973e+01  -3.610378e+01
   9.165418e+01   1.188017e+01
   5.017194e+01   4.311503e+01
  -2.901879e+01   4.399193e+01
  -6.558743e+01   2.547976e+01
  -2.685263e+01   5.338105e+00
   3.273720e+01  -2.057422e+00
   3.602852e+01   9.523247e+00
  -2.579066e+01   2.759925e+01
  -8.320247e+01   2.056316e+01
