
 $NMID
 id='ANONYMOUS ', fmtdat='(2E16.6)'
 volume=1.0
 tramp=1.0
 $END
   3.238665e+03   1.818378e+02
   2.016411e+03   1.813226e+03
  -2.575980e+02   1.875224e+03
  -1.404445e+03   1.196904e+03
  -7.744511e+02   6.087950e+01
   1.905252e+01  -2.065461e+02
   4.062467e+02   1.251671e+02
   8.359407e+01   5.657366e+02
  -3.940511e+02   5.874960e+02
  -6.684289e+02   1.254217e+02
  -4.510898e+02  -5.561783e+02
  -9.539431e+00  -6.651851e+02
   3.878270e+02  -1.961263e+02
   2.161423e+02   4.850681e+02
  -1.439512e+02   5.270710e+02
  -3.598412e+02   5.889261e+01
  -2.631060e+02  -4.301721e+02
   1.132400e+02  -5.974829e+02
   4.346162e+02  -2.375477e+02
   4.266579e+02   1.007727e+02
   1.427424e+02   3.426687e+02
  -1.171366e+02   2.748332e+02
  -5.706549e+01   1.288249e+02
   1.275060e+02   8.110618e+01
   2.418737e+02   2.141473e+02
   1.708702e+01   3.420722e+02
  -4.545961e+02   1.988499e+02
  -6.110525e+02  -1.236914e+02
  -2.520932e+02  -3.346061e+02
   2.900057e+02  -2.223350e+02
   4.847745e+02   8.600466e+01
   1.961155e+02   3.267942e+02
  -2.246828e+02   3.558854e+02
  -4.290288e+02   1.513395e+02
  -3.284566e+02  -1.431856e+02
  -1.146268e+02  -2.933554e+02
   2.139820e+01  -1.645994e+02
  -2.235624e+01   9.525211e+01
  -1.410562e+02   1.571176e+02
  -2.048469e+02  -1.376312e+02
  -5.094706e+01  -4.769045e+02
   2.166136e+02  -4.386576e+02
   3.099213e+02  -6.878567e+00
   1.444062e+02   3.041483e+02
  -1.092345e+02   1.675028e+02
  -1.634039e+02  -2.458436e+02
   8.676279e+01  -3.787759e+02
   4.046535e+02  -9.428363e+01
   4.765201e+02   3.294054e+02
   1.759179e+02   4.830616e+02
  -2.686927e+02   2.834788e+02
  -4.959151e+02  -4.106584e+01
  -3.436365e+02  -2.389729e+02
   3.223423e+01  -2.313543e+02
   2.778687e+02  -9.712642e+01
   2.161083e+02   1.400641e+01
   7.381984e+00   1.704843e+01
  -5.305976e+01  -4.433054e+01
   9.819463e+01  -5.476373e+01
   2.351467e+02   4.056192e+01
   1.349792e+02   1.784536e+02
  -1.459213e+02   2.385385e+02
  -3.402386e+02   1.458966e+02
  -2.627566e+02  -7.735328e+01
   1.884829e+01  -3.043244e+02
   2.767216e+02  -3.601983e+02
   3.373858e+02  -1.663210e+02
   2.111777e+02   1.484959e+02
   4.617705e+01   3.408367e+02
  -2.681264e+01   3.005392e+02
  -1.339955e+01   1.571214e+02
  -2.445418e+01   9.389476e+01
  -1.227356e+02   1.127843e+02
  -2.368010e+02   6.733278e+01
  -2.422192e+02  -9.798692e+01
  -1.075278e+02  -2.410031e+02
   7.892303e+01  -1.939505e+02
   1.837471e+02   2.745659e+01
   1.356986e+02   2.284292e+02
  -4.542067e+01   2.402567e+02
  -2.427617e+02   6.139329e+01
  -3.017298e+02  -1.692613e+02
  -1.631430e+02  -2.904040e+02
   4.595137e+01  -2.619518e+02
   1.567640e+02  -1.514568e+02
   1.409790e+02  -7.884351e+01
   1.489732e+02  -7.040705e+01
   2.699536e+02  -4.212812e+01
   3.952644e+02   8.160452e+01
   3.138235e+02   2.770714e+02
  -1.290885e+01   4.244602e+02
  -3.547000e+02   3.969537e+02
  -4.561593e+02   1.837147e+02
  -2.805352e+02  -8.979336e+01
  -2.799508e+01  -2.445845e+02
   8.338880e+01  -1.948685e+02
   1.306665e+01  -3.864917e+01
  -1.073704e+02   4.051988e+01
  -1.244665e+02  -3.195185e+01
  -1.245134e+01  -1.317708e+02
   1.078438e+02  -1.008910e+02
   1.076246e+02   4.644129e+01
  -1.966185e+01   1.226317e+02
  -1.529205e+02   2.929871e+00
  -1.536569e+02  -2.227441e+02
   8.485850e+00  -3.326549e+02
   2.331380e+02  -2.084415e+02
   3.563983e+02   5.316778e+01
   2.827089e+02   2.522692e+02
   6.340789e+01   2.672336e+02
  -1.249298e+02   1.384928e+02
  -1.477903e+02   1.014525e+01
  -3.456850e+01  -9.749105e+00
   4.965353e+01   5.856927e+01
  -1.826251e+00   1.057605e+02
  -1.161431e+02   6.239104e+01
  -1.389963e+02  -2.250834e+01
  -2.947660e+01  -4.987133e+01
   8.205699e+01   1.211593e+01
   4.391416e+01   9.139029e+01
  -1.382369e+02   9.303337e+01
  -2.937758e+02  -9.028213e+00
  -2.580326e+02  -1.563097e+02
  -3.660707e+01  -2.525215e+02
   1.947005e+02  -2.289170e+02
   2.566985e+02  -9.776183e+01
   1.316943e+02   4.001654e+01
  -2.870228e+01   7.378579e+01
  -6.225687e+01  -2.897811e+00
   4.911936e+01  -7.580830e+01
   1.752966e+02  -3.547109e+01
   1.808000e+02   9.351752e+01
   5.644666e+01   1.776884e+02
  -8.375752e+01   1.331262e+02
  -1.212504e+02   1.855453e+01
  -4.437729e+01  -3.740919e+01
   4.427538e+01   1.629408e+01
   3.047485e+01   1.060604e+02
  -9.273071e+01   1.191879e+02
  -2.058765e+02   1.830939e+01
  -1.795617e+02  -1.260376e+02
  -1.584127e+01  -2.006750e+02
   1.446461e+02  -1.493754e+02
   1.664257e+02  -1.813951e+01
   5.675604e+01   8.601664e+01
  -5.536589e+01   9.183655e+01
  -6.741521e+01   2.670645e+01
  -2.289388e+00  -2.502063e+01
   3.911551e+01  -1.191605e+01
  -2.718944e+00   2.548764e+01
  -8.388328e+01   8.875890e+00
  -1.079681e+02  -8.130517e+01
  -1.943505e+01  -1.693758e+02
   1.328810e+02  -1.539039e+02
   2.292145e+02  -1.620820e+01
   1.880551e+02   1.483075e+02
   4.156809e+01   2.177645e+02
  -9.185463e+01   1.548492e+02
  -1.237231e+02   3.402753e+01
  -7.527027e+01  -3.919330e+01
  -3.432341e+01  -2.795233e+01
  -5.085043e+01   1.275573e+01
  -8.313142e+01   7.984331e+00
  -5.866757e+01  -5.317439e+01
   3.334669e+01  -1.041105e+02
   1.188807e+02  -7.121481e+01
   1.106957e+02   3.821539e+01
  -1.064340e+01   1.275786e+02
  -1.579589e+02   9.351321e+01
  -2.034166e+02  -5.888521e+01
  -8.631148e+01  -2.041202e+02
   1.168776e+02  -2.169668e+02
   2.569612e+02  -8.542124e+01
   2.367800e+02   7.965257e+01
   1.003280e+02   1.585845e+02
  -3.399147e+01   1.335608e+02
  -8.257338e+01   7.990962e+01
  -6.517825e+01   7.026655e+01
  -5.370965e+01   9.428703e+01
  -8.566837e+01   8.014823e+01
  -1.286994e+02  -1.411437e+01
  -1.202121e+02  -1.466834e+02
  -3.169649e+01  -2.180531e+02
   9.247727e+01  -1.630377e+02
   1.626291e+02  -1.429235e+01
   1.237557e+02   1.191585e+02
   1.267511e+01   1.487756e+02
  -7.007218e+01   7.814368e+01
  -6.063981e+01  -1.302087e+01
   2.353946e+00  -5.232974e+01
   2.613276e+01  -3.567911e+01
  -2.513307e+01  -1.057639e+01
  -8.175449e+01  -1.447402e+01
  -5.001799e+01  -3.721459e+01
   7.025533e+01  -4.035487e+01
   1.699170e+02  -1.711870e+00
   1.422080e+02   5.946350e+01
   6.666946e-01   9.650583e+01
  -1.307278e+02   7.559548e+01
  -1.426629e+02   9.013946e+00
  -4.552189e+01  -4.871816e+01
   5.642429e+01  -4.605894e+01
   7.689279e+01   1.400380e+01
   2.209336e+01   7.138708e+01
  -4.215380e+01   6.666369e+01
  -6.793894e+01   4.855582e+00
  -5.984588e+01  -4.805323e+01
  -4.858043e+01  -4.130428e+01
  -5.302181e+01  -3.046536e-01
  -6.284682e+01  -3.554533e-03
  -4.600957e+01  -7.114822e+01
   2.151119e+01  -1.504273e+02
   1.188458e+02  -1.450269e+02
   1.755649e+02  -3.685044e+01
   1.297644e+02   8.835862e+01
   6.174729e+00   1.288836e+02
  -8.702285e+01   7.053911e+01
  -6.096400e+01  -7.452662e+00
   5.400382e+01  -2.152187e+01
   1.284157e+02   3.495019e+01
   7.055169e+01   9.887238e+01
  -7.620169e+01   1.063551e+02
  -1.782891e+02   4.703851e+01
  -1.498002e+02  -3.470273e+01
  -3.121694e+01  -7.979127e+01
   5.918130e+01  -5.872859e+01
   4.534990e+01   1.354809e+00
  -3.889650e+01   3.163066e+01
  -9.076118e+01  -1.580935e+01
  -4.336846e+01  -1.107259e+02
   6.944158e+01  -1.542032e+02
   1.488425e+02  -7.532769e+01
   1.257368e+02   8.225599e+01
   2.383876e+01   1.840482e+02
  -7.311955e+01   1.376358e+02
  -9.971841e+01  -7.935399e+00
  -5.587637e+01  -1.131665e+02
   1.036941e+01  -9.731912e+01
   4.930661e+01  -1.422781e+01
   4.371712e+01   2.937643e+01
   1.550808e+01   5.685071e+00
   4.963144e+00  -1.695439e+01
   3.001213e+01   2.045924e+01
   5.852917e+01   8.531495e+01
   3.441802e+01   9.992749e+01
  -5.194056e+01   4.312145e+01
  -1.317693e+02  -3.003567e+01
  -1.218225e+02  -6.202565e+01
  -2.154610e+01  -5.145780e+01
   7.585958e+01  -2.865600e+01
   8.407830e+01  -8.149304e+00
   1.829068e+01   1.111824e+01
  -3.261480e+01   2.159022e+01
  -1.922574e+01   1.271593e+01
   1.381863e+01  -3.844553e+00
  -2.297060e+00  -4.317545e+00
  -6.385423e+01   3.499121e+00
  -9.142334e+01  -1.820661e+01
  -2.520622e+01  -7.765227e+01
   9.867387e+01  -1.173791e+02
   1.795526e+02  -7.066453e+01
   1.501191e+02   5.017704e+01
   3.716854e+01   1.516292e+02
  -7.228205e+01   1.528571e+02
  -1.107162e+02   6.859802e+01
  -7.886281e+01  -1.492809e+01
  -2.734485e+01  -3.583769e+01
  -3.227516e+00  -1.303894e+01
  -1.374237e+01  -8.091563e+00
  -3.100991e+01  -4.635967e+01
  -2.124385e+01  -8.705599e+01
   2.450111e+01  -7.056582e+01
   7.582641e+01   1.038068e+01
   8.204342e+01   9.337756e+01
   1.952849e+01   1.052523e+02
  -7.056406e+01   3.501754e+01
  -1.053439e+02  -5.697428e+01
  -4.349121e+01  -9.759858e+01
   5.957071e+01  -6.556110e+01
   1.014488e+02   2.906927e+00
   4.647549e+01   5.515386e+01
  -3.144925e+01   6.185886e+01
  -3.877733e+01   2.965922e+01
   2.410274e+01  -7.665486e+00
   6.515968e+01  -1.195503e+01
   1.896820e+01   2.529855e+01
  -7.246296e+01   6.553379e+01
  -1.141860e+02   5.496342e+01
  -6.924902e+01  -1.419118e+01
   9.869470e+00  -8.264906e+01
   5.348646e+01  -8.255071e+01
   4.411883e+01  -1.434546e+01
   1.008623e+01   5.050877e+01
  -2.097302e+01   4.864784e+01
  -3.677535e+01  -7.870623e+00
  -3.034698e+01  -5.158473e+01
  -7.104004e-01  -3.976169e+01
   3.314643e+01   3.169953e+00
   4.225992e+01   2.370479e+01
   2.052649e+01   4.153173e+00
  -4.597394e+00  -2.033421e+01
  -6.198595e+00  -9.256545e+00
   6.972347e+00   3.059638e+01
   3.125254e+00   5.287984e+01
  -2.448343e+01   2.463800e+01
  -4.246232e+01  -3.044125e+01
  -1.718676e+01  -5.651801e+01
   3.627382e+01  -2.711076e+01
   6.165282e+01   2.819575e+01
   2.160226e+01   5.649419e+01
  -5.342579e+01   3.703215e+01
  -9.018510e+01  -6.601532e+00
  -5.057812e+01  -3.952666e+01
   2.572726e+01  -4.578090e+01
   6.139856e+01  -3.085001e+01
   2.778918e+01  -8.099606e+00
  -2.612986e+01   5.199842e+00
  -3.171221e+01  -3.690759e+00
   2.087619e+01  -2.473818e+01
   7.370748e+01  -2.366174e+01
