
 $NMID
 id='ANONYMOUS ', fmtdat='(2E16.6)'
 volume=1.0
 tramp=1.0
 $END
  -3.481580e+03   3.894037e+01
  -2.433871e+03  -1.957129e+03
   3.577635e+02  -2.675175e+03
   1.745094e+03  -1.201686e+03
   9.043197e+02   1.488492e+02
  -1.340068e+02   4.163918e+02
  -6.028601e+02  -3.356681e+02
  -2.256123e+01  -7.937687e+02
   5.812643e+02  -8.399579e+02
   8.130438e+02  -9.677956e+01
   5.256169e+02   6.991435e+02
  -8.243710e+01   7.105591e+02
  -5.088409e+02   1.947500e+02
  -3.061906e+02  -5.948995e+02
   2.002770e+02  -7.166546e+02
   5.131223e+02  -9.018756e+01
   3.174174e+02   5.823462e+02
  -2.773088e+02   6.594393e+02
  -5.661339e+02   1.223562e+02
  -4.064705e+02  -2.780749e+02
  -3.790560e+01  -4.221975e+02
   1.503476e+02  -2.555145e+02
   1.130832e+02  -8.871469e+00
  -1.375910e+02   1.399348e+01
  -3.714417e+02  -2.254066e+02
  -1.336885e+02  -4.293513e+02
   4.688883e+02  -3.361237e+02
   7.394404e+02   1.404116e+02
   3.615553e+02   4.884055e+02
  -3.400676e+02   3.728218e+02
  -6.524320e+02  -7.739471e+01
  -2.756160e+02  -4.432372e+02
   2.788915e+02  -4.561819e+02
   5.121168e+02  -1.759164e+02
   3.900187e+02   2.038929e+02
   9.103762e+01   4.092479e+02
  -1.444043e+02   2.340854e+02
  -9.837329e+01  -1.639150e+02
   1.632545e+02  -3.503754e+02
   3.634642e+02   7.712047e+01
   1.803013e+02   6.417789e+02
  -3.151069e+02   6.353326e+02
  -5.395450e+02  -3.651168e+00
  -2.108242e+02  -5.131433e+02
   2.546455e+02  -2.942482e+02
   3.176075e+02   3.242878e+02
  -9.262304e+01   5.256882e+02
  -5.150605e+02   1.245265e+02
  -5.486757e+02  -4.055113e+02
  -1.530188e+02  -5.706476e+02
   3.541174e+02  -3.237741e+02
   5.882258e+02   7.804432e+01
   3.682374e+02   3.501999e+02
  -1.197194e+02   3.287144e+02
  -4.027872e+02   7.455691e+01
  -2.415660e+02  -1.430228e+02
   7.876670e+01  -9.874176e+01
   1.182135e+02   1.046473e+02
  -1.473028e+02   1.522407e+02
  -3.193566e+02  -4.975393e+01
  -1.397496e+02  -2.686346e+02
   1.978764e+02  -2.773440e+02
   3.507960e+02  -1.061709e+02
   2.214426e+02   1.046755e+02
  -4.242257e+01   2.783232e+02
  -2.704218e+02   3.410369e+02
  -3.600930e+02   1.763738e+02
  -2.666284e+02  -1.754333e+02
  -5.615355e+01  -4.315619e+02
   9.716026e+01  -3.710442e+02
   9.299195e+01  -1.347626e+02
   3.690777e+01  -2.896532e+01
   9.100339e+01  -9.890783e+01
   2.316278e+02  -1.069060e+02
   2.778842e+02   7.694739e+01
   1.382837e+02   2.709860e+02
  -8.391261e+01   2.442448e+02
  -2.159937e+02  -1.151303e+00
  -1.746721e+02  -2.438832e+02
   2.212488e+01  -2.874776e+02
   2.590368e+02  -1.078634e+02
   3.484071e+02   1.652695e+02
   1.946854e+02   3.321303e+02
  -6.833350e+01   2.988570e+02
  -2.049062e+02   1.380268e+02
  -1.595235e+02   3.681341e+01
  -1.201111e+02   5.201502e+01
  -2.464082e+02   5.741781e+01
  -4.087790e+02  -6.871626e+01
  -3.359873e+02  -2.881392e+02
   6.680176e+00  -4.448735e+02
   3.728846e+02  -4.105113e+02
   4.897982e+02  -1.977879e+02
   3.187440e+02   8.919289e+01
   4.242554e+01   2.792381e+02
  -1.112616e+02   2.372545e+02
  -4.929423e+01   3.797801e+01
   1.159800e+02  -7.935108e+01
   1.726434e+02   1.891958e+01
   3.456371e+01   1.802498e+02
  -1.475649e+02   1.562631e+02
  -1.568216e+02  -5.278279e+01
   1.501661e+01  -1.708613e+02
   1.796132e+02  -2.385003e+01
   1.596736e+02   2.404754e+02
  -2.435001e+01   3.486825e+02
  -2.329040e+02   2.030521e+02
  -3.400451e+02  -5.888895e+01
  -2.827633e+02  -2.469954e+02
  -8.395091e+01  -2.720066e+02
   1.213882e+02  -1.580078e+02
   1.718931e+02  -1.642942e+01
   5.164776e+01   2.967999e+01
  -6.437377e+01  -4.349893e+01
  -1.788187e+01  -1.211081e+02
   1.269858e+02  -8.911443e+01
   1.716687e+02   1.822408e+01
   5.078461e+01   6.896355e+01
  -8.174941e+01   9.673168e+00
  -5.209966e+01  -7.567141e+01
   1.286402e+02  -8.250266e+01
   2.845452e+02   9.694943e+00
   2.578885e+02   1.490310e+02
   4.743374e+01   2.551877e+02
  -1.928963e+02   2.500013e+02
  -2.787878e+02   1.145736e+02
  -1.597182e+02  -5.232586e+01
   2.598377e+01  -1.006393e+02
   8.198776e+01  -2.323644e+00
  -3.976946e+01   9.732691e+01
  -1.923411e+02   5.113805e+01
  -2.051847e+02  -1.061124e+02
  -6.488890e+01  -2.058193e+02
   9.344726e+01  -1.536493e+02
   1.401082e+02  -2.478804e+01
   6.597139e+01   4.263093e+01
  -3.021332e+01  -1.741152e+00
  -3.348549e+01  -9.011762e+01
   7.933831e+01  -1.141533e+02
   2.019897e+02  -2.256836e+01
   1.890319e+02   1.294707e+02
   1.773455e+01   2.173680e+02
  -1.638739e+02   1.603127e+02
  -1.904908e+02   7.076668e+00
  -6.302324e+01  -1.088050e+02
   6.601513e+01  -1.066665e+02
   8.094766e+01  -2.936567e+01
   1.502548e+01   2.631161e+01
  -2.547707e+01   1.724319e+01
   7.944871e+00  -1.144618e+01
   7.328469e+01   6.498589e+00
   9.144779e+01   8.478409e+01
   1.303016e+01   1.630340e+02
  -1.308649e+02   1.523109e+02
  -2.354848e+02   1.908982e+01
  -1.999720e+02  -1.538135e+02
  -3.994316e+01  -2.356226e+02
   1.091016e+02  -1.673087e+02
   1.357895e+02  -2.854638e+01
   7.185213e+01   5.217933e+01
   2.972570e+01   3.480900e+01
   5.455647e+01  -1.132017e+01
   8.405560e+01  -6.594660e+00
   4.723543e+01   5.083876e+01
  -4.345006e+01   9.436671e+01
  -1.099502e+02   6.091678e+01
  -9.374120e+01  -3.726195e+01
   1.576305e+01  -1.176036e+02
   1.503703e+02  -8.975317e+01
   2.012248e+02   5.671579e+01
   9.528377e+01   2.082521e+02
  -1.145418e+02   2.276379e+02
  -2.695462e+02   9.102200e+01
  -2.531606e+02  -8.868065e+01
  -1.050306e+02  -1.751465e+02
   3.990616e+01  -1.451416e+02
   9.278442e+01  -8.276440e+01
   7.671763e+01  -6.932295e+01
   6.491334e+01  -9.161904e+01
   9.256473e+01  -7.589279e+01
   1.295304e+02   2.018695e+01
   1.179001e+02   1.547693e+02
   2.774293e+01   2.274252e+02
  -1.010548e+02   1.712552e+02
  -1.753352e+02   1.640788e+01
  -1.321685e+02  -1.256934e+02
  -1.302560e+01  -1.594134e+02
   7.203266e+01  -8.752053e+01
   6.023004e+01   6.119869e+00
  -2.012455e-01   4.756667e+01
  -1.676002e+01   3.527289e+01
   3.404738e+01   1.630312e+01
   8.151585e+01   2.198042e+01
   4.561973e+01   3.996208e+01
  -6.898740e+01   3.796016e+01
  -1.651304e+02   1.228575e-01
  -1.444498e+02  -5.646533e+01
  -9.588312e+00  -9.222145e+01
   1.256473e+02  -7.421216e+01
   1.453587e+02  -1.145136e+01
   4.682089e+01   4.331942e+01
  -6.009535e+01   3.973998e+01
  -7.683176e+01  -1.784353e+01
  -1.242635e+01  -7.009167e+01
   5.144603e+01  -6.194569e+01
   6.445860e+01  -1.291123e+00
   4.887181e+01   4.948716e+01
   4.575412e+01   4.250226e+01
   6.032750e+01   2.314771e+00
   6.696709e+01   6.309246e-01
   3.832131e+01   6.966197e+01
  -3.211742e+01   1.488851e+02
  -1.214116e+02   1.432544e+02
  -1.703230e+02   3.249807e+01
  -1.250476e+02  -9.407349e+01
  -4.267295e+00  -1.293583e+02
   8.849968e+01  -6.364144e+01
   6.021971e+01   1.405355e+01
  -5.950250e+01   1.954587e+01
  -1.360388e+02  -4.500133e+01
  -7.307353e+01  -1.083582e+02
   8.284436e+01  -1.103631e+02
   1.909161e+02  -4.712352e+01
   1.600496e+02   3.773770e+01
   3.384708e+01   8.612039e+01
  -6.295813e+01   6.607653e+01
  -4.943225e+01   3.449926e+00
   3.914007e+01  -2.916707e+01
   9.170567e+01   2.034621e+01
   3.582912e+01   1.169868e+02
  -8.633613e+01   1.554492e+02
  -1.635588e+02   6.620233e+01
  -1.266300e+02  -9.730482e+01
  -1.229175e+01  -1.969128e+02
   8.461784e+01  -1.434950e+02
   1.043231e+02   9.442447e+00
   5.798568e+01   1.199687e+02
  -6.745903e+00   1.049809e+02
  -4.814439e+01   1.725913e+01
  -4.937422e+01  -3.155160e+01
  -2.245728e+01  -7.465141e+00
  -5.119507e+00   1.946057e+01
  -2.494176e+01  -1.858703e+01
  -5.696960e+01  -9.032900e+01
  -3.845697e+01  -1.077152e+02
   5.048540e+01  -4.340154e+01
   1.379297e+02   3.871043e+01
   1.280647e+02   6.949405e+01
   1.818734e+01   5.051380e+01
  -8.535936e+01   2.399655e+01
  -8.795211e+01   7.844391e+00
  -1.342143e+01  -8.635766e+00
   3.674186e+01  -2.248619e+01
   1.551020e+01  -1.668621e+01
  -1.963772e+01   2.038094e+00
   5.035579e+00   7.385382e+00
   7.318394e+01   1.656110e+00
   9.368359e+01   2.308952e+01
   1.307926e+01   8.153540e+01
  -1.162847e+02   1.170944e+02
  -1.880147e+02   6.167828e+01
  -1.457391e+02  -6.511533e+01
  -2.711509e+01  -1.619954e+02
   8.014502e+01  -1.518468e+02
   1.148387e+02  -6.038831e+01
   7.986418e+01   2.106526e+01
   2.514844e+01   3.602225e+01
  -1.038964e+00   9.767847e+00
   1.163664e+01   5.469662e+00
   3.218575e+01   4.690753e+01
   2.114576e+01   9.021137e+01
  -2.924611e+01   7.147713e+01
  -8.005235e+01  -1.737238e+01
  -7.795262e+01  -1.059736e+02
  -7.590107e+00  -1.119178e+02
   8.010665e+01  -2.702133e+01
   1.041997e+02   7.171306e+01
   3.522955e+01   1.036590e+02
  -6.524093e+01   5.909651e+01
  -9.960109e+01  -1.055401e+01
  -4.103928e+01  -5.358054e+01
   3.394924e+01  -5.523623e+01
   3.461536e+01  -2.816595e+01
  -3.125330e+01   2.807171e+00
  -6.880913e+01   7.469247e+00
  -1.564613e+01  -2.616490e+01
   7.958445e+01  -6.565947e+01
   1.180034e+02  -5.598224e+01
   6.668815e+01   1.468896e+01
  -1.467446e+01   8.431858e+01
  -5.462381e+01   8.071027e+01
  -4.019884e+01   8.280154e+00
  -4.286501e+00  -5.416845e+01
   2.494625e+01  -4.437123e+01
   3.685834e+01   1.586357e+01
   2.744917e+01   5.424998e+01
  -2.628335e+00   3.538873e+01
  -3.378462e+01  -7.454397e+00
  -4.045486e+01  -2.314106e+01
  -2.031454e+01  -2.675424e+00
   1.564231e+00   1.667556e+01
   6.165311e+00   1.592451e+00
   2.245612e+00  -3.506047e+01
   1.109237e+01  -4.880362e+01
   3.072846e+01  -1.335254e+01
   3.434410e+01   4.159847e+01
   3.427205e+00   6.073831e+01
  -4.308118e+01   2.160974e+01
  -5.842264e+01  -3.855517e+01
  -1.575952e+01  -6.265444e+01
   5.649913e+01  -3.389985e+01
   9.110665e+01   1.504017e+01
   4.965995e+01   4.409975e+01
  -2.905855e+01   4.196774e+01
  -6.491248e+01   2.302128e+01
  -2.504462e+01   5.233437e+00
   3.483331e+01   4.214254e-01
   3.630832e+01   1.316842e+01
  -2.849721e+01   3.034604e+01
  -8.693548e+01   2.109939e+01
