
 $NMID
 id='ANONYMOUS ', fmtdat='(2E16.6)'
 volume=1.0
 tramp=1.0
 $END
  -3.260870e+03   9.557181e+01
  -2.112934e+03  -1.757323e+03
  -1.372875e+02  -1.973403e+03
   1.070404e+03  -1.165805e+03
   1.058451e+03  -5.729148e+01
  -9.459129e+01   2.324631e+02
  -3.194868e+02  -1.427521e+02
   8.712641e+01  -5.758921e+02
   5.425959e+02  -4.089679e+02
   6.194393e+02  -1.256404e+02
   3.806792e+02   4.381257e+02
   1.381290e+02   6.002855e+02
  -2.972070e+02   1.515987e+02
  -1.904596e+02  -3.488350e+02
   9.423580e+01  -5.129761e+02
   3.794869e+02  -9.196559e+01
   3.394227e+02   5.092759e+02
  -1.362879e+02   6.129360e+02
  -4.761287e+02   3.091678e+02
  -4.318664e+02  -1.622059e+02
  -1.325909e+02  -3.460247e+02
   1.248657e+02  -3.042594e+02
   8.986411e+01  -8.491526e+01
  -2.210566e+02  -1.223105e+02
  -2.740089e+02  -3.071693e+02
   2.635114e+01  -3.665037e+02
   5.186922e+02  -1.083486e+02
   5.965632e+02   2.343282e+02
   1.831340e+02   3.515103e+02
  -3.369805e+02   1.504147e+02
  -4.842653e+02  -2.060853e+02
  -1.544810e+02  -3.675659e+02
   2.990647e+02  -3.311761e+02
   4.664257e+02  -8.867386e+01
   3.135651e+02   1.604252e+02
   7.138686e+01   3.054468e+02
  -8.495558e+00   1.668469e+02
   9.403694e+01  -1.074150e+02
   1.908812e+02  -1.528146e+02
   1.781195e+02   1.575213e+02
  -3.316992e+01   4.906315e+02
  -2.417533e+02   4.062435e+02
  -2.912509e+02  -1.048780e+01
  -9.068349e+01  -3.149667e+02
   1.632658e+02  -1.230049e+02
   1.738496e+02   2.776371e+02
  -1.146779e+02   3.800422e+02
  -4.462187e+02   3.670724e+01
  -4.910297e+02  -3.765355e+02
  -1.537550e+02  -4.908871e+02
   3.116541e+02  -2.680512e+02
   5.238833e+02   5.884147e+01
   3.402319e+02   2.364859e+02
  -4.142255e+01   2.187034e+02
  -2.710698e+02   8.677905e+01
  -2.092810e+02  -1.958713e+01
  -2.370131e+01  -2.161350e+01
   2.574969e+01   3.519655e+01
  -1.001959e+02   4.392942e+01
  -2.063152e+02  -5.317050e+01
  -1.094018e+02  -1.954122e+02
   1.506527e+02  -2.599377e+02
   3.484344e+02  -1.538939e+02
   2.923425e+02   1.006822e+02
   2.735661e+00   3.498316e+02
  -2.999618e+02   3.922660e+02
  -3.900649e+02   1.613377e+02
  -2.430204e+02  -1.736688e+02
  -4.341309e+01  -3.512294e+02
   3.157109e+01  -2.907392e+02
  -1.860528e+00  -1.569350e+02
   8.253216e+00  -1.225824e+02
   1.301278e+02  -1.476275e+02
   2.573828e+02  -7.165904e+01
   2.449545e+02   1.286995e+02
   8.295270e+01   2.729352e+02
  -1.105302e+02   1.906845e+02
  -1.963195e+02  -6.077389e+01
  -1.237510e+02  -2.636899e+02
   6.821968e+01  -2.478537e+02
   2.573754e+02  -4.065219e+01
   2.937330e+02   1.871790e+02
   1.487406e+02   2.941922e+02
  -5.682377e+01   2.541702e+02
  -1.581435e+02   1.573430e+02
  -1.442409e+02   9.055317e+01
  -1.542023e+02   7.162716e+01
  -2.908102e+02   2.838514e+01
  -4.162275e+02  -1.090065e+02
  -3.182588e+02  -3.035579e+02
   3.533373e+01  -4.401579e+02
   3.950096e+02  -3.926321e+02
   4.882820e+02  -1.620608e+02
   2.830486e+02   1.129009e+02
   2.046954e+00   2.508137e+02
  -1.013402e+02   1.843425e+02
  -3.523543e+00   2.822008e+01
   1.313209e+02  -3.120231e+01
   1.272022e+02   5.167900e+01
  -4.748902e+00   1.410959e+02
  -1.233688e+02   8.906694e+01
  -1.028432e+02  -6.317667e+01
   3.855760e+01  -1.244813e+02
   1.637572e+02   1.078802e+01
   1.465966e+02   2.387625e+02
  -2.891047e+01   3.374370e+02
  -2.500913e+02   2.026148e+02
  -3.627966e+02  -6.920495e+01
  -2.722794e+02  -2.744058e+02
  -4.356099e+01  -2.822920e+02
   1.423158e+02  -1.365262e+02
   1.497655e+02   3.828361e+00
   2.741772e+01   1.855493e+01
  -5.203214e+01  -6.385301e+01
   1.046997e+01  -1.150514e+02
   1.290710e+02  -6.120973e+01
   1.428091e+02   3.312988e+01
   2.289619e+01   5.478474e+01
  -8.740504e+01  -2.152352e+01
  -3.409830e+01  -1.044129e+02
   1.631187e+02  -9.088748e+01
   3.173082e+02   3.389398e+01
   2.595427e+02   1.918033e+02
   1.146644e+01   2.772275e+02
  -2.292315e+02   2.293374e+02
  -2.768742e+02   7.977406e+01
  -1.296702e+02  -5.727265e+01
   3.987493e+01  -7.566144e+01
   6.376445e+01   1.347537e+01
  -6.117769e+01   8.163508e+01
  -1.894920e+02   2.441588e+01
  -1.847925e+02  -1.143519e+02
  -4.870263e+01  -1.906470e+02
   9.463172e+01  -1.289902e+02
   1.254459e+02  -7.437639e+00
   3.924159e+01   3.884610e+01
  -5.126822e+01  -2.940977e+01
  -2.787971e+01  -1.223555e+02
   1.078857e+02  -1.231032e+02
   2.232836e+02  -5.622722e+00
   1.833745e+02   1.447473e+02
   1.839437e+00   2.117346e+02
  -1.637813e+02   1.462205e+02
  -1.738196e+02   6.544691e+00
  -4.938545e+01  -9.512312e+01
   6.545449e+01  -9.284428e+01
   6.939090e+01  -2.125661e+01
  -2.367831e+00   2.758696e+01
  -4.163630e+01   8.831495e+00
   7.207035e+00  -2.976436e+01
   9.265716e+01  -4.153854e+00
   1.099528e+02   9.682457e+01
   9.872191e+00   1.852578e+02
  -1.518785e+02   1.575233e+02
  -2.481445e+02   4.395977e+00
  -1.957316e+02  -1.675806e+02
  -3.383469e+01  -2.328960e+02
   1.059182e+02  -1.587753e+02
   1.302362e+02  -2.946341e+01
   7.254787e+01   4.500446e+01
   3.199507e+01   2.772161e+01
   5.637952e+01  -1.741618e+01
   9.140676e+01  -9.695318e+00
   6.123416e+01   6.104934e+01
  -4.135344e+01   1.138297e+02
  -1.317236e+02   7.078622e+01
  -1.156963e+02  -5.033016e+01
   1.964879e+01  -1.403096e+02
   1.749444e+02  -9.168893e+01
   2.134813e+02   7.429632e+01
   8.000674e+01   2.237878e+02
  -1.396500e+02   2.236880e+02
  -2.781250e+02   7.325650e+01
  -2.435671e+02  -1.010961e+02
  -9.046983e+01  -1.749148e+02
   4.667043e+01  -1.377329e+02
   9.000396e+01  -7.614766e+01
   6.749295e+01  -6.678729e+01
   5.612598e+01  -9.478576e+01
   9.138965e+01  -8.120127e+01
   1.333867e+02   1.868181e+01
   1.185192e+02   1.576845e+02
   2.203766e+01   2.288945e+02
  -1.057236e+02   1.648901e+02
  -1.725465e+02   5.100161e+00
  -1.247541e+02  -1.331804e+02
  -4.414416e+00  -1.581962e+02
   8.131086e+01  -7.855365e+01
   6.579106e+01   1.903922e+01
  -6.792078e+00   5.830071e+01
  -3.314072e+01   3.743931e+01
   2.451771e+01   1.025552e+01
   8.844538e+01   1.660107e+01
   5.369095e+01   4.284469e+01
  -7.780221e+01   4.406962e+01
  -1.835782e+02  -2.890725e+00
  -1.484021e+02  -7.121270e+01
   6.746939e+00  -1.055703e+02
   1.436559e+02  -7.382400e+01
   1.493090e+02   1.515103e+00
   4.263210e+01   5.773711e+01
  -6.284763e+01   4.655287e+01
  -8.092247e+01  -2.024977e+01
  -2.234465e+01  -7.716516e+01
   4.422695e+01  -6.774769e+01
   7.101708e+01  -2.681576e+00
   6.204342e+01   5.174636e+01
   4.952563e+01   4.463248e+01
   5.398240e+01   2.386230e+00
   6.507693e+01   1.578682e+00
   4.722262e+01   7.400680e+01
  -2.622253e+01   1.561667e+02
  -1.307922e+02   1.497296e+02
  -1.885922e+02   3.506290e+01
  -1.350434e+02  -9.796495e+01
   7.389116e-02  -1.388221e+02
   9.703760e+01  -7.319677e+01
   6.412583e+01   1.064499e+01
  -6.020191e+01   2.172039e+01
  -1.357442e+02  -4.320489e+01
  -6.887276e+01  -1.101011e+02
   8.878918e+01  -1.099868e+02
   1.938110e+02  -3.938210e+01
   1.570163e+02   4.704305e+01
   2.722782e+01   8.763972e+01
  -6.806637e+01   5.905798e+01
  -5.035547e+01  -4.007275e+00
   3.984427e+01  -3.221741e+01
   9.310779e+01   1.937677e+01
   4.140914e+01   1.158797e+02
  -7.678964e+01   1.566457e+02
  -1.566335e+02   7.155560e+01
  -1.282202e+02  -9.136978e+01
  -1.777637e+01  -1.934172e+02
   8.420143e+01  -1.408261e+02
   1.075474e+02   1.376168e+01
   5.446022e+01   1.236867e+02
  -1.811008e+01   1.043741e+02
  -5.507993e+01   1.401723e+01
  -4.348333e+01  -3.332668e+01
  -1.355206e+01  -7.838268e+00
  -7.039768e+00   1.694558e+01
  -3.492027e+01  -2.277239e+01
  -5.911374e+01  -9.156962e+01
  -2.810945e+01  -1.056407e+02
   6.027197e+01  -4.215579e+01
   1.357031e+02   3.802612e+01
   1.203689e+02   7.083425e+01
   1.793927e+01   5.477020e+01
  -7.930463e+01   2.599659e+01
  -8.682833e+01   4.130940e+00
  -1.956634e+01  -1.314729e+01
   3.390658e+01  -2.135761e+01
   2.214092e+01  -1.134889e+01
  -1.268186e+01   4.891781e+00
   9.430623e-01   4.969103e+00
   6.301709e+01  -2.913879e+00
   9.358082e+01   1.976944e+01
   2.705374e+01   8.088599e+01
  -1.030863e+02   1.206717e+02
  -1.900202e+02   7.068869e+01
  -1.588036e+02  -5.594823e+01
  -3.641826e+01  -1.606401e+02
   8.078031e+01  -1.595273e+02
   1.190142e+02  -6.935186e+01
   8.215548e+01   1.799457e+01
   2.804506e+01   3.842773e+01
   4.727812e+00   1.383233e+01
   1.573667e+01   9.658570e+00
   3.011420e+01   5.094849e+01
   1.673464e+01   9.280014e+01
  -2.923674e+01   7.275458e+01
  -7.775957e+01  -1.353984e+01
  -8.183519e+01  -9.948346e+01
  -1.864538e+01  -1.102055e+02
   7.162515e+01  -3.548504e+01
   1.071254e+02   6.084392e+01
   4.406720e+01   1.029359e+02
  -6.279835e+01   6.788201e+01
  -1.073084e+02  -5.921611e+00
  -4.973640e+01  -6.098815e+01
   3.426508e+01  -6.598421e+01
   4.361187e+01  -3.047573e+01
  -2.349793e+01   7.518269e+00
  -6.905254e+01   9.260994e+00
  -2.037339e+01  -2.956061e+01
   7.880871e+01  -6.769742e+01
   1.246605e+02  -5.308438e+01
   7.528769e+01   1.823769e+01
  -1.213225e+01   8.626477e+01
  -5.916786e+01   8.491770e+01
  -4.652498e+01   1.531623e+01
  -8.383297e+00  -5.088573e+01
   2.269022e+01  -4.960696e+01
   3.653172e+01   8.228072e+00
   2.905858e+01   5.382467e+01
   3.907699e-02   4.202072e+01
  -3.420232e+01  -4.030868e+00
  -4.377355e+01  -2.727504e+01
  -2.124673e+01  -6.779256e+00
   5.916047e+00   2.080208e+01
   8.064906e+00   1.145657e+01
  -6.578488e+00  -3.049095e+01
  -4.240910e+00  -5.489421e+01
   2.483943e+01  -2.595721e+01
   4.512735e+01   3.233956e+01
   1.831417e+01   6.034994e+01
  -3.957374e+01   2.834328e+01
  -6.690080e+01  -3.087609e+01
  -2.287957e+01  -6.051273e+01
   5.793451e+01  -3.811607e+01
   9.598998e+01   9.382103e+00
   5.166875e+01   4.317366e+01
  -2.960891e+01   4.743331e+01
  -6.648620e+01   2.994676e+01
  -2.992886e+01   6.587627e+00
   2.707024e+01  -6.061358e+00
   3.319200e+01   3.392939e+00
  -2.090396e+01   2.444388e+01
  -7.464741e+01   2.272770e+01
