
 $NMID
 id='ANONYMOUS ', fmtdat='(2E16.6)'
 volume=1.0
 tramp=1.0
 $END
   4.199680e+03  -6.046197e+01
   2.537616e+03   2.272504e+03
  -2.439383e+02   2.676330e+03
  -1.764323e+03   1.193452e+03
  -9.190756e+02  -2.982549e+02
   4.492065e+02  -3.763510e+02
   6.437120e+02   2.293577e+02
  -4.377292e+01   7.494519e+02
  -6.833901e+02   6.856372e+02
  -7.872884e+02  -6.756458e+01
  -3.424957e+02  -6.688197e+02
   2.051695e+02  -7.218520e+02
   4.920024e+02  -1.549674e+02
   3.762880e+02   5.358540e+02
  -1.890152e+02   6.832494e+02
  -4.993305e+02   2.513906e+01
  -2.606707e+02  -5.913223e+02
   1.905967e+02  -6.210012e+02
   5.118400e+02  -2.100399e+02
   4.335082e+02   2.773624e+02
   4.825328e+01   4.420499e+02
  -2.178282e+02   2.364021e+02
  -1.314110e+02   4.071272e+01
   1.527337e+02  -1.737810e+01
   3.595949e+02   1.751728e+02
   1.140062e+02   4.034435e+02
  -4.833204e+02   2.973009e+02
  -7.614722e+02  -1.260158e+02
  -3.367972e+02  -4.827526e+02
   3.853750e+02  -3.662660e+02
   6.594054e+02   6.576000e+01
   2.721385e+02   4.340388e+02
  -2.932506e+02   4.584575e+02
  -5.359573e+02   1.814141e+02
  -3.680257e+02  -2.002531e+02
  -6.322791e+01  -4.136572e+02
   1.162352e+02  -2.442917e+02
   5.580514e+01   1.664172e+02
  -1.760913e+02   3.239233e+02
  -3.198013e+02  -5.193497e+01
  -1.358236e+02  -5.831376e+02
   2.816606e+02  -5.944521e+02
   4.512894e+02  -1.566613e+01
   1.943861e+02   4.328092e+02
  -2.153386e+02   2.441962e+02
  -2.933620e+02  -2.842450e+02
   7.178010e+01  -4.741690e+02
   5.053379e+02  -1.036761e+02
   5.672552e+02   3.959953e+02
   1.807248e+02   5.537034e+02
  -3.422971e+02   3.179674e+02
  -5.954131e+02  -6.768254e+01
  -3.754351e+02  -3.249854e+02
   9.456525e+01  -2.990384e+02
   3.678757e+02  -6.722759e+01
   2.341979e+02   1.088191e+02
  -4.940238e+01   5.384503e+01
  -9.396999e+01  -1.082932e+02
   1.331732e+02  -1.175839e+02
   2.928359e+02   6.845509e+01
   1.410307e+02   2.443247e+02
  -1.748520e+02   2.467669e+02
  -3.400803e+02   1.080834e+02
  -2.355709e+02  -8.002090e+01
   2.180739e+01  -2.632102e+02
   2.586594e+02  -3.438004e+02
   3.538782e+02  -1.940118e+02
   2.610441e+02   1.411211e+02
   6.073780e+01   3.905102e+02
  -7.472543e+01   3.493984e+02
  -6.456586e+01   1.460875e+02
  -2.180613e+01   5.366363e+01
  -9.093091e+01   1.086905e+02
  -2.306017e+02   9.645254e+01
  -2.688794e+02  -9.016576e+01
  -1.272557e+02  -2.743168e+02
   9.016253e+01  -2.344482e+02
   2.199749e+02   1.493787e+01
   1.683909e+02   2.519749e+02
  -3.798434e+01   2.798393e+02
  -2.679630e+02   8.897170e+01
  -3.432639e+02  -1.780506e+02
  -1.815711e+02  -3.385292e+02
   7.846032e+01  -2.988727e+02
   2.030268e+02  -1.458150e+02
   1.559587e+02  -4.971630e+01
   1.345097e+02  -5.410662e+01
   2.627964e+02  -4.785756e+01
   4.081393e+02   8.159138e+01
   3.253907e+02   2.969914e+02
  -1.737835e+01   4.471248e+02
  -3.756879e+02   4.078537e+02
  -4.920625e+02   1.808879e+02
  -3.193882e+02  -1.099657e+02
  -4.069957e+01  -2.843416e+02
   1.167472e+02  -2.290415e+02
   5.545610e+01  -3.257242e+01
  -1.086612e+02   7.446733e+01
  -1.633798e+02  -2.565842e+01
  -2.898224e+01  -1.745345e+02
   1.435422e+02  -1.394551e+02
   1.482534e+02   6.069973e+01
  -2.520370e+01   1.657656e+02
  -1.832683e+02   1.208039e+01
  -1.574618e+02  -2.534881e+02
   3.650878e+01  -3.585623e+02
   2.538229e+02  -2.017848e+02
   3.542165e+02   7.312312e+01
   2.797145e+02   2.668559e+02
   7.178720e+01   2.805491e+02
  -1.279030e+02   1.517864e+02
  -1.670342e+02   8.862799e+00
  -4.629352e+01  -2.646187e+01
   6.157372e+01   5.079735e+01
   1.224545e+01   1.220885e+02
  -1.263171e+02   8.528503e+01
  -1.644096e+02  -1.949537e+01
  -4.342002e+01  -6.445122e+01
   8.452096e+01   1.488123e-01
   4.669473e+01   8.929731e+01
  -1.437390e+02   9.293158e+01
  -3.040389e+02  -1.358844e+01
  -2.687379e+02  -1.669966e+02
  -4.226025e+01  -2.721937e+02
   2.064081e+02  -2.530688e+02
   2.877763e+02  -1.084946e+02
   1.598287e+02   5.358201e+01
  -2.801283e+01   9.535768e+01
  -8.098057e+01  -7.671791e-02
   4.294194e+01  -9.204025e+01
   1.954797e+02  -4.441121e+01
   2.074717e+02   1.076435e+02
   6.452336e+01   2.025374e+02
  -9.642949e+01   1.483214e+02
  -1.402042e+02   2.058276e+01
  -5.695779e+01  -4.169720e+01
   4.238158e+01   1.058808e+01
   3.670693e+01   1.022356e+02
  -8.871047e+01   1.213145e+02
  -2.135570e+02   2.136719e+01
  -1.919216e+02  -1.336372e+02
  -1.428611e+01  -2.197973e+02
   1.656413e+02  -1.612958e+02
   1.887723e+02  -8.473564e+00
   6.243337e+01   1.078621e+02
  -6.436534e+01   1.062098e+02
  -7.741405e+01   2.737661e+01
  -9.054937e+00  -2.651877e+01
   3.081093e+01  -1.235440e+01
  -9.565122e+00   2.027987e+01
  -8.287880e+01  -1.075326e+00
  -1.011617e+02  -8.876628e+01
  -1.423323e+01  -1.724850e+02
   1.378018e+02  -1.578892e+02
   2.402018e+02  -1.910028e+01
   1.994365e+02   1.572347e+02
   4.025014e+01   2.371073e+02
  -1.052949e+02   1.677323e+02
  -1.340841e+02   2.811057e+01
  -7.442694e+01  -5.278770e+01
  -3.162650e+01  -3.405486e+01
  -5.300072e+01   1.510365e+01
  -8.285972e+01   9.092355e+00
  -5.072512e+01  -5.425615e+01
   4.001793e+01  -9.957629e+01
   1.151918e+02  -6.233873e+01
   1.000661e+02   4.283353e+01
  -1.491160e+01   1.239855e+02
  -1.577195e+02   8.925236e+01
  -2.076794e+02  -6.193465e+01
  -9.338329e+01  -2.120503e+02
   1.210229e+02  -2.296097e+02
   2.753543e+02  -8.896240e+01
   2.565429e+02   9.320795e+01
   1.038682e+02   1.800415e+02
  -4.335134e+01   1.461207e+02
  -9.501943e+01   8.099236e+01
  -7.588938e+01   6.741797e+01
  -6.280824e+01   9.227499e+01
  -9.269329e+01   7.819779e+01
  -1.332949e+02  -2.036447e+01
  -1.203708e+02  -1.572778e+02
  -2.632565e+01  -2.301356e+02
   1.036421e+02  -1.718008e+02
   1.762669e+02  -1.586980e+01
   1.325626e+02   1.268566e+02
   1.323711e+01   1.606486e+02
  -7.380951e+01   8.756374e+01
  -6.357936e+01  -8.082765e+00
   1.444654e-01  -5.050183e+01
   2.186096e+01  -3.672324e+01
  -2.951967e+01  -1.487600e+01
  -8.299044e+01  -1.908843e+01
  -4.975026e+01  -3.894191e+01
   6.897075e+01  -3.933844e+01
   1.694427e+02  -2.016951e-01
   1.466705e+02   6.037652e+01
   5.617720e+00   9.719398e+01
  -1.329122e+02   7.521084e+01
  -1.498676e+02   7.097302e+00
  -4.679347e+01  -4.944267e+01
   6.246858e+01  -4.310918e+01
   7.924514e+01   1.890882e+01
   1.412207e+01   7.326676e+01
  -5.179911e+01   6.358997e+01
  -6.830361e+01   5.311062e-02
  -5.330886e+01  -5.192160e+01
  -4.692541e+01  -4.428213e+01
  -5.792738e+01  -3.264115e+00
  -6.465873e+01  -1.839181e+00
  -3.998583e+01  -7.112156e+01
   2.946408e+01  -1.512169e+02
   1.226706e+02  -1.460267e+02
   1.766737e+02  -3.442597e+01
   1.308265e+02   9.465442e+01
   4.872529e+00   1.337144e+02
  -9.221319e+01   6.845732e+01
  -6.398734e+01  -1.366892e+01
   5.952193e+01  -2.370119e+01
   1.393765e+02   4.085641e+01
   7.637830e+01   1.095081e+02
  -8.240877e+01   1.149344e+02
  -1.925618e+02   5.011840e+01
  -1.618211e+02  -3.785669e+01
  -3.465634e+01  -8.683168e+01
   6.280774e+01  -6.579622e+01
   4.876184e+01  -3.073219e+00
  -3.989122e+01   2.856784e+01
  -9.234590e+01  -2.148267e+01
  -3.708725e+01  -1.176890e+02
   8.515181e+01  -1.562915e+02
   1.638182e+02  -6.784701e+01
   1.290565e+02   9.602741e+01
   1.472692e+01   1.972115e+02
  -8.489078e+01   1.448218e+02
  -1.069132e+02  -8.869133e+00
  -5.941722e+01  -1.210927e+02
   8.161713e+00  -1.065265e+02
   4.997314e+01  -1.752120e+01
   4.874460e+01   3.265155e+01
   2.103423e+01   8.113048e+00
   5.668449e+00  -1.997732e+01
   2.733005e+01   1.742663e+01
   5.782893e+01   9.011747e+01
   3.608604e+01   1.096716e+02
  -5.330435e+01   4.566294e+01
  -1.378156e+02  -3.879846e+01
  -1.261402e+02  -7.233665e+01
  -1.785854e+01  -5.300509e+01
   8.395593e+01  -2.359243e+01
   8.784713e+01  -5.173810e+00
   1.514513e+01   1.031795e+01
  -3.658633e+01   2.190014e+01
  -1.878347e+01   1.565658e+01
   1.601831e+01  -2.551026e+00
  -4.163804e+00  -8.038233e+00
  -6.871305e+01  -2.637907e+00
  -9.208256e+01  -2.296807e+01
  -1.710177e+01  -7.972858e+01
   1.115023e+02  -1.160907e+02
   1.880027e+02  -6.410174e+01
   1.497714e+02   6.125564e+01
   2.997722e+01   1.612770e+02
  -8.126069e+01   1.547323e+02
  -1.173056e+02   6.346000e+01
  -8.130835e+01  -2.105718e+01
  -2.581788e+01  -3.784748e+01
  -6.972039e-01  -1.129803e+01
  -1.338611e+01  -6.537938e+00
  -3.208086e+01  -4.907990e+01
  -1.978965e+01  -9.271588e+01
   2.964445e+01  -7.317061e+01
   7.998718e+01   1.616377e+01
   7.960797e+01   1.045696e+02
   1.121025e+01   1.112412e+02
  -7.734542e+01   2.888431e+01
  -1.050740e+02  -6.904345e+01
  -3.749098e+01  -1.035647e+02
   6.556456e+01  -6.180771e+01
   1.030455e+02   8.884621e+00
   4.431209e+01   5.596772e+01
  -3.422254e+01   5.949389e+01
  -3.810159e+01   2.998031e+01
   2.887097e+01  -4.235720e+00
   6.990313e+01  -9.000043e+00
   1.837764e+01   2.659091e+01
  -7.937344e+01   6.732345e+01
  -1.215917e+02   5.699336e+01
  -7.083856e+01  -1.482468e+01
   1.371975e+01  -8.567588e+01
   5.679920e+01  -8.350789e+01
   4.222934e+01  -1.130795e+01
   4.395755e+00   5.313522e+01
  -2.497080e+01   4.556818e+01
  -3.603925e+01  -1.432890e+01
  -2.668139e+01  -5.476141e+01
   2.516888e+00  -3.758611e+01
   3.407227e+01   6.382696e+00
   4.226000e+01   2.416207e+01
   2.193706e+01   3.957642e+00
  -2.209100e+00  -1.704095e+01
  -7.170972e+00  -3.427171e+00
  -6.475422e-01   3.438533e+01
  -6.918585e+00   5.000237e+01
  -2.909351e+01   1.690103e+01
  -3.793337e+01  -3.869317e+01
  -8.545078e+00  -6.101452e+01
   4.176213e+01  -2.491581e+01
   6.166986e+01   3.463419e+01
   1.889525e+01   6.141765e+01
  -5.623326e+01   3.589234e+01
  -9.272952e+01  -1.293276e+01
  -5.066943e+01  -4.411651e+01
   2.965508e+01  -4.435709e+01
   6.653549e+01  -2.580216e+01
   2.797178e+01  -5.627800e+00
  -3.209363e+01   2.295345e+00
  -3.609528e+01  -9.025789e+00
   2.540453e+01  -2.736535e+01
   8.340197e+01  -2.093205e+01
