
 $NMID
 id='ANONYMOUS ', fmtdat='(2E16.6)'
 volume=1.0
 tramp=1.0
 $END
  -3.870839e+03   2.195934e+01
  -2.315127e+03  -2.253701e+03
   2.197801e+02  -2.258842e+03
   1.623901e+03  -1.190795e+03
   8.985596e+02   1.065495e+02
  -2.362035e+02   2.398245e+02
  -5.398303e+02  -2.318150e+02
   8.055264e+01  -7.372475e+02
   7.540161e+02  -6.494485e+02
   7.628986e+02   2.944468e+01
   3.600584e+02   6.838340e+02
  -1.393812e+02   6.981085e+02
  -4.189425e+02   1.103209e+02
  -2.504878e+02  -5.278573e+02
   1.240680e+02  -6.096894e+02
   4.683780e+02  -2.732104e+00
   2.900823e+02   5.493333e+02
  -1.954176e+02   5.957109e+02
  -4.853860e+02   1.807312e+02
  -3.840004e+02  -2.362262e+02
  -5.743441e+01  -4.118513e+02
   1.893870e+02  -2.452740e+02
   1.203278e+02  -5.426063e+01
  -1.725721e+02  -1.813511e+01
  -3.365557e+02  -1.964115e+02
  -5.544763e+01  -3.678202e+02
   4.738234e+02  -2.583721e+02
   7.176971e+02   1.648196e+02
   2.749220e+02   4.595785e+02
  -4.228500e+02   3.208574e+02
  -6.203631e+02  -1.108718e+02
  -2.338525e+02  -4.299269e+02
   2.958225e+02  -4.331986e+02
   5.062844e+02  -1.471166e+02
   3.255956e+02   2.058032e+02
   4.519715e+01   3.690828e+02
  -9.897694e+01   1.757708e+02
  -2.275543e+01  -1.793170e+02
   2.092570e+02  -2.631008e+02
   3.114654e+02   1.328723e+02
   9.269691e+01   6.121847e+02
  -3.008555e+02   5.508275e+02
  -4.404234e+02  -1.616359e+01
  -1.762053e+02  -4.214571e+02
   2.094269e+02  -2.236047e+02
   2.623454e+02   2.823457e+02
  -8.277952e+01   4.564650e+02
  -4.793238e+02   1.003938e+02
  -5.307881e+02  -3.825332e+02
  -1.633832e+02  -5.366566e+02
   3.378228e+02  -3.063375e+02
   5.631489e+02   7.493241e+01
   3.386695e+02   3.108825e+02
  -1.058343e+02   2.707710e+02
  -3.449811e+02   5.917138e+01
  -2.065229e+02  -9.126024e+01
   5.198187e+01  -4.403307e+01
   8.181192e+01   8.407833e+01
  -1.264655e+02   8.604435e+01
  -2.640482e+02  -6.727683e+01
  -1.257344e+02  -2.149425e+02
   1.591521e+02  -2.283843e+02
   3.234837e+02  -1.176668e+02
   2.476549e+02   6.583493e+01
   4.658625e+00   2.698076e+02
  -2.492308e+02   3.632240e+02
  -3.628214e+02   2.005214e+02
  -2.672128e+02  -1.487551e+02
  -5.715486e+01  -3.869039e+02
   7.222941e+01  -3.257193e+02
   4.567260e+01  -1.239399e+02
  -3.320244e+00  -5.311642e+01
   7.503424e+01  -1.218905e+02
   2.257403e+02  -1.071049e+02
   2.624342e+02   8.314575e+01
   1.129653e+02   2.620389e+02
  -1.027748e+02   2.153212e+02
  -2.158029e+02  -3.107236e+01
  -1.526222e+02  -2.562508e+02
   5.243743e+01  -2.727490e+02
   2.636956e+02  -8.149018e+01
   3.174059e+02   1.738827e+02
   1.599046e+02   3.138017e+02
  -6.930174e+01   2.696106e+02
  -1.734232e+02   1.317934e+02
  -1.320077e+02   5.377948e+01
  -1.272551e+02   6.373185e+01
  -2.624801e+02   5.362176e+01
  -3.988085e+02  -7.557760e+01
  -3.152060e+02  -2.827756e+02
   8.128256e+00  -4.269933e+02
   3.548076e+02  -3.960861e+02
   4.695314e+02  -1.792428e+02
   3.035084e+02   1.065961e+02
   2.979517e+01   2.695304e+02
  -1.170597e+02   2.070728e+02
  -4.517017e+01   1.642483e+01
   1.187855e+02  -7.314499e+01
   1.592726e+02   3.527864e+01
   1.653602e+01   1.703212e+02
  -1.436742e+02   1.232995e+02
  -1.304124e+02  -6.786984e+01
   4.061119e+01  -1.584528e+02
   1.827562e+02  -8.631057e+00
   1.539818e+02   2.404785e+02
  -2.584133e+01   3.431869e+02
  -2.311584e+02   2.069542e+02
  -3.394244e+02  -4.981009e+01
  -2.808741e+02  -2.459002e+02
  -7.910483e+01  -2.726142e+02
   1.226416e+02  -1.503185e+02
   1.626951e+02  -6.830293e+00
   4.117585e+01   2.758176e+01
  -6.410030e+01  -5.177077e+01
  -1.219566e+01  -1.218450e+02
   1.249836e+02  -8.027212e+01
   1.591386e+02   2.462656e+01
   3.745182e+01   6.569608e+01
  -8.785383e+01  -9.659315e-01
  -4.961677e+01  -8.997051e+01
   1.384671e+02  -9.655757e+01
   2.973890e+02   5.061710e+00
   2.639460e+02   1.573534e+02
   4.167667e+01   2.664269e+02
  -2.013041e+02   2.495279e+02
  -2.767995e+02   1.045252e+02
  -1.483088e+02  -5.652257e+01
   3.322716e+01  -9.412468e+01
   7.828912e+01   2.804114e+00
  -4.537982e+01   9.224180e+01
  -1.900308e+02   4.302526e+01
  -1.962323e+02  -1.046639e+02
  -5.715311e+01  -1.939732e+02
   9.492039e+01  -1.397337e+02
   1.336364e+02  -1.602046e+01
   5.190647e+01   4.368773e+01
  -4.422705e+01  -8.359886e+00
  -3.860028e+01  -1.003125e+02
   8.363186e+01  -1.207548e+02
   2.052429e+02  -2.351429e+01
   1.853357e+02   1.282048e+02
   1.445511e+01   2.110862e+02
  -1.583281e+02   1.532727e+02
  -1.792181e+02   6.385892e+00
  -5.674717e+01  -1.034459e+02
   6.458569e+01  -1.004648e+02
   7.586271e+01  -2.546501e+01
   8.142895e+00   2.697069e+01
  -3.345966e+01   1.390496e+01
   5.761038e+00  -1.883950e+01
   8.119736e+01  -1.194261e+00
   1.031845e+02   8.290518e+01
   1.854228e+01   1.668042e+02
  -1.328975e+02   1.557191e+02
  -2.364076e+02   2.114535e+01
  -1.951141e+02  -1.511446e+02
  -3.885396e+01  -2.288734e+02
   1.016402e+02  -1.600229e+02
   1.283664e+02  -2.715215e+01
   7.057659e+01   4.847642e+01
   3.006775e+01   2.885381e+01
   5.149582e+01  -1.767007e+01
   8.115625e+01  -1.016621e+01
   5.146916e+01   5.210034e+01
  -3.584118e+01   9.929527e+01
  -1.099697e+02   6.561874e+01
  -9.885540e+01  -3.951868e+01
   1.164994e+01  -1.243641e+02
   1.531228e+02  -9.228210e+01
   2.039825e+02   5.699563e+01
   9.455492e+01   2.071689e+02
  -1.142141e+02   2.246397e+02
  -2.650059e+02   8.751392e+01
  -2.470454e+02  -8.786239e+01
  -9.969755e+01  -1.710557e+02
   4.134755e+01  -1.402831e+02
   8.948892e+01  -7.909542e+01
   7.022246e+01  -6.597740e+01
   5.763439e+01  -9.017577e+01
   8.840673e+01  -7.746417e+01
   1.292325e+02   1.688628e+01
   1.187949e+02   1.504474e+02
   2.907225e+01   2.231164e+02
  -9.837015e+01   1.671767e+02
  -1.725670e+02   1.481174e+01
  -1.326955e+02  -1.239615e+02
  -1.513154e+01  -1.565203e+02
   7.329016e+01  -8.624905e+01
   6.575843e+01   6.409931e+00
   2.759870e+00   4.933316e+01
  -2.136643e+01   3.774894e+01
   2.650355e+01   1.591534e+01
   7.933635e+01   1.781845e+01
   4.864219e+01   3.683763e+01
  -6.667443e+01   3.979818e+01
  -1.658764e+02   4.027560e+00
  -1.446440e+02  -5.671124e+01
  -7.615901e+00  -9.615813e+01
   1.272070e+02  -7.623433e+01
   1.441530e+02  -8.584668e+00
   4.617424e+01   4.780600e+01
  -5.820694e+01   4.182703e+01
  -7.580088e+01  -1.751576e+01
  -1.612120e+01  -6.876130e+01
   4.619796e+01  -6.042331e+01
   6.373305e+01  -1.890189e+00
   5.202556e+01   4.703233e+01
   4.616145e+01   4.087867e+01
   5.578889e+01   2.806904e+00
   6.310394e+01   4.569399e-01
   4.155424e+01   6.665389e+01
  -2.466582e+01   1.458524e+02
  -1.166362e+02   1.446807e+02
  -1.713278e+02   3.887078e+01
  -1.286953e+02  -8.786525e+01
  -7.301566e+00  -1.290053e+02
   8.652201e+01  -6.845512e+01
   6.024279e+01   1.036677e+01
  -5.661484e+01   2.127496e+01
  -1.326891e+02  -3.920686e+01
  -7.228101e+01  -1.040089e+02
   7.953448e+01  -1.097479e+02
   1.853295e+02  -4.816054e+01
   1.561645e+02   3.666260e+01
   3.333210e+01   8.500980e+01
  -6.163383e+01   6.493970e+01
  -4.908256e+01   2.883876e+00
   3.615587e+01  -2.957767e+01
   8.785359e+01   1.824267e+01
   3.722576e+01   1.118588e+02
  -7.859594e+01   1.505242e+02
  -1.549143e+02   6.639596e+01
  -1.247465e+02  -9.118889e+01
  -1.685868e+01  -1.894403e+02
   8.049018e+01  -1.403128e+02
   1.048564e+02   7.400097e+00
   5.952140e+01   1.168345e+02
  -7.735850e+00   1.044599e+02
  -4.966825e+01   1.858017e+01
  -4.758297e+01  -3.140691e+01
  -1.927262e+01  -9.058737e+00
  -5.045093e+00   1.865294e+01
  -2.758236e+01  -1.633724e+01
  -5.734643e+01  -8.598912e+01
  -3.560535e+01  -1.053223e+02
   5.100963e+01  -4.513143e+01
   1.330296e+02   3.497872e+01
   1.225613e+02   6.728614e+01
   1.925101e+01   5.006659e+01
  -7.968068e+01   2.352685e+01
  -8.458119e+01   6.369274e+00
  -1.496306e+01  -9.330733e+00
   3.583910e+01  -2.097750e+01
   1.907024e+01  -1.447458e+01
  -1.581313e+01   3.740109e+00
   2.157559e+00   8.098852e+00
   6.468735e+01   6.998329e-01
   8.895205e+01   1.906712e+01
   1.876845e+01   7.504070e+01
  -1.041409e+02   1.132359e+02
  -1.789382e+02   6.581015e+01
  -1.449550e+02  -5.485015e+01
  -3.262860e+01  -1.536982e+02
   7.343551e+01  -1.505597e+02
   1.102329e+02  -6.434659e+01
   7.846789e+01   1.751382e+01
   2.652467e+01   3.518550e+01
   1.647308e+00   1.075547e+01
   1.304868e+01   6.431922e+00
   3.147926e+01   4.665192e+01
   2.028680e+01   8.832920e+01
  -2.721627e+01   6.997629e+01
  -7.667886e+01  -1.436283e+01
  -7.787609e+01  -9.814994e+01
  -1.299787e+01  -1.054500e+02
   7.246915e+01  -2.893216e+01
   1.010856e+02   6.324396e+01
   3.815683e+01   9.758929e+01
  -6.093943e+01   6.021156e+01
  -9.911155e+01  -6.190450e+00
  -4.463076e+01  -5.234541e+01
   3.070271e+01  -5.772885e+01
   3.616998e+01  -3.036210e+01
  -2.684669e+01   2.686006e+00
  -6.638859e+01   8.431817e+00
  -1.767599e+01  -2.505473e+01
   7.555683e+01  -6.479470e+01
   1.160391e+02  -5.629235e+01
   6.820539e+01   1.223244e+01
  -1.158798e+01   8.148271e+01
  -5.194434e+01   8.120996e+01
  -3.909153e+01   1.252896e+01
  -5.253927e+00  -4.984719e+01
   2.166486e+01  -4.394938e+01
   3.382561e+01   1.259925e+01
   2.721565e+01   5.158032e+01
   2.894559e-02   3.552745e+01
  -3.214447e+01  -5.891799e+00
  -4.124577e+01  -2.250088e+01
  -2.065653e+01  -3.178343e+00
   4.515743e+00   1.639966e+01
   9.171329e+00   3.967561e+00
   3.676950e-01  -3.070314e+01
   4.016563e+00  -4.534360e+01
   2.502681e+01  -1.549154e+01
   3.538152e+01   3.516693e+01
   8.422698e+00   5.601744e+01
  -3.980356e+01   2.353491e+01
  -5.950990e+01  -3.174572e+01
  -1.877579e+01  -5.874415e+01
   5.375067e+01  -3.678134e+01
   8.949081e+01   9.262765e+00
   5.000483e+01   4.136834e+01
  -2.658632e+01   4.405524e+01
  -6.245996e+01   2.661429e+01
  -2.656941e+01   6.509593e+00
   2.964798e+01  -1.708678e+00
   3.324698e+01   8.927628e+00
  -2.464743e+01   2.620051e+01
  -7.919303e+01   1.998211e+01
