
 $NMID
 id='ANONYMOUS ', fmtdat='(2E16.6)'
 volume=1.0
 tramp=1.0
 $END
  -4.647084e+03   1.392807e+02
  -2.740672e+03  -2.805944e+03
   8.808631e+02  -2.809612e+03
   1.982138e+03  -8.982369e+02
   8.864467e+02   5.699673e+02
  -6.890495e+02   5.016818e+02
  -9.259223e+02  -4.948419e+02
  -1.835297e+01  -1.054395e+03
   9.158172e+02  -8.351826e+02
   9.890662e+02   1.148781e+02
   4.078476e+02   8.968814e+02
  -2.118998e+02   9.770911e+02
  -5.624026e+02   2.174634e+02
  -4.428715e+02  -7.077598e+02
   2.307281e+02  -7.379814e+02
   6.019408e+02   4.955930e+01
   2.746991e+02   6.710972e+02
  -3.470955e+02   6.393646e+02
  -6.155072e+02   1.015408e+02
  -3.818601e+02  -3.497787e+02
  -1.003065e+01  -4.261166e+02
   2.535507e+02  -2.840448e+02
   2.229391e+02  -2.614254e+01
  -1.244819e+02   8.588236e+01
  -4.023919e+02  -9.287533e+01
  -1.881198e+02  -4.087231e+02
   4.434562e+02  -4.105926e+02
   8.406408e+02   8.136509e+01
   4.266825e+02   5.593673e+02
  -4.104302e+02   5.009961e+02
  -7.613004e+02  -4.701307e+01
  -3.574394e+02  -5.197378e+02
   3.012939e+02  -5.426851e+02
   5.957957e+02  -1.970029e+02
   4.226561e+02   2.583902e+02
   5.547928e+01   4.945748e+02
  -2.260411e+02   2.855259e+02
  -1.880505e+02  -2.290579e+02
   1.944729e+02  -4.547625e+02
   4.858424e+02   2.131789e+01
   2.476962e+02   7.159275e+02
  -3.538916e+02   7.354304e+02
  -6.481014e+02   7.321820e+00
  -2.732106e+02  -5.870859e+02
   3.222391e+02  -3.446793e+02
   4.059660e+02   3.354779e+02
  -7.341274e+01   5.779508e+02
  -5.840472e+02   1.450945e+02
  -6.183842e+02  -4.414245e+02
  -1.563411e+02  -6.278480e+02
   4.119089e+02  -3.601036e+02
   6.600152e+02   9.046094e+01
   3.879045e+02   4.177503e+02
  -1.629088e+02   3.880627e+02
  -4.632693e+02   5.177054e+01
  -2.497358e+02  -2.088932e+02
   1.329656e+02  -1.047596e+02
   1.631239e+02   1.710716e+02
  -1.681302e+02   1.968376e+02
  -3.713551e+02  -8.567761e+01
  -1.546509e+02  -3.177479e+02
   2.218025e+02  -2.622326e+02
   3.606721e+02  -5.954822e+01
   2.088150e+02   1.009054e+02
  -3.482974e+01   2.336400e+02
  -2.381907e+02   3.328960e+02
  -3.534599e+02   2.208241e+02
  -3.039343e+02  -1.465853e+02
  -8.422775e+01  -4.535793e+02
   1.192229e+02  -3.933688e+02
   1.251432e+02  -1.084426e+02
   2.006285e+01   1.393562e+01
   3.574764e+01  -9.813224e+01
   1.974101e+02  -1.450138e+02
   2.894338e+02   4.877689e+01
   1.645292e+02   2.802298e+02
  -7.835622e+01   2.645389e+02
  -2.401497e+02   4.425026e+00
  -2.014930e+02  -2.535301e+02
   1.801375e+01  -3.027407e+02
   2.783492e+02  -1.183482e+02
   3.696338e+02   1.732578e+02
   1.877978e+02   3.602251e+02
  -1.037417e+02   3.116492e+02
  -2.317049e+02   1.215760e+02
  -1.521774e+02   3.049956e+00
  -9.852288e+01   3.708895e+01
  -2.387543e+02   6.894379e+01
  -4.092992e+02  -5.951509e+01
  -3.387287e+02  -2.946650e+02
   1.034153e+00  -4.519765e+02
   3.671656e+02  -4.192694e+02
   5.005052e+02  -2.038561e+02
   3.480844e+02   9.631050e+01
   5.677293e+01   3.018415e+02
  -1.383747e+02   2.588129e+02
  -8.874594e+01   2.552968e+01
   1.150929e+02  -1.149314e+02
   2.088145e+02   1.001252e+01
   5.289266e+01   2.111829e+02
  -1.723541e+02   1.814468e+02
  -1.874767e+02  -6.685510e+01
   2.207058e+01  -2.062939e+02
   2.033380e+02  -3.549568e+01
   1.629656e+02   2.576975e+02
  -4.098585e+01   3.589890e+02
  -2.362920e+02   1.943110e+02
  -3.263078e+02  -6.656387e+01
  -2.794938e+02  -2.449500e+02
  -9.875420e+01  -2.711331e+02
   1.143208e+02  -1.675402e+02
   1.841692e+02  -2.324026e+01
   6.220757e+01   3.397573e+01
  -7.265661e+01  -3.904474e+01
  -3.076479e+01  -1.292724e+02
   1.303616e+02  -1.035057e+02
   1.874123e+02   1.351778e+01
   6.128774e+01   7.644180e+01
  -8.306305e+01   1.868472e+01
  -5.705098e+01  -7.480220e+01
   1.260771e+02  -9.006532e+01
   2.869522e+02  -2.579271e-01
   2.680769e+02   1.452233e+02
   6.133740e+01   2.661540e+02
  -1.901193e+02   2.714218e+02
  -2.952420e+02   1.271696e+02
  -1.793274e+02  -6.113564e+01
   2.501807e+01  -1.187576e+02
   9.655641e+01  -7.263107e+00
  -3.206905e+01   1.091278e+02
  -2.029711e+02   6.211404e+01
  -2.220848e+02  -1.092219e+02
  -7.196914e+01  -2.177637e+02
   9.879300e+01  -1.633314e+02
   1.504020e+02  -2.972596e+01
   7.399497e+01   4.266423e+01
  -2.865486e+01   3.976573e+00
  -4.016152e+01  -8.263551e+01
   7.104441e+01  -1.139059e+02
   2.017806e+02  -3.066746e+01
   1.967913e+02   1.253043e+02
   2.133633e+01   2.246011e+02
  -1.723108e+02   1.694922e+02
  -2.032354e+02   3.944795e+00
  -6.862376e+01  -1.226329e+02
   7.052700e+01  -1.172578e+02
   8.901658e+01  -3.106642e+01
   2.229201e+01   2.718619e+01
  -2.047958e+01   1.917291e+01
   9.416393e+00  -7.208140e+00
   7.112895e+01   1.073197e+01
   8.985002e+01   8.385431e+01
   1.751055e+01   1.601382e+02
  -1.270752e+02   1.563445e+02
  -2.405597e+02   3.041053e+01
  -2.092188e+02  -1.502554e+02
  -4.331874e+01  -2.436608e+02
   1.128149e+02  -1.757274e+02
   1.387366e+02  -2.814212e+01
   6.913521e+01   5.753435e+01
   2.738129e+01   3.594880e+01
   5.473647e+01  -1.401467e+01
   8.140367e+01  -7.029130e+00
   4.131179e+01   4.969752e+01
  -4.269935e+01   8.693756e+01
  -1.002660e+02   5.391561e+01
  -8.321103e+01  -3.641225e+01
   1.318242e+01  -1.104766e+02
   1.421310e+02  -8.653678e+01
   2.014529e+02   4.996912e+01
   1.058628e+02   2.043648e+02
  -1.067932e+02   2.357589e+02
  -2.743431e+02   1.012717e+02
  -2.654249e+02  -8.787215e+01
  -1.115281e+02  -1.841394e+02
   4.198962e+01  -1.530778e+02
   9.766843e+01  -8.503962e+01
   8.130884e+01  -6.874314e+01
   6.839759e+01  -9.114810e+01
   9.405304e+01  -7.502045e+01
   1.307601e+02   2.263630e+01
   1.210236e+02   1.569875e+02
   3.176883e+01   2.310428e+02
  -1.006386e+02   1.769411e+02
  -1.817589e+02   2.234866e+01
  -1.431365e+02  -1.243174e+02
  -2.181143e+01  -1.647862e+02
   6.968944e+01  -9.691699e+01
   6.422106e+01  -2.687440e+00
   7.404158e+00   4.258919e+01
  -9.671215e+00   3.514693e+01
   3.669234e+01   1.883114e+01
   8.057798e+01   2.335650e+01
   4.680945e+01   3.935865e+01
  -6.241729e+01   3.911737e+01
  -1.588239e+02   5.476783e+00
  -1.462365e+02  -4.975420e+01
  -1.773992e+01  -8.888757e+01
   1.209903e+02  -7.502556e+01
   1.466954e+02  -1.320936e+01
   4.810947e+01   4.210361e+01
  -6.269532e+01   3.798984e+01
  -7.756016e+01  -1.981193e+01
  -6.629079e+00  -7.004964e+01
   5.758022e+01  -5.905666e+01
   6.360910e+01   2.323005e+00
   4.341721e+01   5.143219e+01
   4.350141e+01   4.325947e+01
   6.180800e+01   2.731692e+00
   6.607290e+01  -5.219828e-01
   3.513243e+01   6.654158e+01
  -3.188284e+01   1.465663e+02
  -1.151405e+02   1.439144e+02
  -1.651635e+02   3.516500e+01
  -1.263598e+02  -9.133495e+01
  -8.662687e+00  -1.275427e+02
   8.683525e+01  -6.180506e+01
   6.141838e+01   1.610197e+01
  -5.994545e+01   2.110474e+01
  -1.408221e+02  -4.415737e+01
  -7.861915e+01  -1.094703e+02
   8.107725e+01  -1.150867e+02
   1.938266e+02  -5.387564e+01
   1.657929e+02   3.378760e+01
   3.868272e+01   8.880930e+01
  -6.151134e+01   7.323674e+01
  -5.073946e+01   8.710645e+00
   3.736881e+01  -2.744924e+01
   9.021707e+01   2.160392e+01
   3.334626e+01   1.192009e+02
  -9.154268e+01   1.559715e+02
  -1.690935e+02   6.356426e+01
  -1.292431e+02  -1.012833e+02
  -1.196923e+01  -2.001660e+02
   8.601067e+01  -1.470885e+02
   1.068734e+02   5.663751e+00
   6.300780e+01   1.195212e+02
  -8.244537e-01   1.091752e+02
  -4.690299e+01   2.132533e+01
  -5.407027e+01  -3.204093e+01
  -2.728178e+01  -9.304726e+00
  -4.065983e+00   2.142923e+01
  -2.064075e+01  -1.403675e+01
  -5.674006e+01  -8.940184e+01
  -4.332426e+01  -1.118804e+02
   4.714271e+01  -4.683201e+01
   1.401190e+02   3.980472e+01
   1.315144e+02   7.182459e+01
   1.743651e+01   4.993897e+01
  -8.939525e+01   2.237509e+01
  -8.910517e+01   8.095072e+00
  -1.015739e+01  -7.440078e+00
   3.982852e+01  -2.348535e+01
   1.454339e+01  -1.889711e+01
  -2.168338e+01   2.596361e+00
   5.512443e+00   1.099123e+01
   7.442509e+01   4.386141e+00
   9.175931e+01   2.277625e+01
   8.359873e+00   7.980807e+01
  -1.188912e+02   1.154911e+02
  -1.862312e+02   5.989396e+01
  -1.427084e+02  -6.767671e+01
  -2.694046e+01  -1.639270e+02
   7.876073e+01  -1.515247e+02
   1.153324e+02  -5.884573e+01
   8.206941e+01   2.218537e+01
   2.532350e+01   3.594695e+01
  -3.678308e+00   8.608121e+00
   9.955441e+00   3.548041e+00
   3.409351e+01   4.563830e+01
   2.373133e+01   9.072502e+01
  -2.931327e+01   7.272075e+01
  -8.203910e+01  -1.836306e+01
  -7.755880e+01  -1.090706e+02
  -3.730424e+00  -1.128172e+02
   8.285955e+01  -2.320538e+01
   1.029240e+02   7.649615e+01
   3.161987e+01   1.036015e+02
  -6.663478e+01   5.474770e+01
  -9.783390e+01  -1.230138e+01
  -3.902355e+01  -5.009478e+01
   3.286312e+01  -5.145858e+01
   3.113537e+01  -2.866676e+01
  -3.461040e+01  -4.057145e-01
  -7.005316e+01   6.507811e+00
  -1.498894e+01  -2.519413e+01
   8.025137e+01  -6.717847e+01
   1.170791e+02  -6.047809e+01
   6.517467e+01   1.112505e+01
  -1.485500e+01   8.380108e+01
  -5.183864e+01   8.091744e+01
  -3.585823e+01   6.861451e+00
  -7.289884e-01  -5.480916e+01
   2.550182e+01  -4.147841e+01
   3.542130e+01   1.936651e+01
   2.544817e+01   5.402739e+01
  -3.589780e+00   3.211530e+01
  -3.354355e+01  -8.760173e+00
  -3.973210e+01  -2.082977e+01
  -2.068985e+01  -1.043374e+00
   7.007049e-01   1.301114e+01
   7.841722e+00  -4.262212e+00
   8.290831e+00  -3.679770e+01
   1.800290e+01  -4.320671e+01
   3.209692e+01  -5.196699e+00
   2.847214e+01   4.667527e+01
  -4.108726e+00   6.152129e+01
  -4.603576e+01   1.999352e+01
  -5.720459e+01  -4.041701e+01
  -1.529457e+01  -6.471473e+01
   5.459582e+01  -3.536752e+01
   8.975164e+01   1.492107e+01
   5.032176e+01   4.441438e+01
  -2.888647e+01   4.090678e+01
  -6.619850e+01   2.099927e+01
  -2.470761e+01   3.854025e+00
   3.843802e+01   1.906841e+00
   3.904168e+01   1.619438e+01
  -3.115592e+01   3.166600e+01
  -9.272758e+01   1.925281e+01
