
 $NMID
 id='ANONYMOUS ', fmtdat='(2E16.6)'
 volume=1.0
 tramp=1.0
 $END
   4.210661e+03   1.127145e+02
   2.346439e+03   2.237474e+03
  -4.979170e+02   2.645184e+03
  -2.053337e+03   1.112218e+03
  -8.855767e+02  -1.788621e+02
   5.294519e+02  -6.271849e+02
   8.286712e+02   4.155330e+02
   3.317174e+01   1.033417e+03
  -6.796566e+02   8.990333e+02
  -9.305037e+02   3.193225e+00
  -4.572905e+02  -8.625235e+02
   2.363599e+02  -1.003533e+03
   5.435260e+02  -1.180792e+02
   2.805657e+02   6.959725e+02
  -2.933677e+02   7.396262e+02
  -5.665743e+02   1.368058e+01
  -2.789214e+02  -6.240113e+02
   2.991678e+02  -6.814124e+02
   5.809914e+02  -1.396406e+02
   4.228699e+02   3.212693e+02
   4.629383e+01   4.313073e+02
  -2.200142e+02   2.536476e+02
  -2.043839e+02   1.152682e+01
   9.743377e+01  -5.703869e+01
   4.065801e+02   1.838302e+02
   1.751416e+02   4.469255e+02
  -4.754038e+02   4.010943e+02
  -8.153048e+02  -7.567233e+01
  -4.299381e+02  -5.092907e+02
   3.544252e+02  -4.259104e+02
   7.311184e+02   1.885251e+01
   3.529314e+02   4.608270e+02
  -2.682527e+02   5.059541e+02
  -5.528961e+02   2.221812e+02
  -4.263811e+02  -2.255063e+02
  -8.158685e+01  -4.688569e+02
   1.701318e+02  -3.177850e+02
   1.466428e+02   1.585795e+02
  -1.568461e+02   3.847487e+02
  -3.947835e+02  -2.198745e+01
  -2.125314e+02  -6.477922e+02
   3.056369e+02  -6.778998e+02
   5.766645e+02  -3.240143e+01
   2.588348e+02   4.998687e+02
  -2.557008e+02   2.877635e+02
  -3.510809e+02  -3.128150e+02
   7.359874e+01  -5.142348e+02
   5.435220e+02  -1.246627e+02
   5.979933e+02   3.978502e+02
   1.803837e+02   5.700595e+02
  -3.734188e+02   3.361810e+02
  -6.324199e+02  -6.856305e+01
  -3.841846e+02  -3.621586e+02
   1.346705e+02  -3.497388e+02
   4.354364e+02  -6.935099e+01
   2.614169e+02   1.659380e+02
  -8.637819e+01   9.404858e+01
  -1.308461e+02  -1.456082e+02
   1.552880e+02  -1.783333e+02
   3.433672e+02   7.487509e+01
   1.554897e+02   3.104926e+02
  -1.994614e+02   2.853895e+02
  -3.566681e+02   9.060438e+01
  -2.288088e+02  -9.706442e+01
   2.089283e+01  -2.512700e+02
   2.382397e+02  -3.453531e+02
   3.467658e+02  -2.281709e+02
   2.867315e+02   1.281209e+02
   8.375323e+01   4.339141e+02
  -9.440205e+01   3.996761e+02
  -1.078371e+02   1.399193e+02
  -3.720756e+01   4.748639e+00
  -6.592782e+01   8.054295e+01
  -2.054627e+02   1.143655e+02
  -2.755891e+02  -5.738772e+01
  -1.577044e+02  -2.628668e+02
   6.348774e+01  -2.465881e+02
   2.169631e+02  -7.968334e+00
   1.943432e+02   2.368196e+02
  -6.837914e+00   2.903637e+02
  -2.660113e+02   1.178620e+02
  -3.713658e+02  -1.648244e+02
  -2.054551e+02  -3.498173e+02
   8.501012e+01  -3.159285e+02
   2.273425e+02  -1.398287e+02
   1.641688e+02  -2.333407e+01
   1.144657e+02  -4.070254e+01
   2.448080e+02  -5.811001e+01
   4.128259e+02   6.686294e+01
   3.381424e+02   2.956539e+02
  -4.989172e+00   4.560975e+02
  -3.697022e+02   4.225063e+02
  -4.967281e+02   2.079238e+02
  -3.381116e+02  -8.832772e+01
  -6.063426e+01  -2.956121e+02
   1.209372e+02  -2.609800e+02
   7.631202e+01  -4.388075e+01
  -1.021676e+02   9.752696e+01
  -1.883548e+02  -3.981247e-01
  -5.307366e+01  -1.826090e+02
   1.477830e+02  -1.665243e+02
   1.733424e+02   5.301018e+01
  -9.985951e+00   1.848654e+02
  -1.898870e+02   3.209333e+01
  -1.723405e+02  -2.466016e+02
   2.206195e+01  -3.557128e+02
   2.365812e+02  -2.022578e+02
   3.437229e+02   6.265026e+01
   2.884596e+02   2.477114e+02
   9.364383e+01   2.725844e+02
  -1.175274e+02   1.649467e+02
  -1.795864e+02   2.528915e+01
  -6.265782e+01  -2.671452e+01
   6.227037e+01   4.108150e+01
   2.399129e+01   1.226322e+02
  -1.232898e+02   9.747454e+01
  -1.755798e+02  -1.106415e+01
  -5.810998e+01  -6.902401e+01
   7.809000e+01  -1.469798e+01
   5.345656e+01   7.366398e+01
  -1.270610e+02   8.767623e+01
  -2.895898e+02  -3.851130e-01
  -2.706684e+02  -1.419530e+02
  -6.099106e+01  -2.578895e+02
   1.899321e+02  -2.638686e+02
   2.885005e+02  -1.304492e+02
   1.705820e+02   4.714808e+01
  -2.625189e+01   1.085746e+02
  -9.138098e+01   1.229041e+01
   3.321452e+01  -9.733198e+01
   1.961101e+02  -6.035120e+01
   2.151485e+02   9.799821e+01
   7.311647e+01   2.069751e+02
  -9.163959e+01   1.626263e+02
  -1.449367e+02   3.400143e+01
  -7.412976e+01  -3.928877e+01
   2.458748e+01  -1.935125e+00
   3.555505e+01   8.459543e+01
  -7.285270e+01   1.140911e+02
  -2.006273e+02   2.895181e+01
  -1.960920e+02  -1.243662e+02
  -2.529739e+01  -2.207485e+02
   1.640292e+02  -1.689773e+02
   1.981322e+02  -1.235009e+01
   7.021777e+01   1.118154e+02
  -6.454193e+01   1.135887e+02
  -8.354344e+01   3.529973e+01
  -1.886520e+01  -2.279190e+01
   2.177897e+01  -1.754947e+01
  -1.023711e+01   7.931033e+00
  -7.287195e+01  -9.434372e+00
  -8.983808e+01  -8.398384e+01
  -1.365591e+01  -1.604812e+02
   1.286592e+02  -1.525268e+02
   2.355929e+02  -2.332972e+01
   2.043787e+02   1.532412e+02
   4.429708e+01   2.412126e+02
  -1.088254e+02   1.749328e+02
  -1.396673e+02   3.002937e+01
  -7.569675e+01  -5.548868e+01
  -3.292560e+01  -3.831559e+01
  -5.586723e+01   9.228626e+00
  -8.296762e+01   4.542479e+00
  -4.289573e+01  -5.196439e+01
   4.473525e+01  -9.201980e+01
   1.086508e+02  -5.894307e+01
   9.007227e+01   3.550626e+01
  -1.439868e+01   1.143304e+02
  -1.467876e+02   8.997362e+01
  -2.018761e+02  -5.022766e+01
  -1.020374e+02  -2.058203e+02
   1.074586e+02  -2.345112e+02
   2.704760e+02  -1.011024e+02
   2.633293e+02   8.472579e+01
   1.156153e+02   1.794292e+02
  -3.630418e+01   1.519891e+02
  -9.555172e+01   8.807034e+01
  -8.134961e+01   7.304598e+01
  -6.859990e+01   9.520775e+01
  -9.536906e+01   7.800070e+01
  -1.328307e+02  -2.175686e+01
  -1.216265e+02  -1.581407e+02
  -3.080343e+01  -2.323369e+02
   1.006348e+02  -1.765822e+02
   1.778960e+02  -2.078346e+01
   1.370582e+02   1.251924e+02
   1.789555e+01   1.634532e+02
  -6.904577e+01   9.293665e+01
  -6.051217e+01  -2.764922e+00
  -3.723632e+00  -4.711410e+01
   1.171674e+01  -3.621304e+01
  -3.647140e+01  -1.682882e+01
  -8.045255e+01  -2.139628e+01
  -4.439299e+01  -3.885775e+01
   6.739721e+01  -3.797493e+01
   1.628154e+02  -2.214509e+00
   1.454707e+02   5.404273e+01
   1.350555e+01   9.204207e+01
  -1.246534e+02   7.677662e+01
  -1.483681e+02   1.434849e+01
  -4.937777e+01  -4.238453e+01
   6.138140e+01  -3.935940e+01
   7.809308e+01   1.916350e+01
   8.968855e+00   7.113215e+01
  -5.674300e+01   6.073847e+01
  -6.641206e+01  -1.665795e+00
  -4.690980e+01  -5.137423e+01
  -4.479948e+01  -4.209137e+01
  -6.250077e+01  -1.583820e+00
  -6.853115e+01  -1.647355e+00
  -3.718106e+01  -7.202423e+01
   3.393790e+01  -1.507058e+02
   1.212795e+02  -1.433694e+02
   1.699057e+02  -3.179701e+01
   1.260902e+02   9.456370e+01
   5.305109e+00   1.300897e+02
  -8.996635e+01   6.461581e+01
  -6.332619e+01  -1.434267e+01
   5.852242e+01  -2.215797e+01
   1.392348e+02   4.114506e+01
   7.774727e+01   1.075055e+02
  -8.114274e+01   1.142474e+02
  -1.935421e+02   5.327848e+01
  -1.647584e+02  -3.443916e+01
  -3.739661e+01  -8.720919e+01
   6.181913e+01  -6.906880e+01
   4.844894e+01  -5.166914e+00
  -4.215435e+01   2.809587e+01
  -9.484463e+01  -2.337970e+01
  -3.552300e+01  -1.223970e+02
   9.191211e+01  -1.598662e+02
   1.703487e+02  -6.663369e+01
   1.301179e+02   1.004303e+02
   1.220810e+01   2.012257e+02
  -8.558860e+01   1.474508e+02
  -1.056717e+02  -6.915384e+00
  -6.096884e+01  -1.198518e+02
   2.489836e+00  -1.071313e+02
   4.667214e+01  -1.960390e+01
   5.174898e+01   3.084993e+01
   2.517191e+01   7.368477e+00
   4.223506e+00  -2.048496e+01
   2.231257e+01   1.764440e+01
   5.747091e+01   9.130517e+01
   4.163907e+01   1.107514e+02
  -4.980460e+01   4.524146e+01
  -1.421101e+02  -3.999930e+01
  -1.325215e+02  -7.230072e+01
  -1.808778e+01  -5.193317e+01
   8.905875e+01  -2.402259e+01
   8.997807e+01  -7.857444e+00
   1.208185e+01   8.136213e+00
  -3.811059e+01   2.243449e+01
  -1.437590e+01   1.762788e+01
   2.097586e+01  -1.332121e+00
  -6.399744e+00  -7.983694e+00
  -7.605541e+01  -3.486069e+00
  -9.421485e+01  -2.542671e+01
  -9.711662e+00  -8.357281e+01
   1.212625e+02  -1.174825e+02
   1.916779e+02  -5.976946e+01
   1.468677e+02   6.911317e+01
   2.655955e+01   1.659806e+02
  -8.198504e+01   1.539511e+02
  -1.174887e+02   6.027043e+01
  -8.213914e+01  -2.217257e+01
  -2.553657e+01  -3.640362e+01
   2.227517e+00  -8.917121e+00
  -1.091967e+01  -4.330923e+00
  -3.319597e+01  -4.755221e+01
  -2.231393e+01  -9.307141e+01
   3.015518e+01  -7.375560e+01
   8.299861e+01   1.880256e+01
   7.970962e+01   1.108140e+02
   5.859229e+00   1.153658e+02
  -8.365353e+01   2.593562e+01
  -1.062081e+02  -7.593548e+01
  -3.356675e+01  -1.063302e+02
   6.829462e+01  -5.827011e+01
   1.011540e+02   1.200272e+01
   4.048134e+01   5.363459e+01
  -3.429622e+01   5.505304e+01
  -3.311177e+01   2.891604e+01
   3.403399e+01  -1.834537e+00
   7.074540e+01  -7.663165e+00
   1.554966e+01   2.583921e+01
  -8.089843e+01   6.754076e+01
  -1.183230e+02   5.888540e+01
  -6.555003e+01  -1.340727e+01
   1.664468e+01  -8.541792e+01
   5.558543e+01  -8.099617e+01
   3.925890e+01  -5.385314e+00
   1.893752e+00   5.807747e+01
  -2.718918e+01   4.502263e+01
  -3.866622e+01  -1.841329e+01
  -2.807434e+01  -5.677598e+01
   2.928511e+00  -3.554062e+01
   3.456206e+01   8.375246e+00
   4.135449e+01   2.246686e+01
   2.128956e+01   1.118020e+00
  -1.075482e+00  -1.678087e+01
  -6.127401e+00   2.893707e-01
  -3.579801e+00   3.742879e+01
  -1.342358e+01   4.887302e+01
  -3.226339e+01   1.120684e+01
  -3.340761e+01  -4.460746e+01
  -8.211154e-01  -6.254196e+01
   4.500947e+01  -2.177665e+01
   5.900401e+01   3.941185e+01
   1.572140e+01   6.416206e+01
  -5.661881e+01   3.515958e+01
  -9.192410e+01  -1.502965e+01
  -5.104220e+01  -4.537796e+01
   2.910271e+01  -4.368111e+01
   6.677612e+01  -2.417117e+01
   2.687464e+01  -5.406663e+00
  -3.534322e+01  -8.193304e-01
  -3.746956e+01  -1.415526e+01
   2.974051e+01  -3.108578e+01
   9.085394e+01  -2.064718e+01
