
 $NMID
 id='ANONYMOUS ', fmtdat='(2E16.6)'
 volume=1.0
 tramp=1.0
 $END
  -4.085881e+03  -3.424783e+01
  -2.408397e+03  -2.293199e+03
   7.006860e+02  -2.532830e+03
   1.905784e+03  -9.269303e+02
   8.538473e+02   3.120439e+02
  -7.682443e+02   4.884713e+02
  -6.666000e+02  -3.996835e+02
  -4.571532e+01  -9.825124e+02
   7.644655e+02  -8.241012e+02
   8.618034e+02  -1.905465e+01
   4.660159e+02   7.654339e+02
  -2.003009e+02   9.015454e+02
  -4.973283e+02   2.094233e+02
  -3.916104e+02  -6.431496e+02
   2.063606e+02  -7.153993e+02
   5.448945e+02  -5.923037e+01
   2.900374e+02   6.120098e+02
  -2.839307e+02   6.229972e+02
  -6.114238e+02   1.282194e+02
  -4.697558e+02  -3.263439e+02
  -7.605972e+01  -4.080307e+02
   2.592343e+02  -2.971582e+02
   2.593074e+02  -3.145170e+01
  -1.245666e+02   5.828058e+01
  -3.620214e+02  -1.658306e+02
  -1.804281e+02  -4.381343e+02
   4.280493e+02  -3.309614e+02
   7.678180e+02   9.414390e+01
   4.031537e+02   4.804934e+02
  -3.426428e+02   4.129742e+02
  -6.790346e+02  -5.164957e+01
  -3.002989e+02  -4.360306e+02
   2.649435e+02  -4.890629e+02
   5.300867e+02  -2.060609e+02
   4.114770e+02   2.009345e+02
   9.417464e+01   4.658087e+02
  -1.768127e+02   2.863201e+02
  -1.476117e+02  -1.854908e+02
   1.587487e+02  -3.764281e+02
   4.218427e+02   3.670170e+01
   2.255453e+02   6.340445e+02
  -2.825904e+02   6.598119e+02
  -5.631553e+02   3.028842e+01
  -2.685861e+02  -5.024750e+02
   2.388142e+02  -2.813103e+02
   3.294057e+02   3.081481e+02
  -7.849077e+01   5.060757e+02
  -5.354278e+02   1.166072e+02
  -5.770356e+02  -3.999264e+02
  -1.652912e+02  -5.769237e+02
   3.751902e+02  -3.400521e+02
   6.221065e+02   6.504857e+01
   3.759119e+02   3.646956e+02
  -1.366633e+02   3.536683e+02
  -4.315591e+02   7.707335e+01
  -2.588221e+02  -1.589507e+02
   8.541677e+01  -9.994303e+01
   1.352245e+02   1.222142e+02
  -1.407834e+02   1.628117e+02
  -3.291704e+02  -6.388741e+01
  -1.541937e+02  -2.805954e+02
   1.851536e+02  -2.631714e+02
   3.321388e+02  -8.863856e+01
   2.031115e+02   8.357437e+01
  -3.376035e+01   2.281797e+02
  -2.291200e+02   3.171843e+02
  -3.234419e+02   2.046677e+02
  -2.721101e+02  -1.339934e+02
  -8.833172e+01  -4.250389e+02
   8.445965e+01  -3.930009e+02
   1.117536e+02  -1.431401e+02
   5.324422e+01  -1.072166e+01
   7.679039e+01  -7.975023e+01
   2.010193e+02  -1.097761e+02
   2.638682e+02   5.859171e+01
   1.506130e+02   2.592148e+02
  -6.152848e+01   2.445446e+02
  -2.131591e+02   8.443866e+00
  -1.917871e+02  -2.317931e+02
   5.506496e+00  -2.838210e+02
   2.593689e+02  -1.126483e+02
   3.604542e+02   1.598800e+02
   1.952110e+02   3.416875e+02
  -8.914757e+01   3.085540e+02
  -2.250239e+02   1.375996e+02
  -1.612940e+02   1.854843e+01
  -1.116668e+02   3.622110e+01
  -2.439505e+02   5.669219e+01
  -4.052036e+02  -7.359676e+01
  -3.319220e+02  -2.950857e+02
   1.391291e+01  -4.424890e+02
   3.709834e+02  -4.078661e+02
   4.894039e+02  -2.009219e+02
   3.295698e+02   8.522508e+01
   5.346921e+01   2.857447e+02
  -1.153747e+02   2.547268e+02
  -6.803794e+01   4.892394e+01
   1.058231e+02  -8.687172e+01
   1.786126e+02   7.083024e+00
   4.151719e+01   1.796758e+02
  -1.552952e+02   1.601650e+02
  -1.706078e+02  -5.787026e+01
   1.772522e+01  -1.837743e+02
   1.894698e+02  -2.992064e+01
   1.611737e+02   2.467618e+02
  -3.126245e+01   3.489647e+02
  -2.326367e+02   1.926649e+02
  -3.299261e+02  -6.715818e+01
  -2.757688e+02  -2.446153e+02
  -9.137992e+01  -2.632857e+02
   1.113519e+02  -1.565897e+02
   1.742712e+02  -2.291214e+01
   6.289726e+01   2.488104e+01
  -5.910028e+01  -4.154857e+01
  -2.329182e+01  -1.183802e+02
   1.189868e+02  -9.086216e+01
   1.698679e+02   1.377621e+01
   5.497241e+01   6.585190e+01
  -7.601545e+01   1.018632e+01
  -4.838010e+01  -7.267785e+01
   1.281085e+02  -7.998794e+01
   2.807066e+02   7.592092e+00
   2.559858e+02   1.416684e+02
   5.242446e+01   2.498548e+02
  -1.850469e+02   2.547916e+02
  -2.772503e+02   1.260715e+02
  -1.656081e+02  -4.588938e+01
   2.093854e+01  -1.051595e+02
   8.382121e+01  -1.041067e+01
  -3.504915e+01   9.532169e+01
  -1.913407e+02   5.591676e+01
  -2.090670e+02  -1.009997e+02
  -7.001407e+01  -2.045438e+02
   9.006329e+01  -1.565999e+02
   1.400444e+02  -3.120436e+01
   7.022435e+01   3.597993e+01
  -2.332067e+01  -2.908231e+00
  -3.076195e+01  -8.378636e+01
   7.507908e+01  -1.077250e+02
   1.959728e+02  -2.372483e+01
   1.885588e+02   1.227089e+02
   2.179904e+01   2.140076e+02
  -1.614974e+02   1.636191e+02
  -1.928273e+02   1.053864e+01
  -6.698962e+01  -1.098731e+02
   6.443657e+01  -1.104014e+02
   8.169684e+01  -3.216643e+01
   1.762474e+01   2.340840e+01
  -2.059890e+01   1.592061e+01
   1.226096e+01  -9.203625e+00
   7.279107e+01   1.297558e+01
   8.527207e+01   8.929228e+01
   9.442945e+00   1.598158e+02
  -1.301017e+02   1.458867e+02
  -2.328559e+02   1.855501e+01
  -2.000081e+02  -1.517619e+02
  -4.151797e+01  -2.356881e+02
   1.088794e+02  -1.701434e+02
   1.373643e+02  -3.131992e+01
   7.467892e+01   5.216096e+01
   3.265948e+01   3.644415e+01
   5.748312e+01  -8.608412e+00
   8.319412e+01  -2.488757e+00
   4.278992e+01   5.478907e+01
  -4.665981e+01   9.323080e+01
  -1.085133e+02   5.656910e+01
  -8.720422e+01  -3.798364e+01
   1.628272e+01  -1.134783e+02
   1.430737e+02  -8.482653e+01
   1.942015e+02   5.307728e+01
   9.587355e+01   2.012209e+02
  -1.086239e+02   2.247457e+02
  -2.644126e+02   9.237656e+01
  -2.540681e+02  -8.636830e+01
  -1.086394e+02  -1.747031e+02
   3.839122e+01  -1.455935e+02
   9.483996e+01  -8.451772e+01
   7.948332e+01  -7.171007e+01
   6.689069e+01  -9.370517e+01
   9.248368e+01  -7.499109e+01
   1.292057e+02   2.335966e+01
   1.187500e+02   1.551355e+02
   3.111437e+01   2.252442e+02
  -9.671358e+01   1.703205e+02
  -1.736084e+02   1.932241e+01
  -1.350683e+02  -1.217169e+02
  -1.769771e+01  -1.584017e+02
   6.906421e+01  -8.915374e+01
   6.081089e+01   3.377798e+00
   3.057100e+00   4.448606e+01
  -1.323729e+01   3.261748e+01
   3.565215e+01   1.584054e+01
   8.088599e+01   2.371429e+01
   4.508716e+01   4.070357e+01
  -6.652876e+01   3.671872e+01
  -1.600894e+02   1.418004e-01
  -1.413977e+02  -5.287595e+01
  -1.126930e+01  -8.690185e+01
   1.217724e+02  -7.182219e+01
   1.425713e+02  -1.330275e+01
   4.561882e+01   4.023545e+01
  -6.075072e+01   3.775704e+01
  -7.537270e+01  -1.879605e+01
  -7.873354e+00  -6.979157e+01
   5.560013e+01  -6.001756e+01
   6.479416e+01   1.784914e+00
   4.610681e+01   5.107413e+01
   4.386810e+01   4.242849e+01
   6.081152e+01   1.948281e+00
   6.677862e+01   1.349050e+00
   3.669562e+01   7.019105e+01
  -3.315026e+01   1.480681e+02
  -1.196659e+02   1.412805e+02
  -1.678727e+02   3.128100e+01
  -1.241567e+02  -9.383920e+01
  -4.277752e+00  -1.282686e+02
   8.816769e+01  -6.223838e+01
   6.025959e+01   1.526773e+01
  -5.949155e+01   1.980837e+01
  -1.363269e+02  -4.419357e+01
  -7.339314e+01  -1.076283e+02
   8.245928e+01  -1.108903e+02
   1.904884e+02  -4.880904e+01
   1.599748e+02   3.618219e+01
   3.467930e+01   8.591628e+01
  -6.188918e+01   6.690806e+01
  -4.804792e+01   3.978362e+00
   4.077442e+01  -2.872316e+01
   9.310792e+01   2.253082e+01
   3.512032e+01   1.202883e+02
  -9.011567e+01   1.573498e+02
  -1.675570e+02   6.517346e+01
  -1.279556e+02  -9.979376e+01
  -1.188279e+01  -1.984420e+02
   8.465621e+01  -1.444411e+02
   1.037272e+02   7.783745e+00
   5.928379e+01   1.180072e+02
  -3.055047e+00   1.043878e+02
  -4.555179e+01   1.784133e+01
  -5.021841e+01  -3.105509e+01
  -2.418186e+01  -7.095803e+00
  -3.907386e+00   2.048003e+01
  -2.205218e+01  -1.700682e+01
  -5.654340e+01  -8.948913e+01
  -4.131240e+01  -1.081992e+02
   4.827175e+01  -4.395993e+01
   1.387118e+02   3.853225e+01
   1.297226e+02   6.925668e+01
   1.796043e+01   4.953221e+01
  -8.654712e+01   2.335266e+01
  -8.713837e+01   8.231583e+00
  -1.084614e+01  -7.613855e+00
   3.787626e+01  -2.173350e+01
   1.367292e+01  -1.651155e+01
  -2.152061e+01   2.265448e+00
   5.730177e+00   7.437852e+00
   7.498527e+01   1.633684e+00
   9.344179e+01   2.399874e+01
   1.020642e+01   8.329075e+01
  -1.190759e+02   1.174441e+02
  -1.886314e+02   5.937264e+01
  -1.447020e+02  -6.865838e+01
  -2.611252e+01  -1.638980e+02
   8.069700e+01  -1.512330e+02
   1.157098e+02  -5.937986e+01
   8.077981e+01   2.138037e+01
   2.488391e+01   3.609040e+01
  -2.360901e+00   9.607475e+00
   1.083852e+01   4.567399e+00
   3.325546e+01   4.542391e+01
   2.292042e+01   8.966323e+01
  -2.876979e+01   7.242228e+01
  -8.153900e+01  -1.700677e+01
  -7.892172e+01  -1.076724e+02
  -5.629231e+00  -1.137000e+02
   8.348026e+01  -2.614032e+01
   1.054493e+02   7.492472e+01
   3.289099e+01   1.054520e+02
  -6.789699e+01   5.764963e+01
  -9.958442e+01  -1.222946e+01
  -3.906845e+01  -5.314081e+01
   3.455201e+01  -5.345758e+01
   3.295781e+01  -2.712873e+01
  -3.341409e+01   2.562200e+00
  -6.929553e+01   7.287775e+00
  -1.487519e+01  -2.577783e+01
   7.907325e+01  -6.580772e+01
   1.154038e+02  -5.684543e+01
   6.359462e+01   1.374706e+01
  -1.634544e+01   8.339826e+01
  -5.469380e+01   7.868876e+01
  -3.901230e+01   4.821065e+00
  -2.377007e+00  -5.710674e+01
   2.663557e+01  -4.496213e+01
   3.848580e+01   1.673337e+01
   2.814461e+01   5.431003e+01
  -2.556386e+00   3.461449e+01
  -3.340996e+01  -7.611164e+00
  -3.956926e+01  -2.169603e+01
  -2.008832e+01  -1.294990e+00
   1.015160e+00   1.572051e+01
   5.718102e+00  -9.832125e-01
   4.089603e+00  -3.685905e+01
   1.456083e+01  -4.748405e+01
   3.260236e+01  -9.860331e+00
   3.236112e+01   4.471571e+01
  -2.264402e-01   6.146211e+01
  -4.491762e+01   2.030792e+01
  -5.763423e+01  -4.010776e+01
  -1.464866e+01  -6.341310e+01
   5.612272e+01  -3.375053e+01
   9.029773e+01   1.543876e+01
   4.970311e+01   4.396754e+01
  -2.859032e+01   4.122994e+01
  -6.477581e+01   2.230790e+01
  -2.446926e+01   5.168163e+00
   3.649030e+01   1.664424e+00
   3.746126e+01   1.506806e+01
  -2.956930e+01   3.162522e+01
  -8.966255e+01   2.098426e+01
