
 $NMID
 id='ANONYMOUS ', fmtdat='(2E16.6)'
 volume=1.0
 tramp=1.0
 $END
   3.479420e+03   7.101122e+01
   2.438575e+03   1.802327e+03
  -1.256596e+02   2.141046e+03
  -1.284438e+03   1.266944e+03
  -7.632856e+02  -3.391118e+01
  -7.572600e+01  -5.379146e+01
   3.580094e+02   1.336882e+02
  -7.630866e+01   5.525621e+02
  -5.691416e+02   5.804057e+02
  -6.752038e+02  -1.783237e+01
  -3.763871e+02  -5.743640e+02
   5.369307e+01  -5.991916e+02
   3.120332e+02  -1.135562e+02
   2.693065e+02   4.440940e+02
  -1.658067e+02   4.948195e+02
  -4.737919e+02   1.691541e+01
  -3.258561e+02  -5.743623e+02
   1.287932e+02  -5.906591e+02
   3.967687e+02  -2.732443e+02
   4.475802e+02   1.698016e+02
   1.261124e+02   3.521721e+02
  -1.321200e+02   2.634653e+02
  -8.865189e+01   7.675096e+01
   1.865534e+02   7.973137e+01
   2.967679e+02   2.139012e+02
   8.205001e+00   3.368904e+02
  -4.793390e+02   1.707756e+02
  -6.454707e+02  -1.922996e+02
  -2.633879e+02  -3.897440e+02
   3.420797e+02  -2.323697e+02
   5.483372e+02   1.225501e+02
   1.976588e+02   3.905425e+02
  -2.848317e+02   3.669965e+02
  -4.807582e+02   1.379056e+02
  -3.248403e+02  -1.753606e+02
  -7.900308e+01  -3.388508e+02
   3.964153e+01  -2.012747e+02
  -3.908709e+01   1.150051e+02
  -1.874112e+02   2.045514e+02
  -2.317691e+02  -1.081555e+02
  -4.219530e+01  -5.308724e+02
   2.601419e+02  -4.870064e+02
   3.752752e+02  -1.464709e+01
   1.593844e+02   3.421245e+02
  -1.668694e+02   1.636813e+02
  -2.452747e+02  -2.724505e+02
   8.032884e+01  -4.156862e+02
   4.717895e+02  -7.111209e+01
   5.333138e+02   3.599552e+02
   1.826689e+02   4.990665e+02
  -3.033767e+02   2.850976e+02
  -5.330065e+02  -4.806731e+01
  -3.453216e+02  -2.619719e+02
   5.492590e+01  -2.508526e+02
   2.998680e+02  -8.871101e+01
   2.181597e+02   4.354184e+01
  -4.655568e-01   2.606806e+01
  -5.205571e+01  -7.380366e+01
   1.161516e+02  -8.478397e+01
   2.555921e+02   5.159593e+01
   1.411339e+02   2.149048e+02
  -1.503711e+02   2.554002e+02
  -3.410698e+02   1.309585e+02
  -2.585529e+02  -9.602530e+01
   2.193491e+01  -3.081861e+02
   2.854397e+02  -3.588769e+02
   3.632354e+02  -1.664338e+02
   2.429750e+02   1.593319e+02
   5.766866e+01   3.658233e+02
  -4.121896e+01   3.197901e+02
  -3.192364e+01   1.577193e+02
  -2.841377e+01   9.031523e+01
  -1.192340e+02   1.199373e+02
  -2.385634e+02   7.215764e+01
  -2.465089e+02  -1.104748e+02
  -1.013393e+02  -2.603580e+02
   9.299341e+01  -1.981764e+02
   1.970513e+02   3.916564e+01
   1.374463e+02   2.414418e+02
  -5.246620e+01   2.452027e+02
  -2.512479e+02   5.948518e+01
  -3.054839e+02  -1.666273e+02
  -1.664311e+02  -2.934262e+02
   5.705664e+01  -2.688610e+02
   1.678632e+02  -1.586254e+02
   1.450180e+02  -7.693600e+01
   1.433983e+02  -6.181412e+01
   2.744319e+02  -3.393811e+01
   4.039252e+02   9.169786e+01
   3.146493e+02   2.920800e+02
  -2.500915e+01   4.326057e+02
  -3.774151e+02   3.925319e+02
  -4.762095e+02   1.727034e+02
  -2.885122e+02  -1.016158e+02
  -2.155520e+01  -2.527469e+02
   9.880746e+01  -1.974076e+02
   1.905258e+01  -3.486447e+01
  -1.149807e+02   4.547094e+01
  -1.338501e+02  -3.414573e+01
  -9.665984e+00  -1.424182e+02
   1.217136e+02  -1.060321e+02
   1.149356e+02   5.561848e+01
  -2.938992e+01   1.377586e+02
  -1.635606e+02   5.315341e+00
  -1.532940e+02  -2.328280e+02
   1.903778e+01  -3.410103e+02
   2.358279e+02  -2.074191e+02
   3.503807e+02   5.994363e+01
   2.774617e+02   2.592269e+02
   6.543347e+01   2.741514e+02
  -1.268380e+02   1.402431e+02
  -1.534653e+02   3.874710e+00
  -3.764811e+01  -1.907469e+01
   5.433963e+01   5.811892e+01
   2.117640e+00   1.170661e+02
  -1.221353e+02   7.367850e+01
  -1.495194e+02  -2.297735e+01
  -3.443302e+01  -5.724035e+01
   8.125445e+01   8.954689e+00
   3.760542e+01   9.238174e+01
  -1.511746e+02   8.918651e+01
  -3.037148e+02  -2.180279e+01
  -2.566834e+02  -1.720932e+02
  -2.548073e+01  -2.646178e+02
   2.095053e+02  -2.345427e+02
   2.692537e+02  -9.605250e+01
   1.368083e+02   4.732434e+01
  -3.182347e+01   7.993900e+01
  -6.639820e+01  -4.808186e+00
   5.213678e+01  -8.198924e+01
   1.853728e+02  -3.509446e+01
   1.894134e+02   1.030492e+02
   5.792249e+01   1.879725e+02
  -8.742389e+01   1.358867e+02
  -1.256110e+02   1.796064e+01
  -4.745644e+01  -3.500071e+01
   4.248035e+01   2.122059e+01
   2.919470e+01   1.089602e+02
  -9.519213e+01   1.180464e+02
  -2.108241e+02   1.437194e+01
  -1.830419e+02  -1.327389e+02
  -1.104973e+01  -2.089249e+02
   1.568317e+02  -1.518029e+02
   1.764697e+02  -1.070426e+01
   5.762024e+01   9.656683e+01
  -6.031129e+01   9.755507e+01
  -7.130796e+01   2.654992e+01
  -4.078757e+00  -2.319228e+01
   3.435858e+01  -8.220685e+00
  -9.964937e+00   2.422246e+01
  -8.843600e+01  -8.039989e-01
  -1.049032e+02  -9.300588e+01
  -1.168923e+01  -1.765574e+02
   1.424330e+02  -1.552937e+02
   2.391397e+02  -1.387101e+01
   1.935406e+02   1.554428e+02
   3.897743e+01   2.284579e+02
  -9.824382e+01   1.612532e+02
  -1.263521e+02   3.127559e+01
  -7.187156e+01  -4.419471e+01
  -3.333640e+01  -2.890563e+01
  -5.431126e+01   1.608210e+01
  -8.569413e+01   9.150267e+00
  -5.495409e+01  -5.477655e+01
   3.836780e+01  -1.030992e+02
   1.195301e+02  -6.548735e+01
   1.046161e+02   4.373454e+01
  -1.676822e+01   1.275370e+02
  -1.629352e+02   8.855706e+01
  -2.055359e+02  -6.495607e+01
  -8.625876e+01  -2.121508e+02
   1.236470e+02  -2.229608e+02
   2.670610e+02  -8.390271e+01
   2.443199e+02   9.095497e+01
   9.851784e+01   1.708885e+02
  -3.968635e+01   1.385272e+02
  -8.827266e+01   7.830774e+01
  -6.918173e+01   6.660929e+01
  -5.757211e+01   9.194655e+01
  -8.938149e+01   7.881217e+01
  -1.308664e+02  -1.734238e+01
  -1.184861e+02  -1.519705e+02
  -2.652295e+01  -2.237590e+02
   9.939705e+01  -1.659817e+02
   1.697563e+02  -1.295532e+01
   1.278503e+02   1.248494e+02
   1.172430e+01   1.553674e+02
  -7.466577e+01   8.230327e+01
  -6.427508e+01  -1.177783e+01
   2.543007e+00  -5.272758e+01
   2.780302e+01  -3.626921e+01
  -2.510566e+01  -1.108351e+01
  -8.414507e+01  -1.502497e+01
  -5.300681e+01  -3.818160e+01
   6.949130e+01  -4.112410e+01
   1.714927e+02  -7.844784e-01
   1.440786e+02   6.216013e+01
   5.166798e-02   9.846679e+01
  -1.335037e+02   7.389660e+01
  -1.446022e+02   4.318463e+00
  -4.430523e+01  -5.167188e+01
   5.866758e+01  -4.403752e+01
   7.654588e+01   1.811056e+01
   1.887684e+01   7.243617e+01
  -4.443655e+01   6.403861e+01
  -6.665845e+01   1.845991e+00
  -5.690128e+01  -4.959798e+01
  -4.755240e+01  -4.225191e+01
  -5.435056e+01  -1.444441e+00
  -6.341932e+01  -5.720729e-01
  -4.417782e+01  -7.044597e+01
   2.445873e+01  -1.507664e+02
   1.224623e+02  -1.459604e+02
   1.791064e+02  -3.585228e+01
   1.316769e+02   9.268970e+01
   3.912617e+00   1.328353e+02
  -9.185993e+01   7.002995e+01
  -6.258139e+01  -1.113490e+01
   5.799170e+01  -2.236461e+01
   1.350659e+02   4.013728e+01
   7.270560e+01   1.066729e+02
  -8.167712e+01   1.110857e+02
  -1.880919e+02   4.652537e+01
  -1.570321e+02  -3.908660e+01
  -3.261633e+01  -8.434616e+01
   6.187816e+01  -6.206209e+01
   4.788051e+01  -9.816817e-01
  -3.827641e+01   2.929400e+01
  -9.005936e+01  -1.900019e+01
  -3.943023e+01  -1.130513e+02
   7.668977e+01  -1.536316e+02
   1.546944e+02  -7.054735e+01
   1.264612e+02   8.916100e+01
   1.865909e+01   1.902058e+02
  -8.029370e+01   1.404233e+02
  -1.044998e+02  -9.599370e+00
  -5.696454e+01  -1.186491e+02
   1.183162e+01  -1.028498e+02
   5.135502e+01  -1.589133e+01
   4.536702e+01   3.157296e+01
   1.666603e+01   7.564813e+00
   5.840884e+00  -1.749005e+01
   3.041988e+01   2.005924e+01
   5.796830e+01   8.788777e+01
   3.220847e+01   1.039672e+02
  -5.518593e+01   4.328973e+01
  -1.339845e+02  -3.496515e+01
  -1.210318e+02  -6.725390e+01
  -1.846145e+01  -5.228284e+01
   7.847312e+01  -2.619334e+01
   8.428853e+01  -6.057507e+00
   1.674838e+01   1.156797e+01
  -3.398764e+01   2.166680e+01
  -1.960351e+01   1.250532e+01
   1.432820e+01  -4.879174e+00
  -2.055173e+00  -6.288052e+00
  -6.411244e+01   2.374138e+00
  -9.134283e+01  -1.820947e+01
  -2.383939e+01  -7.775405e+01
   1.020741e+02  -1.177947e+02
   1.835758e+02  -6.968776e+01
   1.520259e+02   5.442968e+01
   3.487898e+01   1.571200e+02
  -7.750367e+01   1.558107e+02
  -1.152314e+02   6.707316e+01
  -8.060070e+01  -1.847933e+01
  -2.703439e+01  -3.819886e+01
  -2.969148e+00  -1.325628e+01
  -1.411226e+01  -8.307830e+00
  -3.032938e+01  -4.822133e+01
  -1.843775e+01  -8.973757e+01
   2.769052e+01  -7.112860e+01
   7.677870e+01   1.350878e+01
   7.979899e+01   9.822281e+01
   1.617274e+01   1.076041e+02
  -7.230331e+01   3.268382e+01
  -1.050466e+02  -6.158585e+01
  -4.183395e+01  -1.004862e+02
   6.152096e+01  -6.495173e+01
   1.031253e+02   5.076671e+00
   4.693644e+01   5.633280e+01
  -3.263068e+01   6.205912e+01
  -3.963830e+01   3.000931e+01
   2.526999e+01  -6.373014e+00
   6.764880e+01  -1.022291e+01
   1.938326e+01   2.696579e+01
  -7.609600e+01   6.690657e+01
  -1.191766e+02   5.532947e+01
  -7.176323e+01  -1.506607e+01
   1.081035e+01  -8.410006e+01
   5.513962e+01  -8.349302e+01
   4.346050e+01  -1.430292e+01
   7.630261e+00   5.042762e+01
  -2.216193e+01   4.725540e+01
  -3.565876e+01  -1.002812e+01
  -2.831178e+01  -5.268509e+01
   1.416006e-01  -3.927637e+01
   3.292067e+01   4.150324e+00
   4.212791e+01   2.428594e+01
   2.143801e+01   4.395309e+00
  -3.763887e+00  -1.914501e+01
  -6.697859e+00  -7.350883e+00
   4.201714e+00   3.198042e+01
   4.216014e-02   5.185524e+01
  -2.626833e+01   2.185359e+01
  -4.184825e+01  -3.372619e+01
  -1.478346e+01  -5.874724e+01
   3.890229e+01  -2.654921e+01
   6.315673e+01   3.084076e+01
   2.134348e+01   5.876515e+01
  -5.541394e+01   3.670943e+01
  -9.299930e+01  -9.304164e+00
  -5.149177e+01  -4.175118e+01
   2.756436e+01  -4.565647e+01
   6.440715e+01  -2.900253e+01
   2.873321e+01  -7.169178e+00
  -2.789148e+01   4.151503e+00
  -3.333140e+01  -5.368945e+00
   2.180125e+01  -2.527124e+01
   7.591007e+01  -2.236795e+01
