
 $NMID
 id='ANONYMOUS ', fmtdat='(2E16.6)'
 volume=1.0
 tramp=1.0
 $END
  -3.578589e+03  -2.396110e+02
  -2.231706e+03  -1.910610e+03
   3.018425e+02  -2.271354e+03
   1.424635e+03  -1.053621e+03
   7.908144e+02   1.067644e+02
  -1.613630e+02   1.776085e+02
  -4.588478e+02  -2.835385e+02
  -5.849844e+01  -7.149807e+02
   6.077151e+02  -6.187646e+02
   7.162951e+02   5.258333e+01
   3.640536e+02   6.476057e+02
  -2.265522e+02   6.366073e+02
  -4.540803e+02   6.164388e+01
  -2.960707e+02  -5.469057e+02
   1.647220e+02  -5.765344e+02
   4.540277e+02  -3.230173e+01
   2.589693e+02   5.596588e+02
  -2.168862e+02   6.154045e+02
  -4.669838e+02   2.061815e+02
  -4.002591e+02  -2.405984e+02
  -9.154861e+01  -3.889439e+02
   1.428484e+02  -2.282527e+02
   8.639626e+01  -5.736356e+01
  -1.619787e+02  -1.227902e+01
  -3.160837e+02  -2.122519e+02
  -1.305456e+01  -3.501992e+02
   4.908162e+02  -2.367284e+02
   6.703194e+02   1.871349e+02
   2.619560e+02   4.350259e+02
  -3.676656e+02   2.973802e+02
  -5.899837e+02  -1.160229e+02
  -2.103672e+02  -4.027139e+02
   2.785274e+02  -3.881084e+02
   4.481531e+02  -1.398647e+02
   3.219694e+02   1.697200e+02
   7.898947e+01   3.406852e+02
  -6.999828e+01   1.736818e+02
   3.078444e-02  -1.310793e+02
   1.875904e+02  -2.359956e+02
   2.662156e+02   1.219979e+02
   7.269595e+01   5.284610e+02
  -2.802390e+02   4.975062e+02
  -3.942387e+02   1.056386e+01
  -1.665510e+02  -3.433425e+02
   1.645195e+02  -1.761233e+02
   2.198842e+02   2.524979e+02
  -9.043778e+01   3.940554e+02
  -4.551612e+02   7.209066e+01
  -5.094617e+02  -3.589483e+02
  -1.727660e+02  -4.998122e+02
   3.039397e+02  -2.853679e+02
   5.343293e+02   5.905233e+01
   3.421079e+02   2.782865e+02
  -6.935067e+01   2.502895e+02
  -3.119408e+02   6.901008e+01
  -2.116010e+02  -6.404541e+01
   1.818837e+01  -3.221687e+01
   6.059630e+01   7.495297e+01
  -1.167915e+02   8.080329e+01
  -2.474886e+02  -5.530992e+01
  -1.257539e+02  -2.056155e+02
   1.495344e+02  -2.362500e+02
   3.159274e+02  -1.239742e+02
   2.343355e+02   7.906731e+01
  -2.036097e+01   2.810409e+02
  -2.668370e+02   3.438000e+02
  -3.532859e+02   1.674961e+02
  -2.455311e+02  -1.539322e+02
  -5.390546e+01  -3.664173e+02
   5.771991e+01  -3.239147e+02
   4.327007e+01  -1.548785e+02
   1.951095e+01  -7.709426e+01
   9.943171e+01  -1.055820e+02
   2.261708e+02  -7.289039e+01
   2.475341e+02   9.478341e+01
   1.074023e+02   2.464859e+02
  -9.105723e+01   2.015124e+02
  -2.034428e+02  -2.823885e+01
  -1.483659e+02  -2.446650e+02
   4.928354e+01  -2.666376e+02
   2.593691e+02  -7.761658e+01
   3.143077e+02   1.762354e+02
   1.621942e+02   3.148910e+02
  -6.372911e+01   2.707287e+02
  -1.686152e+02   1.381768e+02
  -1.373411e+02   6.031446e+01
  -1.386086e+02   6.372399e+01
  -2.640820e+02   4.625947e+01
  -3.910277e+02  -8.418942e+01
  -3.000802e+02  -2.845196e+02
   1.884071e+01  -4.182947e+02
   3.560212e+02  -3.779733e+02
   4.603591e+02  -1.695316e+02
   2.936501e+02   9.933059e+01
   2.879611e+01   2.578544e+02
  -1.066902e+02   2.038302e+02
  -3.936946e+01   3.097601e+01
   1.049773e+02  -5.411062e+01
   1.405220e+02   3.092520e+01
   1.888988e+01   1.488736e+02
  -1.244394e+02   1.115888e+02
  -1.202967e+02  -5.854037e+01
   2.763732e+01  -1.400270e+02
   1.671162e+02  -1.926789e+00
   1.503330e+02   2.344162e+02
  -2.138378e+01   3.367978e+02
  -2.329796e+02   2.034606e+02
  -3.435577e+02  -5.349508e+01
  -2.762412e+02  -2.483504e+02
  -7.092372e+01  -2.694594e+02
   1.215590e+02  -1.443058e+02
   1.538113e+02  -6.534591e+00
   3.954920e+01   2.252370e+01
  -5.449974e+01  -5.290944e+01
  -4.982721e+00  -1.148838e+02
   1.187331e+02  -7.336466e+01
   1.471730e+02   2.361298e+01
   3.323109e+01   5.886255e+01
  -8.304230e+01  -6.044190e+00
  -4.414368e+01  -9.044016e+01
   1.396311e+02  -9.381345e+01
   2.954881e+02   8.709452e+00
   2.616673e+02   1.587968e+02
   4.044754e+01   2.622972e+02
  -1.990403e+02   2.428223e+02
  -2.719566e+02   1.032667e+02
  -1.454649e+02  -4.854824e+01
   2.966450e+01  -8.514755e+01
   7.269894e+01   2.790320e+00
  -4.587234e+01   8.465814e+01
  -1.847374e+02   3.888272e+01
  -1.917130e+02  -9.994064e+01
  -5.836988e+01  -1.860925e+02
   8.921381e+01  -1.360287e+02
   1.277947e+02  -1.733254e+01
   4.889933e+01   4.069782e+01
  -4.321436e+01  -1.065305e+01
  -3.466919e+01  -1.008888e+02
   8.540814e+01  -1.196783e+02
   2.014756e+02  -2.203717e+01
   1.798365e+02   1.272889e+02
   1.415230e+01   2.076191e+02
  -1.519674e+02   1.509931e+02
  -1.730715e+02   8.819430e+00
  -5.707171e+01  -9.728425e+01
   5.938082e+01  -9.571652e+01
   7.089978e+01  -2.514607e+01
   5.438787e+00   2.358357e+01
  -3.408615e+01   1.005102e+01
   6.545157e+00  -2.086234e+01
   8.215966e+01  -6.209700e-01
   1.024216e+02   8.464557e+01
   1.576907e+01   1.655414e+02
  -1.321051e+02   1.504403e+02
  -2.293718e+02   1.617617e+01
  -1.875518e+02  -1.489837e+02
  -3.727530e+01  -2.216764e+02
   9.765092e+01  -1.543749e+02
   1.242502e+02  -2.650106e+01
   7.161107e+01   4.583933e+01
   3.222347e+01   2.867046e+01
   5.001393e+01  -1.410657e+01
   7.845068e+01  -8.330635e+00
   5.073666e+01   5.230830e+01
  -3.698314e+01   9.849079e+01
  -1.124493e+02   6.336715e+01
  -1.017068e+02  -4.120926e+01
   1.366564e+01  -1.232157e+02
   1.546003e+02  -8.970172e+01
   2.012291e+02   5.927655e+01
   8.867590e+01   2.049961e+02
  -1.166219e+02   2.198416e+02
  -2.607415e+02   8.491817e+01
  -2.417984e+02  -8.702277e+01
  -9.860962e+01  -1.687578e+02
   3.947610e+01  -1.379694e+02
   8.867009e+01  -7.708796e+01
   6.986356e+01  -6.375822e+01
   5.677567e+01  -8.857898e+01
   8.656004e+01  -7.743874e+01
   1.274193e+02   1.604647e+01
   1.161252e+02   1.484007e+02
   2.613949e+01   2.196823e+02
  -9.767355e+01   1.630388e+02
  -1.664692e+02   1.245289e+01
  -1.247702e+02  -1.224079e+02
  -1.136587e+01  -1.522243e+02
   7.169881e+01  -8.167695e+01
   6.202969e+01   9.452337e+00
   1.027180e-01   5.031401e+01
  -2.281813e+01   3.749281e+01
   2.577218e+01   1.462674e+01
   7.885184e+01   1.660493e+01
   4.858060e+01   3.561412e+01
  -6.638439e+01   3.795960e+01
  -1.643330e+02   1.531168e+00
  -1.412318e+02  -5.784954e+01
  -3.878793e+00  -9.490268e+01
   1.289869e+02  -7.361240e+01
   1.441178e+02  -6.554507e+00
   4.596374e+01   4.948600e+01
  -5.801625e+01   4.397123e+01
  -7.660647e+01  -1.591279e+01
  -1.797099e+01  -6.959018e+01
   4.491863e+01  -6.252386e+01
   6.454844e+01  -2.604784e+00
   5.360543e+01   4.788934e+01
   4.663230e+01   4.161189e+01
   5.509172e+01   2.646975e+00
   6.271280e+01   1.344030e+00
   4.090682e+01   6.806048e+01
  -2.597195e+01   1.451074e+02
  -1.177264e+02   1.407078e+02
  -1.706553e+02   3.530586e+01
  -1.263023e+02  -8.751210e+01
  -5.614573e+00  -1.269438e+02
   8.703105e+01  -6.823680e+01
   6.058519e+01   8.439020e+00
  -5.448911e+01   2.061198e+01
  -1.293161e+02  -3.730457e+01
  -7.071381e+01  -1.005534e+02
   7.785424e+01  -1.061209e+02
   1.815027e+02  -4.532829e+01
   1.517275e+02   3.738315e+01
   3.049242e+01   8.201326e+01
  -6.125282e+01   5.949359e+01
  -4.668897e+01  -3.912001e-01
   3.866795e+01  -2.846579e+01
   8.887169e+01   2.084128e+01
   3.700071e+01   1.119939e+02
  -7.768772e+01   1.482989e+02
  -1.522674e+02   6.551395e+01
  -1.217421e+02  -8.797055e+01
  -1.633967e+01  -1.837545e+02
   7.764917e+01  -1.357811e+02
   1.000589e+02   8.200048e+00
   5.575476e+01   1.139029e+02
  -8.872182e+00   1.004742e+02
  -4.827615e+01   1.663905e+01
  -4.534985e+01  -3.072357e+01
  -1.812095e+01  -8.057661e+00
  -5.091422e+00   1.808269e+01
  -2.755348e+01  -1.711164e+01
  -5.580412e+01  -8.444215e+01
  -3.335073e+01  -1.019909e+02
   5.152589e+01  -4.271777e+01
   1.302259e+02   3.531277e+01
   1.186795e+02   6.707489e+01
   1.772584e+01   5.065513e+01
  -7.805401e+01   2.376921e+01
  -8.339197e+01   5.839466e+00
  -1.646406e+01  -9.772909e+00
   3.303649e+01  -2.077231e+01
   1.814724e+01  -1.465422e+01
  -1.421665e+01   2.250269e+00
   3.682755e+00   6.409549e+00
   6.401542e+01   7.406892e-01
   8.756227e+01   2.029079e+01
   1.896423e+01   7.462585e+01
  -1.021434e+02   1.109125e+02
  -1.769356e+02   6.426311e+01
  -1.436794e+02  -5.374085e+01
  -3.166829e+01  -1.511337e+02
   7.426472e+01  -1.493238e+02
   1.100845e+02  -6.434645e+01
   7.780863e+01   1.766185e+01
   2.641970e+01   3.601814e+01
   2.698777e+00   1.157675e+01
   1.389622e+01   6.875680e+00
   3.077134e+01   4.696691e+01
   1.901299e+01   8.831279e+01
  -2.740518e+01   6.977047e+01
  -7.524875e+01  -1.418598e+01
  -7.615231e+01  -9.675750e+01
  -1.293061e+01  -1.038199e+02
   7.107883e+01  -2.845794e+01
   9.950877e+01   6.255891e+01
   3.763542e+01   9.694347e+01
  -6.015225e+01   6.051153e+01
  -9.804000e+01  -6.105518e+00
  -4.415187e+01  -5.305936e+01
   3.090107e+01  -5.849526e+01
   3.690931e+01  -2.973301e+01
  -2.515610e+01   4.315255e+00
  -6.529742e+01   9.904042e+00
  -1.833273e+01  -2.422648e+01
   7.364161e+01  -6.364806e+01
   1.147238e+02  -5.489121e+01
   6.776941e+01   1.236425e+01
  -1.203468e+01   8.020331e+01
  -5.307840e+01   7.994984e+01
  -3.995276e+01   1.259080e+01
  -4.818358e+00  -4.963048e+01
   2.262768e+01  -4.477574e+01
   3.400170e+01   1.127633e+01
   2.698909e+01   5.144399e+01
  -9.199878e-02   3.684272e+01
  -3.147180e+01  -4.692730e+00
  -4.065764e+01  -2.250842e+01
  -2.070341e+01  -3.296028e+00
   3.914228e+00   1.790297e+01
   7.335140e+00   5.723226e+00
  -2.467985e+00  -3.046982e+01
   1.324968e+00  -4.769910e+01
   2.446903e+01  -1.887213e+01
   3.749155e+01   3.247781e+01
   1.190011e+01   5.484773e+01
  -3.717402e+01   2.422388e+01
  -5.858110e+01  -2.959156e+01
  -1.915295e+01  -5.604677e+01
   5.270820e+01  -3.497310e+01
   8.816576e+01   9.309516e+00
   4.920538e+01   4.071402e+01
  -2.644346e+01   4.408421e+01
  -6.266462e+01   2.770706e+01
  -2.815378e+01   7.020564e+00
   2.705111e+01  -2.850129e+00
   3.189146e+01   6.561529e+00
  -2.317782e+01   2.398570e+01
  -7.631394e+01   1.904500e+01
