
 $NMID
 id='ANONYMOUS ', fmtdat='(2E16.6)'
 volume=1.0
 tramp=1.0
 $END
  -3.105058e+03   4.539313e+01
  -2.062560e+03  -1.883435e+03
   4.259192e+02  -2.100739e+03
   1.548626e+03  -1.064733e+03
   8.226752e+02   4.952358e+01
  -1.154423e+02   3.355750e+02
  -4.569485e+02  -2.585371e+02
   2.170888e+01  -7.031976e+02
   5.403607e+02  -6.323415e+02
   7.045820e+02  -7.969749e+01
   4.601652e+02   6.402236e+02
  -1.165517e+02   7.046107e+02
  -4.574084e+02   1.881365e+02
  -2.272241e+02  -5.117014e+02
   1.710303e+02  -5.765937e+02
   4.671728e+02  -8.557982e+01
   2.644910e+02   5.240082e+02
  -1.925106e+02   6.126308e+02
  -4.872525e+02   1.867874e+02
  -4.324483e+02  -2.110081e+02
  -1.364593e+02  -4.011648e+02
   1.773135e+02  -2.459741e+02
   1.484522e+02  -6.677904e+01
  -1.107856e+02  -4.393477e+01
  -2.706238e+02  -2.304254e+02
  -2.266509e+01  -3.785438e+02
   4.326292e+02  -2.378635e+02
   6.472423e+02   1.221920e+02
   2.813403e+02   3.962255e+02
  -3.185405e+02   2.948844e+02
  -5.232008e+02  -7.772214e+01
  -1.999140e+02  -3.620882e+02
   2.704039e+02  -4.188187e+02
   4.742546e+02  -1.730447e+02
   3.551139e+02   1.647544e+02
   1.030082e+02   3.596627e+02
  -6.387304e+01   2.216197e+02
  -2.369908e+01  -1.146392e+02
   1.614003e+02  -2.053550e+02
   2.535074e+02   1.228821e+02
   8.628560e+01   5.279334e+02
  -2.387307e+02   4.885777e+02
  -3.674274e+02   1.186212e+00
  -1.667568e+02  -3.428842e+02
   1.427731e+02  -1.763512e+02
   1.884407e+02   2.714582e+02
  -1.058691e+02   4.042902e+02
  -4.430731e+02   8.114872e+01
  -4.893791e+02  -3.547376e+02
  -1.667106e+02  -5.061730e+02
   2.992147e+02  -2.980059e+02
   5.277924e+02   4.669804e+01
   3.500285e+02   2.713720e+02
  -6.352675e+01   2.640113e+02
  -3.224454e+02   9.768421e+01
  -2.316866e+02  -5.282801e+01
   1.408274e+01  -4.814523e+01
   7.471498e+01   5.786255e+01
  -1.083959e+02   8.459408e+01
  -2.623746e+02  -4.718226e+01
  -1.455739e+02  -2.180084e+02
   1.549743e+02  -2.597614e+02
   3.461263e+02  -1.296728e+02
   2.582161e+02   9.513121e+01
  -2.047368e+01   2.952282e+02
  -2.759602e+02   3.443711e+02
  -3.528437e+02   1.644795e+02
  -2.405917e+02  -1.565615e+02
  -5.618118e+01  -3.775231e+02
   5.451395e+01  -3.414740e+02
   5.683861e+01  -1.615665e+02
   4.884055e+01  -6.419929e+01
   1.219337e+02  -8.788666e+01
   2.285797e+02  -6.769917e+01
   2.392122e+02   9.091475e+01
   1.059482e+02   2.461231e+02
  -8.235992e+01   2.112562e+02
  -1.922224e+02  -1.253411e+01
  -1.514479e+02  -2.305773e+02
   3.229588e+01  -2.633262e+02
   2.462650e+02  -8.418271e+01
   3.238683e+02   1.667717e+02
   1.821654e+02   3.115842e+02
  -5.558449e+01   2.809781e+02
  -1.834433e+02   1.504344e+02
  -1.518071e+02   6.631021e+01
  -1.409878e+02   6.361874e+01
  -2.680602e+02   4.166069e+01
  -4.053402e+02  -9.425370e+01
  -3.161905e+02  -3.009810e+02
   2.565798e+01  -4.348041e+02
   3.776281e+02  -3.950422e+02
   4.788745e+02  -1.805185e+02
   2.985968e+02   9.332737e+01
   3.490911e+01   2.580308e+02
  -9.002494e+01   2.174774e+02
  -2.613016e+01   4.907195e+01
   1.084435e+02  -4.726097e+01
   1.360765e+02   2.799591e+01
   1.614761e+01   1.471347e+02
  -1.233104e+02   1.177773e+02
  -1.258929e+02  -5.062417e+01
   1.962164e+01  -1.419605e+02
   1.626632e+02  -8.084939e+00
   1.541643e+02   2.339114e+02
  -1.803206e+01   3.391410e+02
  -2.372556e+02   1.997206e+02
  -3.506966e+02  -6.579964e+01
  -2.786784e+02  -2.580296e+02
  -6.657155e+01  -2.696905e+02
   1.255895e+02  -1.429865e+02
   1.579082e+02  -1.251309e+01
   4.700057e+01   1.351604e+01
  -4.458607e+01  -5.463829e+01
   2.388328e+00  -1.081502e+02
   1.197614e+02  -6.558607e+01
   1.452180e+02   2.625543e+01
   3.348271e+01   5.705021e+01
  -7.909421e+01  -6.741252e+00
  -3.992478e+01  -8.567960e+01
   1.404973e+02  -8.338224e+01
   2.917026e+02   1.811358e+01
   2.541200e+02   1.597545e+02
   3.365289e+01   2.543071e+02
  -2.004515e+02   2.347134e+02
  -2.679212e+02   1.028677e+02
  -1.417553e+02  -4.339946e+01
   2.821107e+01  -8.218104e+01
   6.745680e+01   7.698880e-01
  -4.929872e+01   8.058030e+01
  -1.836567e+02   3.609231e+01
  -1.890767e+02  -1.030247e+02
  -5.830331e+01  -1.900432e+02
   8.731371e+01  -1.404118e+02
   1.284736e+02  -2.155412e+01
   5.591535e+01   3.607712e+01
  -3.253152e+01  -1.459142e+01
  -2.601356e+01  -1.003941e+02
   8.975480e+01  -1.132552e+02
   2.035914e+02  -1.423527e+01
   1.817184e+02   1.314936e+02
   1.458039e+01   2.086776e+02
  -1.543031e+02   1.528821e+02
  -1.771533e+02   1.207555e+01
  -5.921006e+01  -9.555164e+01
   5.990484e+01  -9.648641e+01
   7.162598e+01  -2.610680e+01
   5.176697e+00   2.428808e+01
  -3.354142e+01   1.025777e+01
   8.233218e+00  -2.167977e+01
   8.226047e+01   1.513385e+00
   9.842771e+01   9.071305e+01
   9.899799e+00   1.706610e+02
  -1.385491e+02   1.485319e+02
  -2.351501e+02   8.895712e+00
  -1.925909e+02  -1.580380e+02
  -3.760408e+01  -2.279258e+02
   1.031446e+02  -1.601342e+02
   1.322310e+02  -3.219966e+01
   7.646118e+01   4.523992e+01
   3.365327e+01   3.213253e+01
   5.419996e+01  -9.730112e+00
   8.499258e+01  -5.051607e+00
   5.277199e+01   5.485561e+01
  -4.177790e+01   1.019134e+02
  -1.215698e+02   6.620710e+01
  -1.041987e+02  -4.275219e+01
   1.790090e+01  -1.275831e+02
   1.612169e+02  -9.068361e+01
   2.033865e+02   6.359327e+01
   8.489301e+01   2.109392e+02
  -1.218277e+02   2.210724e+02
  -2.654144e+02   8.202016e+01
  -2.438049e+02  -8.959430e+01
  -1.007301e+02  -1.682006e+02
   3.902282e+01  -1.377749e+02
   9.032490e+01  -8.053808e+01
   7.288973e+01  -7.034528e+01
   6.057560e+01  -9.450123e+01
   9.035377e+01  -7.770242e+01
   1.301519e+02   2.061204e+01
   1.179279e+02   1.552687e+02
   2.608557e+01   2.248813e+02
  -1.003132e+02   1.654273e+02
  -1.696895e+02   1.138846e+01
  -1.257245e+02  -1.258930e+02
  -9.888678e+00  -1.546280e+02
   7.238203e+01  -8.057886e+01
   5.942054e+01   1.190862e+01
  -3.251859e+00   5.000450e+01
  -2.225762e+01   3.388135e+01
   3.068550e+01   1.320379e+01
   8.316493e+01   2.024918e+01
   4.707574e+01   4.015269e+01
  -7.239865e+01   3.795437e+01
  -1.697371e+02  -2.232362e+00
  -1.426350e+02  -6.041479e+01
  -2.073619e+00  -9.459089e+01
   1.309511e+02  -7.399158e+01
   1.450058e+02  -8.949568e+00
   4.539920e+01   4.778799e+01
  -5.976222e+01   4.406188e+01
  -7.837144e+01  -1.739826e+01
  -1.716875e+01  -7.399095e+01
   4.918763e+01  -6.637456e+01
   6.950787e+01  -2.312587e+00
   5.593874e+01   5.088703e+01
   4.655965e+01   4.293794e+01
   5.703244e+01   1.367436e+00
   6.729273e+01   1.848500e+00
   4.412179e+01   7.392961e+01
  -2.889431e+01   1.526747e+02
  -1.257880e+02   1.440201e+02
  -1.780701e+02   3.124611e+01
  -1.278769e+02  -9.502540e+01
  -1.645897e+00  -1.315106e+02
   9.144901e+01  -6.741253e+01
   6.207920e+01   1.145493e+01
  -5.632996e+01   2.089016e+01
  -1.318082e+02  -4.041589e+01
  -7.072206e+01  -1.046429e+02
   8.138596e+01  -1.077959e+02
   1.862307e+02  -4.343286e+01
   1.547395e+02   4.086159e+01
   3.003096e+01   8.474964e+01
  -6.420523e+01   5.980050e+01
  -4.774318e+01  -2.737929e+00
   4.193301e+01  -3.128858e+01
   9.419557e+01   2.130584e+01
   3.918464e+01   1.179336e+02
  -8.206665e+01   1.565097e+02
  -1.600437e+02   6.970713e+01
  -1.267482e+02  -9.193928e+01
  -1.569784e+01  -1.918360e+02
   8.077527e+01  -1.407441e+02
   1.012134e+02   9.026985e+00
   5.438198e+01   1.169525e+02
  -1.007783e+01   1.007339e+02
  -4.799979e+01   1.464794e+01
  -4.455750e+01  -3.156175e+01
  -1.799270e+01  -6.790233e+00
  -5.338383e+00   1.819163e+01
  -2.787140e+01  -2.033216e+01
  -5.652627e+01  -8.935712e+01
  -3.382807e+01  -1.046817e+02
   5.341836e+01  -4.192911e+01
   1.352927e+02   3.756070e+01
   1.237425e+02   6.904165e+01
   1.834497e+01   5.210963e+01
  -8.141498e+01   2.496925e+01
  -8.619820e+01   6.051226e+00
  -1.588679e+01  -1.043471e+01
   3.443784e+01  -2.094966e+01
   1.710282e+01  -1.350481e+01
  -1.676867e+01   2.581655e+00
   4.336249e+00   4.529912e+00
   6.984510e+01  -1.109201e+00
   9.406867e+01   2.274824e+01
   1.925678e+01   8.268024e+01
  -1.101954e+02   1.189213e+02
  -1.884635e+02   6.550742e+01
  -1.514533e+02  -6.031619e+01
  -3.197375e+01  -1.601092e+02
   7.931590e+01  -1.547961e+02
   1.161127e+02  -6.508629e+01
   8.077063e+01   1.902373e+01
   2.619522e+01   3.735907e+01
   1.099320e+00   1.203112e+01
   1.304885e+01   6.796601e+00
   3.123178e+01   4.729656e+01
   1.949212e+01   9.044015e+01
  -2.882681e+01   7.226107e+01
  -7.925977e+01  -1.481347e+01
  -8.018831e+01  -1.025707e+02
  -1.236314e+01  -1.113737e+02
   7.695285e+01  -3.183093e+01
   1.060578e+02   6.587061e+01
   3.916502e+01   1.032994e+02
  -6.427045e+01   6.407471e+01
  -1.025457e+02  -7.001344e+00
  -4.462102e+01  -5.624846e+01
   3.348498e+01  -6.023803e+01
   3.794092e+01  -2.963273e+01
  -2.792197e+01   4.871863e+00
  -6.831764e+01   8.860095e+00
  -1.758034e+01  -2.654938e+01
   7.829707e+01  -6.570968e+01
   1.191765e+02  -5.431490e+01
   6.898010e+01   1.596818e+01
  -1.422164e+01   8.483927e+01
  -5.720576e+01   8.219985e+01
  -4.404716e+01   1.062392e+01
  -6.986014e+00  -5.425619e+01
   2.357128e+01  -4.860451e+01
   3.754943e+01   1.104242e+01
   2.960614e+01   5.394530e+01
  -1.670244e-01   3.881674e+01
  -3.291330e+01  -5.469260e+00
  -4.152146e+01  -2.450399e+01
  -2.066221e+01  -3.643224e+00
   2.822225e+00   1.975093e+01
   5.761943e+00   6.881022e+00
  -2.811671e+00  -3.283982e+01
   3.626926e+00  -5.170318e+01
   2.791633e+01  -1.980600e+01
   3.876942e+01   3.616072e+01
   1.020790e+01   5.889991e+01
  -4.024674e+01   2.427543e+01
  -6.083512e+01  -3.372684e+01
  -1.890383e+01  -5.983528e+01
   5.571246e+01  -3.544320e+01
   9.184570e+01   1.132682e+01
   5.102066e+01   4.261078e+01
  -2.765463e+01   4.456191e+01
  -6.473068e+01   2.699529e+01
  -2.825234e+01   6.499894e+00
   2.977392e+01  -2.369155e+00
   3.416112e+01   8.586826e+00
  -2.442496e+01   2.737399e+01
  -8.041703e+01   2.137078e+01
