
 $NMID
 id='ANONYMOUS ', fmtdat='(2E16.6)'
 volume=1.0
 tramp=1.0
 $END
   4.368441e+03  -1.781763e+02
   2.705847e+03   2.682897e+03
  -8.174342e+02   2.813181e+03
  -1.923702e+03   9.262558e+02
  -1.227751e+03  -4.457458e+02
   5.922751e+02  -6.199543e+02
   9.515227e+02   4.343943e+02
  -6.425998e+01   1.023950e+03
  -8.008131e+02   7.088131e+02
  -9.372277e+02  -5.545330e+01
  -5.035849e+02  -8.495009e+02
   2.025724e+02  -9.816455e+02
   5.943576e+02  -1.663776e+02
   3.994100e+02   6.661101e+02
  -2.746830e+02   8.041667e+02
  -5.617328e+02  -3.582485e+01
  -2.824085e+02  -7.104483e+02
   3.000824e+02  -6.230209e+02
   5.421476e+02  -7.543793e+01
   4.273182e+02   3.694932e+02
   3.261881e+01   4.542200e+02
  -2.856931e+02   2.521629e+02
  -1.977055e+02   7.282445e+00
   1.518514e+02  -7.076446e+01
   3.890537e+02   1.652082e+02
   1.671182e+02   4.373303e+02
  -4.593445e+02   3.616632e+02
  -8.495748e+02  -1.251608e+02
  -4.079795e+02  -5.556898e+02
   4.346938e+02  -4.612875e+02
   7.808572e+02   7.104220e+01
   3.601681e+02   5.163762e+02
  -2.908540e+02   5.187857e+02
  -5.942993e+02   1.968562e+02
  -4.341808e+02  -2.281857e+02
  -7.337099e+01  -4.709460e+02
   2.074150e+02  -2.765387e+02
   1.818434e+02   2.291463e+02
  -1.850985e+02   4.328328e+02
  -4.725645e+02  -4.038164e+01
  -2.340935e+02  -7.125941e+02
   3.479536e+02  -7.338889e+02
   6.234243e+02  -1.052089e+00
   2.603766e+02   5.765552e+02
  -3.107914e+02   3.253333e+02
  -4.074737e+02  -3.360002e+02
   7.693591e+01  -5.621869e+02
   5.840273e+02  -1.275638e+02
   6.168746e+02   4.321846e+02
   1.492894e+02   6.077245e+02
  -4.170777e+02   3.522461e+02
  -6.644502e+02  -8.987526e+01
  -3.834898e+02  -4.072405e+02
   1.658969e+02  -3.756207e+02
   4.565832e+02  -4.790906e+01
   2.396565e+02   2.017251e+02
  -1.312589e+02   8.968028e+01
  -1.503493e+02  -1.836423e+02
   1.702869e+02  -1.983182e+02
   3.543602e+02   8.868125e+01
   1.444547e+02   3.167575e+02
  -2.063519e+02   2.610827e+02
  -3.392935e+02   6.551709e+01
  -2.100999e+02  -9.460261e+01
   1.565735e+01  -2.407630e+02
   2.273199e+02  -3.514117e+02
   3.583544e+02  -2.336080e+02
   3.083560e+02   1.476462e+02
   8.039150e+01   4.580965e+02
  -1.198891e+02   3.898916e+02
  -1.149287e+02   1.017978e+02
  -8.834428e+00  -1.404789e+01
  -3.575154e+01   1.040607e+02
  -2.089990e+02   1.494063e+02
  -3.042123e+02  -5.262622e+01
  -1.754023e+02  -2.894320e+02
   7.240614e+01  -2.733613e+02
   2.386961e+02  -1.347821e+01
   2.050357e+02   2.481712e+02
  -1.016385e+01   2.946218e+02
  -2.731884e+02   1.098868e+02
  -3.656704e+02  -1.757926e+02
  -1.850001e+02  -3.591643e+02
   1.103975e+02  -3.142232e+02
   2.364351e+02  -1.209223e+02
   1.514794e+02   3.524141e+00
   1.001766e+02  -2.973562e+01
   2.409068e+02  -6.801309e+01
   4.130922e+02   5.710737e+01
   3.411125e+02   2.939328e+02
  -3.846386e+00   4.573286e+02
  -3.737734e+02   4.253876e+02
  -5.055025e+02   1.993596e+02
  -3.472676e+02  -1.043670e+02
  -5.315002e+01  -3.021632e+02
   1.387096e+02  -2.524029e+02
   8.387110e+01  -2.657845e+01
  -1.174518e+02   1.059527e+02
  -2.047757e+02  -1.487901e+01
  -4.911926e+01  -2.058159e+02
   1.695279e+02  -1.746184e+02
   1.822819e+02   6.559332e+01
  -2.515535e+01   2.003651e+02
  -2.043217e+02   3.218705e+01
  -1.654040e+02  -2.600619e+02
   3.568196e+01  -3.643078e+02
   2.365335e+02  -2.010158e+02
   3.321574e+02   6.357067e+01
   2.840359e+02   2.469803e+02
   9.843722e+01   2.734047e+02
  -1.168153e+02   1.645877e+02
  -1.829190e+02   1.850130e+01
  -5.790121e+01  -3.540539e+01
   7.481901e+01   4.126925e+01
   2.928140e+01   1.309977e+02
  -1.326880e+02   1.026634e+02
  -1.871986e+02  -1.553603e+01
  -5.817979e+01  -7.720410e+01
   8.575302e+01  -1.720755e+01
   5.790507e+01   7.685907e+01
  -1.268571e+02   9.030501e+01
  -2.881575e+02  -1.004542e+00
  -2.686612e+02  -1.451456e+02
  -6.207629e+01  -2.626978e+02
   1.879233e+02  -2.670381e+02
   2.914550e+02  -1.270784e+02
   1.761867e+02   5.651963e+01
  -2.488219e+01   1.141556e+02
  -9.462722e+01   6.342144e+00
   3.297336e+01  -1.080340e+02
   2.018547e+02  -6.203019e+01
   2.201587e+02   1.078857e+02
   7.050302e+01   2.168860e+02
  -9.892495e+01   1.628243e+02
  -1.493689e+02   2.833114e+01
  -7.193998e+01  -4.442098e+01
   3.049037e+01  -4.124194e+00
   3.963441e+01   8.435323e+01
  -7.366795e+01   1.150654e+02
  -2.040291e+02   3.013406e+01
  -1.967029e+02  -1.257856e+02
  -2.003015e+01  -2.244772e+02
   1.721505e+02  -1.689695e+02
   2.016362e+02  -4.916305e+00
   6.673330e+01   1.205027e+02
  -7.071616e+01   1.160284e+02
  -8.840034e+01   3.104847e+01
  -2.043304e+01  -2.787156e+01
   2.219064e+01  -1.996673e+01
  -8.309236e+00   7.254217e+00
  -7.011579e+01  -9.809718e+00
  -8.943316e+01  -8.296498e+01
  -1.703108e+01  -1.598304e+02
   1.277149e+02  -1.557494e+02
   2.401877e+02  -2.862016e+01
   2.077328e+02   1.528124e+02
   4.258460e+01   2.442225e+02
  -1.129510e+02   1.743933e+02
  -1.385249e+02   2.597234e+01
  -6.897240e+01  -5.871052e+01
  -2.713026e+01  -3.632236e+01
  -5.507385e+01   1.475921e+01
  -8.172861e+01   7.964040e+00
  -4.152726e+01  -5.036933e+01
   4.398295e+01  -8.926161e+01
   1.037660e+02  -5.663018e+01
   8.549971e+01   3.592228e+01
  -1.321925e+01   1.130146e+02
  -1.424180e+02   8.796155e+01
  -2.014378e+02  -5.088581e+01
  -1.045397e+02  -2.043015e+02
   1.069982e+02  -2.339852e+02
   2.729848e+02  -9.911432e+01
   2.644690e+02   8.833986e+01
   1.121166e+02   1.824029e+02
  -4.094706e+01   1.521586e+02
  -9.847986e+01   8.614562e+01
  -8.264673e+01   6.936230e+01
  -6.843848e+01   8.924979e+01
  -9.297818e+01   7.332601e+01
  -1.288637e+02  -2.250704e+01
  -1.191162e+02  -1.559240e+02
  -3.091010e+01  -2.302590e+02
   1.003921e+02  -1.760820e+02
   1.806804e+02  -2.121067e+01
   1.417560e+02   1.247685e+02
   2.096809e+01   1.635140e+02
  -6.984157e+01   9.504017e+01
  -6.390880e+01   1.662388e+00
  -6.189802e+00  -4.311229e+01
   1.224364e+01  -3.576499e+01
  -3.419927e+01  -1.884924e+01
  -8.011417e+01  -2.224140e+01
  -4.791677e+01  -3.780762e+01
   6.182555e+01  -3.773713e+01
   1.596883e+02  -4.355428e+00
   1.466966e+02   5.129197e+01
   1.727472e+01   8.992879e+01
  -1.213043e+02   7.494794e+01
  -1.470840e+02   1.310957e+01
  -4.998218e+01  -4.111192e+01
   5.952039e+01  -3.711624e+01
   7.596720e+01   1.862583e+01
   8.905966e+00   6.729328e+01
  -5.355101e+01   5.780918e+01
  -6.179793e+01  -5.117658e-01
  -4.400265e+01  -4.890269e+01
  -4.488811e+01  -4.257632e+01
  -6.251636e+01  -3.349268e+00
  -6.635701e+01   3.559317e-01
  -3.530535e+01  -6.568092e+01
   3.232757e+01  -1.461617e+02
   1.162696e+02  -1.441527e+02
   1.659822e+02  -3.522513e+01
   1.255704e+02   9.201100e+01
   7.392772e+00   1.279866e+02
  -8.686539e+01   6.169882e+01
  -6.136855e+01  -1.568534e+01
   5.933894e+01  -1.929446e+01
   1.398984e+02   4.549241e+01
   7.788523e+01   1.092578e+02
  -8.154647e+01   1.136938e+02
  -1.946200e+02   5.289072e+01
  -1.668175e+02  -3.394407e+01
  -3.965609e+01  -8.857979e+01
   6.150326e+01  -7.338795e+01
   5.124789e+01  -9.303233e+00
  -3.653045e+01   2.709510e+01
  -8.954206e+01  -2.162477e+01
  -3.289912e+01  -1.186302e+02
   9.138565e+01  -1.548879e+02
   1.677957e+02  -6.221386e+01
   1.271518e+02   1.017710e+02
   1.004120e+01   1.990237e+02
  -8.643437e+01   1.449718e+02
  -1.058304e+02  -7.095715e+00
  -6.104414e+01  -1.197518e+02
   2.562165e+00  -1.086049e+02
   4.709525e+01  -2.084436e+01
   5.296625e+01   3.243641e+01
   2.618317e+01   9.875359e+00
   4.034932e+00  -2.094417e+01
   2.105359e+01   1.421366e+01
   5.659696e+01   8.957734e+01
   4.247509e+01   1.118694e+02
  -4.748740e+01   4.652428e+01
  -1.397944e+02  -4.060765e+01
  -1.308696e+02  -7.249725e+01
  -1.731351e+01  -4.952169e+01
   8.889472e+01  -2.101337e+01
   8.891405e+01  -7.201036e+00
   1.044207e+01   7.199940e+00
  -3.958231e+01   2.272363e+01
  -1.495070e+01   1.891992e+01
   2.110465e+01  -1.809940e+00
  -5.540683e+00  -1.063622e+01
  -7.386515e+01  -5.229936e+00
  -9.113842e+01  -2.344360e+01
  -8.151239e+00  -7.910780e+01
   1.187620e+02  -1.138267e+02
   1.857657e+02  -5.932981e+01
   1.419778e+02   6.680912e+01
   2.633384e+01   1.624313e+02
  -7.857765e+01   1.510386e+02
  -1.143092e+02   5.942127e+01
  -8.119963e+01  -2.140738e+01
  -2.544911e+01  -3.577018e+01
   2.888902e+00  -8.916757e+00
  -1.031932e+01  -3.827263e+00
  -3.307305e+01  -4.543743e+01
  -2.234259e+01  -9.029140e+01
   2.989363e+01  -7.192708e+01
   8.110856e+01   1.897224e+01
   7.630827e+01   1.094611e+02
   3.287002e+00   1.125397e+02
  -8.241308e+01   2.269658e+01
  -1.023196e+02  -7.665940e+01
  -3.166336e+01  -1.031901e+02
   6.618875e+01  -5.434063e+01
   9.768648e+01   1.221297e+01
   3.970840e+01   4.972189e+01
  -3.226643e+01   5.114250e+01
  -3.145161e+01   2.888513e+01
   3.362960e+01   7.073972e-01
   6.954780e+01  -6.580573e+00
   1.543996e+01   2.440695e+01
  -7.924937e+01   6.610722e+01
  -1.159611e+02   5.969870e+01
  -6.387138e+01  -1.101160e+01
   1.607739e+01  -8.299445e+01
   5.254957e+01  -8.001109e+01
   3.554991e+01  -5.813715e+00
   3.396922e-02   5.554656e+01
  -2.553030e+01   4.147280e+01
  -3.490242e+01  -1.992116e+01
  -2.477640e+01  -5.471131e+01
   3.710760e+00  -3.230615e+01
   3.333382e+01   9.415976e+00
   3.994773e+01   2.149557e+01
   2.103584e+01   1.328823e+00
  -5.231379e-01  -1.303875e+01
  -7.354013e+00   4.469297e+00
  -7.949465e+00   3.695265e+01
  -1.770222e+01   4.340361e+01
  -3.198521e+01   5.453553e+00
  -2.853477e+01  -4.640867e+01
   4.148081e+00  -6.102223e+01
   4.578490e+01  -1.935029e+01
   5.651503e+01   4.063775e+01
   1.419598e+01   6.427206e+01
  -5.487372e+01   3.430353e+01
  -8.879250e+01  -1.577015e+01
  -4.940256e+01  -4.421008e+01
   2.879057e+01  -4.032243e+01
   6.505421e+01  -2.061850e+01
   2.410092e+01  -4.535823e+00
  -3.811213e+01  -2.818170e+00
  -3.841034e+01  -1.628144e+01
   3.164309e+01  -3.100485e+01
   9.281341e+01  -1.846584e+01
