
 $NMID
 id='ANONYMOUS ', fmtdat='(2E16.6)'
 volume=1.0
 tramp=1.0
 $END
  -3.947379e+03   4.621349e+01
  -2.773915e+03  -2.450062e+03
   4.010564e+02  -2.712995e+03
   2.032995e+03  -1.341568e+03
   1.203034e+03   6.342708e+02
  -4.434910e+02   3.901079e+02
  -8.626747e+02  -3.186197e+02
   3.838289e+01  -9.412312e+02
   6.861930e+02  -7.904534e+02
   7.757849e+02   3.608765e+01
   4.108729e+02   8.961660e+02
  -1.722582e+02   8.598110e+02
  -6.045306e+02   1.812992e+02
  -3.913994e+02  -6.447869e+02
   2.256189e+02  -7.258626e+02
   5.604196e+02  -3.601768e+01
   3.061730e+02   6.686118e+02
  -2.859566e+02   6.419208e+02
  -5.574080e+02   1.175747e+02
  -4.145036e+02  -3.627389e+02
  -1.094813e+01  -4.148596e+02
   1.878843e+02  -2.817229e+02
   1.964465e+02  -3.878664e+01
  -1.660273e+02   7.226628e+01
  -3.986872e+02  -1.548050e+02
  -2.028133e+02  -4.301259e+02
   4.595460e+02  -3.930684e+02
   8.457600e+02   8.034090e+01
   4.284701e+02   5.354226e+02
  -3.902562e+02   4.701057e+02
  -7.542140e+02  -4.425508e+01
  -3.523789e+02  -4.815703e+02
   2.788436e+02  -5.432950e+02
   5.765013e+02  -2.026099e+02
   4.171198e+02   2.389621e+02
   6.739395e+01   4.736808e+02
  -1.944235e+02   2.855627e+02
  -1.664158e+02  -2.281816e+02
   1.702308e+02  -4.431999e+02
   4.627511e+02   3.568950e+01
   2.372270e+02   7.006255e+02
  -3.277006e+02   7.283661e+02
  -6.375510e+02   3.913084e+00
  -2.692476e+02  -5.901950e+02
   3.025411e+02  -3.433058e+02
   4.196955e+02   3.301611e+02
  -4.258859e+01   5.785476e+02
  -5.483360e+02   1.536367e+02
  -6.075222e+02  -4.107776e+02
  -1.775338e+02  -6.006095e+02
   3.780275e+02  -3.507964e+02
   6.346998e+02   7.921119e+01
   3.865861e+02   3.890504e+02
  -1.526685e+02   3.682865e+02
  -4.542469e+02   6.015486e+01
  -2.535425e+02  -2.017024e+02
   1.214447e+02  -1.239138e+02
   1.595547e+02   1.446915e+02
  -1.552735e+02   1.977276e+02
  -3.568835e+02  -5.829281e+01
  -1.585510e+02  -3.007480e+02
   2.009312e+02  -2.745415e+02
   3.459866e+02  -8.125381e+01
   2.139269e+02   9.248531e+01
  -2.140062e+01   2.362377e+02
  -2.293847e+02   3.366476e+02
  -3.475115e+02   2.264311e+02
  -2.965194e+02  -1.355610e+02
  -8.161643e+01  -4.405999e+02
   1.114203e+02  -3.844710e+02
   1.154846e+02  -1.038895e+02
   1.870232e+01   1.663989e+01
   3.507305e+01  -9.652492e+01
   1.841402e+02  -1.459963e+02
   2.689773e+02   4.352228e+01
   1.566153e+02   2.641345e+02
  -6.508380e+01   2.457472e+02
  -2.148776e+02  -5.213214e-01
  -1.892893e+02  -2.395819e+02
   5.057609e+00  -2.845628e+02
   2.562859e+02  -1.140505e+02
   3.580861e+02   1.549588e+02
   1.945008e+02   3.357834e+02
  -9.439899e+01   3.017251e+02
  -2.254685e+02   1.251120e+02
  -1.543742e+02   9.657732e+00
  -9.420978e+01   3.382600e+01
  -2.261559e+02   6.659311e+01
  -3.979471e+02  -5.775642e+01
  -3.352331e+02  -2.796611e+02
  -2.731480e+00  -4.357117e+02
   3.537996e+02  -4.089217e+02
   4.807935e+02  -2.042883e+02
   3.318955e+02   8.487322e+01
   5.556228e+01   2.896295e+02
  -1.250319e+02   2.533689e+02
  -8.110265e+01   2.941613e+01
   1.102182e+02  -1.130661e+02
   1.971820e+02   2.229434e+00
   5.144626e+01   1.993781e+02
  -1.614222e+02   1.774143e+02
  -1.826269e+02  -5.917639e+01
   1.394972e+01  -1.980661e+02
   1.943393e+02  -4.042728e+01
   1.658687e+02   2.436716e+02
  -2.525858e+01   3.463742e+02
  -2.237110e+02   1.938459e+02
  -3.235064e+02  -5.960204e+01
  -2.799777e+02  -2.335716e+02
  -9.839125e+01  -2.611818e+02
   1.142654e+02  -1.605939e+02
   1.810009e+02  -2.256386e+01
   5.829030e+01   3.097053e+01
  -7.499413e+01  -4.004010e+01
  -3.247395e+01  -1.263484e+02
   1.269920e+02  -1.008027e+02
   1.835715e+02   1.245021e+01
   5.985773e+01   7.368229e+01
  -8.101668e+01   1.875748e+01
  -5.573835e+01  -7.034781e+01
   1.212868e+02  -8.539345e+01
   2.758222e+02  -2.440625e+00
   2.576241e+02   1.336655e+02
   6.108369e+01   2.503394e+02
  -1.772022e+02   2.607932e+02
  -2.781226e+02   1.280014e+02
  -1.699422e+02  -5.260721e+01
   2.310714e+01  -1.126240e+02
   9.274466e+01  -8.660883e+00
  -2.897420e+01   1.050806e+02
  -1.935559e+02   6.335782e+01
  -2.142355e+02  -1.008131e+02
  -7.133826e+01  -2.078683e+02
   9.285021e+01  -1.574851e+02
   1.438236e+02  -2.931033e+01
   7.188922e+01   3.941582e+01
  -2.556541e+01   1.504205e+00
  -3.642899e+01  -8.090253e+01
   6.952404e+01  -1.086224e+02
   1.948238e+02  -2.752359e+01
   1.910465e+02   1.213302e+02
   2.345761e+01   2.168192e+02
  -1.635905e+02   1.652920e+02
  -1.964794e+02   7.401414e+00
  -6.876630e+01  -1.154364e+02
   6.552564e+01  -1.130993e+02
   8.501329e+01  -3.195487e+01
   2.062246e+01   2.474629e+01
  -2.004331e+01   1.807377e+01
   9.519611e+00  -6.980008e+00
   7.078731e+01   1.019923e+01
   8.796989e+01   8.215797e+01
   1.595256e+01   1.559295e+02
  -1.246351e+02   1.519903e+02
  -2.324788e+02   2.909950e+01
  -2.021967e+02  -1.456600e+02
  -4.372309e+01  -2.351214e+02
   1.067746e+02  -1.697901e+02
   1.336018e+02  -2.677507e+01
   6.842406e+01   5.533273e+01
   2.666679e+01   3.340540e+01
   5.323785e+01  -1.522880e+01
   7.984423e+01  -6.826198e+00
   4.118424e+01   5.140894e+01
  -4.140067e+01   8.972615e+01
  -1.007698e+02   5.585194e+01
  -8.517708e+01  -3.552260e+01
   1.017939e+01  -1.110184e+02
   1.349695e+02  -8.699677e+01
   1.945560e+02   4.673351e+01
   1.048662e+02   1.968063e+02
  -9.836845e+01   2.256252e+02
  -2.609241e+02   9.811876e+01
  -2.568768e+02  -8.109604e+01
  -1.121595e+02  -1.721281e+02
   3.589116e+01  -1.462683e+02
   9.244581e+01  -8.564815e+01
   7.713456e+01  -7.118413e+01
   6.459223e+01  -9.067993e+01
   9.032808e+01  -7.383944e+01
   1.268415e+02   2.004949e+01
   1.185774e+02   1.504166e+02
   3.333585e+01   2.227230e+02
  -9.466961e+01   1.720524e+02
  -1.747106e+02   2.355871e+01
  -1.390072e+02  -1.176566e+02
  -2.271768e+01  -1.570519e+02
   6.554211e+01  -9.205581e+01
   6.041341e+01  -1.960635e+00
   5.664521e+00   4.079158e+01
  -1.063462e+01   3.289389e+01
   3.467064e+01   1.682776e+01
   7.777223e+01   2.191686e+01
   4.537733e+01   3.811678e+01
  -6.025145e+01   3.746215e+01
  -1.540549e+02   4.598207e+00
  -1.418228e+02  -4.856870e+01
  -1.737027e+01  -8.605932e+01
   1.163679e+02  -7.301535e+01
   1.410117e+02  -1.387766e+01
   4.607486e+01   3.994305e+01
  -5.995582e+01   3.688986e+01
  -7.414522e+01  -1.916981e+01
  -6.927680e+00  -6.827091e+01
   5.465382e+01  -5.774200e+01
   6.141045e+01   2.038659e+00
   4.281266e+01   4.988363e+01
   4.255628e+01   4.138108e+01
   5.949397e+01   1.072248e+00
   6.413659e+01  -1.484709e+00
   3.538528e+01   6.477339e+01
  -2.882063e+01   1.437740e+02
  -1.109549e+02   1.412519e+02
  -1.608184e+02   3.565906e+01
  -1.240107e+02  -8.809530e+01
  -9.327958e+00  -1.245298e+02
   8.410088e+01  -6.137836e+01
   6.040588e+01   1.470559e+01
  -5.729329e+01   2.144055e+01
  -1.363452e+02  -4.006770e+01
  -7.739419e+01  -1.042734e+02
   7.660206e+01  -1.124156e+02
   1.864235e+02  -5.518754e+01
   1.604689e+02   3.004288e+01
   3.871645e+01   8.542308e+01
  -5.829619e+01   7.143242e+01
  -4.811763e+01   8.403730e+00
   3.734677e+01  -2.808635e+01
   8.921139e+01   1.959995e+01
   3.457662e+01   1.161354e+02
  -8.721283e+01   1.541025e+02
  -1.640091e+02   6.444146e+01
  -1.264972e+02  -9.737290e+01
  -1.290858e+01  -1.947078e+02
   8.290423e+01  -1.428474e+02
   1.038132e+02   6.385351e+00
   6.128333e+01   1.162248e+02
  -1.156146e+00   1.050073e+02
  -4.578551e+01   1.984820e+01
  -5.228231e+01  -3.058813e+01
  -2.579007e+01  -8.149067e+00
  -3.423616e+00   2.093447e+01
  -2.016017e+01  -1.389771e+01
  -5.581688e+01  -8.582167e+01
  -4.342743e+01  -1.070399e+02
   4.436983e+01  -4.583956e+01
   1.356878e+02   3.572720e+01
   1.287967e+02   6.722839e+01
   1.834413e+01   4.863637e+01
  -8.617814e+01   2.317124e+01
  -8.665941e+01   8.047407e+00
  -9.744089e+00  -8.674144e+00
   3.949253e+01  -2.355695e+01
   1.523786e+01  -1.755788e+01
  -2.059904e+01   3.285230e+00
   5.141976e+00   9.711118e+00
   7.279104e+01   2.432046e+00
   9.100079e+01   2.172842e+01
   1.088595e+01   7.932262e+01
  -1.137381e+02   1.151352e+02
  -1.811158e+02   6.089697e+01
  -1.408818e+02  -6.422106e+01
  -2.881681e+01  -1.588053e+02
   7.475788e+01  -1.479120e+02
   1.116197e+02  -5.841022e+01
   8.004600e+01   2.023213e+01
   2.507673e+01   3.403165e+01
  -3.379359e+00   8.216409e+00
   9.509339e+00   3.547135e+00
   3.332486e+01   4.418858e+01
   2.399999e+01   8.760132e+01
  -2.751263e+01   7.038514e+01
  -7.963933e+01  -1.688194e+01
  -7.662684e+01  -1.047088e+02
  -5.218091e+00  -1.098069e+02
   8.035704e+01  -2.434728e+01
   1.017416e+02   7.230057e+01
   3.273343e+01   1.005121e+02
  -6.392347e+01   5.501092e+01
  -9.547497e+01  -1.035246e+01
  -3.878812e+01  -4.832568e+01
   3.165636e+01  -5.014927e+01
   3.027032e+01  -2.775919e+01
  -3.370898e+01   4.928500e-01
  -6.838235e+01   6.867764e+00
  -1.525976e+01  -2.449508e+01
   7.671922e+01  -6.565430e+01
   1.126242e+02  -5.911306e+01
   6.271300e+01   1.055095e+01
  -1.361011e+01   8.130491e+01
  -4.962690e+01   7.824091e+01
  -3.531869e+01   6.325248e+00
  -2.334714e+00  -5.361754e+01
   2.382839e+01  -4.088812e+01
   3.519635e+01   1.815529e+01
   2.627329e+01   5.186912e+01
  -2.807902e+00   3.124173e+01
  -3.282029e+01  -8.160867e+00
  -3.885624e+01  -1.969620e+01
  -2.002131e+01  -1.141055e+00
   9.958879e-01   1.253727e+01
   6.820975e+00  -3.881823e+00
   6.776840e+00  -3.533908e+01
   1.666958e+01  -4.272508e+01
   3.158175e+01  -6.970731e+00
   2.891922e+01   4.428014e+01
  -3.094500e+00   6.039853e+01
  -4.473110e+01   2.042829e+01
  -5.626996e+01  -3.925440e+01
  -1.480146e+01  -6.367284e+01
   5.389947e+01  -3.477151e+01
   8.764912e+01   1.474580e+01
   4.854086e+01   4.304760e+01
  -2.784571e+01   3.927266e+01
  -6.283736e+01   2.004912e+01
  -2.250431e+01   4.225246e+00
   3.804718e+01   2.351183e+00
   3.796136e+01   1.597229e+01
  -2.967071e+01   3.184348e+01
  -8.940361e+01   2.107338e+01
