
 $NMID
 id='ANONYMOUS ', fmtdat='(2E16.6)'
 volume=1.0
 tramp=1.0
 $END
   2.768432e+03   3.634304e+02
   1.827867e+03   1.632871e+03
   7.056461e+01   1.922516e+03
  -1.141880e+03   1.081661e+03
  -7.635224e+02   1.643782e+02
  -1.117685e+01  -2.413833e+02
   3.958968e+02   6.780586e+01
   9.528763e+01   5.216487e+02
  -4.170917e+02   5.525008e+02
  -6.630436e+02   7.245751e+01
  -2.916725e+02  -4.767616e+02
   1.074616e+02  -5.032705e+02
   2.340743e+02  -2.771034e+01
   1.670324e+02   3.666705e+02
  -1.112632e+02   4.630478e+02
  -3.547597e+02   2.035746e+01
  -2.625309e+02  -4.745032e+02
   1.187051e+02  -6.364603e+02
   4.396029e+02  -3.248412e+02
   4.122970e+02   1.483105e+02
   1.685834e+02   3.561293e+02
  -4.901257e+01   2.154411e+02
   1.261627e+01   8.530042e+01
   1.628105e+02   1.370891e+02
   1.819676e+02   2.740923e+02
  -9.779566e+01   3.320839e+02
  -4.763481e+02   1.159361e+02
  -5.002664e+02  -2.008338e+02
  -1.445342e+02  -3.012134e+02
   2.924063e+02  -1.346769e+02
   4.371490e+02   1.483669e+02
   1.353580e+02   3.044925e+02
  -2.463430e+02   2.772496e+02
  -3.849748e+02   1.071673e+02
  -2.839190e+02  -1.062558e+02
  -1.102518e+02  -2.255583e+02
  -5.741178e+01  -1.401802e+02
  -1.334580e+02   2.471149e+01
  -1.666313e+02   3.428958e+01
  -9.165508e+01  -1.663485e+02
   5.899822e+01  -3.924363e+02
   2.053621e+02  -3.230986e+02
   2.055752e+02  -1.842179e+01
   8.756054e+01   1.692634e+02
  -5.540492e+01   4.795742e+01
  -5.184510e+01  -2.138955e+02
   1.453526e+02  -2.614183e+02
   3.844737e+02   4.231298e+00
   4.185650e+02   3.351275e+02
   1.507544e+02   4.158573e+02
  -2.379925e+02   2.279293e+02
  -4.485504e+02  -2.988769e+01
  -3.254694e+02  -1.653862e+02
  -2.011486e+01  -1.630366e+02
   2.010920e+02  -1.055716e+02
   1.985381e+02  -5.363201e+01
   6.237139e+01  -2.072877e+01
  -7.696792e+00  -1.129238e+01
   7.023041e+01  -7.662781e+00
   1.700356e+02   3.593910e+01
   1.106229e+02   1.371799e+02
  -1.180674e+02   2.150806e+02
  -3.139798e+02   1.455958e+02
  -2.637389e+02  -8.837636e+01
   1.873621e+01  -3.238605e+02
   2.960760e+02  -3.542811e+02
   3.542941e+02  -1.392358e+02
   2.087581e+02   1.520902e+02
   4.660855e+01   3.131205e+02
  -5.982460e+00   2.929430e+02
   1.070712e+00   1.999242e+02
  -4.714885e+01   1.415416e+02
  -1.646116e+02   1.060003e+02
  -2.514774e+02   1.268088e+01
  -2.155508e+02  -1.425711e+02
  -6.842882e+01  -2.403749e+02
   9.699812e+01  -1.624247e+02
   1.812035e+02   5.896883e+01
   1.201597e+02   2.455277e+02
  -6.341304e+01   2.344126e+02
  -2.482556e+02   4.000714e+01
  -2.912464e+02  -1.802158e+02
  -1.567364e+02  -2.800931e+02
   3.488775e+01  -2.434573e+02
   1.372319e+02  -1.620483e+02
   1.379444e+02  -1.126010e+02
   1.711011e+02  -8.749440e+01
   3.009594e+02  -2.323674e+01
   4.054685e+02   1.174187e+02
   2.964013e+02   3.032979e+02
  -4.512385e+01   4.255176e+02
  -3.824604e+02   3.733504e+02
  -4.585451e+02   1.557954e+02
  -2.603679e+02  -9.909823e+01
  -9.929380e+00  -2.288429e+02
   7.229625e+01  -1.733290e+02
  -1.574238e+01  -4.348520e+01
  -1.148335e+02   8.025612e+00
  -1.002709e+02  -5.264030e+01
   7.597541e+00  -1.185168e+02
   9.776410e+01  -7.395346e+01
   8.145847e+01   5.316773e+01
  -3.185285e+01   1.031882e+02
  -1.422732e+02  -2.202874e+01
  -1.371600e+02  -2.339160e+02
   2.476961e+01  -3.315008e+02
   2.486036e+02  -1.989312e+02
   3.617182e+02   7.078351e+01
   2.685951e+02   2.708230e+02
   4.399291e+01   2.716415e+02
  -1.285662e+02   1.293162e+02
  -1.340230e+02   4.626287e+00
  -2.987153e+01  -8.975935e-01
   3.087142e+01   6.946299e+01
  -2.516293e+01   1.014400e+02
  -1.204662e+02   4.508635e+01
  -1.242740e+02  -3.562773e+01
  -1.484278e+01  -4.599596e+01
   8.220284e+01   2.787764e+01
   2.911534e+01   1.038253e+02
  -1.606147e+02   8.927837e+01
  -3.108506e+02  -3.177891e+01
  -2.550337e+02  -1.862726e+02
  -1.299914e+01  -2.689688e+02
   2.195024e+02  -2.218483e+02
   2.624469e+02  -8.102528e+01
   1.228545e+02   4.417540e+01
  -3.181015e+01   6.255675e+01
  -5.002422e+01  -1.098788e+01
   6.387360e+01  -6.633262e+01
   1.768419e+02  -1.597116e+01
   1.692025e+02   1.037456e+02
   4.494746e+01   1.709978e+02
  -8.409951e+01   1.182735e+02
  -1.096564e+02   1.040170e+01
  -2.957049e+01  -3.054063e+01
   4.946083e+01   3.493680e+01
   2.000144e+01   1.225757e+02
  -1.100039e+02   1.205090e+02
  -2.140693e+02   5.219020e+00
  -1.734223e+02  -1.380464e+02
  -5.613047e+00  -1.994836e+02
   1.460400e+02  -1.393559e+02
   1.578254e+02  -1.385662e+01
   4.825627e+01   7.853103e+01
  -5.489793e+01   8.011160e+01
  -5.694349e+01   2.068747e+01
   1.189462e+01  -2.001676e+01
   4.656792e+01  -1.559624e-01
  -9.014964e+00   3.550299e+01
  -9.777591e+01   7.896224e+00
  -1.132800e+02  -9.412110e+01
  -8.619921e+00  -1.820747e+02
   1.504054e+02  -1.510969e+02
   2.377774e+02   1.666682e+00
   1.832676e+02   1.653649e+02
   3.178177e+01   2.220976e+02
  -9.822234e+01   1.496903e+02
  -1.248144e+02   2.976294e+01
  -7.520585e+01  -3.663532e+01
  -3.753462e+01  -2.308922e+01
  -5.848282e+01   1.363300e+01
  -9.365750e+01   2.827670e+00
  -6.354540e+01  -6.408375e+01
   4.277811e+01  -1.137229e+02
   1.380312e+02  -6.989300e+01
   1.187221e+02   5.035256e+01
  -2.318116e+01   1.374652e+02
  -1.790839e+02   8.920565e+01
  -2.077852e+02  -7.526556e+01
  -6.983000e+01  -2.174195e+02
   1.381311e+02  -2.146645e+02
   2.654958e+02  -6.948277e+01
   2.328772e+02   9.476259e+01
   9.100148e+01   1.634649e+02
  -4.057690e+01   1.296113e+02
  -8.583591e+01   7.513909e+01
  -6.637625e+01   6.925001e+01
  -5.483720e+01   9.615576e+01
  -8.822902e+01   8.196294e+01
  -1.315652e+02  -1.731346e+01
  -1.179962e+02  -1.538382e+02
  -2.273935e+01  -2.233248e+02
   1.018408e+02  -1.603898e+02
   1.646859e+02  -4.276866e+00
   1.164656e+02   1.301308e+02
   5.270109e-01   1.529462e+02
  -7.993880e+01   7.329195e+01
  -6.216859e+01  -2.286742e+01
   9.458138e+00  -6.057835e+01
   3.472216e+01  -3.912988e+01
  -2.272113e+01  -1.066829e+01
  -8.519866e+01  -1.466306e+01
  -4.989378e+01  -3.832038e+01
   7.971825e+01  -3.853811e+01
   1.811445e+02   6.265167e+00
   1.429424e+02   7.083841e+01
  -1.052872e+01   1.041303e+02
  -1.429603e+02   7.452601e+01
  -1.472997e+02   8.700228e-01
  -4.404727e+01  -5.728990e+01
   5.885248e+01  -4.913221e+01
   7.991780e+01   1.757713e+01
   2.631174e+01   7.780309e+01
  -4.087416e+01   7.102946e+01
  -7.307340e+01   4.679286e+00
  -6.700474e+01  -5.141256e+01
  -5.141886e+01  -4.406502e+01
  -5.218958e+01  -2.398745e+00
  -6.385535e+01  -3.726114e+00
  -4.867464e+01  -7.703773e+01
   2.511114e+01  -1.557311e+02
   1.318719e+02  -1.455897e+02
   1.897818e+02  -3.147760e+01
   1.333488e+02   9.666857e+01
  -1.786578e+00   1.361229e+02
  -9.710332e+01   7.390743e+01
  -6.417880e+01  -7.915348e+00
   5.639475e+01  -2.171382e+01
   1.295079e+02   3.867819e+01
   6.650269e+01   1.036220e+02
  -8.330673e+01   1.048300e+02
  -1.837110e+02   3.708401e+01
  -1.490954e+02  -4.551062e+01
  -2.533917e+01  -8.159343e+01
   6.497392e+01  -5.159524e+01
   4.621069e+01   8.328232e+00
  -4.245515e+01   3.209931e+01
  -9.421934e+01  -2.026832e+01
  -4.342291e+01  -1.143624e+02
   7.208396e+01  -1.551083e+02
   1.510285e+02  -7.453077e+01
   1.256388e+02   8.351166e+01
   2.047397e+01   1.851853e+02
  -7.773138e+01   1.369853e+02
  -1.011251e+02  -1.138409e+01
  -5.074919e+01  -1.172285e+02
   1.852788e+01  -9.838420e+01
   5.240843e+01  -1.249657e+01
   3.926800e+01   3.116280e+01
   1.065272e+01   6.130922e+00
   7.323911e+00  -1.539525e+01
   3.609672e+01   2.445111e+01
   5.810432e+01   8.930246e+01
   2.447707e+01   1.005362e+02
  -6.186798e+01   3.921828e+01
  -1.321515e+02  -3.700293e+01
  -1.152780e+02  -6.947593e+01
  -1.703546e+01  -5.577211e+01
   7.557064e+01  -2.792674e+01
   8.453048e+01  -4.188178e+00
   2.239027e+01   1.381047e+01
  -2.957842e+01   2.044803e+01
  -2.159159e+01   9.881788e+00
   1.005044e+01  -4.507999e+00
  -2.002686e+00  -3.359820e+00
  -6.051134e+01   3.043892e+00
  -9.097225e+01  -2.073398e+01
  -2.812197e+01  -7.975015e+01
   9.947213e+01  -1.177455e+02
   1.870703e+02  -7.022682e+01
   1.577893e+02   5.179327e+01
   3.645717e+01   1.551749e+02
  -7.989815e+01   1.574603e+02
  -1.170954e+02   7.096148e+01
  -8.019177e+01  -1.703026e+01
  -2.742963e+01  -4.029436e+01
  -5.482580e+00  -1.674113e+01
  -1.519571e+01  -1.082121e+01
  -2.765083e+01  -4.951532e+01
  -1.469100e+01  -9.005278e+01
   2.837126e+01  -7.144134e+01
   7.560014e+01   1.186863e+01
   8.133639e+01   9.585667e+01
   2.081001e+01   1.082078e+02
  -6.968094e+01   3.750738e+01
  -1.070457e+02  -5.716474e+01
  -4.563126e+01  -1.020935e+02
   6.158344e+01  -7.043315e+01
   1.072144e+02   3.425162e+00
   5.016853e+01   6.160689e+01
  -3.423585e+01   6.766869e+01
  -4.496291e+01   3.002267e+01
   2.084457e+01  -9.743210e+00
   6.697583e+01  -1.147586e+01
   2.098432e+01   2.772025e+01
  -7.614798e+01   6.467846e+01
  -1.222358e+02   4.978948e+01
  -7.448188e+01  -1.959198e+01
   1.253929e+01  -8.528712e+01
   6.113970e+01  -8.396906e+01
   4.962906e+01  -1.608860e+01
   1.014630e+01   5.049742e+01
  -2.302337e+01   5.177958e+01
  -3.763360e+01  -5.528981e+00
  -2.997931e+01  -5.431278e+01
  -6.622367e-01  -4.482854e+01
   3.361893e+01   2.168749e+00
   4.389653e+01   2.786563e+01
   2.126727e+01   7.289537e+00
  -5.910127e+00  -2.351985e+01
  -6.477885e+00  -1.574062e+01
   1.132271e+01   2.853815e+01
   9.705712e+00   5.752207e+01
  -2.326480e+01   3.175918e+01
  -4.886758e+01  -2.705829e+01
  -2.418399e+01  -5.786776e+01
   3.630786e+01  -2.970456e+01
   6.638459e+01   2.695575e+01
   2.326954e+01   5.671821e+01
  -5.752062e+01   3.742698e+01
  -9.529745e+01  -7.765869e+00
  -5.150305e+01  -4.215929e+01
   2.811860e+01  -4.907391e+01
   6.482918e+01  -3.325379e+01
   3.174599e+01  -8.534763e+00
  -2.189493e+01   7.035609e+00
  -2.986606e+01  -1.848241e-01
   1.813144e+01  -2.108686e+01
   6.886195e+01  -2.139999e+01
