
 $NMID
 id='ANONYMOUS ', fmtdat='(2E16.6)'
 volume=1.0
 tramp=1.0
 $END
  -3.403693e+03  -1.547774e+01
  -1.893334e+03  -1.465703e+03
   7.530144e+01  -2.028769e+03
   1.404052e+03  -9.698777e+02
   1.131479e+03  -1.510255e+02
  -2.110354e+02   3.740611e+02
  -4.664221e+02  -4.795019e+01
  -4.058657e+01  -6.393760e+02
   4.924734e+02  -5.950852e+02
   6.783595e+02  -6.351645e+01
   4.746199e+02   5.988714e+02
  -1.809001e+01   7.810656e+02
  -2.245385e+02   2.951697e+02
  -1.884376e+02  -4.188905e+02
   1.130630e+02  -5.211518e+02
   3.725742e+02  -9.932304e+01
   2.830358e+02   4.758486e+02
  -1.749926e+02   5.632228e+02
  -4.727857e+02   2.563829e+02
  -4.545380e+02  -1.802793e+02
  -1.580307e+02  -3.389699e+02
   1.174071e+02  -2.411493e+02
   1.112097e+02  -1.153517e+02
  -1.204731e+02  -8.402549e+01
  -2.730766e+02  -2.613646e+02
  -5.991010e+00  -3.293639e+02
   4.419492e+02  -1.812078e+02
   6.136283e+02   1.366090e+02
   2.812901e+02   3.542912e+02
  -2.904435e+02   2.521690e+02
  -4.895183e+02  -6.497071e+01
  -2.065554e+02  -3.369951e+02
   2.450984e+02  -3.757954e+02
   4.688312e+02  -1.337360e+02
   3.270671e+02   1.797126e+02
   7.590306e+01   3.531468e+02
  -5.605451e+01   2.237406e+02
   3.791977e+00  -8.631491e+01
   1.698643e+02  -1.871839e+02
   2.043662e+02   1.045751e+02
   3.970515e+01   4.679316e+02
  -2.454544e+02   4.486397e+02
  -3.423786e+02   6.833805e+00
  -1.314821e+02  -3.191903e+02
   1.635529e+02  -1.405048e+02
   2.005906e+02   2.748640e+02
  -1.054512e+02   4.112894e+02
  -4.446334e+02   7.842840e+01
  -4.985818e+02  -3.514266e+02
  -1.770273e+02  -4.872659e+02
   2.791273e+02  -2.687127e+02
   5.119284e+02   5.463648e+01
   3.463990e+02   2.503086e+02
  -4.465705e+01   2.293229e+02
  -3.083095e+02   8.082867e+01
  -2.404254e+02  -3.968780e+01
  -8.489762e+00  -2.906551e+01
   6.276672e+01   5.915131e+01
  -9.973940e+01   7.442527e+01
  -2.470142e+02  -5.111750e+01
  -1.362850e+02  -2.137557e+02
   1.602091e+02  -2.578139e+02
   3.504291e+02  -1.285354e+02
   2.527322e+02   1.055956e+02
  -4.013967e+01   3.117311e+02
  -2.931513e+02   3.516816e+02
  -3.503585e+02   1.613149e+02
  -2.297019e+02  -1.515983e+02
  -6.584787e+01  -3.601066e+02
   2.212909e+01  -3.366564e+02
   3.334649e+01  -1.875287e+02
   5.840701e+01  -1.002708e+02
   1.474855e+02  -9.701101e+01
   2.363332e+02  -4.414463e+01
   2.222273e+02   1.149977e+02
   8.779973e+01   2.461647e+02
  -7.807096e+01   1.914585e+02
  -1.752281e+02  -3.075679e+01
  -1.407046e+02  -2.310221e+02
   2.721719e+01  -2.503354e+02
   2.351661e+02  -7.581020e+01
   3.147144e+02   1.588353e+02
   1.853052e+02   2.968313e+02
  -4.647241e+01   2.718609e+02
  -1.729537e+02   1.591381e+02
  -1.489861e+02   8.059694e+01
  -1.435398e+02   6.843036e+01
  -2.726297e+02   3.905660e+01
  -4.143825e+02  -9.690479e+01
  -3.195141e+02  -3.016085e+02
   3.031809e+01  -4.354752e+02
   3.836998e+02  -3.901418e+02
   4.752871e+02  -1.741307e+02
   2.847019e+02   9.490906e+01
   2.780163e+01   2.491642e+02
  -8.364595e+01   2.089010e+02
  -1.383307e+01   5.089684e+01
   1.073102e+02  -4.174043e+01
   1.217239e+02   2.788289e+01
   8.917756e+00   1.381557e+02
  -1.136167e+02   1.115824e+02
  -1.105504e+02  -4.717303e+01
   2.569411e+01  -1.371708e+02
   1.608492e+02  -8.080996e+00
   1.519066e+02   2.329289e+02
  -1.916131e+01   3.455302e+02
  -2.413611e+02   2.096826e+02
  -3.561178e+02  -6.256544e+01
  -2.783104e+02  -2.603701e+02
  -6.488535e+01  -2.694944e+02
   1.230039e+02  -1.391478e+02
   1.476785e+02  -1.311192e+01
   3.820084e+01   5.849131e+00
  -4.640634e+01  -6.283127e+01
   4.967960e+00  -1.104999e+02
   1.213887e+02  -6.606947e+01
   1.442388e+02   2.320357e+01
   3.274251e+01   5.086777e+01
  -7.757879e+01  -1.205742e+01
  -3.437762e+01  -8.926303e+01
   1.485213e+02  -8.520993e+01
   2.979804e+02   2.000200e+01
   2.545394e+02   1.652602e+02
   3.042064e+01   2.584109e+02
  -2.008183e+02   2.343789e+02
  -2.633849e+02   1.022570e+02
  -1.381420e+02  -3.950914e+01
   2.582984e+01  -7.594176e+01
   6.133831e+01   2.892449e+00
  -5.296961e+01   7.756612e+01
  -1.829175e+02   3.262954e+01
  -1.869379e+02  -1.019665e+02
  -5.830937e+01  -1.853787e+02
   8.405769e+01  -1.349951e+02
   1.220914e+02  -1.948609e+01
   4.867318e+01   3.178521e+01
  -3.598134e+01  -2.383438e+01
  -2.335462e+01  -1.080754e+02
   9.504456e+01  -1.138089e+02
   2.057939e+02  -1.011331e+01
   1.798652e+02   1.325522e+02
   1.308985e+01   2.043437e+02
  -1.520742e+02   1.485696e+02
  -1.719735e+02   1.279972e+01
  -5.510339e+01  -9.147505e+01
   6.026299e+01  -9.310198e+01
   6.844286e+01  -2.474565e+01
   6.090363e-01   2.292973e+01
  -3.474626e+01   7.699972e+00
   1.268622e+01  -2.360805e+01
   8.886863e+01   3.872012e+00
   1.002818e+02   9.770266e+01
   3.871975e+00   1.760829e+02
  -1.456415e+02   1.481317e+02
  -2.371226e+02   4.848335e+00
  -1.908798e+02  -1.596838e+02
  -3.806055e+01  -2.271114e+02
   9.897560e+01  -1.598897e+02
   1.286439e+02  -3.427974e+01
   7.494669e+01   4.106783e+01
   3.559571e+01   2.739820e+01
   5.899380e+01  -1.487766e+01
   8.983953e+01  -6.715659e+00
   5.673060e+01   5.832861e+01
  -4.116216e+01   1.070515e+02
  -1.227472e+02   6.762934e+01
  -1.044482e+02  -4.509368e+01
   1.954986e+01  -1.285011e+02
   1.618535e+02  -8.904547e+01
   2.020160e+02   6.560424e+01
   8.261606e+01   2.108460e+02
  -1.218170e+02   2.197600e+02
  -2.620311e+02   8.192559e+01
  -2.417535e+02  -8.830094e+01
  -9.946029e+01  -1.659238e+02
   3.765128e+01  -1.360994e+02
   8.723440e+01  -7.917714e+01
   6.911968e+01  -7.046557e+01
   5.758993e+01  -9.593002e+01
   8.996807e+01  -8.038161e+01
   1.322459e+02   1.860651e+01
   1.195623e+02   1.542235e+02
   2.637471e+01   2.253765e+02
  -1.003077e+02   1.659173e+02
  -1.690694e+02   1.111870e+01
  -1.245219e+02  -1.271610e+02
  -8.066341e+00  -1.554344e+02
   7.453193e+01  -7.891125e+01
   6.075343e+01   1.606046e+01
  -4.558235e+00   5.353032e+01
  -2.501573e+01   3.362766e+01
   2.961214e+01   1.022863e+01
   8.504298e+01   1.890283e+01
   4.851775e+01   4.275272e+01
  -7.419106e+01   4.124596e+01
  -1.726524e+02  -2.096767e+00
  -1.430146e+02  -6.290658e+01
  -2.532464e-01  -9.605975e+01
   1.315692e+02  -7.305397e+01
   1.432598e+02  -7.406344e+00
   4.411671e+01   4.808950e+01
  -5.948677e+01   4.356764e+01
  -7.789652e+01  -1.779122e+01
  -1.818315e+01  -7.466844e+01
   4.809562e+01  -6.742068e+01
   7.003213e+01  -2.285353e+00
   5.718101e+01   5.206424e+01
   4.647794e+01   4.374319e+01
   5.549946e+01   3.194586e-01
   6.656485e+01   4.286265e-01
   4.554398e+01   7.396944e+01
  -2.753287e+01   1.549753e+02
  -1.264680e+02   1.461981e+02
  -1.804935e+02   3.166989e+01
  -1.299947e+02  -9.640157e+01
  -1.975742e+00  -1.333036e+02
   9.280795e+01  -6.817344e+01
   6.306156e+01   1.153748e+01
  -5.693351e+01   2.116567e+01
  -1.329602e+02  -4.090304e+01
  -7.099406e+01  -1.052595e+02
   8.229472e+01  -1.080112e+02
   1.873191e+02  -4.347524e+01
   1.552214e+02   4.058209e+01
   2.971033e+01   8.463482e+01
  -6.461999e+01   6.040934e+01
  -4.822943e+01  -2.537646e+00
   4.143935e+01  -3.281753e+01
   9.470364e+01   1.833404e+01
   4.198449e+01   1.168093e+02
  -7.808165e+01   1.591354e+02
  -1.576352e+02   7.365897e+01
  -1.274965e+02  -8.935228e+01
  -1.826805e+01  -1.912086e+02
   7.921057e+01  -1.397553e+02
   1.008871e+02   1.122844e+01
   5.319705e+01   1.177705e+02
  -1.262858e+01   9.959817e+01
  -4.989164e+01   1.304892e+01
  -4.422633e+01  -3.166768e+01
  -1.638925e+01  -6.497842e+00
  -5.237479e+00   1.735739e+01
  -2.984891e+01  -2.164142e+01
  -5.819898e+01  -8.923556e+01
  -3.344796e+01  -1.035021e+02
   5.498124e+01  -4.210682e+01
   1.359479e+02   3.536896e+01
   1.232980e+02   6.694281e+01
   1.876670e+01   5.238928e+01
  -7.975469e+01   2.665193e+01
  -8.478033e+01   6.900833e+00
  -1.614567e+01  -1.077682e+01
   3.409557e+01  -2.078122e+01
   1.804161e+01  -1.190205e+01
  -1.569853e+01   4.230538e+00
   3.334736e+00   4.660801e+00
   6.769847e+01  -2.503372e+00
   9.397364e+01   2.152424e+01
   2.226757e+01   8.326763e+01
  -1.070513e+02   1.214851e+02
  -1.888498e+02   6.866198e+01
  -1.549101e+02  -5.829261e+01
  -3.522270e+01  -1.602820e+02
   7.854007e+01  -1.565344e+02
   1.166874e+02  -6.709316e+01
   8.153777e+01   1.795563e+01
   2.723772e+01   3.775075e+01
   2.083683e+00   1.374798e+01
   1.336985e+01   8.950671e+00
   3.028255e+01   4.861720e+01
   1.859510e+01   9.008237e+01
  -2.857719e+01   7.150738e+01
  -7.910970e+01  -1.385461e+01
  -8.177211e+01  -1.004807e+02
  -1.531849e+01  -1.110374e+02
   7.569534e+01  -3.412140e+01
   1.077535e+02   6.323788e+01
   4.195413e+01   1.036519e+02
  -6.311385e+01   6.670383e+01
  -1.039326e+02  -5.542208e+00
  -4.645986e+01  -5.747419e+01
   3.302695e+01  -6.199887e+01
   3.880283e+01  -2.904925e+01
  -2.671933e+01   7.177798e+00
  -6.807297e+01   9.888794e+00
  -1.863412e+01  -2.801037e+01
   7.740382e+01  -6.772971e+01
   1.202058e+02  -5.471811e+01
   7.208271e+01   1.731036e+01
  -1.156226e+01   8.673794e+01
  -5.748252e+01   8.446748e+01
  -4.686901e+01   1.292309e+01
  -9.951944e+00  -5.325665e+01
   2.297166e+01  -4.976189e+01
   3.896401e+01   8.732315e+00
   3.128129e+01   5.305331e+01
   2.933636e-01   4.033268e+01
  -3.369130e+01  -3.458654e+00
  -4.245261e+01  -2.394621e+01
  -2.053794e+01  -3.975049e+00
   4.203423e+00   2.031705e+01
   5.827231e+00   8.907386e+00
  -5.076204e+00  -3.167326e+01
   1.402926e-01  -5.313397e+01
   2.675699e+01  -2.295302e+01
   4.120595e+01   3.412097e+01
   1.331854e+01   5.966330e+01
  -4.024326e+01   2.630329e+01
  -6.306377e+01  -3.233155e+01
  -2.015304e+01  -6.035422e+01
   5.688469e+01  -3.688717e+01
   9.401341e+01   1.028631e+01
   5.184481e+01   4.293019e+01
  -2.795029e+01   4.656706e+01
  -6.540560e+01   2.942573e+01
  -2.920237e+01   7.082304e+00
   2.836249e+01  -4.194416e+00
   3.422401e+01   5.936917e+00
  -2.180373e+01   2.697115e+01
  -7.731939e+01   2.388801e+01
