
 $NMID
 id='ANONYMOUS ', fmtdat='(2E16.6)'
 volume=1.0
 tramp=1.0
 $END
  -3.339632e+03  -4.376859e+01
  -1.898843e+03  -1.683257e+03
   1.796842e+02  -1.959247e+03
   1.391750e+03  -8.681321e+02
   9.571962e+02   8.718521e+01
  -1.555189e+02   4.004120e+02
  -5.496001e+02  -9.832919e+01
  -1.786910e+02  -6.104234e+02
   4.237255e+02  -6.035816e+02
   6.055725e+02  -5.461854e+01
   4.310453e+02   5.733093e+02
  -5.401199e+01   6.670610e+02
  -3.372094e+02   2.056094e+02
  -2.845266e+02  -5.058761e+02
   1.040639e+02  -5.705421e+02
   4.384023e+02  -6.718587e+01
   2.308848e+02   5.079513e+02
  -1.234676e+02   6.253640e+02
  -4.284039e+02   2.601084e+02
  -4.028722e+02  -1.559974e+02
  -1.320447e+02  -3.280937e+02
   7.590970e+01  -2.286320e+02
   5.042372e+01  -8.035225e+01
  -1.445767e+02  -6.870289e+01
  -2.581967e+02  -2.174990e+02
  -4.360508e+00  -3.204132e+02
   4.110956e+02  -1.907888e+02
   5.733949e+02   1.297788e+02
   2.458690e+02   3.397784e+02
  -2.568604e+02   2.181414e+02
  -4.702071e+02  -7.622443e+01
  -2.096725e+02  -3.015561e+02
   2.189122e+02  -3.394732e+02
   4.221820e+02  -1.442172e+02
   3.129025e+02   1.438154e+02
   8.692813e+01   2.803656e+02
  -2.678715e+01   1.806979e+02
   3.572921e+01  -6.038278e+01
   1.583159e+02  -1.385348e+02
   1.606697e+02   1.288515e+02
   1.461065e+00   4.339856e+02
  -2.022338e+02   3.925859e+02
  -2.653321e+02   1.535935e+01
  -1.154181e+02  -2.619764e+02
   8.839246e+01  -1.251532e+02
   1.256853e+02   2.309115e+02
  -9.629616e+01   3.335310e+02
  -3.855874e+02   5.819887e+01
  -4.400534e+02  -3.214047e+02
  -1.760267e+02  -4.419092e+02
   2.413176e+02  -2.564177e+02
   4.684721e+02   2.493904e+01
   3.362789e+02   2.027898e+02
  -1.413864e+01   2.047557e+02
  -2.593263e+02   9.661759e+01
  -2.198789e+02  -1.180909e+01
  -2.681272e+01  -3.270835e+01
   5.210390e+01   2.145397e+01
  -6.984226e+01   4.725234e+01
  -2.026272e+02  -3.244965e+01
  -1.229354e+02  -1.697361e+02
   1.416371e+02  -2.322591e+02
   3.368831e+02  -1.344137e+02
   2.624564e+02   8.926368e+01
  -2.223298e+01   3.032671e+02
  -2.807852e+02   3.521771e+02
  -3.379867e+02   1.714510e+02
  -2.139138e+02  -1.289868e+02
  -5.406657e+01  -3.306572e+02
   2.406816e+01  -3.115821e+02
   2.718614e+01  -1.692568e+02
   4.491321e+01  -8.214260e+01
   1.232679e+02  -8.184205e+01
   2.084306e+02  -4.337273e+01
   2.055247e+02   1.009940e+02
   8.519013e+01   2.297664e+02
  -7.976062e+01   1.818084e+02
  -1.782421e+02  -3.674865e+01
  -1.343466e+02  -2.341281e+02
   4.083966e+01  -2.434169e+02
   2.304307e+02  -6.294555e+01
   2.926137e+02   1.598144e+02
   1.648653e+02   2.759096e+02
  -3.700516e+01   2.472624e+02
  -1.456142e+02   1.499109e+02
  -1.361775e+02   8.756257e+01
  -1.472001e+02   7.552202e+01
  -2.698968e+02   3.750508e+01
  -3.884699e+02  -9.328892e+01
  -2.957414e+02  -2.853416e+02
   2.680216e+01  -4.126035e+02
   3.564950e+02  -3.700744e+02
   4.453101e+02  -1.619509e+02
   2.678540e+02   8.914263e+01
   2.435887e+01   2.320491e+02
  -7.917649e+01   1.896603e+02
  -1.148642e+01   4.360915e+01
   1.036497e+02  -3.655454e+01
   1.206135e+02   2.567424e+01
   1.313136e+01   1.236773e+02
  -1.013953e+02   1.024335e+02
  -1.015747e+02  -3.527563e+01
   1.940575e+01  -1.124916e+02
   1.461209e+02   1.747030e+00
   1.419211e+02   2.183219e+02
  -1.995169e+01   3.188948e+02
  -2.345317e+02   1.925407e+02
  -3.448151e+02  -6.232043e+01
  -2.648828e+02  -2.485544e+02
  -5.421881e+01  -2.556766e+02
   1.213124e+02  -1.307764e+02
   1.396930e+02  -1.145513e+01
   3.530039e+01   3.606905e+00
  -4.025814e+01  -6.019302e+01
   7.654907e+00  -1.004287e+02
   1.111731e+02  -5.503764e+01
   1.299856e+02   2.599861e+01
   2.814945e+01   4.714983e+01
  -7.280981e+01  -1.517376e+01
  -3.380570e+01  -8.744927e+01
   1.380603e+02  -8.163118e+01
   2.817966e+02   1.925263e+01
   2.423436e+02   1.568961e+02
   2.848839e+01   2.442190e+02
  -1.926579e+02   2.204809e+02
  -2.506765e+02   9.655052e+01
  -1.306417e+02  -3.500659e+01
   2.273433e+01  -7.060227e+01
   5.433384e+01  -1.674438e+00
  -5.211012e+01   6.559406e+01
  -1.704081e+02   2.711286e+01
  -1.724128e+02  -9.317858e+01
  -5.251304e+01  -1.709129e+02
   7.943319e+01  -1.279720e+02
   1.137541e+02  -2.138492e+01
   4.342629e+01   2.908788e+01
  -3.618199e+01  -2.210138e+01
  -2.141849e+01  -1.035462e+02
   9.298549e+01  -1.103967e+02
   1.971680e+02  -1.115281e+01
   1.703396e+02   1.249093e+02
   1.289681e+01   1.922632e+02
  -1.407823e+02   1.407509e+02
  -1.596714e+02   1.607210e+01
  -5.294561e+01  -8.056753e+01
   5.332000e+01  -8.556732e+01
   6.083938e+01  -2.572458e+01
  -2.769023e+00   1.911999e+01
  -3.696370e+01   5.717159e+00
   9.538745e+00  -2.566309e+01
   8.669055e+01  -2.996490e+00
   1.007166e+02   8.608005e+01
   8.235981e+00   1.656499e+02
  -1.364390e+02   1.424973e+02
  -2.227197e+02   6.110182e+00
  -1.768900e+02  -1.508600e+02
  -3.372427e+01  -2.130588e+02
   9.333859e+01  -1.498954e+02
   1.214164e+02  -3.207417e+01
   7.392352e+01   3.828384e+01
   3.594252e+01   2.761488e+01
   5.364020e+01  -9.392958e+00
   8.281565e+01  -2.369803e+00
   5.277342e+01   5.560836e+01
  -4.001511e+01   9.984639e+01
  -1.199942e+02   6.265532e+01
  -1.029665e+02  -4.466905e+01
   2.043288e+01  -1.232865e+02
   1.595999e+02  -8.341600e+01
   1.937395e+02   6.421691e+01
   7.522278e+01   2.005985e+02
  -1.195870e+02   2.066935e+02
  -2.490167e+02   7.607637e+01
  -2.267879e+02  -8.285328e+01
  -9.403732e+01  -1.554661e+02
   3.494743e+01  -1.276982e+02
   8.176429e+01  -7.634904e+01
   6.568811e+01  -6.821727e+01
   5.468208e+01  -9.201264e+01
   8.497441e+01  -7.623985e+01
   1.252687e+02   1.847659e+01
   1.137701e+02   1.470909e+02
   2.538168e+01   2.125441e+02
  -9.459450e+01   1.551677e+02
  -1.588182e+02   1.047993e+01
  -1.166730e+02  -1.177205e+02
  -7.922280e+00  -1.448607e+02
   6.930534e+01  -7.521848e+01
   5.664504e+01   1.350613e+01
  -4.435129e+00   5.126832e+01
  -2.403953e+01   3.498834e+01
   2.724390e+01   1.169325e+01
   7.966859e+01   1.645421e+01
   4.517477e+01   3.746231e+01
  -7.186403e+01   3.698381e+01
  -1.648401e+02  -2.951320e+00
  -1.346508e+02  -6.095835e+01
   3.173503e+00  -9.296489e+01
   1.287456e+02  -6.977904e+01
   1.379557e+02  -5.277824e+00
   4.184881e+01   4.838209e+01
  -5.730705e+01   4.307888e+01
  -7.548659e+01  -1.709266e+01
  -1.888658e+01  -7.175704e+01
   4.554165e+01  -6.440170e+01
   6.869938e+01  -2.042982e+00
   5.719879e+01   4.935418e+01
   4.509438e+01   4.138785e+01
   5.175861e+01   1.539685e+00
   6.242188e+01   2.645170e+00
   4.347937e+01   7.184214e+01
  -2.638523e+01   1.464527e+02
  -1.217241e+02   1.373692e+02
  -1.725010e+02   3.013597e+01
  -1.230255e+02  -8.996947e+01
  -9.522475e-01  -1.260162e+02
   8.756220e+01  -6.714486e+01
   5.876119e+01   8.226969e+00
  -5.322597e+01   1.969737e+01
  -1.235238e+02  -3.663866e+01
  -6.518354e+01  -9.756613e+01
   7.756609e+01  -1.009734e+02
   1.751885e+02  -4.054555e+01
   1.445798e+02   3.848340e+01
   2.743857e+01   7.861134e+01
  -6.016089e+01   5.440799e+01
  -4.392081e+01  -3.854025e+00
   4.074782e+01  -2.978234e+01
   9.014451e+01   1.976144e+01
   3.972885e+01   1.110764e+02
  -7.345598e+01   1.493802e+02
  -1.485714e+02   6.947793e+01
  -1.209646e+02  -8.311009e+01
  -1.858420e+01  -1.792056e+02
   7.423770e+01  -1.324727e+02
   9.589623e+01   8.837920e+00
   5.105283e+01   1.101378e+02
  -1.204079e+01   9.424268e+01
  -4.717541e+01   1.331349e+01
  -4.084963e+01  -2.922785e+01
  -1.440501e+01  -5.849501e+00
  -4.970424e+00   1.604836e+01
  -2.864830e+01  -2.110429e+01
  -5.454739e+01  -8.433508e+01
  -3.005721e+01  -9.707332e+01
   5.298246e+01  -3.867203e+01
   1.279439e+02   3.434585e+01
   1.157299e+02   6.417897e+01
   1.801637e+01   5.062190e+01
  -7.477941e+01   2.605866e+01
  -8.089302e+01   6.481528e+00
  -1.702622e+01  -1.065531e+01
   3.088677e+01  -1.955258e+01
   1.719861e+01  -1.095138e+01
  -1.420059e+01   3.893421e+00
   3.077581e+00   3.916847e+00
   6.291988e+01  -2.543497e+00
   8.794696e+01   2.029351e+01
   2.158660e+01   7.776807e+01
  -1.002683e+02   1.133540e+02
  -1.779991e+02   6.473442e+01
  -1.465504e+02  -5.370928e+01
  -3.333311e+01  -1.500599e+02
   7.411245e+01  -1.482574e+02
   1.098308e+02  -6.496413e+01
   7.654273e+01   1.605275e+01
   2.625140e+01   3.553557e+01
   3.724132e+00   1.284353e+01
   1.406172e+01   8.302300e+00
   2.896562e+01   4.641712e+01
   1.730490e+01   8.645210e+01
  -2.692738e+01   6.890472e+01
  -7.431074e+01  -1.232853e+01
  -7.787706e+01  -9.452632e+01
  -1.605839e+01  -1.046785e+02
   7.017890e+01  -3.293545e+01
   1.022248e+02   5.879893e+01
   4.046496e+01   9.766885e+01
  -6.011573e+01   6.374344e+01
  -9.968574e+01  -5.053622e+00
  -4.463715e+01  -5.563281e+01
   3.206804e+01  -6.038185e+01
   3.865583e+01  -2.798698e+01
  -2.350483e+01   7.300492e+00
  -6.373788e+01   1.008921e+01
  -1.796713e+01  -2.572829e+01
   7.249857e+01  -6.277493e+01
   1.133330e+02  -5.064604e+01
   6.802032e+01   1.636038e+01
  -1.129869e+01   8.116251e+01
  -5.492075e+01   7.946462e+01
  -4.454035e+01   1.227230e+01
  -8.616722e+00  -5.039119e+01
   2.287859e+01  -4.762632e+01
   3.717135e+01   8.354380e+00
   2.909322e+01   5.179039e+01
  -2.013014e-01   3.999037e+01
  -3.216511e+01  -3.171097e+00
  -4.018718e+01  -2.398927e+01
  -1.954626e+01  -4.510059e+00
   3.324812e+00   2.084515e+01
   4.419497e+00   1.052844e+01
  -7.198672e+00  -2.979448e+01
  -1.952852e+00  -5.252760e+01
   2.503901e+01  -2.464953e+01
   4.135261e+01   3.043448e+01
   1.533646e+01   5.610231e+01
  -3.685854e+01   2.595244e+01
  -6.014848e+01  -2.891189e+01
  -1.991479e+01  -5.570141e+01
   5.343412e+01  -3.481867e+01
   8.900116e+01   8.789266e+00
   4.913750e+01   3.997646e+01
  -2.634098e+01   4.463451e+01
  -6.207811e+01   2.940195e+01
  -2.873365e+01   7.577424e+00
   2.526090e+01  -4.825058e+00
   3.116939e+01   3.739498e+00
  -2.050200e+01   2.351915e+01
  -7.194526e+01   2.162894e+01
