
 $NMID
 id='ANONYMOUS ', fmtdat='(2E16.6)'
 volume=1.0
 tramp=1.0
 $END
  -4.437732e+03   1.109916e+02
  -2.617095e+03  -2.622606e+03
   6.714686e+02  -2.885215e+03
   2.131059e+03  -8.116875e+02
   1.041732e+03   6.045585e+02
  -6.115925e+02   5.502097e+02
  -9.038840e+02  -4.721737e+02
   1.959355e+01  -1.166910e+03
   8.785193e+02  -8.381215e+02
   9.922914e+02   5.616008e+01
   4.783956e+02   8.976531e+02
  -2.386421e+02   9.931730e+02
  -6.522739e+02   1.057692e+02
  -3.666742e+02  -7.218713e+02
   3.082338e+02  -7.835619e+02
   6.062959e+02   1.144458e-01
   3.237085e+02   6.323223e+02
  -3.537371e+02   6.330014e+02
  -6.608669e+02   7.974844e+01
  -3.779223e+02  -3.685767e+02
  -2.782975e+00  -4.442786e+02
   2.458321e+02  -2.841714e+02
   2.208845e+02  -3.621914e+01
  -1.286598e+02   9.768243e+01
  -4.156809e+02  -9.527310e+01
  -2.194155e+02  -4.272062e+02
   4.554764e+02  -4.152576e+02
   8.753211e+02   8.336409e+01
   4.633734e+02   5.732605e+02
  -4.031334e+02   5.054354e+02
  -7.861437e+02  -4.271283e+01
  -3.613613e+02  -5.171520e+02
   2.773245e+02  -5.509800e+02
   5.794274e+02  -2.089165e+02
   4.411918e+02   2.599872e+02
   8.488581e+01   5.140662e+02
  -2.360161e+02   3.084235e+02
  -2.270028e+02  -2.397774e+02
   1.666344e+02  -4.949489e+02
   5.112586e+02  -8.030060e+00
   2.890637e+02   7.263596e+02
  -3.585184e+02   7.812473e+02
  -7.051419e+02   1.821638e+01
  -2.965538e+02  -6.209277e+02
   3.475792e+02  -3.759002e+02
   4.425934e+02   3.397673e+02
  -6.279294e+01   6.039072e+02
  -5.830188e+02   1.647559e+02
  -6.272734e+02  -4.330181e+02
  -1.600977e+02  -6.310127e+02
   4.108453e+02  -3.655892e+02
   6.647160e+02   9.809588e+01
   3.861244e+02   4.312591e+02
  -1.813047e+02   3.998250e+02
  -4.877289e+02   4.558219e+01
  -2.548967e+02  -2.400763e+02
   1.523910e+02  -1.344252e+02
   1.793510e+02   1.746932e+02
  -1.724451e+02   2.265899e+02
  -3.833077e+02  -6.710805e+01
  -1.570336e+02  -3.278487e+02
   2.238070e+02  -2.786661e+02
   3.530330e+02  -5.742946e+01
   1.916687e+02   1.142657e+02
  -4.783122e+01   2.351929e+02
  -2.401564e+02   3.207638e+02
  -3.516587e+02   2.107820e+02
  -3.056463e+02  -1.478358e+02
  -8.708726e+01  -4.576977e+02
   1.228780e+02  -4.074315e+02
   1.404746e+02  -1.228023e+02
   4.278277e+01   1.476437e+01
   5.139990e+01  -8.067667e+01
   1.954397e+02  -1.271149e+02
   2.784023e+02   5.314131e+01
   1.657155e+02   2.726763e+02
  -5.763550e+01   2.638527e+02
  -2.202136e+02   2.563155e+01
  -2.111529e+02  -2.290051e+02
  -1.465259e+01  -2.997344e+02
   2.613076e+02  -1.380689e+02
   3.805567e+02   1.595835e+02
   2.019256e+02   3.679873e+02
  -1.093337e+02   3.253211e+02
  -2.510755e+02   1.197591e+02
  -1.577569e+02  -1.024747e+01
  -8.510061e+01   2.869914e+01
  -2.249689e+02   7.393017e+01
  -4.111907e+02  -5.106088e+01
  -3.485174e+02  -2.867147e+02
  -1.530628e+00  -4.452284e+02
   3.660040e+02  -4.170402e+02
   4.951940e+02  -2.120263e+02
   3.436956e+02   8.544219e+01
   6.108633e+01   3.034162e+02
  -1.318542e+02   2.708001e+02
  -9.172182e+01   3.635114e+01
   1.072575e+02  -1.176928e+02
   2.064640e+02   1.679752e+00
   5.516738e+01   2.116946e+02
  -1.741984e+02   1.914314e+02
  -1.961522e+02  -6.074237e+01
   1.397510e+01  -2.092750e+02
   2.014027e+02  -4.268401e+01
   1.646025e+02   2.517278e+02
  -3.561202e+01   3.562635e+02
  -2.297753e+02   1.977887e+02
  -3.227764e+02  -5.853018e+01
  -2.846263e+02  -2.359266e+02
  -1.107400e+02  -2.683347e+02
   1.063251e+02  -1.719037e+02
   1.860752e+02  -2.905647e+01
   6.684212e+01   3.273185e+01
  -7.382353e+01  -3.895361e+01
  -3.562736e+01  -1.315212e+02
   1.294469e+02  -1.076506e+02
   1.919230e+02   1.053091e+01
   6.762103e+01   7.596914e+01
  -7.789419e+01   2.225709e+01
  -5.607328e+01  -6.555011e+01
   1.196419e+02  -8.030326e+01
   2.752973e+02  -1.326219e-01
   2.606970e+02   1.328916e+02
   6.594967e+01   2.523649e+02
  -1.777465e+02   2.691461e+02
  -2.867273e+02   1.361723e+02
  -1.799994e+02  -5.284866e+01
   2.028306e+01  -1.190055e+02
   9.576544e+01  -1.141148e+01
  -2.853303e+01   1.090364e+02
  -1.992679e+02   6.725311e+01
  -2.213403e+02  -1.033579e+02
  -7.505612e+01  -2.150014e+02
   9.298824e+01  -1.649263e+02
   1.466845e+02  -3.417029e+01
   7.738290e+01   3.818748e+01
  -2.052990e+01   4.109403e+00
  -3.607979e+01  -7.733956e+01
   6.651537e+01  -1.082759e+02
   1.942903e+02  -2.977706e+01
   1.943897e+02   1.211020e+02
   2.498208e+01   2.200587e+02
  -1.679373e+02   1.676466e+02
  -2.017489e+02   5.198299e+00
  -6.884194e+01  -1.206172e+02
   6.932941e+01  -1.167970e+02
   8.789250e+01  -3.286635e+01
   2.374770e+01   2.557176e+01
  -1.611110e+01   2.120379e+01
   1.188223e+01  -1.380322e+00
   6.661116e+01   1.505638e+01
   8.097639e+01   8.226593e+01
   1.197983e+01   1.529387e+02
  -1.242225e+02   1.495935e+02
  -2.325507e+02   2.911910e+01
  -2.038109e+02  -1.466488e+02
  -4.319725e+01  -2.394522e+02
   1.099698e+02  -1.737984e+02
   1.355249e+02  -2.835996e+01
   6.756363e+01   5.613291e+01
   2.722433e+01   3.568289e+01
   5.578251e+01  -1.256743e+01
   8.127076e+01  -6.053924e+00
   3.880206e+01   4.821743e+01
  -4.409737e+01   8.422722e+01
  -9.691274e+01   5.258514e+01
  -7.785769e+01  -3.281165e+01
   1.295685e+01  -1.047561e+02
   1.333528e+02  -8.401694e+01
   1.928394e+02   4.698152e+01
   1.059709e+02   1.983731e+02
  -9.806939e+01   2.299672e+02
  -2.652509e+02   1.004800e+02
  -2.630202e+02  -8.269576e+01
  -1.150914e+02  -1.776905e+02
   3.780693e+01  -1.513546e+02
   9.707899e+01  -8.728442e+01
   8.268780e+01  -7.179611e+01
   6.917041e+01  -9.062214e+01
   9.296984e+01  -7.239623e+01
   1.283960e+02   2.311485e+01
   1.196476e+02   1.537490e+02
   3.278244e+01   2.266487e+02
  -9.775820e+01   1.751377e+02
  -1.783265e+02   2.404840e+01
  -1.402241e+02  -1.203845e+02
  -2.167599e+01  -1.606225e+02
   6.596388e+01  -9.391173e+01
   5.941582e+01  -2.669832e+00
   6.235098e+00   3.987400e+01
  -6.556882e+00   3.226634e+01
   3.882162e+01   1.847519e+01
   7.784135e+01   2.487734e+01
   4.276052e+01   3.922034e+01
  -6.114206e+01   3.608472e+01
  -1.524066e+02   3.506252e+00
  -1.415868e+02  -4.720045e+01
  -1.980145e+01  -8.377224e+01
   1.148855e+02  -7.281809e+01
   1.426430e+02  -1.620977e+01
   4.786702e+01   3.737341e+01
  -6.098682e+01   3.560780e+01
  -7.536572e+01  -1.934711e+01
  -4.732009e+00  -6.837804e+01
   5.849970e+01  -5.773119e+01
   6.212860e+01   2.508694e+00
   4.057502e+01   5.099727e+01
   4.198528e+01   4.240851e+01
   6.247498e+01   1.984929e+00
   6.649425e+01  -5.005698e-01
   3.352823e+01   6.625240e+01
  -3.370159e+01   1.449986e+02
  -1.137082e+02   1.411437e+02
  -1.603421e+02   3.306529e+01
  -1.222092e+02  -9.087469e+01
  -8.441458e+00  -1.246955e+02
   8.374093e+01  -5.895615e+01
   5.918683e+01   1.653486e+01
  -5.890642e+01   1.923601e+01
  -1.374592e+02  -4.511542e+01
  -7.666781e+01  -1.077510e+02
   7.973684e+01  -1.123557e+02
   1.910228e+02  -5.312291e+01
   1.643551e+02   3.256470e+01
   3.925824e+01   8.777346e+01
  -6.080070e+01   7.361802e+01
  -5.095144e+01   9.821647e+00
   3.726545e+01  -2.727690e+01
   9.063363e+01   2.087009e+01
   3.260566e+01   1.185968e+02
  -9.356958e+01   1.555149e+02
  -1.699349e+02   6.239728e+01
  -1.268667e+02  -1.022228e+02
  -8.955756e+00  -1.995643e+02
   8.565243e+01  -1.452498e+02
   1.035227e+02   6.508957e+00
   6.112171e+01   1.180344e+02
   7.647282e-01   1.065869e+02
  -4.441661e+01   1.996457e+01
  -5.380739e+01  -3.174021e+01
  -2.803126e+01  -8.916491e+00
  -2.730833e+00   2.142895e+01
  -1.745379e+01  -1.335635e+01
  -5.503710e+01  -8.739076e+01
  -4.523113e+01  -1.092357e+02
   4.349301e+01  -4.529462e+01
   1.379548e+02   3.912913e+01
   1.315068e+02   6.970984e+01
   1.800252e+01   4.783336e+01
  -8.887258e+01   2.153830e+01
  -8.830201e+01   9.052139e+00
  -9.188772e+00  -5.929071e+00
   3.960694e+01  -2.265884e+01
   1.289426e+01  -1.921173e+01
  -2.292562e+01   1.600529e+00
   6.172851e+00   1.032645e+01
   7.615787e+01   4.890885e+00
   9.151000e+01   2.444029e+01
   5.344978e+00   8.133683e+01
  -1.220167e+02   1.148631e+02
  -1.863526e+02   5.661951e+01
  -1.398941e+02  -7.093685e+01
  -2.422961e+01  -1.640465e+02
   7.914743e+01  -1.486657e+02
   1.140972e+02  -5.582225e+01
   8.076623e+01   2.276037e+01
   2.402048e+01   3.487652e+01
  -5.251723e+00   7.788614e+00
   8.440702e+00   2.875542e+00
   3.355537e+01   4.426395e+01
   2.421408e+01   8.870388e+01
  -2.901942e+01   7.090446e+01
  -8.192582e+01  -1.941860e+01
  -7.621325e+01  -1.099695e+02
  -1.135819e+00  -1.130475e+02
   8.489924e+01  -2.194337e+01
   1.021869e+02   7.828349e+01
   2.953683e+01   1.036795e+02
  -6.710409e+01   5.312455e+01
  -9.573768e+01  -1.341624e+01
  -3.668918e+01  -4.886750e+01
   3.299203e+01  -4.895749e+01
   2.919431e+01  -2.754636e+01
  -3.598087e+01  -6.747741e-01
  -6.944184e+01   6.139869e+00
  -1.357754e+01  -2.446478e+01
   7.965554e+01  -6.569203e+01
   1.141038e+02  -5.926543e+01
   6.167015e+01   1.185393e+01
  -1.633949e+01   8.329633e+01
  -5.178271e+01   7.845895e+01
  -3.576134e+01   3.406766e+00
  -1.394536e+00  -5.691418e+01
   2.557970e+01  -4.114638e+01
   3.646000e+01   2.049684e+01
   2.614194e+01   5.356540e+01
  -3.722633e+00   3.043247e+01
  -3.331547e+01  -9.692383e+00
  -3.870465e+01  -1.976504e+01
  -2.000993e+01  -5.116086e-02
  -1.769627e-01   1.230235e+01
   6.608686e+00  -5.952909e+00
   9.550296e+00  -3.727612e+01
   2.120542e+01  -4.201982e+01
   3.341696e+01  -3.168037e+00
   2.600171e+01   4.803484e+01
  -7.408839e+00   6.111816e+01
  -4.657105e+01   1.823118e+01
  -5.485001e+01  -4.221309e+01
  -1.285361e+01  -6.489313e+01
   5.470571e+01  -3.339595e+01
   8.812859e+01   1.727270e+01
   4.867031e+01   4.467911e+01
  -2.930807e+01   3.893816e+01
  -6.517442e+01   1.850357e+01
  -2.255462e+01   3.488457e+00
   4.052956e+01   3.781730e+00
   3.951836e+01   1.893227e+01
  -3.265486e+01   3.341259e+01
  -9.484633e+01   1.964164e+01
