
 $NMID
 id='ANONYMOUS ', fmtdat='(2E16.6)'
 volume=1.0
 tramp=1.0
 $END
   2.650901e+03  -1.369456e+02
   1.557337e+03   1.645749e+03
  -8.408414e+01   1.802396e+03
  -1.313275e+03   8.360368e+02
  -5.469496e+02  -2.429735e+02
   2.332062e+02  -5.127673e+02
   3.624344e+02   3.398476e+02
   8.061197e+01   5.439295e+02
  -3.777618e+02   5.063134e+02
  -6.200283e+02   2.894727e+01
  -4.341064e+02  -3.290988e+02
   3.184790e+01  -4.978242e+02
   4.051486e+02  -1.118403e+02
   2.923070e+02   4.618812e+02
  -1.464186e+02   4.926268e+02
  -4.022665e+02   8.742791e+01
  -2.179413e+02  -4.604190e+02
   1.316816e+02  -4.952708e+02
   4.262885e+02  -1.850624e+02
   3.077966e+02   2.276507e+02
   5.681853e+01   3.238997e+02
  -1.170144e+02   1.362887e+02
  -1.069018e+02  -4.328961e+00
   9.355242e+01  -6.123882e+00
   2.245516e+02   1.303957e+02
   3.951381e+01   2.499037e+02
  -3.141112e+02   1.877016e+02
  -4.485288e+02  -6.066294e+01
  -2.132747e+02  -3.178741e+02
   2.048008e+02  -2.417366e+02
   3.891169e+02   3.720678e+01
   1.937271e+02   2.736746e+02
  -1.362030e+02   2.875655e+02
  -3.144090e+02   1.257472e+02
  -2.570204e+02  -1.020960e+02
  -7.817958e+01  -2.410297e+02
   6.184475e+01  -1.736249e+02
   4.079158e+01   8.475218e+01
  -9.951641e+01   1.972166e+02
  -1.840195e+02  -3.874542e+01
  -6.982571e+01  -3.624085e+02
   1.736937e+02  -3.505763e+02
   2.885156e+02  -2.531485e+00
   1.156161e+02   2.504668e+02
  -1.370981e+02   1.298877e+02
  -1.569007e+02  -1.829779e+02
   6.483018e+01  -2.855580e+02
   3.309434e+02  -5.214894e+01
   3.524905e+02   2.482611e+02
   1.203703e+02   3.472487e+02
  -2.027454e+02   1.991156e+02
  -3.691037e+02  -3.326152e+01
  -2.561924e+02  -1.883173e+02
   3.367817e+01  -1.824754e+02
   2.258987e+02  -4.991629e+01
   1.543906e+02   5.772695e+01
  -2.822377e+01   3.124976e+01
  -6.164101e+01  -7.001887e+01
   8.616411e+01  -8.439073e+01
   1.881089e+02   3.555681e+01
   8.487427e+01   1.627668e+02
  -1.225305e+02   1.709105e+02
  -2.272571e+02   6.704512e+01
  -1.529879e+02  -7.314906e+01
   1.823113e+01  -1.926118e+02
   1.726311e+02  -2.316064e+02
   2.349046e+02  -1.225492e+02
   1.807656e+02   1.001730e+02
   5.529098e+01   2.655684e+02
  -4.344896e+01   2.433429e+02
  -6.026737e+01   1.089259e+02
  -4.344050e+01   3.365055e+01
  -7.230194e+01   5.372767e+01
  -1.394391e+02   4.800316e+01
  -1.583007e+02  -5.553607e+01
  -7.998580e+01  -1.662879e+02
   4.910907e+01  -1.478775e+02
   1.352698e+02   4.670090e+00
   1.128643e+02   1.581172e+02
  -1.671167e+01   1.850640e+02
  -1.708799e+02   5.857138e+01
  -2.234368e+02  -1.180678e+02
  -1.156407e+02  -2.222386e+02
   5.033926e+01  -1.889981e+02
   1.303349e+02  -9.271985e+01
   1.014014e+02  -3.784041e+01
   9.114339e+01  -4.169861e+01
   1.791192e+02  -3.381943e+01
   2.709505e+02   5.381017e+01
   2.122113e+02   1.968990e+02
  -9.183261e+00   2.961160e+02
  -2.398179e+02   2.723929e+02
  -3.208230e+02   1.273601e+02
  -2.101893e+02  -6.359666e+01
  -2.946543e+01  -1.844142e+02
   7.097778e+01  -1.549210e+02
   3.060059e+01  -2.755088e+01
  -7.017927e+01   4.754720e+01
  -1.010654e+02  -1.154324e+01
  -1.613074e+01  -1.073216e+02
   8.870837e+01  -8.992705e+01
   9.455792e+01   3.613514e+01
  -1.056038e+01   1.040925e+02
  -1.137621e+02   7.818217e+00
  -1.055014e+02  -1.599448e+02
   1.520707e+01  -2.259415e+02
   1.584895e+02  -1.294146e+02
   2.297526e+02   4.139043e+01
   1.857552e+02   1.624560e+02
   5.227766e+01   1.743227e+02
  -7.637117e+01   1.026283e+02
  -1.035263e+02   1.590144e+01
  -3.078821e+01  -1.035953e+01
   3.480056e+01   3.177331e+01
   4.441895e+00   7.654565e+01
  -8.035943e+01   5.672017e+01
  -1.047874e+02  -8.298501e+00
  -3.082882e+01  -3.965522e+01
   4.959398e+01  -2.267668e+00
   2.889996e+01   5.292814e+01
  -8.945734e+01   5.626386e+01
  -1.930875e+02  -9.144084e+00
  -1.738952e+02  -1.043013e+02
  -3.065045e+01  -1.716117e+02
   1.297174e+02  -1.630102e+02
   1.838912e+02  -7.580202e+01
   1.041481e+02   2.720721e+01
  -1.494398e+01   5.842700e+01
  -4.892209e+01   2.452553e+00
   2.879038e+01  -5.617156e+01
   1.249232e+02  -2.955673e+01
   1.330625e+02   6.544335e+01
   4.407732e+01   1.283726e+02
  -5.712424e+01   9.876917e+01
  -8.705972e+01   1.933701e+01
  -3.923442e+01  -2.300469e+01
   2.068891e+01   6.440158e+00
   1.865401e+01   6.353669e+01
  -5.703361e+01   7.695618e+01
  -1.349073e+02   1.452214e+01
  -1.237250e+02  -8.473888e+01
  -1.315253e+01  -1.413702e+02
   1.021882e+02  -1.059547e+02
   1.196227e+02  -9.496127e+00
   4.076372e+01   6.409438e+01
  -3.926782e+01   6.583912e+01
  -4.668754e+01   1.875788e+01
  -3.376814e+00  -1.457454e+01
   2.056819e+01  -7.704423e+00
  -7.193375e+00   1.112786e+01
  -5.386650e+01  -1.193705e+00
  -6.378176e+01  -5.506171e+01
  -8.551091e+00  -1.088993e+02
   8.661107e+01  -1.014850e+02
   1.533769e+02  -1.334793e+01
   1.310312e+02   1.007354e+02
   2.830778e+01   1.536364e+02
  -6.851757e+01   1.105895e+02
  -8.977676e+01   2.100995e+01
  -5.102292e+01  -3.279374e+01
  -2.182922e+01  -2.335358e+01
  -3.580331e+01   6.388060e+00
  -5.497857e+01   2.734602e+00
  -3.185177e+01  -3.676208e+01
   2.923081e+01  -6.512538e+01
   7.877165e+01  -3.998263e+01
   6.669319e+01   2.820098e+01
  -1.145371e+01   7.953642e+01
  -1.033229e+02   5.708143e+01
  -1.318670e+02  -3.913288e+01
  -5.756664e+01  -1.364675e+02
   7.796126e+01  -1.466442e+02
   1.754385e+02  -5.726437e+01
   1.649786e+02   5.684766e+01
   7.027577e+01   1.129707e+02
  -2.351500e+01   9.287561e+01
  -5.939822e+01   5.482485e+01
  -4.941499e+01   4.781185e+01
  -4.197663e+01   6.375762e+01
  -6.070191e+01   5.301657e+01
  -8.635631e+01  -1.179864e+01
  -7.959313e+01  -1.010416e+02
  -2.027202e+01  -1.494706e+02
   6.457740e+01  -1.127618e+02
   1.130633e+02  -1.267738e+01
   8.536350e+01   7.970637e+01
   8.538105e+00   1.032287e+02
  -4.579339e+01   5.822581e+01
  -3.758412e+01  -2.631396e+00
   1.812341e+00  -3.180235e+01
   1.179877e+01  -2.515622e+01
  -2.286335e+01  -1.163276e+01
  -5.508834e+01  -1.309954e+01
  -3.056503e+01  -2.393962e+01
   4.691188e+01  -2.358076e+01
   1.102852e+02   3.931995e-01
   9.476445e+01   3.745031e+01
   4.233259e+00   6.076839e+01
  -8.507036e+01   4.872025e+01
  -9.698377e+01   6.716129e+00
  -3.158490e+01  -2.990761e+01
   3.929559e+01  -2.713150e+01
   5.146089e+01   1.241099e+01
   9.364030e+00   4.786778e+01
  -3.486062e+01   4.138871e+01
  -4.621298e+01  -1.088679e+00
  -3.580344e+01  -3.548810e+01
  -3.061027e+01  -2.968503e+01
  -3.808029e+01  -1.634061e+00
  -4.317274e+01  -1.332826e+00
  -2.691031e+01  -4.812670e+01
   1.994497e+01  -1.000452e+02
   8.129194e+01  -9.492571e+01
   1.153221e+02  -2.150448e+01
   8.438187e+01   6.080432e+01
   2.243494e+00   8.486082e+01
  -6.001194e+01   4.384839e+01
  -4.086180e+01  -6.772532e+00
   3.848295e+01  -1.337544e+01
   8.923591e+01   2.565113e+01
   4.844074e+01   6.766641e+01
  -5.335661e+01   7.154404e+01
  -1.237227e+02   3.142808e+01
  -1.031484e+02  -2.386011e+01
  -2.094576e+01  -5.498404e+01
   4.118842e+01  -4.102860e+01
   3.097614e+01  -7.380131e-01
  -2.713788e+01   1.865941e+01
  -6.079713e+01  -1.491347e+01
  -2.444204e+01  -7.735651e+01
   5.519362e+01  -1.015047e+02
   1.061430e+02  -4.386628e+01
   8.341122e+01   6.180791e+01
   9.566634e+00   1.270694e+02
  -5.475385e+01   9.384628e+01
  -6.902658e+01  -4.955192e+00
  -3.868013e+01  -7.781659e+01
   4.604475e+00  -6.920484e+01
   3.208199e+01  -1.267409e+01
   3.161757e+01   1.995782e+01
   1.356336e+01   5.123919e+00
   3.268973e+00  -1.181761e+01
   1.718879e+01   1.292662e+01
   3.752797e+01   5.890719e+01
   2.341489e+01   6.955743e+01
  -3.529286e+01   2.789601e+01
  -9.088802e+01  -2.520681e+01
  -8.312776e+01  -4.629685e+01
  -1.175367e+01  -3.504026e+01
   5.508572e+01  -1.737126e+01
   5.771037e+01  -5.159948e+00
   1.046730e+01   6.423926e+00
  -2.229478e+01   1.468381e+01
  -1.045856e+01   1.039472e+01
   1.096971e+01  -1.396018e+00
  -4.541528e+00  -4.185195e+00
  -4.725709e+01  -9.659815e-01
  -6.079466e+01  -1.610292e+01
  -9.625499e+00  -5.422901e+01
   7.492814e+01  -7.715777e+01
   1.239547e+02  -4.168169e+01
   9.783990e+01   4.092527e+01
   1.934909e+01   1.058699e+02
  -5.292644e+01   1.016152e+02
  -7.631405e+01   4.248259e+01
  -5.298273e+01  -1.275646e+01
  -1.731180e+01  -2.469764e+01
  -8.923707e-01  -8.006235e+00
  -8.786824e+00  -4.777487e+00
  -2.072131e+01  -3.176969e+01
  -1.284716e+01  -6.016035e+01
   1.937026e+01  -4.740922e+01
   5.260639e+01   1.095879e+01
   5.236202e+01   6.924973e+01
   6.646098e+00   7.356987e+01
  -5.246306e+01   1.910270e+01
  -7.049609e+01  -4.612975e+01
  -2.470576e+01  -6.946396e+01
   4.386725e+01  -4.131554e+01
   6.792400e+01   5.945649e+00
   2.863038e+01   3.720644e+01
  -2.217148e+01   3.908714e+01
  -2.388829e+01   1.902593e+01
   1.938126e+01  -3.041075e+00
   4.462041e+01  -5.679909e+00
   1.047602e+01   1.716301e+01
  -5.192476e+01   4.297732e+01
  -7.761911e+01   3.586426e+01
  -4.427369e+01  -1.009211e+01
   1.017917e+01  -5.536249e+01
   3.772835e+01  -5.353159e+01
   2.818595e+01  -6.254332e+00
   3.126877e+00   3.590364e+01
  -1.694926e+01   3.096623e+01
  -2.475139e+01  -8.819813e+00
  -1.836481e+01  -3.616980e+01
   1.352116e+00  -2.522768e+01
   2.257720e+01   3.992423e+00
   2.780489e+01   1.544474e+01
   1.402496e+01   1.904847e+00
  -1.256740e+00  -1.204785e+01
  -3.588971e+00  -2.425960e+00
   1.204790e+00   2.338395e+01
  -3.649447e+00   3.418054e+01
  -1.950939e+01   1.224848e+01
  -2.607963e+01  -2.487063e+01
  -6.656785e+00  -3.948055e+01
   2.681694e+01  -1.620423e+01
   4.033500e+01   2.234912e+01
   1.254727e+01   3.983742e+01
  -3.678742e+01   2.342525e+01
  -6.084735e+01  -7.747843e+00
  -3.374269e+01  -2.835603e+01
   1.859561e+01  -2.944630e+01
   4.315514e+01  -1.784816e+01
   1.857675e+01  -4.216263e+00
  -2.024955e+01   1.396489e+00
  -2.295049e+01  -6.086688e+00
   1.668935e+01  -1.801117e+01
   5.457723e+01  -1.306061e+01
