
 $NMID
 id='ANONYMOUS ', fmtdat='(2E16.6)'
 volume=1.0
 tramp=1.0
 $END
  -3.389423e+03  -9.311434e+01
  -2.120765e+03  -1.847245e+03
   3.030009e+02  -1.985606e+03
   1.318126e+03  -1.187740e+03
   9.219815e+02  -3.090447e+01
  -3.672619e+01   2.057766e+02
  -2.820014e+02  -1.713463e+02
   1.031799e+02  -5.932276e+02
   5.438130e+02  -4.718989e+02
   6.927622e+02  -3.337961e+01
   4.406965e+02   6.529869e+02
  -8.007926e+01   7.428717e+02
  -3.983682e+02   1.579776e+02
  -2.456415e+02  -4.517180e+02
   1.447200e+02  -5.622390e+02
   4.649476e+02  -6.230646e+01
   2.511958e+02   5.377869e+02
  -1.906774e+02   6.134531e+02
  -5.108680e+02   2.083935e+02
  -3.940999e+02  -1.889534e+02
  -1.189338e+02  -3.782528e+02
   1.312358e+02  -2.998839e+02
   1.072852e+02  -1.341093e+02
  -1.540895e+02  -5.785140e+01
  -2.943527e+02  -2.495859e+02
  -2.963658e+01  -3.460781e+02
   4.880816e+02  -1.976407e+02
   7.013400e+02   1.560340e+02
   2.820125e+02   3.715474e+02
  -3.583089e+02   2.318451e+02
  -5.610306e+02  -1.279990e+02
  -2.006894e+02  -3.781011e+02
   2.953396e+02  -3.858764e+02
   4.941215e+02  -1.293909e+02
   3.465944e+02   1.949428e+02
   9.265948e+01   3.743404e+02
  -4.966941e+01   2.140559e+02
  -2.025797e+01  -1.253312e+02
   1.528295e+02  -2.232164e+02
   2.502415e+02   1.374325e+02
   6.244284e+01   5.390688e+02
  -2.669785e+02   5.063616e+02
  -3.911015e+02  -9.152960e+00
  -1.452626e+02  -3.843426e+02
   2.011423e+02  -1.935572e+02
   2.235824e+02   3.025550e+02
  -1.159938e+02   4.490204e+02
  -4.887855e+02   8.376724e+01
  -5.174921e+02  -3.911176e+02
  -1.531050e+02  -5.356275e+02
   3.300016e+02  -2.983908e+02
   5.509449e+02   7.009479e+01
   3.464878e+02   3.004318e+02
  -8.212459e+01   2.810393e+02
  -3.401153e+02   8.695843e+01
  -2.381917e+02  -8.137654e+01
   1.729059e+01  -6.736716e+01
   7.559069e+01   6.002319e+01
  -1.182799e+02   9.288889e+01
  -2.735555e+02  -5.122635e+01
  -1.391030e+02  -2.311361e+02
   1.839101e+02  -2.682230e+02
   3.762885e+02  -1.237399e+02
   2.612708e+02   1.152979e+02
  -5.231572e+01   3.212348e+02
  -3.222325e+02   3.588460e+02
  -3.818434e+02   1.574075e+02
  -2.402991e+02  -1.741150e+02
  -4.457264e+01  -3.895332e+02
   5.331108e+01  -3.497289e+02
   4.177054e+01  -1.809184e+02
   4.443272e+01  -9.255001e+01
   1.425692e+02  -1.019049e+02
   2.570382e+02  -5.006944e+01
   2.474346e+02   1.263627e+02
   9.164946e+01   2.690479e+02
  -9.869695e+01   2.036946e+02
  -1.967105e+02  -3.526457e+01
  -1.453099e+02  -2.453597e+02
   4.104513e+01  -2.564203e+02
   2.495632e+02  -6.554592e+01
   3.181579e+02   1.805995e+02
   1.670691e+02   3.170730e+02
  -6.982590e+01   2.797316e+02
  -1.924888e+02   1.492368e+02
  -1.591423e+02   6.393037e+01
  -1.494793e+02   5.793166e+01
  -2.850412e+02   3.278595e+01
  -4.317093e+02  -1.132995e+02
  -3.297680e+02  -3.257933e+02
   4.062148e+01  -4.594895e+02
   4.135725e+02  -4.043492e+02
   5.045673e+02  -1.730102e+02
   2.972455e+02   1.052204e+02
   1.759429e+01   2.626089e+02
  -1.014764e+02   2.132807e+02
  -2.063026e+01   4.262522e+01
   1.202111e+02  -5.055875e+01
   1.419845e+02   3.000265e+01
   1.525094e+01   1.518384e+02
  -1.251420e+02   1.204272e+02
  -1.212095e+02  -5.075835e+01
   2.933402e+01  -1.438536e+02
   1.729964e+02  -4.888688e+00
   1.538548e+02   2.505164e+02
  -3.040607e+01   3.606960e+02
  -2.574672e+02   2.106613e+02
  -3.687084e+02  -7.505271e+01
  -2.853706e+02  -2.784230e+02
  -6.092963e+01  -2.832706e+02
   1.345680e+02  -1.428133e+02
   1.594571e+02  -6.720042e+00
   3.897241e+01   1.189242e+01
  -5.348776e+01  -6.639165e+01
   3.606346e+00  -1.195563e+02
   1.331179e+02  -6.676153e+01
   1.582217e+02   3.334891e+01
   3.536046e+01   6.118521e+01
  -8.562307e+01  -1.337263e+01
  -3.888444e+01  -9.731886e+01
   1.563753e+02  -8.571452e+01
   3.110010e+02   3.308904e+01
   2.586877e+02   1.842284e+02
   1.919427e+01   2.728985e+02
  -2.208104e+02   2.373320e+02
  -2.793212e+02   9.315123e+01
  -1.411560e+02  -5.397748e+01
   3.237757e+01  -8.421320e+01
   6.638582e+01   6.554671e+00
  -5.770409e+01   8.543480e+01
  -1.934360e+02   3.144837e+01
  -1.918727e+02  -1.155299e+02
  -5.137480e+01  -1.993142e+02
   9.729437e+01  -1.381959e+02
   1.304107e+02  -1.307465e+01
   4.697733e+01   3.759338e+01
  -4.198533e+01  -2.478331e+01
  -2.341023e+01  -1.131508e+02
   1.055270e+02  -1.157043e+02
   2.196321e+02  -3.917779e+00
   1.839955e+02   1.457375e+02
   1.970439e+00   2.170976e+02
  -1.710891e+02   1.515954e+02
  -1.844195e+02   3.604906e+00
  -5.395063e+01  -1.044219e+02
   6.915622e+01  -9.939618e+01
   7.437611e+01  -2.244682e+01
   2.939661e-01   2.685816e+01
  -3.801305e+01   6.137252e+00
   1.302526e+01  -2.910597e+01
   9.477032e+01   1.805439e+00
   1.067661e+02   1.036355e+02
   3.368079e+00   1.869042e+02
  -1.565490e+02   1.557262e+02
  -2.506380e+02   7.050338e-01
  -1.951846e+02  -1.741576e+02
  -3.016009e+01  -2.411924e+02
   1.114347e+02  -1.637783e+02
   1.350976e+02  -2.808970e+01
   7.445595e+01   4.894497e+01
   3.411592e+01   3.077759e+01
   6.058914e+01  -1.403737e+01
   9.459321e+01  -4.417400e+00
   5.893487e+01   6.258659e+01
  -4.549041e+01   1.105827e+02
  -1.310300e+02   6.858334e+01
  -1.108212e+02  -4.823331e+01
   2.125469e+01  -1.348958e+02
   1.707489e+02  -9.028295e+01
   2.126673e+02   7.334363e+01
   8.457511e+01   2.242267e+02
  -1.342289e+02   2.267778e+02
  -2.815606e+02   7.526594e+01
  -2.521943e+02  -1.027420e+02
  -9.726748e+01  -1.785821e+02
   4.829361e+01  -1.402318e+02
   9.670826e+01  -7.881933e+01
   7.511841e+01  -7.112903e+01
   6.270549e+01  -9.796872e+01
   9.657255e+01  -7.988133e+01
   1.379371e+02   2.482156e+01
   1.207605e+02   1.652729e+02
   2.064473e+01   2.356236e+02
  -1.104989e+02   1.705209e+02
  -1.777863e+02   7.505454e+00
  -1.275102e+02  -1.352056e+02
  -5.526184e+00  -1.620722e+02
   7.899982e+01  -8.061263e+01
   6.280225e+01   1.719097e+01
  -6.116150e+00   5.358396e+01
  -2.741569e+01   3.230368e+01
   3.013111e+01   1.086583e+01
   8.877375e+01   2.326486e+01
   5.112434e+01   4.766204e+01
  -7.756235e+01   4.161062e+01
  -1.805855e+02  -7.957702e+00
  -1.482850e+02  -7.153647e+01
   2.989139e+00  -1.013234e+02
   1.407873e+02  -7.118195e+01
   1.497936e+02  -1.092440e+00
   4.291098e+01   5.304768e+01
  -6.476829e+01   4.355430e+01
  -8.075268e+01  -2.167515e+01
  -1.695983e+01  -7.878451e+01
   5.035547e+01  -6.899258e+01
   7.123471e+01  -1.359243e+00
   5.804717e+01   5.446382e+01
   4.831761e+01   4.595089e+01
   5.826881e+01   1.839529e+00
   6.888281e+01   2.197966e+00
   4.569240e+01   7.774315e+01
  -3.179719e+01   1.602785e+02
  -1.354226e+02   1.493333e+02
  -1.899886e+02   2.887893e+01
  -1.342942e+02  -1.039176e+02
   1.317934e+00  -1.394366e+02
   9.878012e+01  -6.872733e+01
   6.497584e+01   1.424318e+01
  -6.117987e+01   2.078405e+01
  -1.386212e+02  -4.682916e+01
  -7.140506e+01  -1.135273e+02
   8.917568e+01  -1.130530e+02
   1.978477e+02  -4.227111e+01
   1.626641e+02   4.660860e+01
   3.059528e+01   9.113074e+01
  -6.873736e+01   6.354235e+01
  -5.112936e+01  -2.950726e+00
   4.310974e+01  -3.362214e+01
   9.797663e+01   2.119498e+01
   4.010997e+01   1.227948e+02
  -8.694378e+01   1.635323e+02
  -1.674492e+02   7.167064e+01
  -1.299156e+02  -9.803825e+01
  -1.235658e+01  -2.011979e+02
   8.736283e+01  -1.441059e+02
   1.049243e+02   1.476403e+01
   5.256232e+01   1.257291e+02
  -1.514743e+01   1.045045e+02
  -5.228472e+01   1.180822e+01
  -4.606826e+01  -3.570489e+01
  -1.785926e+01  -7.968125e+00
  -5.885531e+00   1.905613e+01
  -2.939019e+01  -2.211449e+01
  -5.754387e+01  -9.480664e+01
  -3.217263e+01  -1.098470e+02
   5.782893e+01  -4.268846e+01
   1.406669e+02   4.151858e+01
   1.270718e+02   7.436040e+01
   1.772762e+01   5.552609e+01
  -8.575612e+01   2.542160e+01
  -9.068290e+01   4.357894e+00
  -1.688584e+01  -1.262900e+01
   3.734518e+01  -2.199413e+01
   2.020608e+01  -1.260464e+01
  -1.704344e+01   4.117374e+00
   1.898179e+00   5.160639e+00
   6.993957e+01  -1.280121e+00
   9.788549e+01   2.411370e+01
   2.192653e+01   8.691183e+01
  -1.146752e+02   1.237090e+02
  -1.989123e+02   6.626595e+01
  -1.600610e+02  -6.566544e+01
  -3.226357e+01  -1.687434e+02
   8.634235e+01  -1.612880e+02
   1.236515e+02  -6.654861e+01
   8.491066e+01   2.114391e+01
   2.734992e+01   3.990277e+01
   1.626444e+00   1.373787e+01
   1.341832e+01   8.874898e+00
   3.066957e+01   5.103819e+01
   1.770918e+01   9.477605e+01
  -3.146683e+01   7.436641e+01
  -8.214709e+01  -1.679193e+01
  -8.271677e+01  -1.076093e+02
  -1.298157e+01  -1.163148e+02
   7.932333e+01  -3.306058e+01
   1.099926e+02   6.901974e+01
   4.057182e+01   1.077941e+02
  -6.734207e+01   6.572738e+01
  -1.073872e+02  -9.789230e+00
  -4.606152e+01  -6.049391e+01
   3.678647e+01  -6.241473e+01
   4.162382e+01  -2.889639e+01
  -2.815541e+01   6.077046e+00
  -7.214210e+01   8.006282e+00
  -1.923240e+01  -2.941120e+01
   8.236788e+01  -6.802075e+01
   1.267674e+02  -5.436032e+01
   7.417756e+01   1.874935e+01
  -1.506978e+01   8.866557e+01
  -6.140991e+01   8.563253e+01
  -4.736170e+01   1.231566e+01
  -7.597257e+00  -5.487790e+01
   2.469668e+01  -4.985585e+01
   3.834439e+01   1.079844e+01
   2.947409e+01   5.505174e+01
  -1.234799e+00   4.003109e+01
  -3.458396e+01  -5.912509e+00
  -4.276684e+01  -2.649536e+01
  -2.085306e+01  -5.278409e+00
   3.795081e+00   1.990947e+01
   7.001444e+00   7.747870e+00
  -2.400345e+00  -3.359912e+01
   4.222241e+00  -5.406156e+01
   2.967938e+01  -2.118704e+01
   4.151826e+01   3.857982e+01
   1.101386e+01   6.386448e+01
  -4.317804e+01   2.669997e+01
  -6.471427e+01  -3.596404e+01
  -1.940902e+01  -6.424864e+01
   5.950584e+01  -3.699332e+01
   9.683236e+01   1.379743e+01
   5.239906e+01   4.634490e+01
  -3.050520e+01   4.678656e+01
  -6.864012e+01   2.756956e+01
  -2.951117e+01   6.297862e+00
   3.094964e+01  -2.925010e+00
   3.578946e+01   7.859198e+00
  -2.492822e+01   2.733289e+01
  -8.290104e+01   2.190399e+01
