
 $NMID
 id='ANONYMOUS ', fmtdat='(2E16.6)'
 volume=1.0
 tramp=1.0
 $END
  -2.401020e+03  -2.105458e+02
  -1.412882e+03  -1.141232e+03
  -5.894838e+01  -1.606586e+03
   1.046334e+03  -6.196369e+02
   6.774980e+02   1.596673e+02
  -2.673123e+02   4.283426e+02
  -4.529714e+02  -5.625883e+01
  -6.798348e+01  -5.289392e+02
   5.022007e+02  -4.095981e+02
   6.077135e+02   1.914178e+01
   2.940651e+02   4.677398e+02
  -1.423941e+02   4.825674e+02
  -2.365805e+02   5.489738e+01
  -1.949350e+02  -3.730450e+02
   1.086014e+02  -3.907222e+02
   3.014126e+02   2.295202e+01
   1.600483e+02   4.060191e+02
  -1.341212e+02   4.022301e+02
  -3.574681e+02   1.318446e+02
  -2.672984e+02  -2.293273e+02
  -6.838574e+01  -2.577055e+02
   1.267293e+02  -1.536665e+02
   1.278738e+02  -9.581625e+00
  -6.645071e+01  -1.656136e+01
  -1.797953e+02  -1.216076e+02
  -1.570204e+01  -2.180412e+02
   3.048277e+02  -1.218321e+02
   4.391290e+02   1.071006e+02
   1.923750e+02   2.763855e+02
  -1.907191e+02   1.969819e+02
  -3.334048e+02  -3.957382e+01
  -1.596679e+02  -2.240159e+02
   1.481813e+02  -2.558565e+02
   2.938307e+02  -8.634101e+01
   1.968248e+02   1.145439e+02
   3.623881e+01   2.158402e+02
  -5.945119e+01   1.369755e+02
  -2.085593e+01  -8.274648e+01
   1.151725e+02  -1.551000e+02
   1.773520e+02   4.296919e+01
   4.379772e+01   3.169349e+02
  -1.817203e+02   2.909901e+02
  -2.555284e+02  -1.270816e+01
  -8.234912e+01  -2.317638e+02
   1.460115e+02  -9.436145e+01
   1.366694e+02   1.807300e+02
  -8.707659e+01   2.452186e+02
  -3.039050e+02   1.258483e+01
  -2.886914e+02  -2.472255e+02
  -6.367290e+01  -2.900540e+02
   2.032694e+02  -1.334934e+02
   3.165272e+02   6.210769e+01
   1.860661e+02   1.717268e+02
  -6.232725e+01   1.387487e+02
  -2.030796e+02   1.630055e+01
  -1.247746e+02  -6.834641e+01
   3.342445e+01  -2.469008e+01
   5.267574e+01   7.485149e+01
  -7.655353e+01   7.710496e+01
  -1.577776e+02  -4.791581e+01
  -6.064025e+01  -1.595432e+02
   1.167728e+02  -1.417392e+02
   1.934490e+02  -2.931332e+01
   1.147123e+02   8.147509e+01
  -3.667864e+01   1.526847e+02
  -1.593066e+02   1.689336e+02
  -1.993754e+02   8.636258e+01
  -1.450718e+02  -8.500247e+01
  -3.653653e+01  -2.214014e+02
   4.603516e+01  -2.102491e+02
   5.887753e+01  -1.007148e+02
   4.483837e+01  -3.187825e+01
   6.911646e+01  -3.671248e+01
   1.220587e+02  -2.028354e+01
   1.283548e+02   7.020009e+01
   5.350587e+01   1.518464e+02
  -5.389951e+01   1.201388e+02
  -1.213837e+02  -1.426827e+01
  -9.564027e+01  -1.391015e+02
   1.734797e+01  -1.541089e+02
   1.472563e+02  -4.847990e+01
   1.895675e+02   1.023422e+02
   9.438428e+01   1.949784e+02
  -5.357809e+01   1.661667e+02
  -1.228655e+02   7.846224e+01
  -9.275560e+01   1.986262e+01
  -7.698808e+01   2.270742e+01
  -1.547091e+02   1.470786e+01
  -2.337320e+02  -6.723658e+01
  -1.715740e+02  -1.903481e+02
   4.070063e+01  -2.574563e+02
   2.435060e+02  -2.146180e+02
   2.874319e+02  -8.269587e+01
   1.679783e+02   6.779654e+01
   9.022598e+00   1.547286e+02
  -6.630759e+01   1.302000e+02
  -2.693166e+01   2.788700e+01
   6.006389e+01  -3.382657e+01
   8.232229e+01   1.400541e+01
   9.030671e+00   8.909220e+01
  -7.863262e+01   6.917935e+01
  -7.833877e+01  -3.873314e+01
   1.697958e+01  -9.354921e+01
   1.011966e+02  -3.336357e+00
   8.261084e+01   1.478360e+02
  -2.979190e+01   2.001631e+02
  -1.472674e+02   1.018428e+02
  -1.931760e+02  -5.725599e+01
  -1.433679e+02  -1.578712e+02
  -3.106176e+01  -1.513243e+02
   7.021685e+01  -7.575574e+01
   8.766372e+01  -3.965124e+00
   2.682959e+01   6.388084e+00
  -2.445183e+01  -3.651413e+01
   3.920641e+00  -6.798147e+01
   7.446771e+01  -3.925729e+01
   8.968370e+01   1.935251e+01
   2.249264e+01   3.703634e+01
  -4.355647e+01  -4.466155e+00
  -1.886971e+01  -5.061359e+01
   8.557126e+01  -4.231590e+01
   1.685374e+02   2.331926e+01
   1.412398e+02   1.035741e+02
   1.143364e+01   1.500608e+02
  -1.235676e+02   1.319253e+02
  -1.610398e+02   5.378060e+01
  -8.463678e+01  -2.884189e+01
   1.732379e+01  -4.837772e+01
   3.944574e+01   1.019671e+00
  -3.207071e+01   4.494169e+01
  -1.099442e+02   1.476295e+01
  -1.068563e+02  -6.668498e+01
  -2.616646e+01  -1.124693e+02
   5.555197e+01  -7.802288e+01
   7.342755e+01  -8.369184e+00
   3.019247e+01   2.100000e+01
  -1.689003e+01  -1.121700e+01
  -9.733445e+00  -5.916066e+01
   5.586408e+01  -6.164497e+01
   1.172625e+02   1.875131e-01
   9.907530e+01   8.403336e+01
  -1.542447e+00   1.214840e+02
  -9.736181e+01   8.005978e+01
  -1.020899e+02  -4.431521e+00
  -2.636671e+01  -6.020435e+01
   4.084124e+01  -5.206068e+01
   4.017173e+01  -9.763592e+00
   1.607537e-01   1.371300e+01
  -1.642931e+01   3.511874e+00
   1.092823e+01  -1.025338e+01
   4.724120e+01   8.843928e+00
   4.629511e+01   5.920916e+01
  -7.318679e+00   9.746179e+01
  -8.734543e+01   7.664825e+01
  -1.349700e+02  -7.547517e+00
  -1.043407e+02  -1.021651e+02
  -1.099253e+01  -1.362485e+02
   7.018192e+01  -8.991765e+01
   8.124651e+01  -1.173679e+01
   4.089535e+01   3.186723e+01
   1.523668e+01   2.063778e+01
   3.258431e+01  -4.249031e+00
   5.171625e+01   9.157004e-01
   2.798457e+01   3.351174e+01
  -2.985944e+01   5.456043e+01
  -7.162430e+01   2.986576e+01
  -5.312469e+01  -2.854597e+01
   1.863159e+01  -6.833757e+01
   9.517998e+01  -4.074814e+01
   1.106936e+02   4.636822e+01
   3.882142e+01   1.248542e+02
  -7.992757e+01   1.223398e+02
  -1.574471e+02   3.549789e+01
  -1.393933e+02  -6.354257e+01
  -5.115080e+01  -1.035716e+02
   2.999435e+01  -7.822006e+01
   5.686428e+01  -4.276506e+01
   4.622321e+01  -3.832415e+01
   4.062327e+01  -5.246565e+01
   5.752530e+01  -4.082394e+01
   7.599363e+01   1.891296e+01
   6.114771e+01   9.608298e+01
   3.024746e+00   1.326283e+02
  -6.749302e+01   9.281196e+01
  -9.889304e+01  -2.034252e-01
  -6.504659e+01  -7.938205e+01
   2.748369e+00  -9.169776e+01
   4.362781e+01  -4.407929e+01
   3.023477e+01   9.913765e+00
  -4.596026e+00   2.875363e+01
  -1.025848e+01   1.792094e+01
   2.089768e+01   9.283230e+00
   4.608145e+01   1.716510e+01
   2.176390e+01   2.660834e+01
  -4.453191e+01   1.794890e+01
  -9.561707e+01  -1.030400e+01
  -7.785266e+01  -4.115707e+01
   1.526118e+00  -5.319221e+01
   7.660351e+01  -3.581375e+01
   8.341762e+01   6.849461e-01
   2.446792e+01   2.801276e+01
  -3.655191e+01   2.096870e+01
  -4.361805e+01  -1.499257e+01
  -4.003318e+00  -4.412127e+01
   3.393685e+01  -3.518381e+01
   4.027611e+01   4.023270e+00
   2.822727e+01   3.380547e+01
   2.492801e+01   2.716354e+01
   3.472210e+01   2.995362e+00
   3.931699e+01   4.228456e+00
   2.015943e+01   4.518126e+01
  -2.615587e+01   8.740536e+01
  -7.908628e+01   7.703559e+01
  -1.023678e+02   9.507610e+00
  -6.848791e+01  -6.095886e+01
   4.730391e+00  -7.569859e+01
   5.527739e+01  -3.424350e+01
   3.501275e+01   9.722698e+00
  -3.440346e+01   8.937740e+00
  -7.563829e+01  -3.086229e+01
  -3.626116e+01  -6.539502e+01
   5.410663e+01  -5.935497e+01
   1.132360e+02  -1.616764e+01
   9.049023e+01   3.211052e+01
   1.392609e+01   5.226706e+01
  -4.169208e+01   3.327104e+01
  -2.907192e+01  -2.753333e+00
   2.573142e+01  -1.516867e+01
   5.425986e+01   1.803246e+01
   1.629350e+01   7.116289e+01
  -5.776928e+01   8.639410e+01
  -9.810477e+01   3.082083e+01
  -6.806981e+01  -6.102319e+01
   2.742914e+00  -1.121070e+02
   5.461191e+01  -7.704545e+01
   5.698094e+01   1.073817e+01
   2.511490e+01   7.055272e+01
  -9.324268e+00   5.851019e+01
  -2.701430e+01   6.997318e+00
  -2.492079e+01  -2.046954e+01
  -1.166021e+01  -5.196092e+00
  -4.160790e+00   1.049048e+01
  -1.426045e+01  -1.186803e+01
  -2.864489e+01  -5.384440e+01
  -1.575401e+01  -6.297458e+01
   3.289824e+01  -2.246377e+01
   7.815297e+01   2.898026e+01
   6.933225e+01   4.732777e+01
   6.997453e+00   3.157627e+01
  -4.994344e+01   9.992813e+00
  -4.984645e+01  -6.499107e-01
  -7.152107e+00  -5.467187e+00
   2.097054e+01  -8.996668e+00
   8.632411e+00  -6.831131e+00
  -1.100059e+01   1.741705e-01
   3.223420e+00   3.074735e+00
   4.154492e+01   4.158809e+00
   5.185241e+01   1.930988e+01
   3.549146e+00   4.940735e+01
  -7.276112e+01   6.268574e+01
  -1.132429e+02   2.659915e+01
  -8.380701e+01  -4.516258e+01
  -9.082269e+00  -9.641811e+01
   5.506207e+01  -8.612290e+01
   7.167160e+01  -3.097513e+01
   4.631961e+01   1.634122e+01
   1.319060e+01   2.349915e+01
  -5.295896e-01   6.739991e+00
   6.730132e+00   4.307060e+00
   1.564815e+01   2.941677e+01
   6.582420e+00   5.437212e+01
  -2.105378e+01   4.076558e+01
  -4.596412e+01  -1.403710e+01
  -4.119338e+01  -6.633440e+01
  -1.282413e-01  -6.666754e+01
   4.772246e+01  -1.329676e+01
   5.851222e+01   4.615963e+01
   1.668627e+01   6.294328e+01
  -4.085233e+01   3.266796e+01
  -5.852568e+01  -1.063913e+01
  -2.194533e+01  -3.449928e+01
   2.253833e+01  -3.176405e+01
   2.246310e+01  -1.426354e+01
  -1.754389e+01   1.595037e+00
  -4.049668e+01   1.523391e+00
  -8.640065e+00  -1.696959e+01
   4.909678e+01  -3.523902e+01
   7.233491e+01  -2.602255e+01
   3.947469e+01   1.353321e+01
  -1.257657e+01   4.994845e+01
  -3.824808e+01   4.494403e+01
  -2.723921e+01   2.530730e+00
  -1.574764e+00  -3.324584e+01
   1.714256e+01  -2.708573e+01
   2.248151e+01   8.822561e+00
   1.492366e+01   3.262105e+01
  -2.328043e+00   2.165494e+01
  -1.909605e+01  -4.991452e+00
  -2.249164e+01  -1.530261e+01
  -1.152330e+01  -2.567845e+00
   5.181084e-01   1.097597e+01
   2.796188e+00   3.244670e+00
   8.891007e-01  -1.949625e+01
   6.373304e+00  -2.905333e+01
   1.807247e+01  -8.851884e+00
   1.982439e+01   2.391434e+01
   1.153519e+00   3.499721e+01
  -2.584270e+01   1.135442e+01
  -3.307921e+01  -2.392860e+01
  -6.736549e+00  -3.653866e+01
   3.476759e+01  -1.736562e+01
   5.270775e+01   1.218976e+01
   2.705477e+01   2.766754e+01
  -1.861652e+01   2.380147e+01
  -3.919332e+01   1.151961e+01
  -1.624034e+01   1.993194e+00
   1.831985e+01   6.873729e-01
   1.997200e+01   7.530891e+00
  -1.608076e+01   1.511495e+01
  -4.900086e+01   8.359414e+00
