
 $NMID
 id='ANONYMOUS ', fmtdat='(2E16.6)'
 volume=1.0
 tramp=1.0
 $END
   3.763474e+03   5.461685e+01
   2.343910e+03   2.003705e+03
  -2.583483e+02   2.217335e+03
  -1.714312e+03   1.028482e+03
  -1.141073e+03  -1.523033e+02
   2.824129e+02  -2.452251e+02
   6.408412e+02   1.312897e+02
   6.839527e+00   9.249318e+02
  -6.423563e+02   7.831590e+02
  -9.030476e+02   1.159831e+01
  -4.993986e+02  -8.149253e+02
   6.220771e+01  -8.404948e+02
   4.009726e+02  -2.313333e+02
   3.149837e+02   5.485650e+02
  -1.593846e+02   6.546052e+02
  -4.544147e+02   1.036531e+02
  -2.348279e+02  -5.999223e+02
   2.389774e+02  -6.497245e+02
   5.262238e+02  -1.831930e+02
   4.158267e+02   2.617221e+02
   6.568738e+01   4.032050e+02
  -1.976401e+02   2.966120e+02
  -1.986078e+02   7.407995e+01
   1.355309e+02  -1.898736e+01
   3.618940e+02   1.762851e+02
   1.406442e+02   3.818002e+02
  -4.405061e+02   2.953220e+02
  -7.632830e+02  -6.481019e+01
  -4.109072e+02  -4.247929e+02
   3.223152e+02  -3.707746e+02
   6.432581e+02   3.086655e+01
   2.995270e+02   4.061700e+02
  -2.498343e+02   4.388659e+02
  -5.301707e+02   2.106542e+02
  -4.148334e+02  -1.916985e+02
  -1.107653e+02  -4.430784e+02
   1.477651e+02  -3.006888e+02
   1.153849e+02   1.448517e+02
  -1.561750e+02   3.396818e+02
  -3.710468e+02  -4.632975e+01
  -1.780577e+02  -6.005202e+02
   2.736825e+02  -6.279745e+02
   5.085116e+02  -4.216678e+01
   2.225108e+02   4.422695e+02
  -2.245757e+02   2.412948e+02
  -3.062435e+02  -3.169585e+02
   8.758403e+01  -4.975834e+02
   5.285834e+02  -1.163505e+02
   5.775803e+02   3.815968e+02
   1.849936e+02   5.526862e+02
  -3.466270e+02   3.260132e+02
  -5.988073e+02  -5.828215e+01
  -3.714976e+02  -3.312842e+02
   1.165442e+02  -3.228364e+02
   4.025670e+02  -8.508698e+01
   2.608907e+02   1.199299e+02
  -4.992684e+01   8.130495e+01
  -1.064651e+02  -9.996369e+01
   1.349156e+02  -1.348000e+02
   3.174917e+02   6.034905e+01
   1.668504e+02   2.668590e+02
  -1.698603e+02   2.787857e+02
  -3.513940e+02   1.207957e+02
  -2.427474e+02  -8.358323e+01
   2.466117e+01  -2.660372e+02
   2.604077e+02  -3.460184e+02
   3.514109e+02  -2.002068e+02
   2.689929e+02   1.396962e+02
   8.214889e+01   4.061281e+02
  -5.962403e+01   3.780361e+02
  -7.230661e+01   1.676380e+02
  -4.443263e+01   5.703743e+01
  -1.045174e+02   9.958867e+01
  -2.284475e+02   8.984155e+01
  -2.613948e+02  -8.632936e+01
  -1.306832e+02  -2.634918e+02
   7.458782e+01  -2.295678e+02
   2.093019e+02   7.425358e+00
   1.800090e+02   2.381331e+02
  -1.390855e+01   2.834439e+02
  -2.604994e+02   1.091847e+02
  -3.595947e+02  -1.595910e+02
  -1.997217e+02  -3.386628e+02
   7.789002e+01  -3.121471e+02
   2.143383e+02  -1.482231e+02
   1.577956e+02  -3.400864e+01
   1.151794e+02  -4.452627e+01
   2.539131e+02  -6.117094e+01
   4.259870e+02   6.661087e+01
   3.515474e+02   2.954988e+02
  -6.989198e+00   4.557117e+02
  -3.799577e+02   4.252487e+02
  -4.973384e+02   2.077054e+02
  -3.212692e+02  -8.651756e+01
  -4.635123e+01  -2.798161e+02
   1.058000e+02  -2.440543e+02
   4.789769e+01  -4.575432e+01
  -1.062092e+02   8.376351e+01
  -1.663325e+02  -3.517037e+00
  -4.306920e+01  -1.661993e+02
   1.312993e+02  -1.535765e+02
   1.511756e+02   4.788356e+01
  -1.785626e+01   1.718100e+02
  -1.906420e+02   3.086643e+01
  -1.803935e+02  -2.453156e+02
   1.267761e+01  -3.678697e+02
   2.425728e+02  -2.244317e+02
   3.595102e+02   5.245656e+01
   2.943661e+02   2.542038e+02
   8.736744e+01   2.773373e+02
  -1.186149e+02   1.562337e+02
  -1.679642e+02   1.726407e+01
  -5.152687e+01  -1.946457e+01
   6.151079e+01   5.463366e+01
   1.699581e+01   1.251149e+02
  -1.247223e+02   8.820984e+01
  -1.695394e+02  -1.737336e+01
  -5.089703e+01  -6.329081e+01
   8.051556e+01  -1.556364e+00
   4.770043e+01   8.439709e+01
  -1.393134e+02   9.040094e+01
  -3.002966e+02  -6.094078e+00
  -2.712538e+02  -1.506718e+02
  -5.320611e+01  -2.615328e+02
   1.924331e+02  -2.602725e+02
   2.799359e+02  -1.275838e+02
   1.603874e+02   4.142587e+01
  -2.511017e+01   9.743941e+01
  -8.000816e+01   5.574573e+00
   4.327413e+01  -9.479628e+01
   1.977663e+02  -5.375874e+01
   2.116617e+02   1.010787e+02
   7.063823e+01   2.034164e+02
  -8.942831e+01   1.546920e+02
  -1.360261e+02   2.877048e+01
  -6.077073e+01  -3.483633e+01
   3.341172e+01   1.243524e+01
   3.175606e+01   9.854180e+01
  -8.566679e+01   1.173883e+02
  -2.090497e+02   2.340097e+01
  -1.938484e+02  -1.282940e+02
  -1.927436e+01  -2.182856e+02
   1.643325e+02  -1.651270e+02
   1.913078e+02  -1.149898e+01
   6.313583e+01   1.090691e+02
  -6.714156e+01   1.089333e+02
  -7.975735e+01   2.901854e+01
  -9.582895e+00  -2.614528e+01
   2.924687e+01  -1.229699e+01
  -1.306576e+01   1.842623e+01
  -8.574458e+01  -6.022499e+00
  -1.001367e+02  -9.395765e+01
  -1.222265e+01  -1.735762e+02
   1.381647e+02  -1.573527e+02
   2.421845e+02  -2.149947e+01
   2.055590e+02   1.541173e+02
   4.609428e+01   2.385445e+02
  -1.030842e+02   1.736631e+02
  -1.346077e+02   3.529208e+01
  -7.463437e+01  -4.832238e+01
  -3.469215e+01  -3.309664e+01
  -5.932453e+01   1.508120e+01
  -9.042486e+01   8.682184e+00
  -5.275467e+01  -5.478186e+01
   4.317891e+01  -1.027392e+02
   1.168687e+02  -6.622642e+01
   9.759986e+01   3.944448e+01
  -1.784393e+01   1.235471e+02
  -1.559334e+02   9.129239e+01
  -2.056970e+02  -5.784320e+01
  -9.693413e+01  -2.126323e+02
   1.149861e+02  -2.329282e+02
   2.729612e+02  -9.556908e+01
   2.609188e+02   8.653825e+01
   1.128538e+02   1.756853e+02
  -3.703900e+01   1.480916e+02
  -9.413661e+01   8.884518e+01
  -7.678645e+01   7.645524e+01
  -6.332755e+01   9.908446e+01
  -9.345032e+01   8.118982e+01
  -1.360852e+02  -1.924628e+01
  -1.269701e+02  -1.576085e+02
  -3.388259e+01  -2.334020e+02
   9.962590e+01  -1.780446e+02
   1.783860e+02  -2.077272e+01
   1.382457e+02   1.266151e+02
   1.892504e+01   1.643259e+02
  -6.944970e+01   9.083226e+01
  -6.119226e+01  -6.574031e+00
  -1.575083e+00  -4.819901e+01
   1.513519e+01  -3.262100e+01
  -3.714775e+01  -1.202015e+01
  -8.627346e+01  -2.049659e+01
  -4.811786e+01  -4.258594e+01
   7.151977e+01  -4.186871e+01
   1.703508e+02  -2.729196e+00
   1.478346e+02   5.637331e+01
   9.517306e+00   9.399073e+01
  -1.282902e+02   7.759232e+01
  -1.475298e+02   1.471129e+01
  -4.731527e+01  -4.306816e+01
   6.188727e+01  -4.179582e+01
   7.954347e+01   1.779025e+01
   1.356615e+01   7.451356e+01
  -5.339141e+01   6.726166e+01
  -6.888800e+01   2.484221e+00
  -5.322380e+01  -5.167227e+01
  -4.793579e+01  -4.332705e+01
  -6.162589e+01   5.809496e-01
  -6.932513e+01   1.621605e+00
  -4.304559e+01  -7.267184e+01
   2.822419e+01  -1.564514e+02
   1.225748e+02  -1.506145e+02
   1.770514e+02  -3.586973e+01
   1.324335e+02   9.516209e+01
   6.561878e+00   1.339352e+02
  -9.128342e+01   6.887537e+01
  -6.435003e+01  -1.159834e+01
   5.838810e+01  -2.116805e+01
   1.392322e+02   4.086945e+01
   7.736476e+01   1.075315e+02
  -8.215256e+01   1.147269e+02
  -1.950407e+02   5.304734e+01
  -1.662885e+02  -3.534009e+01
  -3.754238e+01  -8.826432e+01
   6.361415e+01  -6.963755e+01
   5.097569e+01  -4.320014e+00
  -4.105296e+01   3.077736e+01
  -9.753072e+01  -2.023145e+01
  -4.112932e+01  -1.223085e+02
   8.647340e+01  -1.649545e+02
   1.693907e+02  -7.390727e+01
   1.342792e+02   9.656686e+01
   1.779207e+01   2.021902e+02
  -8.254481e+01   1.494403e+02
  -1.052372e+02  -7.019263e+00
  -6.041529e+01  -1.210320e+02
   4.290765e+00  -1.066143e+02
   4.760548e+01  -1.765932e+01
   5.017181e+01   3.218092e+01
   2.322712e+01   7.805541e+00
   4.749460e+00  -1.971603e+01
   2.537552e+01   1.793267e+01
   5.962455e+01   9.001918e+01
   4.130290e+01   1.089901e+02
  -5.119639e+01   4.619082e+01
  -1.426724e+02  -3.593960e+01
  -1.327256e+02  -6.916393e+01
  -1.914749e+01  -5.279939e+01
   8.775105e+01  -2.696769e+01
   9.022969e+01  -8.734827e+00
   1.346140e+01   9.705515e+00
  -3.830846e+01   2.300971e+01
  -1.647205e+01   1.545761e+01
   1.979304e+01  -3.239827e+00
  -4.541655e+00  -6.409730e+00
  -7.403305e+01   1.133299e+00
  -9.694773e+01  -2.222590e+01
  -1.743341e+01  -8.567594e+01
   1.153173e+02  -1.251711e+02
   1.933172e+02  -6.908243e+01
   1.549886e+02   6.350423e+01
   3.452247e+01   1.673049e+02
  -7.895247e+01   1.602290e+02
  -1.185993e+02   6.650752e+01
  -8.437320e+01  -1.963563e+01
  -2.708489e+01  -3.775233e+01
   1.209738e+00  -1.131841e+01
  -1.173501e+01  -5.770759e+00
  -3.443065e+01  -4.739358e+01
  -2.396044e+01  -9.274721e+01
   2.876368e+01  -7.511914e+01
   8.447005e+01   1.534009e+01
   8.474693e+01   1.078274e+02
   1.172692e+01   1.164720e+02
  -8.263846e+01   3.144727e+01
  -1.114624e+02  -7.069522e+01
  -4.052272e+01  -1.063561e+02
   6.602621e+01  -6.344867e+01
   1.042050e+02   7.293916e+00
   4.462803e+01   5.376289e+01
  -3.335123e+01   5.789589e+01
  -3.545676e+01   2.993131e+01
   3.210264e+01  -4.018434e+00
   7.139413e+01  -9.882420e+00
   1.784105e+01   2.631494e+01
  -7.970120e+01   6.969110e+01
  -1.200870e+02   6.077571e+01
  -6.953098e+01  -1.348975e+01
   1.353190e+01  -8.779803e+01
   5.607391e+01  -8.553844e+01
   4.342554e+01  -9.753972e+00
   6.934819e+00   5.696194e+01
  -2.442259e+01   4.849939e+01
  -3.941442e+01  -1.327541e+01
  -3.058365e+01  -5.409246e+01
   1.112752e+00  -3.663019e+01
   3.463158e+01   6.328627e+00
   4.201696e+01   2.236920e+01
   2.058285e+01   1.789876e+00
  -2.971555e+00  -1.744370e+01
  -6.746349e+00  -1.971404e+00
  -9.709785e-01   3.568356e+01
  -9.157393e+00   4.985350e+01
  -3.070976e+01   1.464339e+01
  -3.637959e+01  -4.159899e+01
  -5.244272e+00  -6.224933e+01
   4.401179e+01  -2.404251e+01
   6.196996e+01   3.689592e+01
   1.894546e+01   6.371469e+01
  -5.673290e+01   3.786227e+01
  -9.480642e+01  -1.144187e+01
  -5.378130e+01  -4.386287e+01
   2.835435e+01  -4.564717e+01
   6.764051e+01  -2.741529e+01
   2.815563e+01  -6.506712e+00
  -3.468385e+01   1.595402e+00
  -3.866877e+01  -1.070158e+01
   2.699672e+01  -3.052716e+01
   8.826967e+01  -2.380900e+01
