
 $NMID
 id='ANONYMOUS ', fmtdat='(2E16.6)'
 volume=1.0
 tramp=1.0
 $END
  -2.859835e+03  -2.420262e+01
  -1.694626e+03  -2.004799e+03
   2.737528e+02  -1.919614e+03
   1.506087e+03  -7.428642e+02
   5.679465e+02   2.627219e+02
  -4.252669e+02   4.302769e+02
  -7.236937e+02  -2.552262e+02
   1.737649e+01  -6.957050e+02
   6.127597e+02  -7.260214e+02
   6.530075e+02   1.635311e+01
   2.535659e+02   5.679501e+02
  -5.492588e+01   5.782671e+02
  -4.638947e+02   7.346203e+01
  -2.655998e+02  -4.987674e+02
   1.600989e+02  -5.341215e+02
   4.483981e+02  -1.921622e+01
   1.941061e+02   4.924101e+02
  -2.184855e+02   4.097305e+02
  -4.316894e+02   4.406910e+01
  -2.742122e+02  -2.295920e+02
   7.579378e+00  -2.907378e+02
   1.950654e+02  -1.788037e+02
   1.255762e+02   1.359448e+00
  -9.468446e+01   5.303031e+01
  -2.804154e+02  -8.994834e+01
  -7.310366e+01  -3.126026e+02
   3.458869e+02  -2.794060e+02
   5.971109e+02   8.517927e+01
   2.655651e+02   4.045136e+02
  -2.763799e+02   3.161436e+02
  -4.840160e+02  -6.185993e+01
  -2.039916e+02  -3.376767e+02
   2.083760e+02  -3.369641e+02
   3.761784e+02  -1.130727e+02
   2.638223e+02   1.542727e+02
   4.269104e+01   2.832266e+02
  -1.076604e+02   1.580722e+02
  -8.860811e+01  -1.522926e+02
   1.427047e+02  -2.714828e+02
   2.837266e+02   3.829008e+01
   1.333451e+02   4.696966e+02
  -2.249316e+02   4.498144e+02
  -3.756650e+02  -2.608939e+01
  -1.467451e+02  -3.856105e+02
   1.841926e+02  -2.081531e+02
   2.204044e+02   2.304879e+02
  -6.678440e+01   3.651303e+02
  -3.693758e+02   6.744387e+01
  -3.784017e+02  -2.990899e+02
  -9.940761e+01  -4.050652e+02
   2.622203e+02  -2.326053e+02
   4.198610e+02   5.488288e+01
   2.508642e+02   2.459037e+02
  -9.894789e+01   2.249180e+02
  -2.792060e+02   2.813878e+01
  -1.424484e+02  -1.184258e+02
   8.021858e+01  -5.858484e+01
   8.615259e+01   9.034497e+01
  -1.094165e+02   9.498999e+01
  -2.112058e+02  -6.018409e+01
  -6.862119e+01  -1.794671e+02
   1.480912e+02  -1.505895e+02
   2.185376e+02  -5.118486e+01
   1.293678e+02   4.467641e+01
  -1.010096e+01   1.549437e+02
  -1.417441e+02   2.397436e+02
  -2.339776e+02   1.597424e+02
  -2.114243e+02  -9.711804e+01
  -6.108571e+01  -3.033284e+02
   8.056713e+01  -2.596358e+02
   8.421427e+01  -6.995777e+01
   1.153490e+01   1.010662e+01
   2.200693e+01  -6.397119e+01
   1.297939e+02  -9.379069e+01
   1.888908e+02   3.731432e+01
   1.035381e+02   1.930008e+02
  -6.397754e+01   1.799873e+02
  -1.681227e+02  -2.121358e+00
  -1.327990e+02  -1.811862e+02
   2.310719e+01  -2.071847e+02
   1.902596e+02  -6.754382e+01
   2.343357e+02   1.259693e+02
   1.060037e+02   2.378924e+02
  -7.430158e+01   1.996623e+02
  -1.450506e+02   7.888763e+01
  -9.561489e+01   8.220359e+00
  -7.587982e+01   2.763953e+01
  -1.701544e+02   3.667490e+01
  -2.725270e+02  -4.803695e+01
  -2.173323e+02  -2.008593e+02
   5.818760e+00  -3.029489e+02
   2.482922e+02  -2.835046e+02
   3.378823e+02  -1.329518e+02
   2.333067e+02   7.106307e+01
   3.262907e+01   2.032639e+02
  -9.503578e+01   1.651447e+02
  -5.395903e+01   1.061269e+01
   8.446245e+01  -7.168024e+01
   1.374752e+02   1.584040e+01
   2.566536e+01   1.401299e+02
  -1.171548e+02   1.109172e+02
  -1.178200e+02  -4.904435e+01
   1.997789e+01  -1.319802e+02
   1.336525e+02  -1.459281e+01
   1.058683e+02   1.736403e+02
  -2.715380e+01   2.365796e+02
  -1.597312e+02   1.277602e+02
  -2.242322e+02  -4.408071e+01
  -1.897482e+02  -1.633037e+02
  -6.198830e+01  -1.817783e+02
   8.016145e+01  -1.114057e+02
   1.202470e+02  -1.512299e+01
   3.792183e+01   2.000393e+01
  -4.538697e+01  -2.895153e+01
  -1.384233e+01  -8.584161e+01
   8.877264e+01  -6.398500e+01
   1.206603e+02   1.381428e+01
   3.596640e+01   5.188011e+01
  -5.659573e+01   9.675626e+00
  -3.719991e+01  -5.261882e+01
   8.514678e+01  -5.975040e+01
   1.928471e+02   2.890728e+00
   1.784088e+02   1.003410e+02
   3.637204e+01   1.770863e+02
  -1.319172e+02   1.760653e+02
  -1.961086e+02   8.063968e+01
  -1.143405e+02  -3.847080e+01
   1.823422e+01  -7.353643e+01
   5.939185e+01  -4.465281e+00
  -2.658572e+01   6.528026e+01
  -1.338647e+02   3.334262e+01
  -1.412230e+02  -7.445729e+01
  -4.181109e+01  -1.413601e+02
   6.775310e+01  -1.050384e+02
   9.842753e+01  -1.709886e+01
   4.593173e+01   2.994408e+01
  -2.128213e+01   7.422366e-01
  -2.461256e+01  -6.049038e+01
   5.247598e+01  -7.924526e+01
   1.376919e+02  -1.729503e+01
   1.293357e+02   8.881817e+01
   1.157596e+01   1.501081e+02
  -1.128052e+02   1.093458e+02
  -1.298940e+02   2.486128e+00
  -4.236814e+01  -7.605686e+01
   4.509687e+01  -7.323845e+01
   5.467865e+01  -2.005992e+01
   9.859765e+00   1.829318e+01
  -1.764941e+01   1.361974e+01
   5.094178e+00  -6.073047e+00
   4.896518e+01   2.582002e+00
   6.265163e+01   5.283332e+01
   1.075750e+01   1.089597e+02
  -8.805135e+01   1.055057e+02
  -1.610133e+02   1.556336e+01
  -1.346441e+02  -1.072387e+02
  -2.290957e+01  -1.632162e+02
   7.863527e+01  -1.121253e+02
   9.383365e+01  -1.442048e+01
   4.787914e+01   3.902553e+01
   1.900382e+01   2.375767e+01
   3.613056e+01  -7.123836e+00
   5.440543e+01  -1.650581e+00
   2.840550e+01   3.582210e+01
  -2.945189e+01   5.989671e+01
  -7.145743e+01   3.671739e+01
  -5.981340e+01  -2.731581e+01
   9.653524e+00  -7.668733e+01
   9.980309e+01  -5.676671e+01
   1.354756e+02   3.885303e+01
   6.563321e+01   1.391544e+02
  -7.700102e+01   1.535124e+02
  -1.833696e+02   6.137176e+01
  -1.728017e+02  -6.049129e+01
  -7.164014e+01  -1.193383e+02
   2.608726e+01  -9.833399e+01
   6.256463e+01  -5.743318e+01
   5.416738e+01  -4.817505e+01
   4.785849e+01  -6.249433e+01
   6.533762e+01  -4.968558e+01
   8.637115e+01   1.622059e+01
   7.685211e+01   1.064561e+02
   1.619515e+01   1.540760e+02
  -6.940391e+01   1.152979e+02
  -1.192076e+02   1.030962e+01
  -9.046635e+01  -8.610371e+01
  -9.715666e+00  -1.093967e+02
   4.872848e+01  -6.167458e+01
   4.223930e+01   8.398447e-01
   2.417693e+00   3.032639e+01
  -9.087855e+00   2.579094e+01
   2.303717e+01   1.541870e+01
   5.313020e+01   1.687737e+01
   2.910705e+01   2.506653e+01
  -4.552649e+01   2.310231e+01
  -1.092722e+02  -4.171721e-01
  -9.757401e+01  -3.781075e+01
  -8.414778e+00  -6.252186e+01
   8.484695e+01  -4.977576e+01
   1.003743e+02  -6.217270e+00
   3.303625e+01   3.029216e+01
  -4.129803e+01   2.505483e+01
  -5.170397e+01  -1.472979e+01
  -5.232782e+00  -4.692660e+01
   3.792817e+01  -3.786988e+01
   4.330377e+01   2.593108e+00
   3.081134e+01   3.412200e+01
   2.994164e+01   2.881386e+01
   4.152233e+01   3.053173e+00
   4.428697e+01   2.369527e+00
   2.314669e+01   4.634668e+01
  -2.368813e+01   9.762862e+01
  -8.097164e+01   9.430268e+01
  -1.125073e+02   2.142187e+01
  -8.248925e+01  -6.219355e+01
  -2.617260e+00  -8.499342e+01
   5.861790e+01  -4.075600e+01
   3.846206e+01   1.006941e+01
  -4.153507e+01   1.134872e+01
  -9.203611e+01  -3.257730e+01
  -4.807619e+01  -7.397261e+01
   5.740769e+01  -7.404136e+01
   1.296516e+02  -3.140443e+01
   1.084814e+02   2.554761e+01
   2.325841e+01   5.859204e+01
  -4.203527e+01   4.541377e+01
  -3.246265e+01   3.414982e+00
   2.684296e+01  -1.749793e+01
   6.050113e+01   1.693760e+01
   2.073458e+01   8.021373e+01
  -6.257602e+01   1.017187e+02
  -1.118801e+02   3.939929e+01
  -8.314607e+01  -6.807967e+01
  -4.449582e+00  -1.312769e+02
   5.958640e+01  -9.508738e+01
   7.078874e+01   5.628083e+00
   3.914362e+01   8.050685e+01
  -4.094463e+00   7.290081e+01
  -3.270703e+01   1.401920e+01
  -3.484477e+01  -2.187616e+01
  -1.686420e+01  -7.238110e+00
  -3.360458e+00   1.280406e+01
  -1.481758e+01  -1.112534e+01
  -3.644878e+01  -6.117616e+01
  -2.520240e+01  -7.515448e+01
   3.389472e+01  -3.024117e+01
   9.294860e+01   2.861531e+01
   8.632692e+01   5.018260e+01
   1.192031e+01   3.439660e+01
  -5.813172e+01   1.437267e+01
  -5.908046e+01   4.324933e+00
  -7.911458e+00  -4.886085e+00
   2.537980e+01  -1.427256e+01
   9.757615e+00  -1.187417e+01
  -1.415978e+01   9.698480e-01
   3.753742e+00   6.366535e+00
   4.983531e+01   3.986912e+00
   6.127150e+01   1.725017e+01
   4.789378e+00   5.342692e+01
  -8.115037e+01   7.432189e+01
  -1.252386e+02   3.654794e+01
  -9.394119e+01  -4.634005e+01
  -1.478493e+01  -1.083283e+02
   5.504885e+01  -9.963818e+01
   7.746080e+01  -3.839531e+01
   5.416611e+01   1.505364e+01
   1.715338e+01   2.403856e+01
  -1.029393e+00   5.877071e+00
   7.228672e+00   3.422224e+00
   2.122407e+01   3.218104e+01
   1.340567e+01   6.177321e+01
  -2.070553e+01   4.761909e+01
  -5.355520e+01  -1.437824e+01
  -4.957026e+01  -7.420016e+01
  -1.049608e+00  -7.501749e+01
   5.536963e+01  -1.414231e+01
   6.814469e+01   5.237100e+01
   2.040452e+01   7.029655e+01
  -4.549326e+01   3.693633e+01
  -6.619363e+01  -9.251456e+00
  -2.603846e+01  -3.514993e+01
   2.308763e+01  -3.490012e+01
   2.252638e+01  -1.877524e+01
  -2.214646e+01  -3.699976e-01
  -4.650839e+01   3.452560e+00
  -9.795452e+00  -1.662262e+01
   5.443923e+01  -4.214172e+01
   7.904449e+01  -3.687007e+01
   4.277349e+01   8.670855e+00
  -1.197486e+01   5.469319e+01
  -3.713538e+01   5.238635e+01
  -2.492454e+01   3.639370e+00
   1.620050e-01  -3.752576e+01
   1.832111e+01  -2.865531e+01
   2.449191e+01   1.300322e+01
   1.741097e+01   3.780928e+01
  -2.078414e+00   2.322457e+01
  -2.277162e+01  -6.221795e+00
  -2.749493e+01  -1.550513e+01
  -1.456474e+01  -1.227599e+00
   3.996557e-01   1.048379e+01
   4.777905e+00  -6.439255e-01
   3.941883e+00  -2.418015e+01
   9.862071e+00  -3.067374e+01
   2.068786e+01  -6.536709e+00
   2.041781e+01   2.890152e+01
  -9.344447e-01   4.003987e+01
  -2.972612e+01   1.342261e+01
  -3.782795e+01  -2.647389e+01
  -8.930021e+00  -4.224553e+01
   3.749833e+01  -2.250127e+01
   5.956781e+01   1.082401e+01
   3.229254e+01   2.995058e+01
  -1.961182e+01   2.711203e+01
  -4.345437e+01   1.394497e+01
  -1.659932e+01   3.456898e+00
   2.364240e+01   2.006600e+00
   2.385627e+01   1.043454e+01
  -2.109907e+01   1.935924e+01
  -6.024182e+01   1.062199e+01
