
 $NMID
 id='ANONYMOUS ', fmtdat='(2E16.6)'
 volume=1.0
 tramp=1.0
 $END
   3.039776e+03  -6.015988e+01
   1.879088e+03   2.040526e+03
  -3.588053e+02   2.086566e+03
  -1.669163e+03   7.766587e+02
  -7.785734e+02  -2.485560e+02
   3.509435e+02  -4.606610e+02
   6.067191e+02   1.931003e+02
   8.207350e+01   8.713139e+02
  -5.516323e+02   6.120035e+02
  -7.539154e+02  -1.142274e+02
  -2.834321e+02  -5.538219e+02
   1.197526e+02  -5.111231e+02
   3.312670e+02  -1.568148e+02
   3.653279e+02   5.362062e+02
  -1.942567e+02   5.894206e+02
  -4.813016e+02   1.071419e+02
  -2.441063e+02  -5.411542e+02
   1.811518e+02  -5.845449e+02
   5.276600e+02  -1.725851e+02
   3.348770e+02   2.478107e+02
   4.715480e+01   3.410788e+02
  -1.816136e+02   1.922628e+02
  -1.407604e+02   4.369661e+00
   1.088454e+02  -2.322060e+01
   3.105023e+02   1.587049e+02
   9.075691e+01   3.404214e+02
  -3.877039e+02   2.768706e+02
  -6.088072e+02  -6.845861e+01
  -3.027010e+02  -3.809442e+02
   2.634620e+02  -3.341744e+02
   5.070307e+02   1.895860e+01
   2.496631e+02   3.508617e+02
  -2.030119e+02   3.827637e+02
  -4.316679e+02   1.665168e+02
  -3.312226e+02  -1.371630e+02
  -8.220782e+01  -3.335628e+02
   1.178766e+02  -2.099163e+02
   7.254484e+01   1.224818e+02
  -1.431713e+02   2.576612e+02
  -2.885848e+02  -6.418213e+01
  -1.389574e+02  -4.964739e+02
   2.306427e+02  -4.918160e+02
   4.039670e+02  -1.249772e+01
   1.804416e+02   3.639796e+02
  -1.720188e+02   2.037000e+02
  -2.116267e+02  -2.426089e+02
   8.212874e+01  -3.902041e+02
   4.205695e+02  -8.401168e+01
   4.404380e+02   3.236132e+02
   1.362267e+02   4.570786e+02
  -2.696634e+02   2.590977e+02
  -4.709163e+02  -4.061659e+01
  -3.054291e+02  -2.502996e+02
   7.535789e+01  -2.375297e+02
   3.027824e+02  -5.451155e+01
   1.867559e+02   9.425441e+01
  -6.162705e+01   5.844657e+01
  -9.826980e+01  -8.302846e+01
   1.032677e+02  -1.092346e+02
   2.449062e+02   4.294686e+01
   1.142250e+02   2.027640e+02
  -1.529675e+02   2.085809e+02
  -2.849092e+02   8.152283e+01
  -1.904281e+02  -7.971095e+01
   1.789492e+01  -2.233447e+02
   2.003176e+02  -2.868128e+02
   2.781317e+02  -1.706699e+02
   2.207819e+02   1.049563e+02
   7.136419e+01   3.232650e+02
  -5.151830e+01   2.989520e+02
  -6.849488e+01   1.204911e+02
  -4.078950e+01   2.409544e+01
  -7.602587e+01   6.466572e+01
  -1.690764e+02   7.332508e+01
  -1.999438e+02  -5.853938e+01
  -1.033663e+02  -2.101740e+02
   5.987272e+01  -1.979690e+02
   1.740836e+02  -4.361493e+00
   1.501405e+02   1.951009e+02
  -6.639446e+00   2.384464e+02
  -2.033302e+02   8.861814e+01
  -2.828320e+02  -1.331400e+02
  -1.558183e+02  -2.693415e+02
   5.337294e+01  -2.327414e+02
   1.578497e+02  -1.083624e+02
   1.162215e+02  -3.598251e+01
   9.386846e+01  -5.574146e+01
   2.075690e+02  -5.963937e+01
   3.406580e+02   5.061320e+01
   2.777526e+02   2.377993e+02
  -2.564509e+00   3.661790e+02
  -2.966169e+02   3.387626e+02
  -3.928995e+02   1.636468e+02
  -2.572910e+02  -7.225282e+01
  -3.531089e+01  -2.250447e+02
   9.039637e+01  -1.912881e+02
   3.920407e+01  -2.734795e+01
  -9.275179e+01   6.969921e+01
  -1.362875e+02  -1.146928e+01
  -2.761985e+01  -1.408259e+02
   1.154012e+02  -1.203005e+02
   1.237353e+02   4.702113e+01
  -1.490876e+01   1.391410e+02
  -1.495966e+02   1.881984e+01
  -1.382250e+02  -1.950236e+02
   1.118086e+01  -2.838755e+02
   1.884782e+02  -1.689430e+02
   2.817055e+02   4.081612e+01
   2.349174e+02   1.951591e+02
   7.220186e+01   2.163129e+02
  -9.190624e+01   1.280378e+02
  -1.307877e+02   1.799288e+01
  -3.880710e+01  -1.388155e+01
   4.720025e+01   4.353892e+01
   8.242854e+00   9.975525e+01
  -1.018426e+02   7.076802e+01
  -1.345788e+02  -1.402362e+01
  -4.042592e+01  -5.154503e+01
   6.289899e+01  -3.174639e+00
   3.913562e+01   6.445438e+01
  -1.058283e+02   6.985828e+01
  -2.343681e+02  -4.092582e+00
  -2.161880e+02  -1.171712e+02
  -4.591901e+01  -2.072153e+02
   1.510651e+02  -2.081606e+02
   2.236501e+02  -1.019715e+02
   1.301490e+02   3.357200e+01
  -1.707298e+01   7.730654e+01
  -6.108177e+01   3.498232e+00
   3.551680e+01  -7.494248e+01
   1.559872e+02  -4.029490e+01
   1.658588e+02   8.278109e+01
   5.531204e+01   1.623351e+02
  -6.990010e+01   1.232764e+02
  -1.080240e+02   2.385997e+01
  -5.015741e+01  -2.824841e+01
   2.497789e+01   7.447774e+00
   2.631731e+01   7.709460e+01
  -6.530572e+01   9.550137e+01
  -1.650649e+02   2.192444e+01
  -1.555594e+02  -1.003468e+02
  -1.826460e+01  -1.729062e+02
   1.269290e+02  -1.304922e+02
   1.485227e+02  -9.737468e+00
   4.891586e+01   8.301628e+01
  -5.102627e+01   8.292835e+01
  -5.961984e+01   2.194782e+01
  -6.591895e+00  -2.026338e+01
   2.354024e+01  -1.134976e+01
  -7.558218e+00   1.302195e+01
  -6.254769e+01  -1.445908e+00
  -7.755951e+01  -6.617066e+01
  -1.368781e+01  -1.320933e+02
   1.037450e+02  -1.253242e+02
   1.906075e+02  -1.997026e+01
   1.649815e+02   1.208638e+02
   3.722364e+01   1.895626e+02
  -8.416959e+01   1.383008e+02
  -1.093737e+02   2.806917e+01
  -5.945810e+01  -3.851301e+01
  -2.624794e+01  -2.639350e+01
  -4.625001e+01   1.069755e+01
  -6.953362e+01   5.705832e+00
  -4.068791e+01  -4.332638e+01
   3.428978e+01  -8.015792e+01
   9.236993e+01  -5.135524e+01
   7.897453e+01   3.142183e+01
  -1.159458e+01   9.775734e+01
  -1.233984e+02   7.492437e+01
  -1.641576e+02  -4.353598e+01
  -7.859063e+01  -1.668472e+02
   8.943698e+01  -1.849376e+02
   2.143530e+02  -7.727788e+01
   2.051250e+02   6.478956e+01
   8.958239e+01   1.362298e+02
  -2.648273e+01   1.149934e+02
  -7.123507e+01   7.007262e+01
  -5.940796e+01   6.090699e+01
  -5.096431e+01   7.912994e+01
  -7.330041e+01   6.514032e+01
  -1.063528e+02  -1.412321e+01
  -1.003984e+02  -1.236796e+02
  -2.835964e+01  -1.839713e+02
   7.781170e+01  -1.407787e+02
   1.413253e+02  -1.784914e+01
   1.096733e+02   9.748835e+01
   1.470495e+01   1.282912e+02
  -5.485048e+01   7.333358e+01
  -4.761858e+01  -2.146468e+00
  -1.232391e+00  -3.765016e+01
   1.095596e+01  -2.939606e+01
  -2.946189e+01  -1.368090e+01
  -6.627815e+01  -1.664131e+01
  -3.595867e+01  -3.076003e+01
   5.695518e+01  -3.095020e+01
   1.339604e+02  -2.485037e+00
   1.172367e+02   4.345620e+01
   8.897403e+00   7.533825e+01
  -1.009577e+02   6.397033e+01
  -1.187246e+02   1.315864e+01
  -4.077575e+01  -3.460571e+01
   4.665556e+01  -3.463558e+01
   6.309356e+01   1.254944e+01
   1.227503e+01   5.742616e+01
  -4.146648e+01   5.187580e+01
  -5.494657e+01   1.320457e+00
  -4.243886e+01  -4.014779e+01
  -3.770621e+01  -3.376690e+01
  -4.857995e+01  -3.868094e-01
  -5.508457e+01  -7.876414e-02
  -3.480338e+01  -5.760570e+01
   2.235674e+01  -1.226348e+02
   9.635658e+01  -1.186835e+02
   1.389403e+02  -3.020929e+01
   1.036953e+02   7.242315e+01
   5.848158e+00   1.039187e+02
  -7.039413e+01   5.399331e+01
  -4.888888e+01  -8.831882e+00
   4.735071e+01  -1.666059e+01
   1.104031e+02   3.225612e+01
   6.096895e+01   8.467269e+01
  -6.481057e+01   9.053279e+01
  -1.534739e+02   4.209691e+01
  -1.303487e+02  -2.701958e+01
  -2.882272e+01  -6.846279e+01
   4.963016e+01  -5.391102e+01
   3.853583e+01  -3.605105e+00
  -3.354686e+01   2.319083e+01
  -7.621541e+01  -1.724493e+01
  -3.100411e+01  -9.648330e+01
   6.845438e+01  -1.284496e+02
   1.329255e+02  -5.698243e+01
   1.055332e+02   7.597553e+01
   1.450297e+01   1.586498e+02
  -6.522615e+01   1.182496e+02
  -8.470087e+01  -3.806494e+00
  -4.975535e+01  -9.448577e+01
   2.374985e+00  -8.517155e+01
   3.777251e+01  -1.628273e+01
   3.989333e+01   2.390965e+01
   1.792179e+01   5.994466e+00
   3.626441e+00  -1.525796e+01
   2.073928e+01   1.422650e+01
   4.813813e+01   7.119799e+01
   3.272950e+01   8.617523e+01
  -4.126247e+01   3.653474e+01
  -1.135112e+02  -2.852878e+01
  -1.051000e+02  -5.508338e+01
  -1.501436e+01  -4.211493e+01
   6.914857e+01  -2.169632e+01
   7.121470e+01  -7.399078e+00
   1.112091e+01   7.148154e+00
  -2.907495e+01   1.816757e+01
  -1.199674e+01   1.282255e+01
   1.577210e+01  -2.193169e+00
  -4.148483e+00  -4.835639e+00
  -5.863486e+01   9.715342e-01
  -7.564660e+01  -1.668905e+01
  -1.267187e+01  -6.584373e+01
   9.050838e+01  -9.719022e+01
   1.503882e+02  -5.423610e+01
   1.199075e+02   4.903176e+01
   2.596708e+01   1.308312e+02
  -6.177243e+01   1.260774e+02
  -9.236491e+01   5.263725e+01
  -6.594863e+01  -1.540239e+01
  -2.197231e+01  -2.957315e+01
  -1.126111e-01  -8.677964e+00
  -9.837066e+00  -4.645782e+00
  -2.684265e+01  -3.799788e+01
  -1.873827e+01  -7.346210e+01
   2.224510e+01  -5.887759e+01
   6.590763e+01   1.257219e+01
   6.652661e+01   8.482337e+01
   9.187256e+00   9.091012e+01
  -6.528210e+01   2.401974e+01
  -8.801889e+01  -5.614384e+01
  -3.147518e+01  -8.419795e+01
   5.272294e+01  -5.023371e+01
   8.271104e+01   6.239231e+00
   3.525948e+01   4.338986e+01
  -2.612603e+01   4.628470e+01
  -2.760594e+01   2.348467e+01
   2.513505e+01  -3.391404e+00
   5.533261e+01  -7.535368e+00
   1.309453e+01   2.095340e+01
  -6.300331e+01   5.487863e+01
  -9.399171e+01   4.754330e+01
  -5.389132e+01  -1.073054e+01
   1.098668e+01  -6.898778e+01
   4.398171e+01  -6.709555e+01
   3.346346e+01  -7.029477e+00
   4.856443e+00   4.579500e+01
  -1.975499e+01   3.902995e+01
  -3.157930e+01  -1.069424e+01
  -2.498668e+01  -4.398847e+01
   1.414067e-01  -3.024874e+01
   2.731537e+01   4.529368e+00
   3.394543e+01   1.771954e+01
   1.681518e+01   1.319838e+00
  -2.249359e+00  -1.447129e+01
  -5.382653e+00  -2.373447e+00
  -1.634235e-01   2.811534e+01
  -6.115469e+00   3.989361e+01
  -2.373174e+01   1.251214e+01
  -2.949653e+01  -3.209547e+01
  -5.367047e+00  -4.855189e+01
   3.417052e+01  -1.885070e+01
   4.871052e+01   2.882272e+01
   1.452582e+01   4.979932e+01
  -4.504575e+01   2.928445e+01
  -7.468269e+01  -8.981625e+00
  -4.207006e+01  -3.426364e+01
   2.174309e+01  -3.585987e+01
   5.171548e+01  -2.209498e+01
   2.117619e+01  -6.013100e+00
  -2.677571e+01   3.622353e-01
  -2.910305e+01  -9.064001e+00
   2.166262e+01  -2.444520e+01
   6.927076e+01  -1.884085e+01
