
 $NMID
 id='ANONYMOUS ', fmtdat='(2E16.6)'
 volume=1.0
 tramp=1.0
 $END
  -4.179042e+03  -1.241335e+02
  -2.262013e+03  -2.289678e+03
   4.857407e+02  -2.743360e+03
   2.088647e+03  -6.869056e+02
   1.004949e+03   4.891798e+02
  -5.910779e+02   6.041536e+02
  -7.897756e+02  -2.706140e+02
  -8.184177e+01  -1.045977e+03
   8.255742e+02  -6.941204e+02
   8.467756e+02   8.214848e+01
   5.480128e+02   7.717017e+02
  -2.502776e+02   8.949501e+02
  -5.924525e+02   1.584980e+02
  -3.082767e+02  -7.133949e+02
   2.359847e+02  -7.229177e+02
   5.849345e+02  -1.360547e+01
   2.387919e+02   6.378443e+02
  -3.225570e+02   6.360905e+02
  -5.937525e+02   1.013263e+02
  -3.988381e+02  -3.423050e+02
  -5.952331e+01  -4.123912e+02
   2.583996e+02  -2.900906e+02
   2.246803e+02  -6.854971e+01
  -1.270135e+02   5.883804e+01
  -3.904547e+02  -1.325558e+02
  -1.666217e+02  -4.142574e+02
   4.956947e+02  -3.566586e+02
   8.377816e+02   8.413078e+01
   4.230259e+02   5.080270e+02
  -3.619162e+02   4.436849e+02
  -7.008370e+02  -2.956145e+01
  -3.365441e+02  -4.496521e+02
   2.778067e+02  -4.717482e+02
   5.351191e+02  -1.876136e+02
   4.092920e+02   2.191268e+02
   8.879038e+01   4.739307e+02
  -1.772508e+02   3.018745e+02
  -1.664544e+02  -1.897600e+02
   1.518089e+02  -4.120242e+02
   4.371971e+02   1.736605e+01
   2.236792e+02   6.533757e+02
  -3.282804e+02   6.899604e+02
  -5.903753e+02   6.061915e-01
  -2.473115e+02  -5.568369e+02
   3.087670e+02  -3.075309e+02
   3.659691e+02   3.372786e+02
  -9.672794e+01   5.438004e+02
  -5.617695e+02   1.111037e+02
  -5.641893e+02  -4.290366e+02
  -1.344767e+02  -5.751400e+02
   3.854501e+02  -3.128331e+02
   6.026069e+02   9.278095e+01
   3.544527e+02   3.753408e+02
  -1.496554e+02   3.456333e+02
  -4.344665e+02   4.473789e+01
  -2.348278e+02  -2.040641e+02
   1.301524e+02  -1.112690e+02
   1.600649e+02   1.610361e+02
  -1.541162e+02   2.051705e+02
  -3.467326e+02  -6.356355e+01
  -1.386576e+02  -3.038083e+02
   2.193346e+02  -2.575091e+02
   3.445352e+02  -4.557586e+01
   1.857815e+02   1.237787e+02
  -5.840627e+01   2.366127e+02
  -2.470128e+02   3.032324e+02
  -3.359335e+02   1.906962e+02
  -2.729458e+02  -1.380830e+02
  -7.326237e+01  -4.178935e+02
   1.005431e+02  -3.793193e+02
   1.097423e+02  -1.336038e+02
   4.008713e+01  -9.412564e+00
   7.116690e+01  -7.832329e+01
   2.032229e+02  -1.012175e+02
   2.615400e+02   6.821297e+01
   1.416369e+02   2.610692e+02
  -6.499051e+01   2.425244e+02
  -2.070495e+02   1.255987e+01
  -1.922727e+02  -2.227510e+02
  -2.908735e+00  -2.800631e+02
   2.483674e+02  -1.150114e+02
   3.519537e+02   1.610560e+02
   1.834721e+02   3.421024e+02
  -1.022559e+02   2.974694e+02
  -2.293223e+02   1.154267e+02
  -1.467768e+02  -9.695667e-01
  -9.228032e+01   3.099431e+01
  -2.285916e+02   6.158337e+01
  -3.985142e+02  -6.605557e+01
  -3.263121e+02  -2.912938e+02
   1.881749e+01  -4.371542e+02
   3.722015e+02  -3.947287e+02
   4.845466e+02  -1.856052e+02
   3.202807e+02   9.313036e+01
   4.423196e+01   2.845590e+02
  -1.271668e+02   2.506695e+02
  -7.432045e+01   3.855306e+01
   1.046137e+02  -9.682744e+01
   1.822025e+02   3.890859e+00
   4.381638e+01   1.827894e+02
  -1.557157e+02   1.613876e+02
  -1.711129e+02  -6.080941e+01
   1.934712e+01  -1.879735e+02
   1.901805e+02  -3.100831e+01
   1.574347e+02   2.461236e+02
  -3.470864e+01   3.439298e+02
  -2.296795e+02   1.836780e+02
  -3.187640e+02  -7.018381e+01
  -2.653099e+02  -2.391429e+02
  -8.609376e+01  -2.540118e+02
   1.116877e+02  -1.489541e+02
   1.697207e+02  -1.761621e+01
   5.443011e+01   2.701273e+01
  -6.636564e+01  -4.351954e+01
  -2.400765e+01  -1.223799e+02
   1.237774e+02  -9.184872e+01
   1.727391e+02   1.703743e+01
   5.478158e+01   6.928719e+01
  -7.663956e+01   1.125670e+01
  -4.903712e+01  -7.206474e+01
   1.226407e+02  -7.833869e+01
   2.706937e+02   8.941759e+00
   2.495954e+02   1.396879e+02
   5.414725e+01   2.446856e+02
  -1.793322e+02   2.479683e+02
  -2.736108e+02   1.193318e+02
  -1.636748e+02  -4.956634e+01
   2.327077e+01  -1.031984e+02
   8.475795e+01  -4.571605e+00
  -3.683730e+01   9.819307e+01
  -1.913351e+02   5.235005e+01
  -2.026298e+02  -1.054229e+02
  -6.186101e+01  -2.027793e+02
   9.171484e+01  -1.497477e+02
   1.349666e+02  -2.544543e+01
   6.528381e+01   3.778899e+01
  -2.395048e+01  -2.585648e+00
  -2.961671e+01  -8.247396e+01
   7.385542e+01  -1.053752e+02
   1.914191e+02  -2.168913e+01
   1.818861e+02   1.230557e+02
   1.572021e+01   2.098640e+02
  -1.632108e+02   1.544741e+02
  -1.870288e+02   1.629481e+00
  -5.824773e+01  -1.120704e+02
   6.936595e+01  -1.052399e+02
   8.088157e+01  -2.626835e+01
   1.594000e+01   2.576295e+01
  -2.054980e+01   1.656012e+01
   1.265131e+01  -7.503396e+00
   6.957078e+01   1.314110e+01
   8.075311e+01   8.636207e+01
   6.549039e+00   1.554652e+02
  -1.285021e+02   1.420687e+02
  -2.270053e+02   1.577813e+01
  -1.921013e+02  -1.516903e+02
  -3.490037e+01  -2.308353e+02
   1.102505e+02  -1.624625e+02
   1.324553e+02  -2.547600e+01
   6.587705e+01   5.279953e+01
   2.802636e+01   3.362824e+01
   5.533473e+01  -1.004353e+01
   8.190190e+01  -3.218068e+00
   4.180034e+01   4.954926e+01
  -4.332322e+01   8.399036e+01
  -1.007052e+02   5.159674e+01
  -7.975418e+01  -3.476120e+01
   1.739109e+01  -1.054541e+02
   1.378346e+02  -7.837506e+01
   1.883834e+02   5.412169e+01
   9.258495e+01   1.959493e+02
  -1.071806e+02   2.177941e+02
  -2.593009e+02   8.660504e+01
  -2.469620e+02  -8.661928e+01
  -1.023159e+02  -1.703841e+02
   4.030938e+01  -1.398883e+02
   9.207783e+01  -8.090461e+01
   7.715804e+01  -6.889899e+01
   6.677781e+01  -8.893013e+01
   9.290949e+01  -6.959987e+01
   1.261407e+02   2.521953e+01
   1.117682e+02   1.520206e+02
   2.385078e+01   2.200540e+02
  -9.964492e+01   1.657548e+02
  -1.693580e+02   1.634960e+01
  -1.272194e+02  -1.215537e+02
  -1.383467e+01  -1.549653e+02
   6.528179e+01  -8.542676e+01
   5.460446e+01   3.715323e+00
   2.060782e+00   4.122549e+01
  -9.191905e+00   2.946261e+01
   3.742912e+01   1.539745e+01
   7.710343e+01   2.465015e+01
   4.076531e+01   4.061512e+01
  -6.425447e+01   3.475831e+01
  -1.528517e+02  -2.039539e+00
  -1.361888e+02  -5.321333e+01
  -1.183318e+01  -8.458609e+01
   1.181747e+02  -6.794562e+01
   1.395380e+02  -1.072286e+01
   4.454188e+01   3.929731e+01
  -6.026595e+01   3.489093e+01
  -7.345052e+01  -1.977888e+01
  -5.642962e+00  -6.752226e+01
   5.568629e+01  -5.701513e+01
   6.129417e+01   2.465569e+00
   4.158458e+01   4.973710e+01
   4.153084e+01   4.138780e+01
   6.043604e+01   2.447905e+00
   6.506869e+01   1.412245e+00
   3.285358e+01   6.735974e+01
  -3.573818e+01   1.421057e+02
  -1.166492e+02   1.342733e+02
  -1.602111e+02   2.709455e+01
  -1.172117e+02  -9.262244e+01
  -3.342853e+00  -1.233088e+02
   8.429469e+01  -5.768559e+01
   5.727981e+01   1.566199e+01
  -5.753971e+01   1.707714e+01
  -1.304934e+02  -4.649901e+01
  -6.888459e+01  -1.063344e+02
   8.194872e+01  -1.065689e+02
   1.863657e+02  -4.487434e+01
   1.566790e+02   3.772003e+01
   3.382072e+01   8.581053e+01
  -6.122734e+01   6.681919e+01
  -4.825684e+01   5.065663e+00
   3.873882e+01  -2.689909e+01
   8.910846e+01   2.301726e+01
   3.101864e+01   1.172381e+02
  -9.221401e+01   1.505908e+02
  -1.653767e+02   5.898925e+01
  -1.217849e+02  -1.001161e+02
  -5.973403e+00  -1.927499e+02
   8.526763e+01  -1.381093e+02
   9.939433e+01   9.378266e+00
   5.446208e+01   1.151816e+02
  -4.032258e+00   1.012924e+02
  -4.362699e+01   1.690825e+01
  -4.863503e+01  -3.147656e+01
  -2.464704e+01  -8.342806e+00
  -4.163388e+00   1.986419e+01
  -1.956009e+01  -1.546218e+01
  -5.205092e+01  -8.670982e+01
  -3.869216e+01  -1.061303e+02
   4.643909e+01  -4.269339e+01
   1.337532e+02   4.029190e+01
   1.248586e+02   7.073930e+01
   1.634669e+01   4.896527e+01
  -8.531514e+01   2.084963e+01
  -8.522663e+01   6.738586e+00
  -1.019532e+01  -6.424445e+00
   3.707887e+01  -1.978237e+01
   1.255179e+01  -1.643003e+01
  -2.208431e+01   7.333266e-01
   5.053793e+00   7.518704e+00
   7.265492e+01   4.243446e+00
   8.926800e+01   2.588654e+01
   6.542126e+00   8.031023e+01
  -1.188471e+02   1.097301e+02
  -1.832731e+02   5.188004e+01
  -1.368579e+02  -7.039161e+01
  -2.104094e+01  -1.591002e+02
   8.078743e+01  -1.437166e+02
   1.124965e+02  -5.361947e+01
   7.782862e+01   2.324315e+01
   2.331158e+01   3.535339e+01
  -3.457496e+00   8.815792e+00
   9.166142e+00   4.216642e+00
   3.061922e+01   4.452451e+01
   2.010231e+01   8.754885e+01
  -2.991471e+01   6.928966e+01
  -7.898722e+01  -1.928153e+01
  -7.343191e+01  -1.073175e+02
  -1.790683e+00  -1.105175e+02
   8.144581e+01  -2.238782e+01
   9.949155e+01   7.559374e+01
   2.918721e+01   1.016813e+02
  -6.598376e+01   5.269400e+01
  -9.478373e+01  -1.398150e+01
  -3.634954e+01  -5.029896e+01
   3.371629e+01  -4.919690e+01
   3.141925e+01  -2.557910e+01
  -3.311040e+01   7.879414e-01
  -6.776699e+01   5.236843e+00
  -1.413543e+01  -2.564435e+01
   7.824512e+01  -6.340907e+01
   1.137225e+02  -5.398300e+01
   6.235989e+01   1.471245e+01
  -1.667313e+01   8.217038e+01
  -5.364343e+01   7.638549e+01
  -3.787185e+01   3.876335e+00
  -2.128845e+00  -5.538179e+01
   2.570079e+01  -4.189043e+01
   3.646108e+01   1.809961e+01
   2.588315e+01   5.271882e+01
  -3.770195e+00   3.196892e+01
  -3.239092e+01  -8.642676e+00
  -3.772192e+01  -2.099700e+01
  -1.914081e+01  -1.159100e+00
   8.589345e-02   1.407168e+01
   5.457707e+00  -2.467946e+00
   6.604921e+00  -3.520575e+01
   1.749627e+01  -4.320362e+01
   3.156252e+01  -6.795042e+00
   2.744102e+01   4.435802e+01
  -4.377504e+00   5.870321e+01
  -4.380650e+01   1.801204e+01
  -5.301240e+01  -4.043246e+01
  -1.195024e+01  -6.226200e+01
   5.449881e+01  -3.177036e+01
   8.644284e+01   1.727670e+01
   4.740737e+01   4.441063e+01
  -2.854544e+01   3.932553e+01
  -6.373838e+01   1.939386e+01
  -2.355298e+01   3.879993e+00
   3.668290e+01   2.804736e+00
   3.672001e+01   1.662344e+01
  -3.086958e+01   3.089051e+01
  -8.981711e+01   1.812530e+01
