
 $NMID
 id='ANONYMOUS ', fmtdat='(2E16.6)'
 volume=1.0
 tramp=1.0
 $END
   4.653054e+03   5.849569e+01
   2.818868e+03   2.604989e+03
  -6.700037e+02   2.927736e+03
  -2.108416e+03   8.445793e+02
  -1.201758e+03  -6.114041e+02
   7.858222e+02  -5.671558e+02
   8.116639e+02   4.915896e+02
  -5.475630e+00   1.108628e+03
  -9.098306e+02   7.082676e+02
  -8.710280e+02  -4.870320e+01
  -5.376828e+02  -9.213260e+02
   2.142920e+02  -1.072555e+03
   6.747581e+02  -9.307771e+01
   3.222911e+02   7.351870e+02
  -2.928534e+02   8.159798e+02
  -5.539871e+02  -1.293300e+01
  -2.443295e+02  -7.037225e+02
   3.412824e+02  -6.212215e+02
   5.477035e+02  -9.429072e+01
   3.843605e+02   3.630186e+02
   6.147058e+01   4.510116e+02
  -2.105228e+02   2.912867e+02
  -2.097293e+02   7.974832e+01
   8.673234e+01  -9.843313e+01
   4.399332e+02   1.041117e+02
   2.583993e+02   4.214686e+02
  -4.734112e+02   4.277422e+02
  -9.022266e+02  -4.595292e+01
  -4.744133e+02  -5.412049e+02
   4.055376e+02  -5.054688e+02
   7.965106e+02   2.496528e+01
   3.947796e+02   5.007853e+02
  -2.625134e+02   5.381703e+02
  -5.966942e+02   2.084103e+02
  -4.651903e+02  -2.365301e+02
  -8.885905e+01  -5.178497e+02
   2.347500e+02  -3.177004e+02
   2.160085e+02   2.432969e+02
  -1.509799e+02   5.054505e+02
  -5.005510e+02   2.075095e+01
  -3.089362e+02  -7.156029e+02
   3.406718e+02  -7.969001e+02
   6.745043e+02  -2.160069e+01
   2.898512e+02   6.104600e+02
  -3.403890e+02   3.607367e+02
  -4.443913e+02  -3.422936e+02
   6.999828e+01  -6.063763e+02
   5.971900e+02  -1.614939e+02
   6.355207e+02   4.247351e+02
   1.672389e+02   6.203037e+02
  -4.099290e+02   3.731784e+02
  -6.703884e+02  -8.063404e+01
  -3.952864e+02  -4.137369e+02
   1.691393e+02  -3.980976e+02
   4.821083e+02  -6.292136e+01
   2.598135e+02   2.219562e+02
  -1.411562e+02   1.246128e+02
  -1.730961e+02  -1.721441e+02
   1.686498e+02  -2.223126e+02
   3.783855e+02   6.177581e+01
   1.651011e+02   3.149368e+02
  -2.062561e+02   2.766508e+02
  -3.471028e+02   7.808848e+01
  -2.103793e+02  -8.697949e+01
   1.864510e+01  -2.303805e+02
   2.250639e+02  -3.451408e+02
   3.560847e+02  -2.420314e+02
   3.149146e+02   1.325181e+02
   8.954957e+01   4.567365e+02
  -1.215002e+02   4.081349e+02
  -1.273225e+02   1.216644e+02
  -1.914706e+01  -1.121267e+01
  -3.565459e+01   9.190626e+01
  -2.022331e+02   1.402336e+02
  -3.009915e+02  -4.897575e+01
  -1.790677e+02  -2.798476e+02
   6.637795e+01  -2.731510e+02
   2.382016e+02  -2.895866e+01
   2.223161e+02   2.347408e+02
   1.256845e+01   3.084572e+02
  -2.688448e+02   1.426613e+02
  -3.885384e+02  -1.534428e+02
  -2.127526e+02  -3.650632e+02
   1.050476e+02  -3.318312e+02
   2.513906e+02  -1.304100e+02
   1.561217e+02   4.007185e+00
   8.236060e+01  -3.023206e+01
   2.211832e+02  -8.105303e+01
   4.231415e+02   3.565181e+01
   3.690934e+02   2.804674e+02
   1.546551e+01   4.619212e+02
  -3.667999e+02   4.395434e+02
  -5.048402e+02   2.210742e+02
  -3.512065e+02  -8.793779e+01
  -6.354077e+01  -3.055278e+02
   1.298151e+02  -2.710687e+02
   8.725713e+01  -3.511951e+01
  -1.108686e+02   1.223364e+02
  -2.094313e+02   6.786515e+00
  -6.500004e+01  -2.075512e+02
   1.634976e+02  -1.957898e+02
   1.946554e+02   5.439747e+01
  -1.091221e+01   2.085736e+02
  -2.050830e+02   4.881923e+01
  -1.785296e+02  -2.497666e+02
   2.124113e+01  -3.660846e+02
   2.293243e+02  -2.085951e+02
   3.303904e+02   5.309245e+01
   2.899727e+02   2.346180e+02
   1.102422e+02   2.657423e+02
  -1.088331e+02   1.670524e+02
  -1.842267e+02   2.602526e+01
  -6.085658e+01  -3.325474e+01
   8.060617e+01   3.936870e+01
   4.013262e+01   1.345440e+02
  -1.298034e+02   1.136582e+02
  -1.938056e+02  -5.631176e+00
  -6.649893e+01  -7.540837e+01
   8.230906e+01  -2.200435e+01
   5.890047e+01   7.099288e+01
  -1.231126e+02   8.996313e+01
  -2.842609e+02   8.027793e+00
  -2.709392e+02  -1.308178e+02
  -7.385114e+01  -2.548754e+02
   1.739575e+02  -2.747144e+02
   2.880936e+02  -1.430861e+02
   1.834574e+02   4.796086e+01
  -2.010814e+01   1.186615e+02
  -9.956114e+01   1.272897e+01
   2.582894e+01  -1.106745e+02
   2.028324e+02  -7.125228e+01
   2.287745e+02   1.015495e+02
   7.942543e+01   2.175537e+02
  -9.486525e+01   1.679260e+02
  -1.498434e+02   3.397649e+01
  -7.552375e+01  -4.051080e+01
   2.672283e+01  -4.686911e+00
   4.073531e+01   8.064222e+01
  -6.785839e+01   1.149458e+02
  -2.001879e+02   3.735236e+01
  -2.003628e+02  -1.170919e+02
  -2.822572e+01  -2.233348e+02
   1.674225e+02  -1.758026e+02
   2.025256e+02  -1.155407e+01
   6.950924e+01   1.208094e+02
  -6.947110e+01   1.205845e+02
  -8.785904e+01   3.444243e+01
  -2.104701e+01  -2.671886e+01
   1.977695e+01  -2.060038e+01
  -1.129501e+01   5.673385e+00
  -7.155612e+01  -1.018212e+01
  -9.056961e+01  -8.225697e+01
  -1.933259e+01  -1.593265e+02
   1.232747e+02  -1.593121e+02
   2.382513e+02  -3.593908e+01
   2.135244e+02   1.457210e+02
   5.178205e+01   2.437657e+02
  -1.072075e+02   1.793863e+02
  -1.382915e+02   3.130766e+01
  -7.105944e+01  -5.691856e+01
  -2.887725e+01  -3.648888e+01
  -5.608148e+01   1.493981e+01
  -8.184624e+01   9.816253e+00
  -4.131438e+01  -4.829663e+01
   4.312887e+01  -8.807131e+01
   9.995731e+01  -5.706365e+01
   8.330205e+01   3.043076e+01
  -9.879861e+00   1.085203e+02
  -1.356531e+02   9.218739e+01
  -1.997441e+02  -4.181660e+01
  -1.107852e+02  -1.988644e+02
   9.719928e+01  -2.372833e+02
   2.685115e+02  -1.090246e+02
   2.679463e+02   7.909851e+01
   1.189613e+02   1.780573e+02
  -3.514499e+01   1.538975e+02
  -9.499907e+01   9.030233e+01
  -8.001237e+01   7.409061e+01
  -6.589456e+01   9.326002e+01
  -9.210522e+01   7.653843e+01
  -1.307874e+02  -1.912392e+01
  -1.246788e+02  -1.520279e+02
  -3.850765e+01  -2.291528e+02
   9.468543e+01  -1.809951e+02
   1.804109e+02  -2.910186e+01
   1.461514e+02   1.200102e+02
   2.662889e+01   1.645790e+02
  -6.552997e+01   9.791450e+01
  -6.219969e+01   2.966455e+00
  -7.721214e+00  -4.175425e+01
   7.727302e+00  -3.230382e+01
  -3.895016e+01  -1.558719e+01
  -8.169668e+01  -2.257803e+01
  -4.681563e+01  -4.085702e+01
   6.203452e+01  -4.092432e+01
   1.580019e+02  -7.706905e+00
   1.468377e+02   4.707304e+01
   2.096370e+01   8.706663e+01
  -1.167768e+02   7.700512e+01
  -1.452774e+02   1.873386e+01
  -5.038384e+01  -3.724414e+01
   5.976275e+01  -3.793446e+01
   7.664743e+01   1.645970e+01
   8.122288e+00   6.720651e+01
  -5.531975e+01   5.933342e+01
  -6.214406e+01   7.023224e-01
  -4.294287e+01  -4.856496e+01
  -4.461909e+01  -4.109905e+01
  -6.403988e+01  -3.263641e-01
  -6.798190e+01   2.898875e+00
  -3.633557e+01  -6.552877e+01
   2.932275e+01  -1.482364e+02
   1.108723e+02  -1.475808e+02
   1.616770e+02  -3.908619e+01
   1.265768e+02   8.885642e+01
   1.248492e+01   1.272047e+02
  -8.378214e+01   6.237904e+01
  -6.140462e+01  -1.588830e+01
   5.943381e+01  -2.221210e+01
   1.423532e+02   4.171573e+01
   8.240655e+01   1.079121e+02
  -7.782868e+01   1.172671e+02
  -1.937110e+02   5.973568e+01
  -1.686604e+02  -2.793535e+01
  -4.248663e+01  -8.749290e+01
   5.958661e+01  -7.661980e+01
   5.118968e+01  -1.227940e+01
  -3.630401e+01   2.829278e+01
  -9.117719e+01  -1.825281e+01
  -3.653474e+01  -1.187576e+02
   8.860345e+01  -1.601258e+02
   1.692682e+02  -6.815420e+01
   1.325200e+02   1.004275e+02
   1.638937e+01   2.027373e+02
  -8.324553e+01   1.497910e+02
  -1.069991e+02  -4.439525e+00
  -6.612665e+01  -1.187762e+02
  -2.614899e+00  -1.082927e+02
   4.570424e+01  -2.088391e+01
   5.518101e+01   3.135368e+01
   2.807814e+01   8.408433e+00
   2.702630e+00  -2.207166e+01
   1.906910e+01   1.328115e+01
   5.836988e+01   8.816419e+01
   4.758048e+01   1.110072e+02
  -4.449544e+01   4.810770e+01
  -1.417942e+02  -3.630100e+01
  -1.353904e+02  -6.815466e+01
  -1.937422e+01  -4.865266e+01
   8.947739e+01  -2.362647e+01
   8.914476e+01  -1.043529e+01
   8.960666e+00   5.960866e+00
  -4.034417e+01   2.321406e+01
  -1.328123e+01   1.921417e+01
   2.317371e+01  -2.069320e+00
  -6.226194e+00  -9.884070e+00
  -7.704279e+01  -2.640179e+00
  -9.359959e+01  -2.219887e+01
  -8.641453e+00  -8.172267e+01
   1.192176e+02  -1.196651e+02
   1.864246e+02  -6.354544e+01
   1.439207e+02   6.617101e+01
   2.992831e+01   1.644577e+02
  -7.502192e+01   1.532644e+02
  -1.134152e+02   6.101091e+01
  -8.249391e+01  -2.006011e+01
  -2.606979e+01  -3.457007e+01
   4.296496e+00  -8.127213e+00
  -9.008209e+00  -3.014830e+00
  -3.545579e+01  -4.424571e+01
  -2.718950e+01  -8.985522e+01
   2.698879e+01  -7.333937e+01
   8.365988e+01   1.668180e+01
   8.132780e+01   1.086888e+02
   6.246850e+00   1.142528e+02
  -8.438651e+01   2.534128e+01
  -1.063870e+02  -7.544770e+01
  -3.420714e+01  -1.040372e+02
   6.614059e+01  -5.633417e+01
   9.825680e+01   1.009816e+01
   4.023984e+01   4.866287e+01
  -3.087728e+01   5.139084e+01
  -2.901364e+01   2.986387e+01
   3.556125e+01   2.087826e-01
   6.958110e+01  -8.126274e+00
   1.500935e+01   2.418954e+01
  -7.824949e+01   6.896967e+01
  -1.141390e+02   6.385249e+01
  -6.398022e+01  -9.239677e+00
   1.342147e+01  -8.414265e+01
   5.018009e+01  -8.123317e+01
   3.586879e+01  -5.630721e+00
   2.061439e+00   5.697373e+01
  -2.519235e+01   4.245536e+01
  -3.716132e+01  -1.956875e+01
  -2.750904e+01  -5.372695e+01
   2.792523e+00  -3.102346e+01
   3.342763e+01   9.027967e+00
   3.948977e+01   1.921223e+01
   2.016943e+01  -7.683243e-01
  -9.938614e-01  -1.330240e+01
  -6.926564e+00   4.955749e+00
  -7.961893e+00   3.745292e+01
  -1.882730e+01   4.338891e+01
  -3.361350e+01   5.006714e+00
  -2.911854e+01  -4.751881e+01
   4.653590e+00  -6.271349e+01
   4.659010e+01  -2.067251e+01
   5.751496e+01   4.033750e+01
   1.517042e+01   6.484923e+01
  -5.469091e+01   3.549672e+01
  -8.997847e+01  -1.457766e+01
  -5.085717e+01  -4.385686e+01
   2.825070e+01  -4.106463e+01
   6.548555e+01  -2.195441e+01
   2.406128e+01  -5.149401e+00
  -3.970173e+01  -2.236526e+00
  -4.052881e+01  -1.676686e+01
   3.111954e+01  -3.430144e+01
   9.504795e+01  -2.316978e+01
