
 $NMID
 id='ANONYMOUS ', fmtdat='(2E16.6)'
 volume=1.0
 tramp=1.0
 $END
  -3.785126e+03   2.890120e+02
  -2.443180e+03  -2.426229e+03
   4.926438e+02  -2.679076e+03
   1.862276e+03  -7.972548e+02
   1.043714e+03   4.814235e+02
  -4.445209e+02   5.172247e+02
  -8.475564e+02  -2.671867e+02
  -2.665997e+01  -9.635173e+02
   7.497984e+02  -7.151642e+02
   8.857292e+02   7.237067e+01
   4.678541e+02   7.657482e+02
  -1.718981e+02   8.552530e+02
  -5.110111e+02   2.206097e+02
  -3.878048e+02  -6.605636e+02
   1.899083e+02  -7.165621e+02
   5.461417e+02  -1.080934e+02
   2.852814e+02   6.432359e+02
  -2.502651e+02   6.594232e+02
  -5.224531e+02   1.512695e+02
  -4.204409e+02  -3.159150e+02
  -4.519435e+01  -4.224856e+02
   1.966807e+02  -2.838458e+02
   1.853436e+02  -5.748616e+01
  -7.011944e+01   6.668778e+01
  -3.730184e+02  -1.241317e+02
  -1.752706e+02  -3.908187e+02
   4.276935e+02  -3.895530e+02
   7.985746e+02   5.027403e+01
   4.261123e+02   5.183734e+02
  -3.623788e+02   4.781335e+02
  -7.024645e+02  -2.126542e+01
  -3.352403e+02  -4.512466e+02
   2.749100e+02  -5.081886e+02
   5.502443e+02  -2.083154e+02
   4.135988e+02   2.082813e+02
   7.593392e+01   4.632458e+02
  -1.976435e+02   2.934371e+02
  -1.773256e+02  -1.964070e+02
   1.532022e+02  -4.298068e+02
   4.289035e+02   7.735989e+00
   2.547263e+02   6.437389e+02
  -3.049826e+02   6.951822e+02
  -5.927212e+02   2.274183e+01
  -2.450874e+02  -5.498730e+02
   3.000751e+02  -3.239941e+02
   3.950794e+02   3.297122e+02
  -7.148061e+01   5.723676e+02
  -5.637426e+02   1.518938e+02
  -5.933870e+02  -4.086958e+02
  -1.644780e+02  -5.936184e+02
   3.753941e+02  -3.392474e+02
   6.115417e+02   7.477983e+01
   3.675726e+02   3.720100e+02
  -1.372333e+02   3.557882e+02
  -4.248296e+02   6.683256e+01
  -2.483143e+02  -1.844026e+02
   9.789739e+01  -1.185783e+02
   1.402750e+02   1.354373e+02
  -1.503443e+02   1.915456e+02
  -3.456098e+02  -5.615612e+01
  -1.583615e+02  -3.041977e+02
   2.006252e+02  -2.889859e+02
   3.545823e+02  -8.748093e+01
   2.165530e+02   1.074541e+02
  -3.557902e+01   2.508131e+02
  -2.422329e+02   3.229778e+02
  -3.384808e+02   1.993569e+02
  -2.772022e+02  -1.370349e+02
  -8.129167e+01  -4.172114e+02
   9.147788e+01  -3.790853e+02
   1.053638e+02  -1.348053e+02
   3.845378e+01  -1.326768e+01
   6.693989e+01  -8.643409e+01
   2.009537e+02  -1.100833e+02
   2.655934e+02   6.457598e+01
   1.478085e+02   2.631101e+02
  -6.565133e+01   2.439599e+02
  -2.110698e+02   6.113847e+00
  -1.861859e+02  -2.329273e+02
   6.403852e+00  -2.890017e+02
   2.545515e+02  -1.159342e+02
   3.581516e+02   1.639229e+02
   1.997932e+02   3.491553e+02
  -8.440866e+01   3.090776e+02
  -2.201444e+02   1.248589e+02
  -1.526464e+02   1.166625e+01
  -1.009107e+02   4.471151e+01
  -2.344822e+02   7.500130e+01
  -4.138758e+02  -5.139629e+01
  -3.468671e+02  -2.893519e+02
  -2.682986e+00  -4.510822e+02
   3.651040e+02  -4.169910e+02
   4.916265e+02  -2.023922e+02
   3.300343e+02   8.698906e+01
   4.987777e+01   2.816578e+02
  -1.209942e+02   2.471682e+02
  -6.905959e+01   3.395086e+01
   1.145366e+02  -1.042817e+02
   1.955239e+02  -1.494875e+00
   5.695168e+01   1.881052e+02
  -1.499091e+02   1.780844e+02
  -1.749478e+02  -4.558292e+01
   1.324620e+01  -1.849790e+02
   1.954450e+02  -3.488085e+01
   1.712728e+02   2.460404e+02
  -2.689833e+01   3.568730e+02
  -2.378911e+02   2.007753e+02
  -3.369835e+02  -6.371539e+01
  -2.776483e+02  -2.425078e+02
  -8.723484e+01  -2.626710e+02
   1.160482e+02  -1.547608e+02
   1.718395e+02  -1.908528e+01
   5.403346e+01   2.724204e+01
  -6.876269e+01  -4.428547e+01
  -2.673134e+01  -1.255799e+02
   1.236756e+02  -9.626991e+01
   1.761757e+02   1.435615e+01
   5.709581e+01   6.903514e+01
  -7.899249e+01   9.728841e+00
  -5.203532e+01  -7.827198e+01
   1.282728e+02  -8.638817e+01
   2.853253e+02   4.829166e+00
   2.625087e+02   1.427127e+02
   5.735166e+01   2.530955e+02
  -1.829533e+02   2.576885e+02
  -2.774439e+02   1.278545e+02
  -1.654047e+02  -4.529762e+01
   2.236171e+01  -1.037442e+02
   8.439398e+01  -6.461532e+00
  -3.804498e+01   1.000959e+02
  -1.971750e+02   5.741876e+01
  -2.130279e+02  -1.034519e+02
  -6.890560e+01  -2.077931e+02
   9.350754e+01  -1.564851e+02
   1.408968e+02  -2.763277e+01
   6.538919e+01   3.939846e+01
  -3.148880e+01  -3.411047e+00
  -3.620602e+01  -8.854863e+01
   7.585711e+01  -1.140469e+02
   2.012736e+02  -2.821025e+01
   1.926500e+02   1.223142e+02
   2.155843e+01   2.164481e+02
  -1.635723e+02   1.644659e+02
  -1.917118e+02   7.831831e+00
  -6.272802e+01  -1.136651e+02
   6.784668e+01  -1.103452e+02
   8.177492e+01  -2.758936e+01
   1.508514e+01   2.796491e+01
  -2.233322e+01   1.596926e+01
   1.239287e+01  -1.274169e+01
   7.411844e+01   7.949064e+00
   8.955108e+01   8.707321e+01
   1.308414e+01   1.638611e+02
  -1.282063e+02   1.540817e+02
  -2.356135e+02   2.472561e+01
  -2.053363e+02  -1.508939e+02
  -4.629650e+01  -2.382160e+02
   1.061344e+02  -1.725508e+02
   1.357502e+02  -3.185817e+01
   7.212382e+01   5.276786e+01
   2.957056e+01   3.387144e+01
   5.481085e+01  -1.482650e+01
   8.323895e+01  -1.013194e+01
   4.616513e+01   4.858708e+01
  -4.117134e+01   9.144686e+01
  -1.055534e+02   5.961483e+01
  -8.872583e+01  -3.557479e+01
   1.472028e+01  -1.138575e+02
   1.449639e+02  -8.915262e+01
   1.994526e+02   5.201319e+01
   1.003436e+02   2.039433e+02
  -1.082025e+02   2.285091e+02
  -2.673707e+02   9.498209e+01
  -2.565290e+02  -8.519038e+01
  -1.085462e+02  -1.732550e+02
   3.751210e+01  -1.443016e+02
   9.160056e+01  -8.456634e+01
   7.600377e+01  -7.278316e+01
   6.501731e+01  -9.491520e+01
   9.253809e+01  -7.643056e+01
   1.294846e+02   2.155900e+01
   1.193558e+02   1.542220e+02
   3.141382e+01   2.264037e+02
  -9.755719e+01   1.730077e+02
  -1.753445e+02   2.150352e+01
  -1.369966e+02  -1.215691e+02
  -2.011920e+01  -1.600277e+02
   6.600811e+01  -9.168841e+01
   5.805302e+01   1.155526e+00
   2.688520e+00   4.290653e+01
  -1.033331e+01   3.163600e+01
   3.966728e+01   1.464083e+01
   8.355356e+01   2.256712e+01
   4.528306e+01   4.182050e+01
  -6.766661e+01   4.033353e+01
  -1.621707e+02   3.383414e+00
  -1.437627e+02  -5.276272e+01
  -1.354556e+01  -8.964852e+01
   1.215159e+02  -7.502745e+01
   1.446646e+02  -1.490477e+01
   4.844749e+01   4.021628e+01
  -5.948519e+01   3.868106e+01
  -7.710927e+01  -1.759490e+01
  -1.119371e+01  -6.937571e+01
   5.360157e+01  -6.093354e+01
   6.502895e+01  -4.530622e-01
   4.759469e+01   4.906952e+01
   4.488063e+01   4.124508e+01
   6.113592e+01   7.595580e-01
   6.700767e+01  -6.527308e-01
   3.812752e+01   6.845006e+01
  -3.023590e+01   1.485818e+02
  -1.165341e+02   1.446055e+02
  -1.665393e+02   3.504952e+01
  -1.256983e+02  -9.132250e+01
  -8.083285e+00  -1.279870e+02
   8.606155e+01  -6.340480e+01
   6.050472e+01   1.413506e+01
  -5.871898e+01   2.049150e+01
  -1.379474e+02  -4.300686e+01
  -7.650017e+01  -1.078700e+02
   8.083729e+01  -1.132860e+02
   1.921242e+02  -5.252047e+01
   1.636815e+02   3.366992e+01
   3.694249e+01   8.678061e+01
  -6.234916e+01   7.044296e+01
  -5.032902e+01   6.983510e+00
   3.888543e+01  -2.884608e+01
   9.265669e+01   1.957453e+01
   3.646157e+01   1.176542e+02
  -8.822888e+01   1.573025e+02
  -1.665937e+02   6.735836e+01
  -1.290136e+02  -9.768910e+01
  -1.385958e+01  -1.985471e+02
   8.292194e+01  -1.465570e+02
   1.038059e+02   5.615549e+00
   6.102864e+01   1.174772e+02
  -9.717669e-01   1.054016e+02
  -4.465987e+01   1.902533e+01
  -5.013856e+01  -3.115787e+01
  -2.445299e+01  -7.663865e+00
  -4.066187e+00   2.098882e+01
  -2.242546e+01  -1.526064e+01
  -5.780197e+01  -8.800655e+01
  -4.252228e+01  -1.084886e+02
   4.808489e+01  -4.576843e+01
   1.399197e+02   3.710148e+01
   1.308016e+02   6.902606e+01
   1.801843e+01   5.023533e+01
  -8.757840e+01   2.424488e+01
  -8.785243e+01   8.868673e+00
  -1.059990e+01  -7.318482e+00
   3.857044e+01  -2.171516e+01
   1.375719e+01  -1.623673e+01
  -2.222979e+01   2.877180e+00
   4.444432e+00   7.578779e+00
   7.360657e+01   4.373994e-01
   9.331702e+01   2.175718e+01
   1.227977e+01   8.200599e+01
  -1.155302e+02   1.193195e+02
  -1.867022e+02   6.378416e+01
  -1.465461e+02  -6.505355e+01
  -3.098229e+01  -1.634749e+02
   7.654108e+01  -1.534986e+02
   1.146303e+02  -6.157285e+01
   8.239774e+01   2.037085e+01
   2.602455e+01   3.556000e+01
  -2.703338e+00   9.262114e+00
   1.017058e+01   4.406554e+00
   3.345717e+01   4.602087e+01
   2.348396e+01   9.049019e+01
  -2.905819e+01   7.251279e+01
  -8.290757e+01  -1.717880e+01
  -8.072792e+01  -1.076803e+02
  -7.744306e+00  -1.137913e+02
   8.164210e+01  -2.739376e+01
   1.058205e+02   7.215326e+01
   3.538284e+01   1.032842e+02
  -6.554159e+01   5.780419e+01
  -9.946497e+01  -1.041072e+01
  -4.094873e+01  -5.145991e+01
   3.284397e+01  -5.370426e+01
   3.279507e+01  -2.862872e+01
  -3.284619e+01   1.862230e+00
  -6.953606e+01   7.795673e+00
  -1.596724e+01  -2.586481e+01
   7.859300e+01  -6.795746e+01
   1.165695e+02  -5.952501e+01
   6.619504e+01   1.300534e+01
  -1.380158e+01   8.522988e+01
  -5.333336e+01   8.159796e+01
  -3.984525e+01   6.770771e+00
  -4.847530e+00  -5.627063e+01
   2.433658e+01  -4.451222e+01
   3.740909e+01   1.625920e+01
   2.865768e+01   5.300735e+01
  -1.968420e+00   3.319526e+01
  -3.341510e+01  -7.693699e+00
  -3.979478e+01  -2.093356e+01
  -2.003873e+01  -8.453427e-01
   1.065399e+00   1.553696e+01
   5.518980e+00  -1.181147e+00
   3.705532e+00  -3.615983e+01
   1.391177e+01  -4.672825e+01
   3.211167e+01  -1.098855e+01
   3.276495e+01   4.286140e+01
   6.211255e-01   6.102125e+01
  -4.405342e+01   2.218829e+01
  -5.792294e+01  -3.764354e+01
  -1.597100e+01  -6.286129e+01
   5.510585e+01  -3.499511e+01
   9.008669e+01   1.408194e+01
   4.967298e+01   4.381578e+01
  -2.935070e+01   4.166736e+01
  -6.580536e+01   2.247426e+01
  -2.476484e+01   4.511671e+00
   3.730236e+01   2.546613e-01
   3.847990e+01   1.394677e+01
  -2.910265e+01   3.156507e+01
  -8.958489e+01   2.199466e+01
