
 $NMID
 id='ANONYMOUS ', fmtdat='(2E16.6)'
 volume=1.0
 tramp=1.0
 $END
   3.418961e+03  -1.998909e+01
   2.003358e+03   1.912325e+03
  -3.491076e+02   2.115118e+03
  -1.413284e+03   9.858046e+02
  -1.005507e+03  -9.052631e+01
   1.839066e+02  -2.642566e+02
   3.488213e+02   1.380514e+02
  -5.129713e+01   6.140520e+02
  -6.507003e+02   4.881984e+02
  -6.099287e+02   4.709390e+01
  -3.276385e+02  -6.331797e+02
   1.104676e+02  -6.820584e+02
   4.030265e+02  -1.475343e+02
   1.895144e+02   4.675152e+02
  -1.368701e+02   5.093545e+02
  -4.318753e+02   4.855388e+01
  -2.303536e+02  -5.478477e+02
   1.952339e+02  -6.130665e+02
   4.642448e+02  -1.948581e+02
   3.791830e+02   1.981591e+02
   9.894007e+01   3.184883e+02
  -1.068450e+02   2.246863e+02
  -9.083625e+01   6.109474e+01
   1.911799e+02   8.809142e+01
   2.998655e+02   2.642320e+02
   3.407918e+01   3.904024e+02
  -4.958316e+02   2.256306e+02
  -6.931744e+02  -1.751458e+02
  -2.506212e+02  -4.177453e+02
   3.735684e+02  -2.670768e+02
   5.735233e+02   1.445431e+02
   1.820900e+02   4.190383e+02
  -3.162246e+02   3.767351e+02
  -4.797675e+02   1.175646e+02
  -3.288837e+02  -1.926317e+02
  -6.646390e+01  -3.608736e+02
   6.599898e+01  -1.908792e+02
  -8.567786e+00   1.338992e+02
  -1.894703e+02   2.109802e+02
  -2.649232e+02  -1.523684e+02
  -3.769419e+01  -5.712679e+02
   2.986098e+02  -4.906546e+02
   3.970364e+02   2.670015e+01
   1.209320e+02   3.879118e+02
  -2.122347e+02   1.712274e+02
  -2.270964e+02  -3.057583e+02
   1.242641e+02  -4.383940e+02
   4.914171e+02  -6.850638e+01
   5.082462e+02   3.953393e+02
   1.413813e+02   5.304255e+02
  -3.422354e+02   2.829914e+02
  -5.441514e+02  -9.152975e+01
  -3.242405e+02  -3.051727e+02
   9.822550e+01  -2.564809e+02
   3.229707e+02  -5.367932e+01
   1.999772e+02   8.780920e+01
  -3.641418e+01   3.961332e+01
  -6.321700e+01  -8.357860e+01
   1.271685e+02  -8.862847e+01
   2.530932e+02   6.305689e+01
   1.144131e+02   2.207983e+02
  -1.754431e+02   2.409081e+02
  -3.455056e+02   1.086394e+02
  -2.500403e+02  -1.108530e+02
   3.410862e+01  -3.145250e+02
   3.054938e+02  -3.577175e+02
   3.852917e+02  -1.524439e+02
   2.450619e+02   1.813342e+02
   3.237435e+01   3.771179e+02
  -6.851676e+01   3.136805e+02
  -3.642401e+01   1.509057e+02
  -2.138274e+01   9.646718e+01
  -1.256577e+02   1.271010e+02
  -2.579582e+02   6.519903e+01
  -2.570528e+02  -1.325631e+02
  -9.596023e+01  -2.811757e+02
   1.031344e+02  -2.082851e+02
   2.003434e+02   3.888297e+01
   1.437141e+02   2.492526e+02
  -4.704608e+01   2.585874e+02
  -2.517825e+02   6.169011e+01
  -3.104735e+02  -1.886550e+02
  -1.573840e+02  -3.166313e+02
   7.148833e+01  -2.662282e+02
   1.777380e+02  -1.334745e+02
   1.410046e+02  -5.850195e+01
   1.315089e+02  -6.397327e+01
   2.705468e+02  -4.367269e+01
   4.103462e+02   9.458802e+01
   3.202812e+02   2.995142e+02
  -2.856669e+01   4.350500e+02
  -3.894305e+02   3.894664e+02
  -4.869430e+02   1.652070e+02
  -2.908142e+02  -1.096637e+02
  -9.635481e+00  -2.615986e+02
   1.119437e+02  -1.970785e+02
   2.012657e+01  -2.520642e+01
  -1.273617e+02   4.742611e+01
  -1.431517e+02  -4.785974e+01
  -4.566088e+00  -1.610710e+02
   1.376036e+02  -1.092305e+02
   1.214227e+02   6.655785e+01
  -3.671924e+01   1.448528e+02
  -1.725318e+02   2.271945e-01
  -1.488911e+02  -2.435065e+02
   3.176325e+01  -3.467604e+02
   2.464999e+02  -2.071084e+02
   3.548769e+02   6.567675e+01
   2.770613e+02   2.690014e+02
   5.956880e+01   2.813036e+02
  -1.334484e+02   1.389674e+02
  -1.532210e+02  -4.109178e+00
  -2.716529e+01  -2.150843e+01
   6.382916e+01   6.577773e+01
  -2.006284e+00   1.254238e+02
  -1.361985e+02   7.108673e+01
  -1.577977e+02  -3.270429e+01
  -3.005187e+01  -6.343500e+01
   9.167977e+01   1.008991e+01
   4.540001e+01   9.624281e+01
  -1.487715e+02   9.174672e+01
  -3.063773e+02  -2.069156e+01
  -2.624798e+02  -1.738028e+02
  -2.817053e+01  -2.695361e+02
   2.152386e+02  -2.379456e+02
   2.788074e+02  -9.186368e+01
   1.394758e+02   5.587913e+01
  -3.860247e+01   8.236098e+01
  -7.200504e+01  -1.228888e+01
   5.700309e+01  -9.039414e+01
   1.956661e+02  -3.320923e+01
   1.926294e+02   1.150063e+02
   4.999328e+01   1.986951e+02
  -9.935171e+01   1.365938e+02
  -1.320575e+02   8.551273e+00
  -4.635415e+01  -4.613283e+01
   4.735716e+01   1.642247e+01
   3.247094e+01   1.114369e+02
  -9.758096e+01   1.213537e+02
  -2.161368e+02   1.089827e+01
  -1.834289e+02  -1.417468e+02
  -2.941357e+00  -2.139895e+02
   1.675336e+02  -1.471220e+02
   1.786584e+02  -2.658629e-01
   4.953222e+01   1.036361e+02
  -7.133146e+01   9.581316e+01
  -7.687862e+01   1.940786e+01
  -3.605788e+00  -2.985383e+01
   3.841666e+01  -1.084703e+01
  -5.542192e+00   2.500623e+01
  -8.743905e+01   9.333979e-01
  -1.074866e+02  -9.391551e+01
  -1.276098e+01  -1.793325e+02
   1.479596e+02  -1.558318e+02
   2.472912e+02  -7.960943e+00
   1.947977e+02   1.649235e+02
   3.018819e+01   2.331673e+02
  -1.096917e+02   1.589298e+02
  -1.289749e+02   2.659231e+01
  -6.736995e+01  -4.718307e+01
  -2.953105e+01  -2.893193e+01
  -5.547811e+01   1.661423e+01
  -8.890040e+01   1.106671e+01
  -5.772170e+01  -5.359739e+01
   3.749049e+01  -1.048333e+02
   1.187416e+02  -7.015354e+01
   1.053808e+02   4.107154e+01
  -1.639977e+01   1.295835e+02
  -1.637374e+02   9.115098e+01
  -2.083273e+02  -6.760932e+01
  -8.530781e+01  -2.184980e+02
   1.302115e+02  -2.250061e+02
   2.753747e+02  -7.850768e+01
   2.470968e+02   9.846394e+01
   9.375024e+01   1.761719e+02
  -4.765133e+01   1.401413e+02
  -9.301398e+01   7.752007e+01
  -7.017043e+01   6.545833e+01
  -5.772822e+01   9.117466e+01
  -9.160410e+01   7.761350e+01
  -1.336244e+02  -2.005140e+01
  -1.187678e+02  -1.568331e+02
  -2.198115e+01  -2.285184e+02
   1.071915e+02  -1.668453e+02
   1.743463e+02  -7.481668e+00
   1.259959e+02   1.326978e+02
   6.348045e+00   1.592236e+02
  -7.767376e+01   8.010782e+01
  -6.399082e+01  -1.557287e+01
   2.337337e+00  -5.307792e+01
   2.494665e+01  -3.409083e+01
  -2.829068e+01  -1.124521e+01
  -8.461607e+01  -1.968355e+01
  -5.065700e+01  -4.356584e+01
   7.194617e+01  -4.300816e+01
   1.736570e+02   1.578590e+00
   1.458633e+02   6.579966e+01
   6.653463e-01   1.002976e+02
  -1.351818e+02   7.324622e+01
  -1.472940e+02   2.879956e+00
  -4.485490e+01  -5.188298e+01
   6.062896e+01  -4.335398e+01
   7.809862e+01   1.903592e+01
   1.738039e+01   7.295368e+01
  -4.755374e+01   6.422083e+01
  -6.777059e+01   1.624337e+00
  -5.504366e+01  -5.103436e+01
  -4.556434e+01  -4.420504e+01
  -5.519431e+01  -2.307915e+00
  -6.578983e+01   2.846551e-01
  -4.434742e+01  -6.987720e+01
   2.777399e+01  -1.513508e+02
   1.256178e+02  -1.465446e+02
   1.790065e+02  -3.453143e+01
   1.293313e+02   9.524320e+01
   2.389972e+00   1.334704e+02
  -9.092017e+01   6.792766e+01
  -6.093212e+01  -1.239191e+01
   5.860217e+01  -1.992134e+01
   1.340207e+02   4.489443e+01
   7.030456e+01   1.094746e+02
  -8.543131e+01   1.096266e+02
  -1.925017e+02   4.206631e+01
  -1.592467e+02  -4.373104e+01
  -3.029694e+01  -8.818128e+01
   6.709866e+01  -6.358009e+01
   5.144750e+01   7.473044e-03
  -3.870015e+01   3.143753e+01
  -9.193892e+01  -1.844954e+01
  -3.835665e+01  -1.148626e+02
   8.094266e+01  -1.549669e+02
   1.580618e+02  -6.874958e+01
   1.246619e+02   9.348314e+01
   1.368306e+01   1.929207e+02
  -8.348057e+01   1.393489e+02
  -1.035056e+02  -1.386769e+01
  -5.383622e+01  -1.227967e+02
   1.398149e+01  -1.043324e+02
   5.243239e+01  -1.393131e+01
   4.649639e+01   3.488021e+01
   1.789078e+01   9.235173e+00
   5.798508e+00  -1.838082e+01
   2.920211e+01   1.885652e+01
   5.699821e+01   8.986369e+01
   3.246267e+01   1.075005e+02
  -5.520371e+01   4.371954e+01
  -1.356595e+02  -3.919748e+01
  -1.230824e+02  -7.217759e+01
  -1.772834e+01  -5.331978e+01
   8.225638e+01  -2.363447e+01
   8.797422e+01  -4.101009e+00
   1.719310e+01   1.094481e+01
  -3.594669e+01   2.060834e+01
  -2.062022e+01   1.334365e+01
   1.511576e+01  -3.225403e+00
  -1.740981e+00  -6.533514e+00
  -6.529782e+01  -7.458685e-01
  -9.150303e+01  -2.187498e+01
  -2.024509e+01  -7.924245e+01
   1.077763e+02  -1.157236e+02
   1.870434e+02  -6.515616e+01
   1.510434e+02   5.860875e+01
   3.151688e+01   1.586133e+02
  -8.011061e+01   1.542246e+02
  -1.162263e+02   6.469155e+01
  -8.033564e+01  -1.987883e+01
  -2.597782e+01  -3.783867e+01
  -1.567047e+00  -1.213391e+01
  -1.310891e+01  -7.572267e+00
  -3.062716e+01  -4.879427e+01
  -1.858793e+01  -9.135974e+01
   2.907387e+01  -7.184854e+01
   7.848534e+01   1.527183e+01
   7.968760e+01   1.015611e+02
   1.422332e+01   1.094239e+02
  -7.348662e+01   3.100176e+01
  -1.037807e+02  -6.443360e+01
  -3.985546e+01  -1.008835e+02
   6.213444e+01  -6.230212e+01
   1.022325e+02   7.145728e+00
   4.601204e+01   5.586170e+01
  -3.276304e+01   6.043617e+01
  -3.926162e+01   3.037773e+01
   2.605978e+01  -4.164450e+00
   6.837792e+01  -8.594716e+00
   1.888428e+01   2.664013e+01
  -7.829350e+01   6.592567e+01
  -1.217113e+02   5.504375e+01
  -7.224085e+01  -1.534148e+01
   1.266884e+01  -8.508505e+01
   5.684203e+01  -8.398953e+01
   4.338539e+01  -1.375158e+01
   6.587532e+00   5.114402e+01
  -2.234058e+01   4.703815e+01
  -3.481371e+01  -1.052144e+01
  -2.786429e+01  -5.215416e+01
  -4.157695e-01  -3.749472e+01
   3.162855e+01   5.665357e+00
   4.119654e+01   2.447429e+01
   2.081472e+01   4.380472e+00
  -4.336622e+00  -1.884483e+01
  -8.677178e+00  -7.210876e+00
   8.772217e-01   3.047617e+01
  -3.015380e+00   4.872817e+01
  -2.567328e+01   1.860648e+01
  -3.741347e+01  -3.568554e+01
  -1.012068e+01  -5.858363e+01
   4.012845e+01  -2.482760e+01
   6.108444e+01   3.306270e+01
   1.882796e+01   6.023490e+01
  -5.612263e+01   3.622753e+01
  -9.236417e+01  -1.160808e+01
  -5.067631e+01  -4.362191e+01
   2.844437e+01  -4.544810e+01
   6.531666e+01  -2.746289e+01
   2.831659e+01  -7.132137e+00
  -2.944991e+01   1.582856e+00
  -3.358088e+01  -8.284022e+00
   2.509752e+01  -2.556659e+01
   8.054221e+01  -1.969302e+01
