
 $NMID
 id='ANONYMOUS ', fmtdat='(2E16.6)'
 volume=1.0
 tramp=1.0
 $END
   4.657453e+03  -2.096043e+01
   2.817894e+03   2.772456e+03
  -5.092090e+02   2.876376e+03
  -2.088301e+03   1.408909e+03
  -9.880836e+02  -2.394162e+02
   4.823762e+02  -5.211630e+02
   9.255191e+02   3.757454e+02
  -1.814881e+01   1.082211e+03
  -7.632061e+02   9.374037e+02
  -9.953352e+02   3.917302e+01
  -5.237924e+02  -7.207924e+02
   1.568142e+02  -1.076783e+03
   5.980977e+02  -2.423486e+02
   4.409414e+02   7.043440e+02
  -2.074181e+02   8.131845e+02
  -6.191202e+02  -1.945168e+01
  -3.396393e+02  -7.162446e+02
   2.925635e+02  -6.985891e+02
   7.029496e+02  -1.588546e+02
   5.032682e+02   3.373504e+02
   3.183886e+01   4.791623e+02
  -2.736025e+02   2.637661e+02
  -1.842156e+02  -1.890957e+00
   1.607059e+02  -5.648526e+01
   4.280761e+02   1.624464e+02
   1.584828e+02   4.657341e+02
  -4.753596e+02   3.899451e+02
  -8.400799e+02  -1.316250e+02
  -4.017770e+02  -5.692433e+02
   4.183164e+02  -4.472104e+02
   7.432029e+02   7.288271e+01
   3.424915e+02   4.985563e+02
  -3.153723e+02   5.329376e+02
  -6.064554e+02   1.942613e+02
  -4.158290e+02  -2.479929e+02
  -5.844427e+01  -4.797609e+02
   1.732869e+02  -3.030165e+02
   1.271888e+02   1.773767e+02
  -1.904635e+02   4.048756e+02
  -3.996780e+02  -3.876547e+01
  -1.913210e+02  -6.864293e+02
   3.410481e+02  -6.954266e+02
   5.793096e+02  -2.219969e+00
   2.305299e+02   5.320688e+02
  -2.780250e+02   2.916813e+02
  -3.383896e+02  -3.387293e+02
   1.024597e+02  -5.416712e+02
   5.740029e+02  -1.065534e+02
   6.033741e+02   4.458400e+02
   1.642177e+02   6.072246e+02
  -3.949111e+02   3.419604e+02
  -6.532022e+02  -8.724142e+01
  -3.986410e+02  -3.840205e+02
   1.380416e+02  -3.571341e+02
   4.503418e+02  -6.008090e+01
   2.648813e+02   1.655851e+02
  -9.458354e+01   7.872429e+01
  -1.307103e+02  -1.524876e+02
   1.667754e+02  -1.625566e+02
   3.467291e+02   9.277406e+01
   1.433130e+02   3.073055e+02
  -2.081217e+02   2.698048e+02
  -3.514824e+02   8.496822e+01
  -2.236696e+02  -9.638524e+01
   1.943749e+01  -2.624748e+02
   2.487800e+02  -3.625519e+02
   3.758246e+02  -2.234818e+02
   3.083149e+02   1.575085e+02
   7.641852e+01   4.566938e+02
  -1.112671e+02   3.966665e+02
  -1.052252e+02   1.301892e+02
  -2.100970e+01   1.454078e+01
  -6.723886e+01   1.049306e+02
  -2.307257e+02   1.252196e+02
  -2.979004e+02  -7.216717e+01
  -1.524175e+02  -2.902961e+02
   8.840674e+01  -2.596091e+02
   2.351368e+02   4.981691e+00
   1.894696e+02   2.588921e+02
  -2.657408e+01   2.949858e+02
  -2.785146e+02   1.010191e+02
  -3.667461e+02  -1.842042e+02
  -1.867046e+02  -3.644531e+02
   1.022600e+02  -3.214859e+02
   2.383630e+02  -1.390050e+02
   1.722136e+02  -1.706581e+01
   1.255755e+02  -3.170745e+01
   2.564299e+02  -4.975691e+01
   4.175026e+02   7.239337e+01
   3.420546e+02   3.075260e+02
  -7.754898e+00   4.727253e+02
  -3.894393e+02   4.374822e+02
  -5.259658e+02   2.007429e+02
  -3.557696e+02  -1.120196e+02
  -5.157760e+01  -3.076177e+02
   1.370766e+02  -2.569768e+02
   7.891597e+01  -3.529847e+01
  -1.173292e+02   9.247156e+01
  -1.932724e+02  -1.986395e+01
  -3.858981e+01  -1.947763e+02
   1.641422e+02  -1.599729e+02
   1.702923e+02   6.842907e+01
  -2.559692e+01   1.913747e+02
  -1.983091e+02   2.080444e+01
  -1.652938e+02  -2.680101e+02
   3.774125e+01  -3.743468e+02
   2.530477e+02  -2.058203e+02
   3.561785e+02   7.369580e+01
   2.939667e+02   2.657415e+02
   8.900168e+01   2.869853e+02
  -1.278244e+02   1.683490e+02
  -1.832110e+02   1.756732e+01
  -5.611795e+01  -3.527587e+01
   6.977260e+01   4.134905e+01
   2.280690e+01   1.297895e+02
  -1.321009e+02   1.021482e+02
  -1.827689e+02  -1.329903e+01
  -5.764647e+01  -7.267099e+01
   8.252871e+01  -1.294774e+01
   5.284014e+01   7.833156e+01
  -1.358145e+02   8.627029e+01
  -3.008016e+02  -1.172074e+01
  -2.747110e+02  -1.594127e+02
  -5.290992e+01  -2.723928e+02
   2.051921e+02  -2.683400e+02
   3.022822e+02  -1.243532e+02
   1.765153e+02   5.603913e+01
  -2.669134e+01   1.106676e+02
  -9.191922e+01   6.090338e+00
   3.870585e+01  -1.027441e+02
   2.063754e+02  -5.532617e+01
   2.222738e+02   1.123495e+02
   6.978375e+01   2.197867e+02
  -1.027884e+02   1.653328e+02
  -1.532121e+02   2.848283e+01
  -7.240320e+01  -4.506027e+01
   3.116665e+01  -9.862365e-01
   3.548404e+01   9.211101e+01
  -8.341051e+01   1.196789e+02
  -2.130158e+02   2.383853e+01
  -1.996275e+02  -1.387915e+02
  -1.783539e+01  -2.334889e+02
   1.758859e+02  -1.713367e+02
   2.048749e+02  -5.561331e+00
   6.901825e+01   1.189499e+02
  -6.944096e+01   1.153543e+02
  -8.573096e+01   3.164977e+01
  -1.615299e+01  -2.751913e+01
   2.580112e+01  -1.911890e+01
  -1.051235e+01   1.045354e+01
  -7.757594e+01  -7.234078e+00
  -9.368969e+01  -8.703793e+01
  -1.113921e+01  -1.702140e+02
   1.390689e+02  -1.606785e+02
   2.481277e+02  -2.218821e+01
   2.093138e+02   1.640342e+02
   4.012064e+01   2.518538e+02
  -1.172185e+02   1.778543e+02
  -1.453100e+02   2.736459e+01
  -7.585037e+01  -6.000588e+01
  -2.966824e+01  -3.917385e+01
  -5.570439e+01   1.107580e+01
  -8.469935e+01   4.170970e+00
  -4.473345e+01  -5.553775e+01
   4.723448e+01  -9.570844e+01
   1.146265e+02  -5.810083e+01
   9.529462e+01   4.315486e+01
  -1.665675e+01   1.210683e+02
  -1.560639e+02   8.844660e+01
  -2.089870e+02  -6.138341e+01
  -9.841544e+01  -2.172890e+02
   1.212238e+02  -2.377911e+02
   2.855460e+02  -9.373075e+01
   2.701569e+02   9.638900e+01
   1.121360e+02   1.893864e+02
  -4.323609e+01   1.557425e+02
  -1.007433e+02   8.809860e+01
  -8.488120e+01   7.183793e+01
  -7.238130e+01   9.406391e+01
  -9.934514e+01   7.690384e+01
  -1.350491e+02  -2.444199e+01
  -1.202181e+02  -1.640815e+02
  -2.494419e+01  -2.402607e+02
   1.085130e+02  -1.805010e+02
   1.852571e+02  -1.702817e+01
   1.400833e+02   1.333627e+02
   1.539584e+01   1.695409e+02
  -7.494547e+01   9.494481e+01
  -6.422380e+01  -2.905945e+00
  -1.589871e+00  -4.741626e+01
   1.689892e+01  -3.775072e+01
  -3.431946e+01  -2.007305e+01
  -8.386919e+01  -2.417958e+01
  -4.850912e+01  -3.887272e+01
   6.893035e+01  -3.511880e+01
   1.698384e+02   2.610645e+00
   1.507822e+02   5.884067e+01
   1.117259e+01   9.433575e+01
  -1.323573e+02   7.483186e+01
  -1.545323e+02   9.897229e+00
  -5.012844e+01  -4.584104e+01
   6.434900e+01  -3.980915e+01
   8.105459e+01   2.095457e+01
   9.497151e+00   7.370544e+01
  -5.836408e+01   6.201118e+01
  -6.888416e+01  -2.904498e+00
  -4.928589e+01  -5.518678e+01
  -4.626659e+01  -4.720965e+01
  -6.263066e+01  -5.076676e+00
  -6.820831e+01  -3.085991e+00
  -3.635763e+01  -7.351286e+01
   3.758159e+01  -1.541520e+02
   1.282738e+02  -1.466758e+02
   1.776537e+02  -3.065743e+01
   1.294654e+02   9.980616e+01
   2.684916e+00   1.341275e+02
  -9.457531e+01   6.416657e+01
  -6.462318e+01  -1.658568e+01
   6.201443e+01  -2.071943e+01
   1.439378e+02   4.683242e+01
   7.773371e+01   1.126756e+02
  -8.687471e+01   1.145413e+02
  -2.005023e+02   4.902345e+01
  -1.681178e+02  -3.925389e+01
  -3.596425e+01  -9.015741e+01
   6.502561e+01  -7.033996e+01
   5.015460e+01  -6.313004e+00
  -4.195170e+01   2.585794e+01
  -9.366784e+01  -2.681135e+01
  -3.163840e+01  -1.248871e+02
   9.782962e+01  -1.593406e+02
   1.753387e+02  -6.247014e+01
   1.307739e+02   1.064301e+02
   7.298728e+00   2.060360e+02
  -9.295732e+01   1.479477e+02
  -1.100574e+02  -1.115067e+01
  -5.953025e+01  -1.262606e+02
   7.675508e+00  -1.111634e+02
   5.113991e+01  -1.933198e+01
   5.361580e+01   3.399374e+01
   2.543917e+01   9.325061e+00
   4.819008e+00  -2.026421e+01
   2.255000e+01   1.866379e+01
   5.606284e+01   9.524432e+01
   3.889595e+01   1.146981e+02
  -5.251715e+01   4.470570e+01
  -1.437257e+02  -4.520748e+01
  -1.329664e+02  -7.811112e+01
  -1.699748e+01  -5.418907e+01
   9.189090e+01  -2.298516e+01
   9.335997e+01  -5.832484e+00
   1.362798e+01   9.603491e+00
  -3.898984e+01   2.377834e+01
  -1.595276e+01   1.877372e+01
   2.040871e+01  -1.042055e+00
  -6.562170e+00  -8.638984e+00
  -7.767686e+01  -4.953691e+00
  -9.678898e+01  -2.767852e+01
  -1.011991e+01  -8.571672e+01
   1.250727e+02  -1.183999e+02
   1.974269e+02  -5.830835e+01
   1.498511e+02   7.251794e+01
   2.420947e+01   1.696179e+02
  -8.734111e+01   1.558262e+02
  -1.220910e+02   5.999801e+01
  -8.425777e+01  -2.393105e+01
  -2.583548e+01  -3.885493e+01
   2.115278e+00  -1.105038e+01
  -1.074729e+01  -6.164392e+00
  -3.193509e+01  -4.969484e+01
  -1.959559e+01  -9.543920e+01
   3.290245e+01  -7.456439e+01
   8.420750e+01   2.124931e+01
   7.842347e+01   1.153629e+02
   2.971287e+00   1.180170e+02
  -8.636182e+01   2.354790e+01
  -1.067435e+02  -8.143528e+01
  -3.165000e+01  -1.102793e+02
   7.161153e+01  -5.808156e+01
   1.036115e+02   1.498717e+01
   4.057535e+01   5.584983e+01
  -3.610662e+01   5.502220e+01
  -3.491551e+01   2.855469e+01
   3.422695e+01  -7.655033e-01
   7.222203e+01  -5.647017e+00
   1.502421e+01   2.684487e+01
  -8.453118e+01   6.623875e+01
  -1.228853e+02   5.657738e+01
  -6.691040e+01  -1.520084e+01
   1.904176e+01  -8.649348e+01
   5.902426e+01  -8.203400e+01
   4.035302e+01  -6.298997e+00
   3.589747e-02   5.792663e+01
  -2.902727e+01   4.525760e+01
  -3.772395e+01  -1.922561e+01
  -2.539376e+01  -5.872188e+01
   5.013731e+00  -3.694959e+01
   3.511210e+01   9.080176e+00
   4.131634e+01   2.469701e+01
   2.193083e+01   2.737264e+00
   5.391832e-01  -1.641475e+01
  -5.642608e+00   8.070782e-01
  -5.115597e+00   3.901474e+01
  -1.585205e+01   5.044663e+01
  -3.383080e+01   1.133965e+01
  -3.373752e+01  -4.641066e+01
  -4.877174e-01  -6.431124e+01
   4.552257e+01  -2.156821e+01
   5.930055e+01   4.182377e+01
   1.505159e+01   6.602469e+01
  -5.844296e+01   3.395850e+01
  -9.396274e+01  -1.816076e+01
  -5.115568e+01  -4.735703e+01
   3.131149e+01  -4.279607e+01
   6.909645e+01  -2.218037e+01
   2.704326e+01  -4.644264e+00
  -3.713597e+01  -1.304277e+00
  -3.874213e+01  -1.473163e+01
   3.071248e+01  -3.065940e+01
   9.302575e+01  -1.891877e+01
