
 $NMID
 id='ANONYMOUS ', fmtdat='(2E16.6)'
 volume=1.0
 tramp=1.0
 $END
  -3.096229e+03   4.439911e+01
  -1.818223e+03  -1.665384e+03
   5.461230e+02  -2.026735e+03
   1.402686e+03  -8.469091e+02
   6.722792e+02   3.799821e+02
  -2.946007e+02   3.151463e+02
  -6.442655e+02  -2.961336e+02
   2.391509e+00  -6.831193e+02
   5.021185e+02  -4.999777e+02
   5.512065e+02   5.275569e+01
   2.376286e+02   5.320685e+02
  -1.896579e+02   6.521388e+02
  -4.098172e+02  -2.105791e+00
  -2.480542e+02  -5.227754e+02
   1.900158e+02  -5.081838e+02
   4.011785e+02   5.053551e+01
   1.815574e+02   4.319143e+02
  -2.308381e+02   3.808848e+02
  -3.920515e+02   6.670956e+01
  -2.418626e+02  -2.104151e+02
   1.646267e+01  -2.816053e+02
   1.571587e+02  -1.493981e+02
   1.257543e+02  -1.616021e+01
  -9.885219e+01   5.193705e+01
  -2.642987e+02  -1.057579e+02
  -1.309895e+02  -2.997475e+02
   2.978154e+02  -2.477633e+02
   5.575883e+02   6.189540e+01
   2.615995e+02   3.917581e+02
  -2.655752e+02   2.995187e+02
  -4.859896e+02  -6.041780e+01
  -2.314620e+02  -3.160079e+02
   1.889553e+02  -3.487095e+02
   3.833601e+02  -1.163481e+02
   2.672872e+02   1.556740e+02
   3.622553e+01   2.942067e+02
  -1.263644e+02   1.823424e+02
  -1.138903e+02  -1.583967e+02
   1.005276e+02  -2.892655e+02
   2.987580e+02   1.321744e+01
   1.689615e+02   4.469022e+02
  -1.910299e+02   4.737290e+02
  -3.873757e+02   4.518898e+00
  -1.712944e+02  -3.714958e+02
   1.741248e+02  -2.277844e+02
   2.335957e+02   1.998306e+02
  -5.038936e+01   3.633389e+02
  -3.467516e+02   1.013364e+02
  -3.695171e+02  -2.655975e+02
  -9.950842e+01  -3.924143e+02
   2.414861e+02  -2.394902e+02
   4.019122e+02   4.210590e+01
   2.445856e+02   2.546536e+02
  -8.920042e+01   2.480374e+02
  -2.841625e+02   3.787560e+01
  -1.589317e+02  -1.375295e+02
   8.166107e+01  -8.294320e+01
   1.090780e+02   9.517480e+01
  -8.891324e+01   1.285937e+02
  -2.131503e+02  -3.104195e+01
  -8.802499e+01  -1.768748e+02
   1.249594e+02  -1.598214e+02
   1.998574e+02  -5.417279e+01
   1.214472e+02   4.041165e+01
  -1.182968e+00   1.385459e+02
  -1.200537e+02   2.237173e+02
  -2.144400e+02   1.611289e+02
  -2.028978e+02  -8.456242e+01
  -5.863471e+01  -2.941348e+02
   8.410955e+01  -2.497040e+02
   8.189151e+01  -4.967150e+01
  -4.586405e+00   3.082245e+01
  -6.524730e-01  -6.277091e+01
   1.184897e+02  -1.145657e+02
   1.943794e+02   1.153682e+01
   1.143409e+02   1.780643e+02
  -4.923953e+01   1.773670e+02
  -1.530289e+02   1.174340e+01
  -1.274174e+02  -1.554755e+02
   5.733085e+00  -1.862756e+02
   1.617923e+02  -7.332800e+01
   2.211379e+02   1.008261e+02
   1.193570e+02   2.139423e+02
  -5.788913e+01   1.875860e+02
  -1.430513e+02   7.156277e+01
  -9.554619e+01  -5.646615e-01
  -5.697581e+01   1.733182e+01
  -1.338619e+02   4.533481e+01
  -2.413822e+02  -2.328633e+01
  -2.090856e+02  -1.651738e+02
  -8.572215e+00  -2.746505e+02
   2.129494e+02  -2.674553e+02
   3.044076e+02  -1.302051e+02
   2.155143e+02   6.155779e+01
   3.572363e+01   1.909947e+02
  -8.592207e+01   1.602163e+02
  -5.825470e+01   1.048608e+01
   7.372213e+01  -7.554377e+01
   1.333218e+02   9.073306e+00
   3.224838e+01   1.370110e+02
  -1.112577e+02   1.152747e+02
  -1.267956e+02  -4.225151e+01
   3.492953e+00  -1.301183e+02
   1.207461e+02  -2.839411e+01
   1.038127e+02   1.491215e+02
  -1.422370e+01   2.108726e+02
  -1.367722e+02   1.164962e+02
  -1.989824e+02  -3.464479e+01
  -1.751225e+02  -1.407295e+02
  -6.238166e+01  -1.634134e+02
   7.350406e+01  -1.059599e+02
   1.167024e+02  -1.502945e+01
   3.618525e+01   2.754647e+01
  -5.180362e+01  -1.632853e+01
  -2.603408e+01  -7.945853e+01
   7.848459e+01  -7.084367e+01
   1.192946e+02   3.381574e+00
   4.290378e+01   4.926624e+01
  -5.022187e+01   1.877656e+01
  -4.087820e+01  -3.928915e+01
   6.718540e+01  -5.367273e+01
   1.675743e+02  -5.625189e+00
   1.632450e+02   7.917293e+01
   4.450162e+01   1.556047e+02
  -1.074254e+02   1.660977e+02
  -1.770035e+02   8.317986e+01
  -1.126566e+02  -3.394411e+01
   1.180359e+01  -7.510677e+01
   6.122877e+01  -8.687864e+00
  -1.281380e+01   6.729223e+01
  -1.192919e+02   4.410953e+01
  -1.367330e+02  -6.072629e+01
  -4.739555e+01  -1.323693e+02
   5.910919e+01  -1.032487e+02
   9.416273e+01  -2.027651e+01
   4.843852e+01   2.882353e+01
  -1.621843e+01   7.827883e+00
  -2.598506e+01  -4.715729e+01
   3.985771e+01  -7.083314e+01
   1.211820e+02  -2.213824e+01
   1.216037e+02   7.415627e+01
   1.723160e+01   1.379429e+02
  -1.018085e+02   1.064779e+02
  -1.249981e+02   6.210740e+00
  -4.517644e+01  -7.333950e+01
   4.015438e+01  -7.372264e+01
   5.373677e+01  -2.210859e+01
   1.375785e+01   1.658654e+01
  -1.306500e+01   1.461588e+01
   3.725483e+00  -3.720037e+00
   4.160073e+01   6.179105e-01
   5.605550e+01   4.256212e+01
   1.534447e+01   9.368489e+01
  -7.134772e+01   9.848126e+01
  -1.422059e+02   2.465369e+01
  -1.276924e+02  -8.828603e+01
  -2.921159e+01  -1.471325e+02
   6.739530e+01  -1.073221e+02
   8.582531e+01  -1.598686e+01
   4.430660e+01   3.791683e+01
   1.502964e+01   2.383612e+01
   2.984426e+01  -8.932857e+00
   4.593777e+01  -5.953393e+00
   2.379746e+01   2.895793e+01
  -2.357912e+01   5.341980e+01
  -5.957437e+01   3.485287e+01
  -5.138481e+01  -2.021566e+01
   4.465358e+00  -6.874865e+01
   8.181149e+01  -5.580605e+01
   1.215939e+02   2.719605e+01
   6.704243e+01   1.213106e+02
  -5.925449e+01   1.418916e+02
  -1.624255e+02   6.352347e+01
  -1.601385e+02  -4.796556e+01
  -7.005758e+01  -1.066606e+02
   2.188582e+01  -9.208886e+01
   5.698072e+01  -5.404228e+01
   4.880359e+01  -4.277102e+01
   4.131224e+01  -5.378184e+01
   5.545190e+01  -4.467263e+01
   7.654957e+01   1.111356e+01
   7.219511e+01   9.089903e+01
   2.157120e+01   1.378053e+02
  -5.668164e+01   1.081595e+02
  -1.072210e+02   1.621220e+01
  -8.716441e+01  -7.234722e+01
  -1.571580e+01  -9.769538e+01
   4.006585e+01  -5.856843e+01
   3.772122e+01  -3.043464e+00
   3.794156e+00   2.504807e+01
  -6.489624e+00   2.261888e+01
   2.111354e+01   1.301558e+01
   4.746742e+01   1.311530e+01
   2.760005e+01   2.043331e+01
  -3.708427e+01   2.126557e+01
  -9.496020e+01   3.763927e+00
  -8.814440e+01  -2.815179e+01
  -1.154628e+01  -5.265104e+01
   7.201178e+01  -4.581574e+01
   8.854222e+01  -9.498274e+00
   2.974449e+01   2.396336e+01
  -3.705007e+01   2.239635e+01
  -4.639213e+01  -1.113858e+01
  -4.315059e+00  -4.026556e+01
   3.335935e+01  -3.420433e+01
   3.704270e+01   8.029884e-01
   2.607976e+01   2.926213e+01
   2.699146e+01   2.512979e+01
   3.745900e+01   1.868472e+00
   3.902870e+01  -2.207302e-01
   2.030058e+01   3.846055e+01
  -1.858481e+01   8.629063e+01
  -6.729490e+01   8.608674e+01
  -9.704228e+01   2.270028e+01
  -7.453212e+01  -5.221577e+01
  -5.138226e+00  -7.505249e+01
   5.095780e+01  -3.727209e+01
   3.493168e+01   8.748120e+00
  -3.769179e+01   1.233763e+01
  -8.465069e+01  -2.504219e+01
  -4.665729e+01  -6.449007e+01
   4.813629e+01  -6.960278e+01
   1.150166e+02  -3.495466e+01
   9.905868e+01   1.717754e+01
   2.498663e+01   5.210212e+01
  -3.449042e+01   4.468499e+01
  -2.922682e+01   6.737587e+00
   2.205464e+01  -1.569213e+01
   5.348493e+01   1.263163e+01
   2.029418e+01   7.085004e+01
  -5.390357e+01   9.326507e+01
  -1.004774e+02   3.839344e+01
  -7.740705e+01  -6.015868e+01
  -7.886191e+00  -1.194450e+02
   5.101503e+01  -8.789984e+01
   6.465813e+01   3.456204e+00
   3.946838e+01   7.174344e+01
   6.516702e-01   6.603455e+01
  -2.885666e+01   1.404095e+01
  -3.423994e+01  -1.778363e+01
  -1.743298e+01  -5.168848e+00
  -2.128027e+00   1.223031e+01
  -1.174892e+01  -8.969619e+00
  -3.432964e+01  -5.331227e+01
  -2.734796e+01  -6.623951e+01
   2.702872e+01  -2.785870e+01
   8.392444e+01   2.278152e+01
   7.984273e+01   4.167843e+01
   1.125934e+01   2.945265e+01
  -5.359910e+01   1.416906e+01
  -5.403533e+01   6.389394e+00
  -6.798767e+00  -3.840392e+00
   2.321348e+01  -1.503639e+01
   8.457315e+00  -1.348822e+01
  -1.273643e+01   1.549354e-01
   4.136034e+00   6.748508e+00
   4.549327e+01   3.898564e+00
   5.502348e+01   1.445483e+01
   4.211683e+00   4.719632e+01
  -7.136931e+01   6.799581e+01
  -1.105813e+02   3.554982e+01
  -8.421330e+01  -3.975038e+01
  -1.608646e+01  -9.695566e+01
   4.568456e+01  -9.022631e+01
   6.764567e+01  -3.585183e+01
   4.904094e+01   1.207090e+01
   1.591107e+01   2.054647e+01
  -1.634031e+00   4.787361e+00
   5.914790e+00   2.030215e+00
   2.042726e+01   2.698042e+01
   1.488751e+01   5.387779e+01
  -1.652594e+01   4.336408e+01
  -4.837727e+01  -1.042777e+01
  -4.617372e+01  -6.471927e+01
  -2.240987e+00  -6.723782e+01
   4.988617e+01  -1.354371e+01
   6.155899e+01   4.633918e+01
   1.877938e+01   6.222866e+01
  -3.992494e+01   3.251908e+01
  -5.818655e+01  -7.585385e+00
  -2.281148e+01  -2.909560e+01
   1.953091e+01  -2.927625e+01
   1.770269e+01  -1.646517e+01
  -2.172510e+01  -6.145371e-01
  -4.194525e+01   3.534397e+00
  -8.445991e+00  -1.464673e+01
   4.762473e+01  -3.962947e+01
   6.840685e+01  -3.654949e+01
   3.686131e+01   5.555544e+00
  -9.303700e+00   4.907376e+01
  -2.988447e+01   4.743331e+01
  -1.988898e+01   3.046094e+00
   5.435195e-01  -3.374320e+01
   1.535032e+01  -2.471960e+01
   2.119599e+01   1.275173e+01
   1.512384e+01   3.318319e+01
  -2.542914e+00   1.904464e+01
  -2.040913e+01  -6.230762e+00
  -2.391265e+01  -1.290620e+01
  -1.256863e+01  -8.797727e-01
   1.928213e-01   7.310241e+00
   4.492851e+00  -3.786368e+00
   5.910738e+00  -2.349060e+01
   1.253400e+01  -2.671868e+01
   2.085440e+01  -3.011020e+00
   1.771032e+01   2.890098e+01
  -2.563370e+00   3.789015e+01
  -2.740431e+01   1.244208e+01
  -3.372286e+01  -2.457356e+01
  -8.889388e+00  -3.920891e+01
   3.244202e+01  -2.122190e+01
   5.303753e+01   8.785399e+00
   2.998528e+01   2.604528e+01
  -1.638654e+01   2.389148e+01
  -3.798200e+01   1.238042e+01
  -1.313656e+01   2.704619e+00
   2.393707e+01   1.380473e+00
   2.340887e+01   1.018990e+01
  -1.916703e+01   2.019137e+01
  -5.629611e+01   1.332992e+01
