
 $NMID
 id='ANONYMOUS ', fmtdat='(2E16.6)'
 volume=1.0
 tramp=1.0
 $END
   2.950997e+03  -4.935952e+01
   1.532733e+03   1.785839e+03
  -5.293176e+02   1.689298e+03
  -1.563616e+03   3.961635e+02
  -5.259556e+02  -4.802739e+02
   4.448196e+02  -5.893790e+02
   6.489078e+02   4.524725e+02
  -6.111657e+00   7.549030e+02
  -5.324432e+02   5.777183e+02
  -6.529718e+02  -1.291767e+02
  -1.605206e+02  -5.829492e+02
   1.151525e+02  -5.515341e+02
   3.776553e+02  -8.390829e+01
   2.635826e+02   4.968597e+02
  -1.791978e+02   5.271448e+02
  -3.601020e+02  -1.683147e+01
  -1.928660e+02  -3.982047e+02
   1.656938e+02  -4.206383e+02
   3.982761e+02  -2.040596e+01
   2.304455e+02   2.262093e+02
  -4.823942e+01   2.774263e+02
  -2.051943e+02   1.653084e+02
  -1.706420e+02  -2.051800e+01
   7.321939e+01  -5.312157e+01
   2.867825e+02  -1.082333e+00
   1.600213e+02   2.647992e+02
  -2.817200e+02   2.935891e+02
  -5.332568e+02  -2.171930e+01
  -2.824211e+02  -3.685353e+02
   2.424743e+02  -3.255109e+02
   4.504209e+02   4.955639e+00
   2.016896e+02   3.018656e+02
  -1.725207e+02   3.177060e+02
  -3.348693e+02   1.184617e+02
  -2.315621e+02  -1.440972e+02
  -2.625185e+01  -2.907653e+02
   1.454899e+02  -1.815444e+02
   1.144796e+02   1.296175e+02
  -1.010022e+02   2.930717e+02
  -2.817377e+02   2.488647e+01
  -1.625231e+02  -4.360583e+02
   2.086452e+02  -4.356631e+02
   3.920367e+02   1.989242e+01
   1.510794e+02   3.739473e+02
  -2.015108e+02   2.136866e+02
  -2.455129e+02  -2.113337e+02
   3.430543e+01  -3.446205e+02
   3.231540e+02  -8.910826e+01
   3.430863e+02   2.480255e+02
   8.720563e+01   3.510044e+02
  -2.227145e+02   2.039373e+02
  -3.601205e+02  -4.831682e+01
  -2.048100e+02  -2.342335e+02
   1.111570e+02  -2.138097e+02
   2.661298e+02  -7.147639e+00
   1.181498e+02   1.419494e+02
  -1.023674e+02   6.289088e+01
  -8.924427e+01  -1.113814e+02
   1.220221e+02  -1.111999e+02
   2.142367e+02   7.411434e+01
   5.409971e+01   1.965384e+02
  -1.502343e+02   1.243334e+02
  -1.803164e+02  -6.871378e+00
  -7.220666e+01  -6.323524e+01
   3.149208e+01  -9.558871e+01
   1.054030e+02  -1.528254e+02
   1.734609e+02  -1.223390e+02
   1.739322e+02   6.810451e+01
   5.535164e+01   2.515515e+02
  -8.050550e+01   2.220319e+02
  -9.522966e+01   4.520187e+01
  -1.924637e+01  -3.680225e+01
  -4.394958e+00   3.667560e+01
  -9.030553e+01   8.328091e+01
  -1.537468e+02  -1.654411e+01
  -9.618000e+01  -1.520253e+02
   4.111942e+01  -1.535155e+02
   1.374492e+02  -1.307086e+01
   1.166243e+02   1.343565e+02
  -8.711050e+00   1.671578e+02
  -1.574424e+02   6.776702e+01
  -2.052995e+02  -1.001328e+02
  -9.135399e+01  -2.050270e+02
   7.254149e+01  -1.723177e+02
   1.363197e+02  -5.473340e+01
   8.489708e+01   1.346589e+01
   4.979091e+01  -1.094545e+01
   1.241336e+02  -3.282461e+01
   2.055297e+02   2.896428e+01
   1.708008e+02   1.556010e+02
   6.274682e-01   2.420662e+02
  -1.861132e+02   2.254457e+02
  -2.691761e+02   1.124140e+02
  -2.009289e+02  -5.160163e+01
  -4.064934e+01  -1.696933e+02
   8.515923e+01  -1.487792e+02
   6.438576e+01  -1.456480e+01
  -6.324681e+01   7.067836e+01
  -1.282352e+02  -9.900513e-01
  -3.380509e+01  -1.205398e+02
   1.047351e+02  -1.060980e+02
   1.136653e+02   3.971916e+01
  -9.630118e+00   1.177475e+02
  -1.098594e+02   1.686961e+01
  -8.306282e+01  -1.424228e+02
   2.962224e+01  -1.852242e+02
   1.239868e+02  -8.577101e+01
   1.622829e+02   4.816819e+01
   1.406697e+02   1.263691e+02
   5.371823e+01   1.346359e+02
  -5.694009e+01   8.742562e+01
  -1.002178e+02   1.579997e+01
  -3.835206e+01  -1.926385e+01
   3.741297e+01   1.660154e+01
   1.916471e+01   6.962737e+01
  -6.749359e+01   6.125207e+01
  -1.023463e+02  -3.342565e+00
  -3.826116e+01  -4.330203e+01
   3.892337e+01  -1.664379e+01
   2.890241e+01   3.236922e+01
  -6.270374e+01   4.187149e+01
  -1.459216e+02  -1.770250e+00
  -1.390332e+02  -7.438806e+01
  -3.374529e+01  -1.379959e+02
   1.003581e+02  -1.449098e+02
   1.604249e+02  -7.090770e+01
   1.000749e+02   3.195412e+01
  -1.208190e+01   6.686617e+01
  -5.419048e+01   7.758854e+00
   1.483391e+01  -5.696716e+01
   1.080841e+02  -3.402480e+01
   1.189496e+02   5.764985e+01
   3.802805e+01   1.171466e+02
  -5.361675e+01   9.008142e+01
  -8.247637e+01   1.825144e+01
  -4.386374e+01  -2.411078e+01
   1.113066e+01  -6.802844e+00
   2.143029e+01   4.016373e+01
  -3.408309e+01   6.052464e+01
  -1.049606e+02   1.739936e+01
  -1.053647e+02  -6.747360e+01
  -1.221539e+01  -1.208630e+02
   9.289356e+01  -8.914409e+01
   1.097847e+02   3.047173e-01
   3.609113e+01   6.636342e+01
  -3.835980e+01   6.292429e+01
  -4.726294e+01   1.827747e+01
  -1.287684e+01  -1.409772e+01
   7.957785e+00  -1.420709e+01
  -5.072833e+00  -1.771337e+00
  -3.211595e+01  -5.568997e+00
  -4.016857e+01  -3.644185e+01
  -7.348857e+00  -7.780783e+01
   6.406423e+01  -8.054714e+01
   1.233703e+02  -1.570685e+01
   1.088736e+02   8.209430e+01
   1.927187e+01   1.322980e+02
  -6.550673e+01   9.349089e+01
  -7.764781e+01   1.178301e+01
  -3.714955e+01  -3.343965e+01
  -1.330161e+01  -2.117234e+01
  -2.899958e+01   3.824069e+00
  -4.206241e+01  -1.374955e+00
  -1.781566e+01  -2.839984e+01
   2.599641e+01  -4.266651e+01
   5.221958e+01  -2.287108e+01
   4.134161e+01   2.048921e+01
  -6.227374e+00   5.428621e+01
  -7.299771e+01   4.162964e+01
  -1.033076e+02  -2.716476e+01
  -5.450902e+01  -1.061569e+02
   5.661863e+01  -1.212792e+02
   1.447391e+02  -5.076281e+01
   1.387535e+02   4.831940e+01
   5.817420e+01   9.846340e+01
  -2.253598e+01   8.058689e+01
  -5.226295e+01   4.394896e+01
  -4.520296e+01   3.537066e+01
  -3.962653e+01   4.644495e+01
  -5.101995e+01   3.647021e+01
  -6.614167e+01  -1.525125e+01
  -5.906932e+01  -8.461071e+01
  -1.274107e+01  -1.210080e+02
   5.513998e+01  -9.121493e+01
   9.651459e+01  -1.081184e+01
   7.472250e+01   6.511050e+01
   1.008957e+01   8.615494e+01
  -3.673723e+01   5.178714e+01
  -3.198239e+01   3.788791e+00
  -3.389206e+00  -2.064793e+01
   2.974022e+00  -1.974563e+01
  -2.084360e+01  -1.387913e+01
  -3.982928e+01  -1.529267e+01
  -2.022498e+01  -1.960771e+01
   3.417049e+01  -1.606801e+01
   8.105221e+01   1.437073e+00
   7.454211e+01   2.818345e+01
   9.072059e+00   4.665557e+01
  -6.370440e+01   3.862399e+01
  -7.857562e+01   6.625202e+00
  -2.679294e+01  -2.102092e+01
   3.194945e+01  -1.726241e+01
   3.811927e+01   1.256515e+01
  -1.363169e+00   3.566030e+01
  -3.429213e+01   2.674631e+01
  -3.308254e+01  -5.174813e+00
  -1.992962e+01  -2.858210e+01
  -2.175573e+01  -2.327131e+01
  -3.398179e+01  -3.017674e+00
  -3.504776e+01  -2.142399e+00
  -1.523960e+01  -3.639152e+01
   2.156622e+01  -7.542375e+01
   6.305516e+01  -7.176674e+01
   8.506718e+01  -1.425985e+01
   6.193370e+01   5.068041e+01
   3.393833e-01   6.589356e+01
  -4.748151e+01   2.899147e+01
  -3.165894e+01  -1.181976e+01
   3.332776e+01  -1.117246e+01
   7.449535e+01   2.525755e+01
   4.008788e+01   5.873868e+01
  -4.420588e+01   5.918438e+01
  -1.024727e+02   2.601210e+01
  -8.657770e+01  -1.897320e+01
  -1.998499e+01  -4.618246e+01
   3.183285e+01  -3.747569e+01
   2.527927e+01  -5.052867e+00
  -2.104334e+01   1.143719e+01
  -4.691288e+01  -1.569645e+01
  -1.301702e+01  -6.485605e+01
   5.495003e+01  -7.950992e+01
   9.293969e+01  -2.710521e+01
   6.572173e+01   5.905707e+01
  -4.039102e-01   1.072865e+02
  -5.071339e+01   7.626156e+01
  -5.770359e+01  -4.677826e+00
  -3.265903e+01  -6.427021e+01
   2.782925e-01  -5.926139e+01
   2.430992e+01  -1.320754e+01
   2.979373e+01   1.593204e+01
   1.674103e+01   5.225710e+00
   3.235672e+00  -1.061006e+01
   9.428165e+00   8.441749e+00
   2.744533e+01   4.912025e+01
   2.137865e+01   6.075282e+01
  -2.502439e+01   2.355319e+01
  -7.367471e+01  -2.501034e+01
  -6.878527e+01  -4.127630e+01
  -7.821054e+00  -2.577288e+01
   4.861126e+01  -8.827325e+00
   4.718065e+01  -2.570081e+00
   4.341855e+00   3.365074e+00
  -2.145333e+01   1.180752e+01
  -6.663054e+00   1.108095e+01
   1.225221e+01   2.377951e-01
  -4.482627e+00  -6.009090e+00
  -4.204612e+01  -5.094517e+00
  -4.824486e+01  -1.549079e+01
   6.665033e-01  -4.305582e+01
   6.918504e+01  -5.739358e+01
   1.001840e+02  -2.465310e+01
   7.075019e+01   4.206869e+01
   6.780960e+00   8.814107e+01
  -4.655879e+01   7.644359e+01
  -6.162918e+01   2.608465e+01
  -4.180592e+01  -1.449347e+01
  -1.203659e+01  -1.918611e+01
   2.436940e+00  -4.050111e+00
  -4.581306e+00  -1.832328e+00
  -1.629876e+01  -2.449482e+01
  -9.831878e+00  -4.784586e+01
   1.765360e+01  -3.678456e+01
   4.297973e+01   1.327692e+01
   3.693218e+01   6.156319e+01
  -3.363292e+00   6.038505e+01
  -4.678401e+01   8.798043e+00
  -5.281785e+01  -4.546333e+01
  -1.252087e+01  -5.698421e+01
   3.800076e+01  -2.648053e+01
   5.090837e+01   1.002877e+01
   1.761413e+01   2.705935e+01
  -1.938008e+01   2.488017e+01
  -1.566950e+01   1.344954e+01
   2.043173e+01   1.231572e+00
   3.775241e+01  -1.192253e+00
   5.910554e+00   1.380855e+01
  -4.519692e+01   3.293047e+01
  -6.194957e+01   2.812779e+01
  -3.082889e+01  -8.173585e+00
   1.221888e+01  -4.339090e+01
   2.940389e+01  -3.940992e+01
   1.755274e+01   4.460829e-02
  -2.263874e+00   3.051449e+01
  -1.504750e+01   2.083317e+01
  -1.841269e+01  -1.273393e+01
  -1.213144e+01  -3.024626e+01
   2.722432e+00  -1.671408e+01
   1.772611e+01   5.972156e+00
   2.076907e+01   1.156763e+01
   1.173354e+01   5.192821e-01
   1.245057e+00  -6.403763e+00
  -3.221950e+00   3.791668e+00
  -6.156247e+00   2.125161e+01
  -1.299459e+01   2.307526e+01
  -1.887562e+01   8.379061e-01
  -1.359623e+01  -2.729901e+01
   4.994735e+00  -3.334809e+01
   2.521686e+01  -8.773055e+00
   2.832297e+01   2.419921e+01
   5.237361e+00   3.471083e+01
  -2.994389e+01   1.547933e+01
  -4.582783e+01  -1.239771e+01
  -2.371170e+01  -2.515158e+01
   1.737596e+01  -1.920171e+01
   3.498102e+01  -7.069532e+00
   1.145973e+01  -9.399747e-01
  -2.196820e+01  -3.500618e+00
  -2.005896e+01  -1.169297e+01
   1.908157e+01  -1.716089e+01
   5.142021e+01  -7.827425e+00
