
 $NMID
 id='ANONYMOUS ', fmtdat='(2E16.6)'
 volume=1.0
 tramp=1.0
 $END
  -4.550910e+03   7.770353e+01
  -2.528091e+03  -2.803922e+03
   6.759217e+02  -2.704017e+03
   2.107746e+03  -8.577101e+02
   9.036531e+02   7.215237e+02
  -8.125637e+02   6.351560e+02
  -9.007467e+02  -4.472909e+02
   1.504181e+02  -1.225384e+03
   9.991333e+02  -8.455690e+02
   9.901595e+02   1.590664e+02
   4.484415e+02   9.768825e+02
  -2.063763e+02   8.779170e+02
  -6.365877e+02   5.802665e+01
  -3.383657e+02  -7.855504e+02
   3.377892e+02  -7.088513e+02
   6.058892e+02   1.229113e+01
   3.012047e+02   6.842909e+02
  -3.620728e+02   6.217387e+02
  -6.635118e+02   1.324735e+02
  -4.165707e+02  -3.146226e+02
  -4.208891e+01  -4.447284e+02
   2.667927e+02  -3.373330e+02
   2.422817e+02  -6.757478e+01
  -7.926799e+01   7.383271e+01
  -4.384194e+02  -7.519747e+01
  -2.412844e+02  -4.127004e+02
   4.764476e+02  -4.662238e+02
   9.124248e+02   3.694145e+01
   4.843932e+02   5.715392e+02
  -3.759400e+02   5.580596e+02
  -7.435270e+02  -5.527722e+00
  -3.568219e+02  -5.053019e+02
   2.886554e+02  -5.487840e+02
   5.906682e+02  -2.070647e+02
   4.463288e+02   2.362920e+02
   7.794731e+01   5.128044e+02
  -2.259241e+02   3.027981e+02
  -1.997510e+02  -2.451667e+02
   1.780701e+02  -5.000839e+02
   4.964100e+02   4.498933e+00
   2.798817e+02   7.161819e+02
  -3.388059e+02   7.370500e+02
  -6.296230e+02  -1.262649e+01
  -2.499416e+02  -6.048234e+02
   3.362471e+02  -3.438990e+02
   4.136961e+02   3.576045e+02
  -6.621529e+01   6.005032e+02
  -5.736282e+02   1.484278e+02
  -6.174395e+02  -4.299402e+02
  -1.628221e+02  -6.195334e+02
   4.126936e+02  -3.542739e+02
   6.638665e+02   8.912669e+01
   3.840590e+02   4.064669e+02
  -1.806887e+02   3.805824e+02
  -4.694032e+02   5.207669e+01
  -2.316286e+02  -2.153101e+02
   1.514326e+02  -1.179956e+02
   1.544598e+02   1.656407e+02
  -1.895341e+02   2.023850e+02
  -3.705896e+02  -8.340752e+01
  -1.281502e+02  -3.249206e+02
   2.388460e+02  -2.665172e+02
   3.467826e+02  -5.285977e+01
   1.859576e+02   1.046260e+02
  -3.132876e+01   2.210751e+02
  -2.066355e+02   3.192180e+02
  -3.271327e+02   2.318910e+02
  -3.064461e+02  -1.149361e+02
  -1.029820e+02  -4.330231e+02
   1.135722e+02  -3.984401e+02
   1.415900e+02  -1.150510e+02
   3.763291e+01   3.169271e+01
   2.922183e+01  -6.593884e+01
   1.697969e+02  -1.312401e+02
   2.683287e+02   3.665318e+01
   1.687385e+02   2.641114e+02
  -6.170299e+01   2.682562e+02
  -2.330147e+02   2.373138e+01
  -2.112651e+02  -2.408530e+02
   4.397383e+00  -3.083643e+02
   2.766394e+02  -1.264652e+02
   3.715609e+02   1.730137e+02
   1.837089e+02   3.679604e+02
  -1.109638e+02   3.142316e+02
  -2.361916e+02   1.147069e+02
  -1.492221e+02  -5.038672e+00
  -9.345263e+01   3.552471e+01
  -2.321355e+02   6.928345e+01
  -4.047758e+02  -5.213754e+01
  -3.376315e+02  -2.813752e+02
  -5.757328e+00  -4.419592e+02
   3.523987e+02  -4.185533e+02
   4.869534e+02  -2.151647e+02
   3.456762e+02   8.160524e+01
   6.157781e+01   2.951132e+02
  -1.348093e+02   2.608626e+02
  -8.952872e+01   2.374168e+01
   1.158750e+02  -1.265765e+02
   2.146933e+02  -1.989447e+00
   6.463261e+01   2.113074e+02
  -1.661473e+02   1.906100e+02
  -1.914788e+02  -6.079723e+01
   1.343687e+01  -2.063196e+02
   2.008544e+02  -3.891225e+01
   1.669165e+02   2.530974e+02
  -3.277144e+01   3.533345e+02
  -2.271070e+02   1.888680e+02
  -3.172058e+02  -6.430541e+01
  -2.736721e+02  -2.310331e+02
  -1.004251e+02  -2.552039e+02
   1.070086e+02  -1.606694e+02
   1.782199e+02  -2.468125e+01
   6.261639e+01   3.265145e+01
  -7.066097e+01  -3.586759e+01
  -3.351705e+01  -1.263685e+02
   1.227932e+02  -1.045270e+02
   1.822804e+02   9.762671e+00
   6.293187e+01   7.391381e+01
  -7.772190e+01   1.936458e+01
  -5.547946e+01  -7.070353e+01
   1.210495e+02  -8.531798e+01
   2.797164e+02  -9.741567e-01
   2.641494e+02   1.363067e+02
   6.394649e+01   2.544369e+02
  -1.818012e+02   2.667972e+02
  -2.858206e+02   1.332191e+02
  -1.741562e+02  -5.109277e+01
   2.340627e+01  -1.144808e+02
   9.243958e+01  -1.002054e+01
  -3.339254e+01   1.059780e+02
  -1.999309e+02   6.465096e+01
  -2.189392e+02  -1.024934e+02
  -7.301709e+01  -2.131860e+02
   9.412562e+01  -1.646237e+02
   1.471746e+02  -3.342876e+01
   7.511504e+01   4.135428e+01
  -2.557413e+01   6.460476e+00
  -3.993803e+01  -7.948437e+01
   6.649226e+01  -1.137697e+02
   1.962750e+02  -3.381366e+01
   1.950149e+02   1.204742e+02
   2.493431e+01   2.204007e+02
  -1.653990e+02   1.674175e+02
  -1.974809e+02   5.071001e+00
  -6.646278e+01  -1.188918e+02
   6.779825e+01  -1.144672e+02
   8.453035e+01  -2.993763e+01
   2.058762e+01   2.836639e+01
  -1.920509e+01   2.135373e+01
   8.780978e+00  -5.484633e+00
   6.501142e+01   8.659799e+00
   8.317449e+01   7.732442e+01
   1.686152e+01   1.531765e+02
  -1.201828e+02   1.517474e+02
  -2.320690e+02   2.917644e+01
  -2.061187e+02  -1.469794e+02
  -4.513106e+01  -2.383835e+02
   1.114487e+02  -1.724354e+02
   1.389903e+02  -2.898796e+01
   6.945944e+01   5.540548e+01
   2.572196e+01   3.538065e+01
   5.232411e+01  -1.333714e+01
   7.900887e+01  -8.486370e+00
   4.155597e+01   4.692543e+01
  -4.012722e+01   8.463453e+01
  -9.763449e+01   5.405624e+01
  -8.298286e+01  -3.355241e+01
   1.105133e+01  -1.084673e+02
   1.378307e+02  -8.774080e+01
   1.979724e+02   4.684312e+01
   1.059426e+02   1.992956e+02
  -1.028222e+02   2.312392e+02
  -2.685758e+02   1.011304e+02
  -2.606031e+02  -8.327206e+01
  -1.105839e+02  -1.778833e+02
   3.826137e+01  -1.494517e+02
   9.375575e+01  -8.493605e+01
   7.822553e+01  -7.063268e+01
   6.682922e+01  -9.235133e+01
   9.212701e+01  -7.455583e+01
   1.270067e+02   2.210940e+01
   1.180282e+02   1.532722e+02
   3.263865e+01   2.240150e+02
  -9.629880e+01   1.714521e+02
  -1.762482e+02   2.228248e+01
  -1.391647e+02  -1.194109e+02
  -2.093924e+01  -1.594322e+02
   6.715513e+01  -9.490390e+01
   6.100206e+01  -3.781552e+00
   7.176995e+00   4.122655e+01
  -6.804788e+00   3.539025e+01
   3.917181e+01   2.037807e+01
   7.930372e+01   2.434310e+01
   4.312898e+01   3.929125e+01
  -6.385360e+01   3.841964e+01
  -1.567285e+02   5.869246e+00
  -1.438195e+02  -4.830137e+01
  -1.878432e+01  -8.787247e+01
   1.169654e+02  -7.625317e+01
   1.438520e+02  -1.679733e+01
   4.900264e+01   3.816054e+01
  -5.932907e+01   3.567338e+01
  -7.440376e+01  -1.957480e+01
  -5.635951e+00  -6.754447e+01
   5.675168e+01  -5.685942e+01
   6.221229e+01   1.754599e+00
   4.271669e+01   4.828220e+01
   4.389510e+01   4.034634e+01
   6.274264e+01   1.830448e+00
   6.673220e+01   1.499213e-01
   3.526666e+01   6.592200e+01
  -3.117048e+01   1.437519e+02
  -1.121270e+02   1.413797e+02
  -1.601187e+02   3.551833e+01
  -1.222911e+02  -8.851568e+01
  -8.679128e+00  -1.239892e+02
   8.389970e+01  -6.050604e+01
   5.974271e+01   1.510434e+01
  -5.838032e+01   1.967570e+01
  -1.373211e+02  -4.325464e+01
  -7.709797e+01  -1.061891e+02
   7.900204e+01  -1.117339e+02
   1.902677e+02  -5.286788e+01
   1.633165e+02   3.229577e+01
   3.787230e+01   8.658075e+01
  -6.160238e+01   7.122526e+01
  -5.064304e+01   7.538598e+00
   3.794888e+01  -2.797099e+01
   9.123970e+01   2.145503e+01
   3.394615e+01   1.182819e+02
  -9.101088e+01   1.537876e+02
  -1.676844e+02   6.167882e+01
  -1.268614e+02  -1.004340e+02
  -1.048041e+01  -1.970073e+02
   8.502101e+01  -1.450308e+02
   1.048651e+02   4.436141e+00
   6.281275e+01   1.168392e+02
   1.267150e+00   1.079311e+02
  -4.445361e+01   2.255377e+01
  -5.317387e+01  -3.039512e+01
  -2.756879e+01  -9.006721e+00
  -3.824192e+00   2.128224e+01
  -1.981709e+01  -1.324534e+01
  -5.666392e+01  -8.728349e+01
  -4.476760e+01  -1.102256e+02
   4.515408e+01  -4.679968e+01
   1.391335e+02   3.847753e+01
   1.314700e+02   7.040570e+01
   1.761651e+01   4.884599e+01
  -8.889118e+01   2.142209e+01
  -8.793878e+01   7.988299e+00
  -9.001235e+00  -6.138398e+00
   3.946896e+01  -2.134164e+01
   1.248760e+01  -1.768197e+01
  -2.366570e+01   1.508874e+00
   5.255044e+00   8.534069e+00
   7.520086e+01   2.760217e+00
   9.159959e+01   2.283029e+01
   7.090141e+00   8.016618e+01
  -1.192604e+02   1.149257e+02
  -1.840631e+02   5.885967e+01
  -1.399556e+02  -6.767922e+01
  -2.615689e+01  -1.628011e+02
   7.658171e+01  -1.502771e+02
   1.124794e+02  -5.866317e+01
   8.085629e+01   2.135307e+01
   2.567804e+01   3.488861e+01
  -3.012114e+00   7.892384e+00
   9.968230e+00   3.107780e+00
   3.402158e+01   4.490242e+01
   2.389795e+01   8.963264e+01
  -2.925938e+01   7.165461e+01
  -8.225134e+01  -1.883466e+01
  -7.751287e+01  -1.089430e+02
  -3.208270e+00  -1.123721e+02
   8.390431e+01  -2.319393e+01
   1.033412e+02   7.579006e+01
   3.163542e+01   1.027394e+02
  -6.630785e+01   5.448843e+01
  -9.683370e+01  -1.172779e+01
  -3.866802e+01  -4.872433e+01
   3.183914e+01  -5.005897e+01
   2.958663e+01  -2.846050e+01
  -3.504616e+01  -8.103659e-01
  -6.900399e+01   6.066606e+00
  -1.445991e+01  -2.498255e+01
   7.845192e+01  -6.649423e+01
   1.139275e+02  -6.028806e+01
   6.294184e+01   1.053198e+01
  -1.488727e+01   8.279777e+01
  -5.128405e+01   7.936624e+01
  -3.609363e+01   4.829339e+00
  -1.988268e+00  -5.667549e+01
   2.493585e+01  -4.257698e+01
   3.617936e+01   1.872354e+01
   2.702507e+01   5.307682e+01
  -2.211258e+00   3.111988e+01
  -3.254776e+01  -8.578033e+00
  -3.907398e+01  -1.934990e+01
  -2.064042e+01   4.804817e-02
  -1.224207e-01   1.322927e+01
   6.598231e+00  -4.448808e+00
   7.256946e+00  -3.647002e+01
   1.712591e+01  -4.304841e+01
   3.140498e+01  -6.534887e+00
   2.797001e+01   4.414558e+01
  -3.441409e+00   5.887953e+01
  -4.382191e+01   1.920575e+01
  -5.474498e+01  -3.936671e+01
  -1.375866e+01  -6.249778e+01
   5.412123e+01  -3.322325e+01
   8.754868e+01   1.581830e+01
   4.807528e+01   4.372314e+01
  -2.933544e+01   3.901538e+01
  -6.457877e+01   1.909642e+01
  -2.275222e+01   3.708823e+00
   3.937067e+01   3.167747e+00
   3.845200e+01   1.758842e+01
  -3.151292e+01   3.225199e+01
  -9.203574e+01   1.940687e+01
