
 $NMID
 id='ANONYMOUS ', fmtdat='(2E16.6)'
 volume=1.0
 tramp=1.0
 $END
   3.754188e+03  -2.972384e+02
   2.376775e+03   2.251076e+03
  -5.389578e+02   2.380405e+03
  -1.528313e+03   9.743388e+02
  -1.073928e+03  -3.877760e+02
   4.588953e+02  -4.459384e+02
   6.597421e+02   2.747971e+02
   6.182767e+01   8.374970e+02
  -6.254086e+02   6.099079e+02
  -7.020192e+02  -3.479489e+01
  -4.103653e+02  -7.363976e+02
   3.367219e+01  -7.115559e+02
   4.984943e+02  -2.115364e+02
   2.621268e+02   5.399641e+02
  -1.731066e+02   6.307286e+02
  -4.856764e+02   7.856670e+01
  -2.691946e+02  -5.568181e+02
   2.266662e+02  -6.522059e+02
   5.017442e+02  -1.745637e+02
   4.174833e+02   3.127997e+02
   9.346563e+01   4.182386e+02
  -1.495869e+02   2.174998e+02
  -9.377698e+01   7.527856e+01
   1.396171e+02  -3.398114e+01
   3.260594e+02   1.955065e+02
   1.301260e+02   4.143005e+02
  -4.447964e+02   2.969450e+02
  -7.277996e+02  -1.344845e+02
  -3.214649e+02  -4.487979e+02
   3.720401e+02  -3.485600e+02
   6.479551e+02   7.767839e+01
   2.793351e+02   4.355191e+02
  -2.917649e+02   4.411727e+02
  -5.289706e+02   1.582835e+02
  -3.745284e+02  -2.050753e+02
  -6.883706e+01  -4.030389e+02
   1.431718e+02  -2.244043e+02
   1.004612e+02   1.651644e+02
  -1.490428e+02   3.143252e+02
  -3.584611e+02  -7.025133e+01
  -1.614588e+02  -6.007110e+02
   3.083393e+02  -6.212876e+02
   5.289612e+02   8.315528e-01
   2.193339e+02   4.783389e+02
  -2.503496e+02   2.651577e+02
  -3.216180e+02  -3.065528e+02
   8.676686e+01  -5.021865e+02
   5.286528e+02  -1.217567e+02
   5.647554e+02   4.023199e+02
   1.611236e+02   5.781220e+02
  -3.644652e+02   3.343523e+02
  -5.931278e+02  -7.603626e+01
  -3.629469e+02  -3.498628e+02
   1.202985e+02  -3.230703e+02
   3.876591e+02  -6.418851e+01
   2.301299e+02   1.416249e+02
  -7.395235e+01   8.020110e+01
  -1.090815e+02  -1.153930e+02
   1.409463e+02  -1.421474e+02
   3.059563e+02   6.232436e+01
   1.416031e+02   2.605121e+02
  -1.840584e+02   2.613580e+02
  -3.497729e+02   1.070163e+02
  -2.435230e+02  -8.891491e+01
   1.726295e+01  -2.734734e+02
   2.632135e+02  -3.546084e+02
   3.645009e+02  -1.948644e+02
   2.659863e+02   1.567515e+02
   5.404026e+01   4.050646e+02
  -8.252978e+01   3.443579e+02
  -5.988778e+01   1.322102e+02
  -9.854649e+00   5.471488e+01
  -8.564609e+01   1.247481e+02
  -2.346338e+02   1.101716e+02
  -2.730305e+02  -8.574657e+01
  -1.300735e+02  -2.689607e+02
   8.187673e+01  -2.274488e+02
   2.028154e+02   1.388993e+01
   1.645155e+02   2.404214e+02
  -2.434073e+01   2.781250e+02
  -2.552637e+02   1.009143e+02
  -3.421933e+02  -1.699404e+02
  -1.829955e+02  -3.375641e+02
   8.586945e+01  -2.952501e+02
   2.119228e+02  -1.284458e+02
   1.497111e+02  -2.578582e+01
   1.152725e+02  -4.456029e+01
   2.426581e+02  -5.790012e+01
   4.065847e+02   7.473347e+01
   3.346446e+02   2.955200e+02
  -1.281806e+01   4.432645e+02
  -3.783641e+02   4.001399e+02
  -4.897399e+02   1.799687e+02
  -3.135685e+02  -1.012417e+02
  -3.411740e+01  -2.758156e+02
   1.189927e+02  -2.256774e+02
   5.098694e+01  -2.728074e+01
  -1.177857e+02   8.138151e+01
  -1.725900e+02  -2.481445e+01
  -3.260834e+01  -1.831358e+02
   1.481599e+02  -1.504544e+02
   1.552521e+02   5.839993e+01
  -2.082413e+01   1.705904e+02
  -1.824030e+02   2.087438e+01
  -1.576537e+02  -2.460165e+02
   3.142148e+01  -3.504437e+02
   2.450321e+02  -1.980365e+02
   3.441593e+02   7.086722e+01
   2.726251e+02   2.596109e+02
   6.754962e+01   2.732046e+02
  -1.303958e+02   1.471700e+02
  -1.677682e+02   5.139603e+00
  -4.156716e+01  -3.026476e+01
   6.941809e+01   4.942699e+01
   1.671528e+01   1.235658e+02
  -1.280220e+02   8.474543e+01
  -1.682123e+02  -2.217462e+01
  -4.454757e+01  -6.668864e+01
   8.637152e+01  -7.074347e-01
   5.142381e+01   8.633103e+01
  -1.354319e+02   8.764709e+01
  -2.930173e+02  -1.400236e+01
  -2.599080e+02  -1.571580e+02
  -4.134130e+01  -2.574941e+02
   1.995682e+02  -2.427128e+02
   2.780769e+02  -1.054808e+02
   1.513558e+02   5.400668e+01
  -3.369138e+01   9.535464e+01
  -8.359900e+01  -2.428328e+00
   4.242479e+01  -9.716526e+01
   1.947281e+02  -4.827729e+01
   2.038000e+02   1.073459e+02
   5.981294e+01   2.031205e+02
  -9.859808e+01   1.469741e+02
  -1.399967e+02   1.768525e+01
  -5.790232e+01  -4.509166e+01
   4.018072e+01   5.512312e+00
   3.710938e+01   9.547389e+01
  -8.381850e+01   1.156748e+02
  -2.071968e+02   2.061169e+01
  -1.879616e+02  -1.313983e+02
  -1.222225e+01  -2.168473e+02
   1.677014e+02  -1.575744e+02
   1.899259e+02  -2.779005e+00
   6.000674e+01   1.127485e+02
  -7.016273e+01   1.062254e+02
  -8.413214e+01   2.434660e+01
  -1.382534e+01  -2.999911e+01
   3.032807e+01  -1.551715e+01
  -5.966232e+00   1.676319e+01
  -7.696388e+01  -3.339179e+00
  -9.754174e+01  -8.816525e+01
  -1.422572e+01  -1.671387e+02
   1.354323e+02  -1.532057e+02
   2.373479e+02  -1.888099e+01
   1.959099e+02   1.541789e+02
   3.718747e+01   2.342387e+02
  -1.063227e+02   1.654796e+02
  -1.305649e+02   2.671609e+01
  -6.879125e+01  -5.363570e+01
  -2.966345e+01  -3.372067e+01
  -5.398950e+01   1.467395e+01
  -8.244775e+01   9.610622e+00
  -4.785986e+01  -5.023480e+01
   4.066733e+01  -9.387118e+01
   1.087732e+02  -6.042622e+01
   9.328116e+01   3.726377e+01
  -1.466429e+01   1.172991e+02
  -1.502086e+02   8.675352e+01
  -2.019986e+02  -5.841804e+01
  -9.348606e+01  -2.078632e+02
   1.162796e+02  -2.254623e+02
   2.694391e+02  -8.703855e+01
   2.518077e+02   9.194136e+01
   1.024033e+02   1.759157e+02
  -4.295535e+01   1.425204e+02
  -9.371327e+01   7.955882e+01
  -7.503954e+01   6.696015e+01
  -6.255501e+01   9.181691e+01
  -9.187192e+01   7.614450e+01
  -1.294264e+02  -2.078560e+01
  -1.168041e+02  -1.549078e+02
  -2.559194e+01  -2.258933e+02
   1.015328e+02  -1.686051e+02
   1.732635e+02  -1.467300e+01
   1.306299e+02   1.255151e+02
   1.371868e+01   1.587625e+02
  -7.083860e+01   8.710006e+01
  -6.067557e+01  -6.241607e+00
  -5.337714e-01  -4.672775e+01
   1.792497e+01  -3.287692e+01
  -3.218474e+01  -1.300803e+01
  -8.219271e+01  -2.002541e+01
  -4.852004e+01  -4.084398e+01
   6.654520e+01  -4.011259e+01
   1.643747e+02  -3.052484e-01
   1.436896e+02   5.883249e+01
   8.247589e+00   9.353678e+01
  -1.268059e+02   7.165682e+01
  -1.445951e+02   6.927998e+00
  -4.517351e+01  -4.592491e+01
   6.146005e+01  -3.855010e+01
   7.722453e+01   2.058219e+01
   1.182247e+01   7.114574e+01
  -5.255508e+01   6.055833e+01
  -6.515371e+01  -7.223674e-01
  -4.827875e+01  -5.032947e+01
  -4.346588e+01  -4.245793e+01
  -5.789776e+01  -2.240235e+00
  -6.521551e+01  -6.200838e-01
  -3.811747e+01  -6.891835e+01
   3.147474e+01  -1.470255e+02
   1.204682e+02  -1.411116e+02
   1.700235e+02  -3.137017e+01
   1.249947e+02   9.338905e+01
   4.645901e+00   1.290858e+02
  -8.794812e+01   6.379220e+01
  -6.017908e+01  -1.360093e+01
   5.880745e+01  -1.914922e+01
   1.351893e+02   4.491513e+01
   7.216655e+01   1.083039e+02
  -8.331725e+01   1.105535e+02
  -1.908860e+02   4.720847e+01
  -1.595182e+02  -3.798195e+01
  -3.302080e+01  -8.689209e+01
   6.378181e+01  -6.736593e+01
   5.012871e+01  -4.545749e+00
  -3.804756e+01   2.914009e+01
  -9.013343e+01  -1.948124e+01
  -3.482144e+01  -1.152928e+02
   8.666792e+01  -1.530746e+02
   1.632167e+02  -6.445203e+01
   1.261747e+02   9.787044e+01
   1.189000e+01   1.960195e+02
  -8.485791e+01   1.420814e+02
  -1.045561e+02  -9.528868e+00
  -5.744898e+01  -1.188353e+02
   7.399202e+00  -1.037670e+02
   4.823795e+01  -1.631629e+01
   4.846594e+01   3.278463e+01
   2.154799e+01   8.626876e+00
   4.638335e+00  -1.946170e+01
   2.456224e+01   1.679876e+01
   5.588012e+01   8.822458e+01
   3.709542e+01   1.070757e+02
  -5.043170e+01   4.441086e+01
  -1.356529e+02  -3.808605e+01
  -1.250186e+02  -7.029955e+01
  -1.686432e+01  -5.097650e+01
   8.479523e+01  -2.283307e+01
   8.713288e+01  -5.333835e+00
   1.306333e+01   9.806384e+00
  -3.789309e+01   2.156431e+01
  -1.794075e+01   1.529663e+01
   1.815804e+01  -2.905332e+00
  -2.875369e+00  -7.735983e+00
  -6.818621e+01  -2.298969e+00
  -9.001717e+01  -2.308423e+01
  -1.413827e+01  -7.898440e+01
   1.120553e+02  -1.129585e+02
   1.844118e+02  -5.956196e+01
   1.442416e+02   6.374690e+01
   2.699653e+01   1.587999e+02
  -7.979882e+01   1.494013e+02
  -1.142188e+02   5.989692e+01
  -7.921556e+01  -2.114165e+01
  -2.458575e+01  -3.680813e+01
   1.212200e+00  -1.071175e+01
  -1.128678e+01  -5.557639e+00
  -3.108686e+01  -4.601170e+01
  -2.021581e+01  -8.929743e+01
   2.889565e+01  -7.112140e+01
   7.922008e+01   1.633324e+01
   7.802683e+01   1.036392e+02
   9.519823e+00   1.096629e+02
  -7.701816e+01   2.690886e+01
  -1.020911e+02  -6.934561e+01
  -3.456660e+01  -1.004673e+02
   6.479540e+01  -5.704418e+01
   9.904776e+01   1.071158e+01
   4.123892e+01   5.317326e+01
  -3.341956e+01   5.517974e+01
  -3.502745e+01   2.832387e+01
   3.000532e+01  -2.326100e+00
   6.813921e+01  -7.216958e+00
   1.618143e+01   2.592709e+01
  -7.827571e+01   6.481573e+01
  -1.168197e+02   5.524141e+01
  -6.622872e+01  -1.402453e+01
   1.487447e+01  -8.242075e+01
   5.441626e+01  -7.936754e+01
   3.920389e+01  -8.867925e+00
   3.168051e+00   5.234980e+01
  -2.453443e+01   4.334782e+01
  -3.501938e+01  -1.512961e+01
  -2.548060e+01  -5.249950e+01
   2.905618e+00  -3.448344e+01
   3.251947e+01   7.509234e+00
   3.942959e+01   2.291070e+01
   2.006855e+01   2.958337e+00
  -2.042978e+00  -1.575768e+01
  -7.088148e+00  -1.322688e+00
  -3.496363e+00   3.412520e+01
  -1.127124e+01   4.666377e+01
  -2.969247e+01   1.241941e+01
  -3.315734e+01  -4.121462e+01
  -2.945384e+00  -5.994697e+01
   4.242244e+01  -2.224506e+01
   5.795887e+01   3.647418e+01
   1.610205e+01   6.146203e+01
  -5.488444e+01   3.471565e+01
  -8.943302e+01  -1.397553e+01
  -4.918959e+01  -4.416668e+01
   2.896263e+01  -4.314540e+01
   6.547127e+01  -2.372407e+01
   2.696246e+01  -4.421989e+00
  -3.336272e+01   1.275049e+00
  -3.652984e+01  -1.128254e+01
   2.698684e+01  -2.860340e+01
   8.567134e+01  -1.972115e+01
