
 $NMID
 id='ANONYMOUS ', fmtdat='(2E16.6)'
 volume=1.0
 tramp=1.0
 $END
  -3.167606e+03  -1.915927e+01
  -2.082819e+03  -1.642436e+03
   7.084031e+00  -2.027367e+03
   1.313695e+03  -1.157627e+03
   9.998739e+02  -3.290797e+02
   3.441339e+01   1.946589e+02
  -3.437489e+02  -1.907048e+02
  -7.742007e+01  -6.964589e+02
   4.404762e+02  -5.569248e+02
   6.705779e+02  -7.166772e+01
   4.289298e+02   5.881559e+02
   2.267063e+01   5.175646e+02
  -3.286687e+02   1.799420e+02
  -2.363367e+02  -4.210872e+02
   1.764943e+02  -5.137308e+02
   4.547612e+02  -3.593560e+01
   3.485076e+02   4.019343e+02
  -1.251280e+02   5.611506e+02
  -4.391511e+02   2.604055e+02
  -4.450614e+02  -1.365702e+02
  -1.097958e+02  -3.588881e+02
   1.344438e+02  -2.855956e+02
   1.019707e+02  -9.799711e+01
  -1.773393e+02  -1.120441e+02
  -3.026482e+02  -2.552118e+02
  -3.295703e+01  -3.705988e+02
   4.453066e+02  -2.161735e+02
   6.205045e+02   1.381131e+02
   2.670292e+02   3.491184e+02
  -3.165973e+02   2.426990e+02
  -5.223763e+02  -9.396295e+01
  -2.076194e+02  -3.802789e+02
   2.429480e+02  -3.667992e+02
   4.493394e+02  -1.652012e+02
   3.249040e+02   1.507499e+02
   9.764102e+01   3.370243e+02
  -4.856292e+01   2.026057e+02
   2.188342e+01  -1.042932e+02
   1.879994e+02  -1.860451e+02
   2.506656e+02   1.404673e+02
   5.591418e+01   5.515845e+02
  -2.558078e+02   5.001750e+02
  -3.816908e+02   3.883187e+00
  -1.588411e+02  -3.729153e+02
   1.626180e+02  -1.946094e+02
   2.299452e+02   2.834441e+02
  -7.891128e+01   4.456971e+02
  -4.445925e+02   1.001806e+02
  -5.085360e+02  -3.733424e+02
  -1.673853e+02  -5.144629e+02
   3.042280e+02  -2.828313e+02
   5.227480e+02   5.708327e+01
   3.386461e+02   2.584940e+02
  -6.599502e+01   2.409197e+02
  -3.044445e+02   9.352183e+01
  -2.147614e+02  -3.563964e+01
   1.094631e+01  -3.787136e+01
   6.311055e+01   4.580090e+01
  -1.062676e+02   7.072466e+01
  -2.467666e+02  -3.771512e+01
  -1.368150e+02  -1.919869e+02
   1.484573e+02  -2.453319e+02
   3.361872e+02  -1.350350e+02
   2.544131e+02   8.880158e+01
  -2.249811e+01   3.040259e+02
  -2.803171e+02   3.573245e+02
  -3.539403e+02   1.683239e+02
  -2.389293e+02  -1.537967e+02
  -6.665937e+01  -3.628998e+02
   2.598718e+01  -3.262745e+02
   2.817626e+01  -1.678880e+02
   4.313698e+01  -9.255542e+01
   1.358380e+02  -1.110525e+02
   2.372685e+02  -6.697669e+01
   2.269595e+02   1.017964e+02
   8.910625e+01   2.409248e+02
  -8.424653e+01   1.854483e+02
  -1.751605e+02  -3.911461e+01
  -1.261189e+02  -2.339691e+02
   4.763416e+01  -2.382109e+02
   2.443965e+02  -6.436596e+01
   3.075492e+02   1.629696e+02
   1.716516e+02   2.905208e+02
  -5.101461e+01   2.660598e+02
  -1.659651e+02   1.546694e+02
  -1.447859e+02   7.920494e+01
  -1.428074e+02   7.021688e+01
  -2.773158e+02   4.083387e+01
  -4.111613e+02  -9.031209e+01
  -3.209275e+02  -2.923132e+02
   2.070168e+01  -4.313666e+02
   3.720380e+02  -3.937450e+02
   4.671265e+02  -1.805879e+02
   2.817461e+02   9.318630e+01
   2.116149e+01   2.489391e+02
  -9.338160e+01   1.972324e+02
  -1.018560e+01   3.402000e+01
   1.210816e+02  -4.800748e+01
   1.383037e+02   3.631988e+01
   1.234204e+01   1.483299e+02
  -1.230023e+02   1.125973e+02
  -1.160288e+02  -5.301604e+01
   3.065279e+01  -1.358141e+02
   1.668504e+02  -2.261871e+00
   1.516511e+02   2.335121e+02
  -2.459600e+01   3.373885e+02
  -2.413695e+02   2.052006e+02
  -3.520264e+02  -5.839140e+01
  -2.772665e+02  -2.567843e+02
  -6.473253e+01  -2.752210e+02
   1.251393e+02  -1.463918e+02
   1.524926e+02  -1.102870e+01
   3.851862e+01   1.444810e+01
  -5.083551e+01  -5.901614e+01
   3.234193e-01  -1.130873e+02
   1.201603e+02  -6.791724e+01
   1.453797e+02   2.372426e+01
   3.341105e+01   5.069624e+01
  -7.682195e+01  -1.624371e+01
  -3.314421e+01  -9.291016e+01
   1.493449e+02  -8.446696e+01
   2.973344e+02   2.341066e+01
   2.538268e+02   1.675950e+02
   3.035864e+01   2.593386e+02
  -2.011288e+02   2.339940e+02
  -2.638776e+02   9.980537e+01
  -1.376533e+02  -4.351771e+01
   2.705740e+01  -7.826964e+01
   6.165924e+01   4.032711e+00
  -5.350102e+01   7.979983e+01
  -1.818623e+02   3.316030e+01
  -1.838533e+02  -1.019472e+02
  -5.553013e+01  -1.840615e+02
   8.412796e+01  -1.331387e+02
   1.197718e+02  -1.853315e+01
   4.548199e+01   3.222760e+01
  -3.929286e+01  -2.347072e+01
  -2.517006e+01  -1.091389e+02
   9.594412e+01  -1.166106e+02
   2.083654e+02  -1.219377e+01
   1.802498e+02   1.332378e+02
   1.142996e+01   2.053603e+02
  -1.531430e+02   1.468407e+02
  -1.708281e+02   9.622728e+00
  -5.334751e+01  -9.266232e+01
   6.044430e+01  -9.188457e+01
   6.814111e+01  -2.357736e+01
   1.281556e+00   2.390737e+01
  -3.484448e+01   8.288149e+00
   9.664295e+00  -2.408806e+01
   8.617478e+01  -6.492402e-03
   1.012242e+02   9.065148e+01
   9.767287e+00   1.724679e+02
  -1.414534e+02   1.502699e+02
  -2.367725e+02   8.983596e+00
  -1.912710e+02  -1.574575e+02
  -3.670975e+01  -2.263470e+02
   1.009127e+02  -1.582213e+02
   1.283350e+02  -3.243591e+01
   7.313972e+01   4.036809e+01
   3.568035e+01   2.759998e+01
   5.761177e+01  -1.273691e+01
   8.847456e+01  -3.792994e+00
   5.665241e+01   5.888291e+01
  -3.971590e+01   1.062132e+02
  -1.213306e+02   6.736228e+01
  -1.058848e+02  -4.378839e+01
   1.659120e+01  -1.291752e+02
   1.625673e+02  -8.996836e+01
   2.056405e+02   6.509001e+01
   8.623484e+01   2.119241e+02
  -1.228195e+02   2.203242e+02
  -2.648613e+02   8.103307e+01
  -2.413829e+02  -8.955203e+01
  -9.720286e+01  -1.653569e+02
   3.871371e+01  -1.341325e+02
   8.523866e+01  -7.838207e+01
   6.768022e+01  -7.157104e+01
   5.771705e+01  -9.681608e+01
   8.952839e+01  -8.011863e+01
   1.307007e+02   1.870641e+01
   1.196594e+02   1.532923e+02
   2.892865e+01   2.228515e+02
  -9.736183e+01   1.648655e+02
  -1.688952e+02   1.251358e+01
  -1.269557e+02  -1.244068e+02
  -9.984674e+00  -1.547872e+02
   7.558255e+01  -8.102978e+01
   6.386595e+01   1.420785e+01
  -2.388717e+00   5.430040e+01
  -2.578322e+01   3.710653e+01
   2.719503e+01   1.336838e+01
   8.330489e+01   1.946777e+01
   4.830049e+01   4.111666e+01
  -7.450699e+01   3.985861e+01
  -1.737166e+02  -2.227351e+00
  -1.436774e+02  -6.245110e+01
   5.884956e-01  -9.631556e+01
   1.330353e+02  -7.333954e+01
   1.430848e+02  -7.002934e+00
   4.249246e+01   4.870932e+01
  -5.984217e+01   4.372031e+01
  -7.631005e+01  -1.739837e+01
  -1.813715e+01  -7.354577e+01
   4.505698e+01  -6.614065e+01
   6.711680e+01  -2.613203e+00
   5.767174e+01   5.003982e+01
   4.916708e+01   4.192223e+01
   5.578198e+01   6.990923e-01
   6.467299e+01   1.421206e+00
   4.455138e+01   7.324170e+01
  -2.527134e+01   1.530810e+02
  -1.241712e+02   1.461272e+02
  -1.807470e+02   3.478499e+01
  -1.321671e+02  -9.331835e+01
  -3.109554e+00  -1.327121e+02
   9.276927e+01  -7.026809e+01
   6.299599e+01   1.017807e+01
  -5.747813e+01   2.174096e+01
  -1.331604e+02  -3.956341e+01
  -7.118395e+01  -1.045348e+02
   8.103565e+01  -1.084604e+02
   1.855833e+02  -4.449980e+01
   1.548819e+02   3.971049e+01
   3.136840e+01   8.349354e+01
  -6.332081e+01   5.989001e+01
  -4.919522e+01  -2.154702e+00
   3.898989e+01  -3.274720e+01
   9.351426e+01   1.713591e+01
   4.288725e+01   1.145827e+02
  -7.603834e+01   1.574094e+02
  -1.564139e+02   7.330040e+01
  -1.275207e+02  -8.955109e+01
  -1.859241e+01  -1.920115e+02
   8.028544e+01  -1.408553e+02
   1.037368e+02   1.085374e+01
   5.604338e+01   1.191534e+02
  -1.191514e+01   1.018214e+02
  -5.129358e+01   1.519179e+01
  -4.561788e+01  -3.065202e+01
  -1.684033e+01  -6.443834e+00
  -5.703499e+00   1.700063e+01
  -3.093245e+01  -2.198922e+01
  -5.929608e+01  -8.964654e+01
  -3.331325e+01  -1.042106e+02
   5.583150e+01  -4.296662e+01
   1.363765e+02   3.467065e+01
   1.233491e+02   6.697421e+01
   1.898939e+01   5.269871e+01
  -7.924011e+01   2.693530e+01
  -8.490867e+01   6.739611e+00
  -1.664679e+01  -1.112257e+01
   3.390129e+01  -2.124563e+01
   1.837663e+01  -1.210907e+01
  -1.586540e+01   4.455431e+00
   2.403866e+00   4.434602e+00
   6.699454e+01  -4.068159e+00
   9.485792e+01   1.889133e+01
   2.474763e+01   8.140793e+01
  -1.047482e+02   1.219843e+02
  -1.876025e+02   7.111278e+01
  -1.546550e+02  -5.603751e+01
  -3.561494e+01  -1.594884e+02
   7.758450e+01  -1.568076e+02
   1.152913e+02  -6.731310e+01
   8.073083e+01   1.769202e+01
   2.721617e+01   3.676531e+01
   3.108683e+00   1.235951e+01
   1.425108e+01   8.146713e+00
   3.108828e+01   4.864750e+01
   1.955541e+01   9.069906e+01
  -2.759942e+01   7.257386e+01
  -7.853784e+01  -1.282645e+01
  -8.257872e+01  -9.975553e+01
  -1.696292e+01  -1.109102e+02
   7.448833e+01  -3.479740e+01
   1.078727e+02   6.255225e+01
   4.282643e+01   1.029738e+02
  -6.284567e+01   6.611234e+01
  -1.045862e+02  -6.137925e+00
  -4.661985e+01  -5.798227e+01
   3.397258e+01  -6.213202e+01
   4.023092e+01  -2.900255e+01
  -2.614276e+01   7.137869e+00
  -6.860004e+01   1.001929e+01
  -1.898829e+01  -2.767104e+01
   7.747372e+01  -6.728801e+01
   1.201556e+02  -5.489162e+01
   7.179779e+01   1.647865e+01
  -1.172197e+01   8.591119e+01
  -5.645895e+01   8.411918e+01
  -4.516446e+01   1.311306e+01
  -9.058170e+00  -5.248262e+01
   2.237890e+01  -4.881489e+01
   3.759337e+01   9.292804e+00
   3.059141e+01   5.285690e+01
   6.061638e-01   3.981231e+01
  -3.349070e+01  -3.788803e+00
  -4.249930e+01  -2.381815e+01
  -2.078396e+01  -4.220662e+00
   4.106488e+00   1.996861e+01
   6.385418e+00   8.307818e+00
  -5.031570e+00  -3.165843e+01
  -1.839339e-01  -5.269510e+01
   2.612212e+01  -2.230104e+01
   4.136187e+01   3.392207e+01
   1.366032e+01   5.884896e+01
  -4.032435e+01   2.560529e+01
  -6.353355e+01  -3.279556e+01
  -2.028272e+01  -6.035144e+01
   5.726854e+01  -3.704914e+01
   9.398621e+01   9.467933e+00
   5.141610e+01   4.189200e+01
  -2.793420e+01   4.554090e+01
  -6.398995e+01   2.900873e+01
  -2.726249e+01   7.368058e+00
   2.926293e+01  -3.736104e+00
   3.367838e+01   6.141432e+00
  -2.269377e+01   2.687302e+01
  -7.736639e+01   2.393682e+01
