
 $NMID
 id='ANONYMOUS ', fmtdat='(2E16.6)'
 volume=1.0
 tramp=1.0
 $END
   4.628904e+03   8.233604e+01
   2.745464e+03   3.060202e+03
  -8.526838e+02   3.156447e+03
  -2.437609e+03   8.587816e+02
  -9.811097e+02  -6.599684e+02
   8.059638e+02  -5.631053e+02
   1.019403e+03   7.583227e+02
  -7.970019e+01   1.154538e+03
  -9.726917e+02   8.772725e+02
  -1.056801e+03  -1.773057e+02
  -4.859131e+02  -8.596575e+02
   3.490471e+02  -9.868021e+02
   7.456456e+02  -7.409664e+00
   4.047577e+02   8.576001e+02
  -4.056737e+02   8.619399e+02
  -6.848513e+02  -4.505163e+01
  -2.050652e+02  -7.420439e+02
   3.443330e+02  -6.560937e+02
   6.131619e+02  -3.346496e+01
   3.841250e+02   3.997801e+02
  -2.772048e+01   4.718196e+02
  -2.804530e+02   2.523096e+02
  -2.519928e+02  -6.868006e+01
   1.061158e+02  -1.659655e+02
   4.316648e+02   1.044147e+02
   2.296589e+02   4.868023e+02
  -4.984363e+02   4.306212e+02
  -9.027400e+02  -8.786288e+01
  -4.463500e+02  -6.272403e+02
   4.467186e+02  -5.205552e+02
   8.164639e+02   5.016700e+01
   3.787684e+02   5.086001e+02
  -3.008366e+02   5.809668e+02
  -5.982116e+02   2.083348e+02
  -4.374069e+02  -2.526310e+02
  -6.961005e+01  -5.087761e+02
   2.303600e+02  -3.159021e+02
   2.036659e+02   2.644950e+02
  -1.614733e+02   4.918977e+02
  -4.849246e+02  -1.478602e+00
  -2.778543e+02  -7.027522e+02
   3.238109e+02  -7.299910e+02
   6.398454e+02  -1.858151e+00
   2.679584e+02   5.972112e+02
  -3.121269e+02   3.447715e+02
  -3.998511e+02  -3.452390e+02
   7.142561e+01  -5.761250e+02
   5.805721e+02  -1.541507e+02
   6.135873e+02   4.203201e+02
   1.730876e+02   6.155396e+02
  -3.846375e+02   3.783734e+02
  -6.582424e+02  -6.124212e+01
  -4.025649e+02  -4.050197e+02
   1.528755e+02  -3.990076e+02
   4.726744e+02  -5.859926e+01
   2.555957e+02   2.287583e+02
  -1.368117e+02   1.296881e+02
  -1.626875e+02  -1.682997e+02
   1.785251e+02  -2.078028e+02
   3.688017e+02   8.366836e+01
   1.335307e+02   3.269608e+02
  -2.320040e+02   2.681888e+02
  -3.423457e+02   6.435251e+01
  -1.905151e+02  -8.609925e+01
   2.091131e+01  -2.175189e+02
   2.075636e+02  -3.402165e+02
   3.455881e+02  -2.507304e+02
   3.188816e+02   1.299985e+02
   8.704484e+01   4.723799e+02
  -1.408661e+02   4.160702e+02
  -1.448475e+02   9.353031e+01
  -1.238927e+01  -5.810701e+01
  -7.842718e+00   7.377751e+01
  -1.774754e+02   1.627445e+02
  -2.949245e+02  -2.009881e+01
  -1.843180e+02  -2.780867e+02
   6.782965e+01  -2.874378e+02
   2.504461e+02  -2.739403e+01
   2.243522e+02   2.548130e+02
  -1.972530e+00   3.245142e+02
  -2.804141e+02   1.381093e+02
  -3.863716e+02  -1.684175e+02
  -1.968758e+02  -3.696732e+02
   1.082475e+02  -3.236727e+02
   2.411985e+02  -1.197841e+02
   1.561721e+02   6.313027e+00
   9.487135e+01  -2.883316e+01
   2.300700e+02  -6.701273e+01
   3.998476e+02   5.530716e+01
   3.342295e+02   2.885195e+02
   2.807395e-01   4.521517e+02
  -3.542467e+02   4.259143e+02
  -4.998469e+02   2.120473e+02
  -3.641947e+02  -9.354731e+01
  -7.643714e+01  -3.133786e+02
   1.363909e+02  -2.777650e+02
   1.098506e+02  -3.671315e+01
  -1.018159e+02   1.193072e+02
  -2.137115e+02   1.565447e+00
  -6.339663e+01  -2.082180e+02
   1.715369e+02  -1.892673e+02
   2.024617e+02   6.105320e+01
  -9.780860e+00   2.074934e+02
  -2.018657e+02   4.325243e+01
  -1.701393e+02  -2.485132e+02
   2.779329e+01  -3.511485e+02
   2.242402e+02  -1.939884e+02
   3.245754e+02   5.671472e+01
   2.882252e+02   2.308731e+02
   1.084262e+02   2.674027e+02
  -1.138109e+02   1.755392e+02
  -1.939574e+02   2.948496e+01
  -7.122314e+01  -3.839004e+01
   7.249580e+01   2.900687e+01
   3.754245e+01   1.263435e+02
  -1.258292e+02   1.101360e+02
  -1.900748e+02  -7.726443e+00
  -6.836141e+01  -7.980658e+01
   7.894447e+01  -3.111320e+01
   6.281271e+01   6.228423e+01
  -1.126270e+02   8.811056e+01
  -2.768183e+02   1.351593e+01
  -2.705927e+02  -1.261023e+02
  -7.413773e+01  -2.574400e+02
   1.787620e+02  -2.796534e+02
   2.937569e+02  -1.423532e+02
   1.850470e+02   5.434626e+01
  -2.114805e+01   1.250134e+02
  -9.984015e+01   1.723393e+01
   2.483153e+01  -1.068903e+02
   1.988326e+02  -7.012222e+01
   2.247796e+02   9.853841e+01
   7.894061e+01   2.150380e+02
  -9.438369e+01   1.717936e+02
  -1.545313e+02   4.014069e+01
  -8.530947e+01  -4.140910e+01
   1.953075e+01  -1.412143e+01
   4.138327e+01   7.117343e+01
  -6.149819e+01   1.121305e+02
  -1.949359e+02   3.773802e+01
  -2.000607e+02  -1.178714e+02
  -3.119946e+01  -2.249151e+02
   1.647965e+02  -1.769575e+02
   2.040629e+02  -1.326731e+01
   7.548041e+01   1.180039e+02
  -6.322470e+01   1.211228e+02
  -8.610255e+01   3.932699e+01
  -2.502040e+01  -2.381198e+01
   1.573317e+01  -2.320305e+01
  -9.471900e+00   1.771405e+00
  -6.580035e+01  -8.750576e+00
  -8.655669e+01  -7.456686e+01
  -2.275273e+01  -1.525027e+02
   1.160225e+02  -1.564694e+02
   2.318853e+02  -3.636142e+01
   2.108279e+02   1.448094e+02
   4.988229e+01   2.413493e+02
  -1.102763e+02   1.769440e+02
  -1.430589e+02   2.925981e+01
  -7.659461e+01  -5.938089e+01
  -2.874767e+01  -4.021202e+01
  -5.089156e+01   8.690159e+00
  -7.492127e+01   6.191955e+00
  -3.802453e+01  -4.652254e+01
   3.997318e+01  -8.511206e+01
   9.750161e+01  -5.639227e+01
   8.399144e+01   3.006355e+01
  -6.806402e+00   1.079567e+02
  -1.328172e+02   9.150762e+01
  -1.969244e+02  -4.126699e+01
  -1.107175e+02  -1.977955e+02
   9.745361e+01  -2.348894e+02
   2.677611e+02  -1.068412e+02
   2.660631e+02   8.006214e+01
   1.191147e+02   1.797697e+02
  -3.512768e+01   1.540470e+02
  -9.682668e+01   8.965618e+01
  -8.426996e+01   7.161093e+01
  -7.043329e+01   9.082655e+01
  -9.274063e+01   7.521567e+01
  -1.279609e+02  -2.047547e+01
  -1.204065e+02  -1.538608e+02
  -3.496879e+01  -2.297083e+02
   9.593606e+01  -1.784591e+02
   1.784002e+02  -2.647947e+01
   1.429462e+02   1.188199e+02
   2.525590e+01   1.604350e+02
  -6.369674e+01   9.670747e+01
  -5.942462e+01   6.177726e+00
  -7.176527e+00  -3.981080e+01
   6.765641e+00  -3.608914e+01
  -3.751190e+01  -2.097086e+01
  -7.754710e+01  -2.249594e+01
  -4.439978e+01  -3.544213e+01
   5.977365e+01  -3.637960e+01
   1.536954e+02  -7.280904e+00
   1.456715e+02   4.529718e+01
   2.301871e+01   8.628976e+01
  -1.154534e+02   7.719585e+01
  -1.470716e+02   1.931131e+01
  -5.253443e+01  -3.724543e+01
   5.900483e+01  -3.730381e+01
   7.666577e+01   1.731166e+01
   6.432797e+00   6.712088e+01
  -5.851714e+01   5.771772e+01
  -6.387172e+01  -1.553724e+00
  -4.220081e+01  -4.996420e+01
  -4.261346e+01  -4.268521e+01
  -6.311832e+01  -3.518147e+00
  -6.717369e+01  -5.696735e-01
  -3.382232e+01  -6.632075e+01
   3.367076e+01  -1.441894e+02
   1.134360e+02  -1.413169e+02
   1.595287e+02  -3.537528e+01
   1.217047e+02   8.840121e+01
   9.034057e+00   1.242874e+02
  -8.299338e+01   6.067865e+01
  -5.924192e+01  -1.577059e+01
   5.917167e+01  -2.164760e+01
   1.392306e+02   4.130906e+01
   7.936473e+01   1.072254e+02
  -7.804635e+01   1.160812e+02
  -1.909555e+02   5.781238e+01
  -1.652601e+02  -3.008002e+01
  -4.117878e+01  -8.772104e+01
   5.797139e+01  -7.362824e+01
   4.781159e+01  -1.018591e+01
  -3.870003e+01   2.532638e+01
  -8.960330e+01  -2.391471e+01
  -3.137461e+01  -1.201271e+02
   9.356544e+01  -1.543366e+02
   1.696135e+02  -6.146441e+01
   1.278773e+02   1.007350e+02
   1.112985e+01   1.977259e+02
  -8.464643e+01   1.463356e+02
  -1.050379e+02  -3.033111e+00
  -6.350933e+01  -1.161394e+02
  -2.181675e+00  -1.084367e+02
   4.423604e+01  -2.306678e+01
   5.413448e+01   3.030799e+01
   2.865771e+01   8.939055e+00
   3.464141e+00  -2.193223e+01
   1.829181e+01   1.243546e+01
   5.609820e+01   8.769633e+01
   4.617836e+01   1.110960e+02
  -4.330553e+01   4.688445e+01
  -1.388212e+02  -3.960608e+01
  -1.326462e+02  -7.115439e+01
  -1.821234e+01  -4.852042e+01
   8.965488e+01  -2.131569e+01
   8.953762e+01  -8.744047e+00
   1.019703e+01   5.738396e+00
  -3.859054e+01   2.328763e+01
  -1.254187e+01   2.129722e+01
   2.220367e+01   6.513482e-01
  -7.886040e+00  -9.966261e+00
  -7.719555e+01  -6.308678e+00
  -9.104065e+01  -2.493886e+01
  -4.571228e+00  -7.944212e+01
   1.215192e+02  -1.123773e+02
   1.842766e+02  -5.675259e+01
   1.381789e+02   6.846412e+01
   2.396911e+01   1.621656e+02
  -7.825365e+01   1.489223e+02
  -1.128978e+02   5.740539e+01
  -8.020311e+01  -2.171228e+01
  -2.459555e+01  -3.446364e+01
   3.842660e+00  -7.472952e+00
  -1.010137e+01  -2.938683e+00
  -3.469491e+01  -4.517394e+01
  -2.459794e+01  -8.989658e+01
   2.904618e+01  -7.130796e+01
   8.178492e+01   1.982961e+01
   7.575723e+01   1.094026e+02
   1.256594e+00   1.111449e+02
  -8.456951e+01   2.037925e+01
  -1.017954e+02  -7.844458e+01
  -2.921050e+01  -1.034062e+02
   6.737887e+01  -5.354904e+01
   9.614249e+01   1.210777e+01
   3.821495e+01   4.778718e+01
  -3.088469e+01   4.903312e+01
  -2.810634e+01   2.865991e+01
   3.599013e+01   1.820030e+00
   6.903424e+01  -5.917782e+00
   1.430059e+01   2.368766e+01
  -7.867432e+01   6.540859e+01
  -1.133997e+02   6.028205e+01
  -6.092817e+01  -9.365293e+00
   1.720916e+01  -8.102702e+01
   5.178307e+01  -7.762998e+01
   3.384515e+01  -3.794999e+00
  -1.734434e+00   5.689893e+01
  -2.682309e+01   4.148973e+01
  -3.591801e+01  -2.047917e+01
  -2.579111e+01  -5.456579e+01
   3.137552e+00  -3.165718e+01
   3.302737e+01   9.106399e+00
   3.961767e+01   1.965826e+01
   2.117852e+01   4.562089e-02
  -6.129974e-02  -1.273152e+01
  -7.418314e+00   5.895958e+00
  -9.053552e+00   3.764364e+01
  -1.951280e+01   4.249328e+01
  -3.252196e+01   4.212240e+00
  -2.731812e+01  -4.667498e+01
   5.173450e+00  -6.011344e+01
   4.475364e+01  -1.857261e+01
   5.410195e+01   4.061029e+01
   1.301936e+01   6.318508e+01
  -5.381167e+01   3.336013e+01
  -8.725296e+01  -1.615708e+01
  -4.907439e+01  -4.402705e+01
   2.767674e+01  -3.983743e+01
   6.382143e+01  -2.049518e+01
   2.348048e+01  -5.128872e+00
  -3.813064e+01  -3.842131e+00
  -3.755065e+01  -1.764684e+01
   3.251047e+01  -3.174855e+01
   9.339837e+01  -1.883036e+01
