
 $NMID
 id='ANONYMOUS ', fmtdat='(2E16.6)'
 volume=1.0
 tramp=1.0
 $END
   4.408391e+03   9.194358e+01
   2.493178e+03   2.571650e+03
  -8.369467e+02   2.942744e+03
  -2.308460e+03   7.890145e+02
  -7.700182e+02  -7.351231e+02
   7.100512e+02  -6.929004e+02
   8.824176e+02   4.070183e+02
  -5.888562e+01   1.202037e+03
  -8.800208e+02   9.317150e+02
  -9.640227e+02  -1.825755e+02
  -4.172044e+02  -1.003943e+03
   1.912922e+02  -9.967880e+02
   6.072987e+02  -9.561494e+01
   3.318210e+02   7.249464e+02
  -2.846857e+02   6.817689e+02
  -6.164330e+02  -9.601098e+00
  -2.924641e+02  -6.402694e+02
   3.369295e+02  -6.091643e+02
   6.391599e+02  -6.168336e+01
   3.716427e+02   3.647546e+02
  -9.854106e+00   4.687188e+02
  -2.808643e+02   2.970896e+02
  -2.363446e+02   6.356812e+00
   1.266845e+02  -1.288012e+02
   4.583627e+02   7.022085e+01
   2.714190e+02   4.685416e+02
  -4.736038e+02   4.947318e+02
  -8.961240e+02  -4.887105e+01
  -4.979285e+02  -6.270554e+02
   3.894228e+02  -5.744447e+02
   7.900302e+02   2.968471e+01
   3.757292e+02   5.488481e+02
  -2.744282e+02   5.619061e+02
  -5.861947e+02   2.329980e+02
  -4.563579e+02  -2.374930e+02
  -9.822431e+01  -5.203446e+02
   2.427061e+02  -3.196732e+02
   2.170087e+02   2.482922e+02
  -1.706547e+02   5.197310e+02
  -5.309103e+02   1.717822e+01
  -3.004097e+02  -7.519952e+02
   3.582400e+02  -7.916196e+02
   6.982068e+02  -4.795047e+00
   2.913869e+02   6.350172e+02
  -3.563702e+02   3.627790e+02
  -4.536217e+02  -3.693038e+02
   6.465434e+01  -6.152244e+02
   6.070383e+02  -1.546573e+02
   6.479088e+02   4.412341e+02
   1.725257e+02   6.386164e+02
  -4.269740e+02   3.778973e+02
  -6.817717e+02  -8.388955e+01
  -3.863840e+02  -4.254851e+02
   1.930634e+02  -3.975343e+02
   4.841662e+02  -3.232785e+01
   2.266408e+02   2.461033e+02
  -1.761532e+02   1.119349e+02
  -1.724961e+02  -2.097526e+02
   2.010900e+02  -2.340473e+02
   4.012423e+02   9.132029e+01
   1.489245e+02   3.462682e+02
  -2.358123e+02   2.717053e+02
  -3.437564e+02   5.185629e+01
  -1.743333e+02  -9.158775e+01
   3.810792e+01  -2.035207e+02
   1.991607e+02  -3.150919e+02
   3.168722e+02  -2.317572e+02
   3.050766e+02   1.309177e+02
   1.031203e+02   4.578384e+02
  -1.214998e+02   4.043071e+02
  -1.498489e+02   9.904363e+01
  -3.619340e+01  -4.198738e+01
  -2.547988e+01   7.963263e+01
  -1.766454e+02   1.506986e+02
  -2.836293e+02  -3.420024e+01
  -1.787553e+02  -2.764640e+02
   6.153280e+01  -2.744225e+02
   2.361494e+02  -2.305267e+01
   2.154767e+02   2.386473e+02
  -2.208419e+00   3.029283e+02
  -2.796707e+02   1.285247e+02
  -3.842154e+02  -1.678910e+02
  -1.929561e+02  -3.696167e+02
   1.162048e+02  -3.255575e+02
   2.515617e+02  -1.186743e+02
   1.575194e+02   1.273547e+01
   8.786644e+01  -2.793021e+01
   2.262344e+02  -7.538590e+01
   4.057655e+02   4.478424e+01
   3.444373e+02   2.816526e+02
   7.251523e+00   4.491767e+02
  -3.540036e+02   4.231897e+02
  -4.931587e+02   2.197933e+02
  -3.522799e+02  -8.051108e+01
  -6.745852e+01  -3.039965e+02
   1.364125e+02  -2.734590e+02
   9.652961e+01  -3.179727e+01
  -1.082045e+02   1.292543e+02
  -2.156134e+02   7.040932e+00
  -6.342455e+01  -2.118206e+02
   1.743878e+02  -1.933515e+02
   1.998413e+02   6.882262e+01
  -1.678309e+01   2.193734e+02
  -2.111915e+02   4.520225e+01
  -1.755726e+02  -2.576272e+02
   2.921393e+01  -3.583917e+02
   2.243207e+02  -1.916575e+02
   3.162653e+02   6.154962e+01
   2.785022e+02   2.284957e+02
   1.073213e+02   2.567038e+02
  -1.065791e+02   1.658781e+02
  -1.849278e+02   2.754810e+01
  -6.502532e+01  -3.558631e+01
   7.732410e+01   3.340557e+01
   4.015467e+01   1.308535e+02
  -1.256311e+02   1.116136e+02
  -1.897265e+02  -6.876950e+00
  -6.655726e+01  -7.586830e+01
   7.927076e+01  -2.138779e+01
   5.671529e+01   7.039263e+01
  -1.214897e+02   8.638247e+01
  -2.802503e+02   3.266165e+00
  -2.668674e+02  -1.331144e+02
  -7.037094e+01  -2.543445e+02
   1.768042e+02  -2.720316e+02
   2.884594e+02  -1.395918e+02
   1.810626e+02   5.052143e+01
  -2.151260e+01   1.184662e+02
  -9.741608e+01   1.186510e+01
   2.923072e+01  -1.091164e+02
   2.021809e+02  -6.832601e+01
   2.238648e+02   1.024219e+02
   7.487478e+01   2.160157e+02
  -9.568636e+01   1.670936e+02
  -1.496245e+02   3.465293e+01
  -7.744901e+01  -4.200012e+01
   2.433503e+01  -9.287545e+00
   4.176366e+01   7.649076e+01
  -6.294592e+01   1.141626e+02
  -1.958678e+02   3.745810e+01
  -1.991572e+02  -1.182609e+02
  -2.852053e+01  -2.228407e+02
   1.669292e+02  -1.711338e+02
   2.015669e+02  -5.413745e+00
   6.837648e+01   1.216507e+02
  -6.961210e+01   1.162892e+02
  -8.799103e+01   3.107962e+01
  -2.431634e+01  -2.724499e+01
   1.563591e+01  -2.186323e+01
  -1.016889e+01   1.604791e+00
  -6.281733e+01  -1.319094e+01
  -8.059945e+01  -7.878071e+01
  -1.786033e+01  -1.521212e+02
   1.182961e+02  -1.534009e+02
   2.332299e+02  -3.384711e+01
   2.108283e+02   1.447020e+02
   4.672658e+01   2.414631e+02
  -1.131088e+02   1.768772e+02
  -1.399063e+02   2.920292e+01
  -6.793435e+01  -5.748226e+01
  -2.535231e+01  -3.763259e+01
  -5.373342e+01   1.193112e+01
  -8.078239e+01   7.549458e+00
  -4.017329e+01  -4.502936e+01
   4.220322e+01  -8.099783e+01
   9.465961e+01  -5.239772e+01
   7.751378e+01   2.827410e+01
  -1.155285e+01   1.018636e+02
  -1.334803e+02   8.590489e+01
  -1.955892e+02  -4.211228e+01
  -1.092941e+02  -1.970265e+02
   9.747348e+01  -2.355424e+02
   2.669336e+02  -1.071998e+02
   2.641081e+02   8.139905e+01
   1.160798e+02   1.803973e+02
  -3.594326e+01   1.522507e+02
  -9.492403e+01   8.607356e+01
  -8.131679e+01   7.006720e+01
  -6.859038e+01   9.193577e+01
  -9.240634e+01   7.444691e+01
  -1.274059e+02  -2.214586e+01
  -1.198114e+02  -1.535881e+02
  -3.457834e+01  -2.263540e+02
   9.591481e+01  -1.749178e+02
   1.783205e+02  -2.540864e+01
   1.425459e+02   1.188110e+02
   2.391327e+01   1.614350e+02
  -6.605128e+01   9.785234e+01
  -6.155169e+01   6.354268e+00
  -8.437931e+00  -3.987014e+01
   5.669972e+00  -3.548867e+01
  -3.947663e+01  -2.131267e+01
  -7.909930e+01  -2.432702e+01
  -4.380112e+01  -3.749178e+01
   6.178407e+01  -3.734556e+01
   1.547084e+02  -7.530034e+00
   1.441840e+02   4.489998e+01
   2.139288e+01   8.578639e+01
  -1.147911e+02   7.721999e+01
  -1.438755e+02   1.947473e+01
  -5.054320e+01  -3.644035e+01
   5.751714e+01  -3.597164e+01
   7.303125e+01   1.762896e+01
   4.933451e+00   6.567204e+01
  -5.575620e+01   5.555353e+01
  -6.018432e+01  -2.352928e+00
  -4.132110e+01  -4.846607e+01
  -4.400645e+01  -4.025718e+01
  -6.327375e+01  -1.174477e+00
  -6.547268e+01   1.145020e+00
  -3.393084e+01  -6.479128e+01
   3.025669e+01  -1.436597e+02
   1.094190e+02  -1.426071e+02
   1.587680e+02  -3.688410e+01
   1.236488e+02   8.773780e+01
   1.039959e+01   1.238729e+02
  -8.352313e+01   6.010057e+01
  -6.022945e+01  -1.568942e+01
   5.925490e+01  -1.998594e+01
   1.398241e+02   4.351877e+01
   7.997933e+01   1.074436e+02
  -7.841626e+01   1.143387e+02
  -1.924154e+02   5.668165e+01
  -1.670674e+02  -2.953068e+01
  -4.142020e+01  -8.673030e+01
   5.961749e+01  -7.457009e+01
   5.011625e+01  -1.115576e+01
  -3.768468e+01   2.621626e+01
  -9.059180e+01  -2.163642e+01
  -3.264339e+01  -1.187283e+02
   9.286231e+01  -1.549057e+02
   1.690492e+02  -6.194260e+01
   1.271953e+02   1.020234e+02
   1.057968e+01   1.995232e+02
  -8.518458e+01   1.470067e+02
  -1.060119e+02  -3.830109e+00
  -6.522185e+01  -1.170947e+02
  -3.435237e+00  -1.090547e+02
   4.437210e+01  -2.400378e+01
   5.469352e+01   2.933724e+01
   2.851908e+01   8.550896e+00
   3.259907e+00  -2.133113e+01
   1.915677e+01   1.298249e+01
   5.770682e+01   8.754200e+01
   4.665817e+01   1.107474e+02
  -4.435788e+01   4.756211e+01
  -1.404615e+02  -3.778900e+01
  -1.337970e+02  -6.968877e+01
  -1.863618e+01  -4.843859e+01
   8.948422e+01  -2.218891e+01
   8.881710e+01  -9.266219e+00
   8.988783e+00   5.850145e+00
  -4.004416e+01   2.272933e+01
  -1.308957e+01   1.906158e+01
   2.332888e+01  -2.139189e+00
  -5.680149e+00  -1.038796e+01
  -7.600319e+01  -3.433938e+00
  -9.187430e+01  -2.204133e+01
  -6.087434e+00  -7.950135e+01
   1.204364e+02  -1.152705e+02
   1.843757e+02  -5.913074e+01
   1.389391e+02   6.836820e+01
   2.498643e+01   1.630231e+02
  -7.703210e+01   1.492155e+02
  -1.122904e+02   5.694609e+01
  -8.007202e+01  -2.180579e+01
  -2.430134e+01  -3.406767e+01
   4.683917e+00  -6.737537e+00
  -9.302728e+00  -2.124166e+00
  -3.495876e+01  -4.431459e+01
  -2.550230e+01  -8.986798e+01
   2.845137e+01  -7.254477e+01
   8.254631e+01   1.830490e+01
   7.808184e+01   1.096358e+02
   3.270005e+00   1.133374e+02
  -8.404922e+01   2.279402e+01
  -1.032384e+02  -7.733564e+01
  -3.121265e+01  -1.034497e+02
   6.638307e+01  -5.386151e+01
   9.656613e+01   1.207053e+01
   3.834629e+01   4.815128e+01
  -3.156811e+01   4.947316e+01
  -2.846128e+01   2.856870e+01
   3.661958e+01   9.256189e-01
   6.984323e+01  -6.728095e+00
   1.405302e+01   2.440855e+01
  -7.903951e+01   6.732394e+01
  -1.132249e+02   6.178422e+01
  -6.146269e+01  -9.739642e+00
   1.566523e+01  -8.240856e+01
   5.022147e+01  -7.866795e+01
   3.421745e+01  -3.956425e+00
   6.857898e-01   5.633278e+01
  -2.514034e+01   4.085449e+01
  -3.574763e+01  -2.043032e+01
  -2.612822e+01  -5.334991e+01
   3.168835e+00  -3.018698e+01
   3.315602e+01   9.568796e+00
   3.930146e+01   1.921850e+01
   2.034783e+01  -4.061482e-01
  -2.404658e-01  -1.231504e+01
  -7.162037e+00   6.313396e+00
  -8.996480e+00   3.735808e+01
  -1.977449e+01   4.163084e+01
  -3.294831e+01   3.264187e+00
  -2.663713e+01  -4.764475e+01
   7.016113e+00  -6.035721e+01
   4.679448e+01  -1.829628e+01
   5.522192e+01   4.118801e+01
   1.311577e+01   6.385075e+01
  -5.455230e+01   3.372510e+01
  -8.740268e+01  -1.588186e+01
  -4.777248e+01  -4.363822e+01
   2.960082e+01  -3.875586e+01
   6.445986e+01  -1.859471e+01
   2.183909e+01  -3.552272e+00
  -4.068838e+01  -3.726956e+00
  -3.925698e+01  -1.837648e+01
   3.293417e+01  -3.307609e+01
   9.466259e+01  -1.970463e+01
