
 $NMID
 id='ANONYMOUS ', fmtdat='(2E16.6)'
 volume=1.0
 tramp=1.0
 $END
  -4.370491e+03   1.770345e+02
  -2.524875e+03  -2.629810e+03
   6.470009e+02  -2.780603e+03
   2.264547e+03  -9.904127e+02
   9.229790e+02   5.372927e+02
  -6.749407e+02   5.242501e+02
  -8.239669e+02  -2.694874e+02
  -1.323717e+02  -9.737554e+02
   7.868989e+02  -8.560277e+02
   9.064913e+02   9.722317e+01
   4.033648e+02   8.787512e+02
  -1.887175e+02   7.787978e+02
  -5.920730e+02   2.219825e+02
  -4.472561e+02  -6.361204e+02
   1.809028e+02  -7.502659e+02
   5.856458e+02  -6.830339e+01
   3.529657e+02   6.919715e+02
  -3.162306e+02   6.754344e+02
  -5.942549e+02   1.259101e+02
  -3.792348e+02  -3.626513e+02
   1.365322e+00  -4.549303e+02
   2.594590e+02  -2.371890e+02
   2.002167e+02  -1.793139e+01
  -1.060411e+02   9.858514e+01
  -4.190428e+02  -1.343279e+02
  -2.001434e+02  -4.408201e+02
   4.437154e+02  -4.058210e+02
   8.433465e+02   1.104628e+02
   4.436830e+02   5.635466e+02
  -4.164696e+02   4.866668e+02
  -7.832943e+02  -6.416897e+01
  -3.689463e+02  -5.192691e+02
   2.822229e+02  -5.029364e+02
   5.806792e+02  -2.055985e+02
   4.217002e+02   2.202173e+02
   8.836688e+01   4.694648e+02
  -2.181729e+02   2.830427e+02
  -1.964365e+02  -2.084572e+02
   1.712445e+02  -4.346005e+02
   4.597926e+02   3.659347e+01
   2.650778e+02   6.993223e+02
  -3.326515e+02   7.466645e+02
  -6.526757e+02   2.145675e+01
  -2.961147e+02  -5.686372e+02
   3.124383e+02  -3.437731e+02
   4.267668e+02   3.261140e+02
  -6.669351e+01   5.737449e+02
  -5.965301e+02   1.409532e+02
  -6.381601e+02  -4.246566e+02
  -1.707050e+02  -6.163551e+02
   4.163716e+02  -3.615672e+02
   6.625108e+02   8.240970e+01
   3.887890e+02   4.082546e+02
  -1.698522e+02   3.804812e+02
  -4.654119e+02   5.030441e+01
  -2.507568e+02  -2.110435e+02
   1.289564e+02  -1.093751e+02
   1.615639e+02   1.724719e+02
  -1.634375e+02   2.090069e+02
  -3.683967e+02  -7.319797e+01
  -1.643248e+02  -3.155226e+02
   2.021116e+02  -2.678837e+02
   3.448217e+02  -6.515109e+01
   2.030594e+02   9.661014e+01
  -3.843505e+01   2.247993e+02
  -2.435078e+02   3.184467e+02
  -3.515860e+02   2.076463e+02
  -2.883786e+02  -1.504248e+02
  -6.522526e+01  -4.498708e+02
   1.258439e+02  -3.914843e+02
   1.214290e+02  -1.159839e+02
   2.321814e+01   2.021961e+00
   5.232505e+01  -9.992160e+01
   2.138748e+02  -1.327718e+02
   2.923362e+02   6.614614e+01
   1.583670e+02   2.879545e+02
  -8.320119e+01   2.659461e+02
  -2.385713e+02   3.155746e+00
  -2.016163e+02  -2.576257e+02
   1.335698e+01  -3.106783e+02
   2.782980e+02  -1.214628e+02
   3.724941e+02   1.761163e+02
   1.925886e+02   3.684511e+02
  -1.028853e+02   3.207159e+02
  -2.348750e+02   1.262860e+02
  -1.558752e+02   5.394494e+00
  -1.084581e+02   3.364633e+01
  -2.468190e+02   6.168615e+01
  -4.189991e+02  -6.542243e+01
  -3.407815e+02  -2.985529e+02
   7.990738e+00  -4.555828e+02
   3.770399e+02  -4.209218e+02
   5.041361e+02  -2.025087e+02
   3.445781e+02   1.033930e+02
   5.170161e+01   3.086716e+02
  -1.399782e+02   2.592208e+02
  -8.627399e+01   2.514086e+01
   1.099060e+02  -1.132346e+02
   1.993792e+02   1.330146e+01
   4.695888e+01   2.081705e+02
  -1.718294e+02   1.772748e+02
  -1.850801e+02  -7.049362e+01
   2.297585e+01  -2.067955e+02
   2.060046e+02  -3.272859e+01
   1.647602e+02   2.601371e+02
  -3.952271e+01   3.627214e+02
  -2.405184e+02   1.981415e+02
  -3.307884e+02  -6.741904e+01
  -2.791917e+02  -2.501625e+02
  -9.524949e+01  -2.741823e+02
   1.157823e+02  -1.613007e+02
   1.805947e+02  -1.362283e+01
   5.825384e+01   3.840410e+01
  -7.535754e+01  -4.227820e+01
  -3.244766e+01  -1.347612e+02
   1.291173e+02  -1.041919e+02
   1.865420e+02   1.596011e+01
   5.896057e+01   7.713214e+01
  -8.658532e+01   1.488982e+01
  -5.883215e+01  -7.907149e+01
   1.294791e+02  -9.017450e+01
   2.933114e+02   3.546008e+00
   2.713070e+02   1.492260e+02
   5.815288e+01   2.660314e+02
  -1.952701e+02   2.678198e+02
  -2.963243e+02   1.250109e+02
  -1.757942e+02  -5.836396e+01
   2.801280e+01  -1.132209e+02
   9.592970e+01  -3.470827e+00
  -3.534101e+01   1.092745e+02
  -2.061378e+02   6.026321e+01
  -2.234535e+02  -1.113939e+02
  -7.144265e+01  -2.194611e+02
   9.971314e+01  -1.635993e+02
   1.506754e+02  -2.740013e+01
   7.323037e+01   4.485605e+01
  -2.936941e+01   3.245981e+00
  -3.923264e+01  -8.608707e+01
   7.351287e+01  -1.159974e+02
   2.044944e+02  -2.847882e+01
   1.971710e+02   1.299064e+02
   1.883706e+01   2.279211e+02
  -1.760775e+02   1.684741e+02
  -2.050598e+02   2.013222e-01
  -6.659106e+01  -1.255488e+02
   7.447522e+01  -1.171845e+02
   9.219589e+01  -2.802205e+01
   2.273087e+01   3.021770e+01
  -2.163492e+01   1.965769e+01
   8.896240e+00  -7.087247e+00
   7.059954e+01   1.249346e+01
   8.831077e+01   8.803171e+01
   1.248136e+01   1.627682e+02
  -1.323245e+02   1.541994e+02
  -2.416981e+02   2.522439e+01
  -2.066723e+02  -1.546327e+02
  -4.085755e+01  -2.465878e+02
   1.132339e+02  -1.767673e+02
   1.383401e+02  -2.730866e+01
   7.034420e+01   5.998723e+01
   3.010943e+01   3.962317e+01
   5.577134e+01  -1.228567e+01
   8.079099e+01  -6.402209e+00
   3.963311e+01   4.948235e+01
  -4.634371e+01   8.681058e+01
  -1.028062e+02   5.251936e+01
  -8.214543e+01  -3.719067e+01
   1.776597e+01  -1.078858e+02
   1.435008e+02  -8.305278e+01
   2.000758e+02   5.346868e+01
   1.020251e+02   2.052727e+02
  -1.094423e+02   2.341617e+02
  -2.759708e+02   9.770272e+01
  -2.664942e+02  -9.182939e+01
  -1.115199e+02  -1.859008e+02
   4.265908e+01  -1.525999e+02
   1.000735e+02  -8.343712e+01
   8.233582e+01  -6.764327e+01
   6.853465e+01  -9.262717e+01
   9.515495e+01  -7.665168e+01
   1.318770e+02   2.213649e+01
   1.193508e+02   1.590023e+02
   2.744684e+01   2.325594e+02
  -1.036598e+02   1.764670e+02
  -1.807239e+02   2.025133e+01
  -1.386948e+02  -1.269012e+02
  -1.815702e+01  -1.668804e+02
   7.006108e+01  -9.711969e+01
   6.261143e+01  -8.528459e-01
   6.638421e+00   4.479535e+01
  -8.826954e+00   3.630583e+01
   3.815168e+01   1.877923e+01
   8.099850e+01   2.365425e+01
   4.576435e+01   4.018859e+01
  -6.466175e+01   3.887695e+01
  -1.609576e+02   3.081958e+00
  -1.467124e+02  -5.281358e+01
  -1.613135e+01  -9.023852e+01
   1.232519e+02  -7.367901e+01
   1.479354e+02  -1.122770e+01
   4.718121e+01   4.264623e+01
  -6.436559e+01   3.609675e+01
  -7.816591e+01  -2.269620e+01
  -5.623806e+00  -7.121252e+01
   5.965022e+01  -5.754564e+01
   6.451694e+01   4.842543e+00
   4.255248e+01   5.243731e+01
   4.239541e+01   4.248663e+01
   6.219857e+01   1.694453e+00
   6.740696e+01   5.286493e-01
   3.460115e+01   6.874593e+01
  -3.512362e+01   1.478497e+02
  -1.191041e+02   1.426695e+02
  -1.669201e+02   3.217111e+01
  -1.247628e+02  -9.393061e+01
  -6.167405e+00  -1.286937e+02
   8.828729e+01  -6.123859e+01
   6.080365e+01   1.685202e+01
  -6.178239e+01   2.037714e+01
  -1.420648e+02  -4.632381e+01
  -7.754420e+01  -1.112833e+02
   8.426655e+01  -1.150875e+02
   1.970350e+02  -5.207286e+01
   1.663571e+02   3.579593e+01
   3.642357e+01   8.936531e+01
  -6.380604e+01   7.248072e+01
  -5.061910e+01   7.790277e+00
   3.931306e+01  -2.745254e+01
   9.160433e+01   2.296747e+01
   3.174298e+01   1.210413e+02
  -9.533052e+01   1.564969e+02
  -1.717256e+02   6.117001e+01
  -1.287139e+02  -1.050621e+02
  -9.205854e+00  -2.028111e+02
   8.828280e+01  -1.468022e+02
   1.072281e+02   7.544184e+00
   6.217059e+01   1.207400e+02
  -1.329904e+00   1.089747e+02
  -4.651331e+01   2.076752e+01
  -5.356895e+01  -3.186753e+01
  -2.758813e+01  -8.952101e+00
  -4.533935e+00   2.125520e+01
  -2.082764e+01  -1.468122e+01
  -5.629679e+01  -9.023463e+01
  -4.254194e+01  -1.123776e+02
   4.780071e+01  -4.673361e+01
   1.409574e+02   4.088778e+01
   1.321530e+02   7.349911e+01
   1.719371e+01   5.073467e+01
  -9.024106e+01   2.152060e+01
  -8.958828e+01   7.252186e+00
  -9.751255e+00  -6.965040e+00
   4.061361e+01  -2.174708e+01
   1.458679e+01  -1.775372e+01
  -2.266469e+01   2.313533e+00
   4.461850e+00   1.041611e+01
   7.428273e+01   4.987572e+00
   9.185800e+01   2.449571e+01
   7.316296e+00   8.087191e+01
  -1.212099e+02   1.146621e+02
  -1.883208e+02   5.759961e+01
  -1.427708e+02  -7.007059e+01
  -2.469835e+01  -1.650372e+02
   8.137932e+01  -1.513457e+02
   1.166002e+02  -5.768726e+01
   8.173912e+01   2.333561e+01
   2.448005e+01   3.620742e+01
  -3.855651e+00   8.399364e+00
   9.962671e+00   3.727304e+00
   3.359504e+01   4.639065e+01
   2.299854e+01   9.167166e+01
  -2.998983e+01   7.244276e+01
  -8.243560e+01  -1.960836e+01
  -7.754691e+01  -1.107744e+02
  -3.065309e+00  -1.137022e+02
   8.414240e+01  -2.261303e+01
   1.039047e+02   7.827611e+01
   3.113758e+01   1.053528e+02
  -6.857257e+01   5.517153e+01
  -9.943220e+01  -1.366719e+01
  -3.885021e+01  -5.172659e+01
   3.448397e+01  -5.170214e+01
   3.271176e+01  -2.745868e+01
  -3.473337e+01   9.757060e-01
  -7.157862e+01   6.604941e+00
  -1.626067e+01  -2.580431e+01
   8.036019e+01  -6.721468e+01
   1.180978e+02  -5.949694e+01
   6.541585e+01   1.238676e+01
  -1.658770e+01   8.415375e+01
  -5.472997e+01   8.022496e+01
  -3.756942e+01   5.170279e+00
  -5.297379e-01  -5.653267e+01
   2.692604e+01  -4.261087e+01
   3.653315e+01   1.912294e+01
   2.578272e+01   5.463100e+01
  -3.723626e+00   3.235732e+01
  -3.334447e+01  -9.559752e+00
  -3.930167e+01  -2.154043e+01
  -2.072794e+01  -8.093309e-01
   3.463990e-01   1.414076e+01
   6.875829e+00  -3.920911e+00
   7.832569e+00  -3.767274e+01
   1.813596e+01  -4.466193e+01
   3.306758e+01  -6.045091e+00
   2.953021e+01   4.715795e+01
  -3.728595e+00   6.214651e+01
  -4.636489e+01   1.995707e+01
  -5.734314e+01  -4.140763e+01
  -1.407838e+01  -6.526875e+01
   5.658308e+01  -3.469342e+01
   9.096703e+01   1.693821e+01
   4.954895e+01   4.627407e+01
  -3.058822e+01   4.168388e+01
  -6.754388e+01   2.025354e+01
  -2.509653e+01   2.976509e+00
   3.866456e+01   1.673617e+00
   3.909645e+01   1.661602e+01
  -3.171542e+01   3.176466e+01
  -9.353397e+01   1.833375e+01
