
 $NMID
 id='ANONYMOUS ', fmtdat='(2E16.6)'
 volume=1.0
 tramp=1.0
 $END
  -3.248068e+03  -3.721646e+01
  -2.084434e+03  -1.492090e+03
  -4.718008e-01  -1.912033e+03
   1.344558e+03  -1.071815e+03
   8.414344e+02  -1.996034e+02
   5.240898e+01   1.798826e+02
  -3.774290e+02  -1.007052e+02
  -4.212053e+01  -4.895175e+02
   4.575155e+02  -4.801506e+02
   6.598919e+02  -4.625151e+01
   4.460293e+02   5.053280e+02
  -2.985267e+01   7.083833e+02
  -3.605434e+02   1.141193e+02
  -1.989106e+02  -5.062245e+02
   1.824338e+02  -6.228185e+02
   4.419309e+02  -3.787352e+01
   2.082506e+02   5.002049e+02
  -1.746357e+02   6.335344e+02
  -4.667254e+02   2.688522e+02
  -4.327905e+02  -2.252830e+02
  -1.315543e+02  -3.612982e+02
   1.574402e+02  -2.627572e+02
   8.132222e+01  -9.377430e+01
  -1.545759e+02  -1.261948e+02
  -2.607302e+02  -2.758549e+02
   3.923414e+01  -3.402235e+02
   5.162513e+02  -1.489831e+02
   6.015272e+02   1.775665e+02
   1.902753e+02   3.654021e+02
  -3.406544e+02   2.014904e+02
  -5.155142e+02  -1.263948e+02
  -1.797570e+02  -3.496853e+02
   2.662491e+02  -3.670726e+02
   4.562580e+02  -1.378610e+02
   3.218201e+02   1.583722e+02
   8.842207e+01   2.902874e+02
  -1.898031e+01   1.851967e+02
   5.758075e+01  -7.990060e+01
   1.648803e+02  -1.341944e+02
   1.667478e+02   1.518656e+02
   6.012763e+00   4.758125e+02
  -2.191035e+02   4.096482e+02
  -2.849535e+02   5.898990e+00
  -1.321985e+02  -2.765233e+02
   9.439281e+01  -1.181251e+02
   1.311271e+02   2.280246e+02
  -1.077314e+02   3.291623e+02
  -4.053492e+02   4.785957e+01
  -4.593611e+02  -3.445457e+02
  -1.634376e+02  -4.600937e+02
   2.712940e+02  -2.628928e+02
   5.044930e+02   4.554304e+01
   3.557191e+02   2.296944e+02
  -1.464155e+01   2.237051e+02
  -2.741345e+02   1.031209e+02
  -2.365281e+02   6.518121e-01
  -4.375290e+01  -9.727305e+00
   3.286632e+01   3.473808e+01
  -8.328166e+01   3.763662e+01
  -2.045391e+02  -4.758177e+01
  -1.248595e+02  -1.746064e+02
   1.310345e+02  -2.399567e+02
   3.314382e+02  -1.583849e+02
   2.794678e+02   6.877910e+01
   2.983110e+00   3.134229e+02
  -2.791457e+02   3.810693e+02
  -3.620864e+02   1.803795e+02
  -2.302434e+02  -1.507568e+02
  -4.689268e+01  -3.559125e+02
   3.267092e+01  -3.214344e+02
   1.659309e+01  -1.772093e+02
   2.986504e+01  -1.052357e+02
   1.339257e+02  -1.103074e+02
   2.469876e+02  -5.408815e+01
   2.423797e+02   1.123870e+02
   9.546301e+01   2.492743e+02
  -9.174246e+01   1.896569e+02
  -1.884745e+02  -4.043513e+01
  -1.297145e+02  -2.454757e+02
   5.558930e+01  -2.503319e+02
   2.448496e+02  -6.098388e+01
   3.012829e+02   1.738337e+02
   1.692674e+02   2.971552e+02
  -4.192414e+01   2.662869e+02
  -1.581855e+02   1.647667e+02
  -1.514544e+02   8.706070e+01
  -1.609915e+02   6.583734e+01
  -2.826054e+02   2.517465e+01
  -4.031449e+02  -1.021963e+02
  -3.104927e+02  -2.964487e+02
   2.767736e+01  -4.357895e+02
   3.774403e+02  -3.923195e+02
   4.775180e+02  -1.667181e+02
   2.870943e+02   1.037706e+02
   2.112184e+01   2.486906e+02
  -8.853468e+01   1.938095e+02
  -1.161133e+01   4.316266e+01
   1.095539e+02  -3.054816e+01
   1.177262e+02   3.584722e+01
   3.988876e+00   1.266470e+02
  -1.032146e+02   9.527493e+01
  -9.514401e+01  -4.438153e+01
   2.683700e+01  -1.135696e+02
   1.471787e+02   7.062303e+00
   1.413907e+02   2.263613e+02
  -2.030561e+01   3.300441e+02
  -2.397366e+02   2.019737e+02
  -3.577078e+02  -6.207485e+01
  -2.779712e+02  -2.625308e+02
  -5.833795e+01  -2.749200e+02
   1.301182e+02  -1.417606e+02
   1.519787e+02  -9.665653e+00
   4.010276e+01   1.099426e+01
  -4.126669e+01  -5.792946e+01
   8.538353e+00  -1.041257e+02
   1.180871e+02  -5.939540e+01
   1.361765e+02   2.640876e+01
   2.641616e+01   5.079311e+01
  -8.031765e+01  -1.392799e+01
  -3.510454e+01  -9.134876e+01
   1.501448e+02  -8.641686e+01
   3.003439e+02   2.230009e+01
   2.529305e+02   1.705012e+02
   2.197100e+01   2.611188e+02
  -2.103633e+02   2.287344e+02
  -2.657046e+02   9.202929e+01
  -1.334173e+02  -4.486609e+01
   3.053127e+01  -7.463340e+01
   6.302174e+01   3.393416e+00
  -5.187336e+01   7.325418e+01
  -1.798818e+02   2.873574e+01
  -1.836529e+02  -9.990180e+01
  -5.567131e+01  -1.802625e+02
   8.633121e+01  -1.320199e+02
   1.229888e+02  -1.845045e+01
   4.546241e+01   3.392741e+01
  -4.140218e+01  -2.208746e+01
  -2.428275e+01  -1.097978e+02
   9.973542e+01  -1.172926e+02
   2.101725e+02  -1.114261e+01
   1.791767e+02   1.346141e+02
   1.157747e+01   2.070084e+02
  -1.501936e+02   1.511932e+02
  -1.706672e+02   1.703739e+01
  -5.910893e+01  -8.785751e+01
   5.431880e+01  -9.359136e+01
   6.653298e+01  -2.876612e+01
   1.291255e+00   2.084767e+01
  -3.726706e+01   8.007429e+00
   8.929319e+00  -2.575514e+01
   9.040213e+01  -2.046932e+00
   1.074603e+02   9.203085e+01
   9.763236e+00   1.766380e+02
  -1.452299e+02   1.523776e+02
  -2.371876e+02   6.915305e+00
  -1.884429e+02  -1.599005e+02
  -3.619952e+01  -2.257370e+02
   9.821899e+01  -1.571601e+02
   1.282545e+02  -3.117689e+01
   7.811271e+01   4.243808e+01
   3.668966e+01   2.896011e+01
   5.394146e+01  -1.269988e+01
   8.506403e+01  -4.465432e+00
   5.638824e+01   6.009663e+01
  -3.920788e+01   1.094494e+02
  -1.261200e+02   6.801440e+01
  -1.121865e+02  -4.743279e+01
   1.709338e+01  -1.329787e+02
   1.674356e+02  -9.016751e+01
   2.061936e+02   6.817435e+01
   8.035819e+01   2.132614e+02
  -1.272982e+02   2.189225e+02
  -2.640017e+02   7.860421e+01
  -2.398300e+02  -8.949831e+01
  -9.838036e+01  -1.655890e+02
   3.799791e+01  -1.357864e+02
   8.620448e+01  -7.993803e+01
   6.978336e+01  -7.010970e+01
   5.905011e+01  -9.363956e+01
   9.096207e+01  -7.893085e+01
   1.315829e+02   1.818147e+01
   1.179660e+02   1.538553e+02
   2.423796e+01   2.257630e+02
  -1.018396e+02   1.656736e+02
  -1.690610e+02   8.992810e+00
  -1.235023e+02  -1.288945e+02
  -6.462253e+00  -1.548997e+02
   7.705316e+01  -7.672621e+01
   6.252384e+01   1.834132e+01
  -6.524366e+00   5.564845e+01
  -3.159821e+01   3.524577e+01
   2.317299e+01   9.786163e+00
   8.334922e+01   1.584461e+01
   5.067794e+01   3.915852e+01
  -7.331371e+01   3.861485e+01
  -1.741557e+02  -4.807409e+00
  -1.429316e+02  -6.646077e+01
   4.035664e+00  -9.863623e+01
   1.368855e+02  -7.158876e+01
   1.451118e+02  -2.478678e+00
   4.268899e+01   5.289686e+01
  -6.107112e+01   4.545109e+01
  -7.933476e+01  -1.834190e+01
  -2.061045e+01  -7.594831e+01
   4.582195e+01  -6.808992e+01
   7.070936e+01  -2.454391e+00
   6.004585e+01   5.294778e+01
   4.764255e+01   4.539913e+01
   5.329775e+01   2.820111e+00
   6.349994e+01   2.284444e+00
   4.382194e+01   7.466416e+01
  -2.897803e+01   1.539863e+02
  -1.296621e+02   1.441674e+02
  -1.839307e+02   2.942208e+01
  -1.308074e+02  -9.838712e+01
   1.657018e-02  -1.349737e+02
   9.482980e+01  -7.038119e+01
   6.403707e+01   9.989729e+00
  -5.614759e+01   2.148239e+01
  -1.312415e+02  -3.943671e+01
  -6.944654e+01  -1.043570e+02
   8.194110e+01  -1.072902e+02
   1.852321e+02  -4.236166e+01
   1.524771e+02   4.123847e+01
   2.888801e+01   8.270829e+01
  -6.284645e+01   5.693697e+01
  -4.536640e+01  -3.482176e+00
   4.233367e+01  -2.996845e+01
   9.270646e+01   2.128883e+01
   3.969189e+01   1.161088e+02
  -7.765031e+01   1.555477e+02
  -1.558163e+02   7.148244e+01
  -1.270582e+02  -8.856657e+01
  -1.890853e+01  -1.894813e+02
   8.002975e+01  -1.393233e+02
   1.031570e+02   1.072875e+01
   5.378607e+01   1.179311e+02
  -1.499153e+01   9.985588e+01
  -5.177718e+01   1.310613e+01
  -4.311411e+01  -3.158461e+01
  -1.447910e+01  -6.274496e+00
  -5.814969e+00   1.690406e+01
  -3.141026e+01  -2.295312e+01
  -5.698148e+01  -8.997738e+01
  -2.948592e+01  -1.027819e+02
   5.717605e+01  -4.061180e+01
   1.338474e+02   3.696963e+01
   1.200487e+02   6.873710e+01
   1.805605e+01   5.424342e+01
  -7.905769e+01   2.720346e+01
  -8.594180e+01   5.286195e+00
  -1.893216e+01  -1.323411e+01
   3.311458e+01  -2.204884e+01
   2.019837e+01  -1.249472e+01
  -1.308357e+01   3.721385e+00
   3.220530e+00   4.675619e+00
   6.526705e+01  -1.128624e+00
   9.262846e+01   2.260884e+01
   2.338108e+01   8.141562e+01
  -1.051691e+02   1.174023e+02
  -1.875508e+02   6.621243e+01
  -1.537898e+02  -5.700050e+01
  -3.341910e+01  -1.571012e+02
   7.986096e+01  -1.548333e+02
   1.162385e+02  -6.706401e+01
   8.032498e+01   1.761395e+01
   2.740034e+01   3.791266e+01
   4.210617e+00   1.419736e+01
   1.452963e+01   9.542710e+00
   2.916268e+01   4.923188e+01
   1.676234e+01   9.030811e+01
  -2.816189e+01   7.126762e+01
  -7.651641e+01  -1.328758e+01
  -8.016156e+01  -9.827717e+01
  -1.640455e+01  -1.082448e+02
   7.274962e+01  -3.323016e+01
   1.057020e+02   6.208525e+01
   4.124562e+01   1.023470e+02
  -6.389292e+01   6.631709e+01
  -1.048765e+02  -6.339862e+00
  -4.647272e+01  -5.918220e+01
   3.454982e+01  -6.303238e+01
   4.116274e+01  -2.856193e+01
  -2.516097e+01   7.624661e+00
  -6.786359e+01   9.599660e+00
  -1.886787e+01  -2.753406e+01
   7.699297e+01  -6.484826e+01
   1.193343e+02  -5.138958e+01
   7.038660e+01   1.733354e+01
  -1.364979e+01   8.368310e+01
  -5.822793e+01   8.183458e+01
  -4.560090e+01   1.300736e+01
  -7.588759e+00  -5.184334e+01
   2.393224e+01  -4.924101e+01
   3.775622e+01   9.167307e+00
   2.955622e+01   5.479809e+01
  -2.692601e-01   4.220106e+01
  -3.433818e+01  -3.817085e+00
  -4.335828e+01  -2.637943e+01
  -2.137550e+01  -5.417072e+00
   4.372005e+00   2.167502e+01
   5.779694e+00   1.113549e+01
  -7.568248e+00  -3.190146e+01
  -3.021306e+00  -5.636710e+01
   2.594895e+01  -2.660253e+01
   4.465793e+01   3.201177e+01
   1.765238e+01   5.968529e+01
  -3.835481e+01   2.728484e+01
  -6.374667e+01  -3.112064e+01
  -2.081834e+01  -5.894472e+01
   5.692292e+01  -3.603213e+01
   9.349846e+01   1.018378e+01
   5.086778e+01   4.228669e+01
  -2.821747e+01   4.609356e+01
  -6.483685e+01   2.978314e+01
  -2.982448e+01   7.422115e+00
   2.630341e+01  -5.244069e+00
   3.279432e+01   3.554152e+00
  -2.054783e+01   2.398253e+01
  -7.417207e+01   2.218568e+01
