
 $NMID
 id='ANONYMOUS ', fmtdat='(2E16.6)'
 volume=1.0
 tramp=1.0
 $END
   3.778224e+03  -2.940497e+01
   2.449861e+03   2.114220e+03
  -1.854297e+02   2.304182e+03
  -1.612976e+03   1.065553e+03
  -1.004081e+03  -3.015921e+02
   3.028337e+02  -4.404767e+02
   6.171756e+02   1.116175e+02
  -4.543479e+00   8.158036e+02
  -6.173326e+02   6.302482e+02
  -8.068134e+02   1.058080e+02
  -5.146403e+02  -7.362291e+02
  -1.171296e+01  -7.783072e+02
   4.705522e+02  -9.525863e+01
   3.251532e+02   5.245184e+02
  -1.762175e+02   5.753127e+02
  -4.449843e+02   1.756351e+01
  -3.275778e+02  -5.500828e+02
   1.687164e+02  -5.682086e+02
   5.021759e+02  -2.510621e+02
   4.296607e+02   2.132025e+02
   1.335769e+02   3.944964e+02
  -1.491122e+02   3.328491e+02
  -1.322787e+02   1.049936e+02
   1.596073e+02  -4.571331e+01
   3.700566e+02   1.831395e+02
   1.465236e+02   4.386510e+02
  -4.657656e+02   3.313082e+02
  -7.524539e+02  -1.210691e+02
  -3.630513e+02  -4.533072e+02
   3.576209e+02  -3.690008e+02
   6.493686e+02   8.298216e+01
   2.772531e+02   4.376465e+02
  -2.717743e+02   4.491749e+02
  -5.347573e+02   1.823175e+02
  -3.980009e+02  -1.812360e+02
  -9.121951e+01  -4.070081e+02
   1.264832e+02  -2.275690e+02
   8.389683e+01   1.882823e+02
  -1.673699e+02   3.383412e+02
  -3.808246e+02  -8.123226e+01
  -1.803289e+02  -6.355045e+02
   2.963445e+02  -6.406579e+02
   5.272302e+02  -3.135789e+00
   2.290080e+02   5.074020e+02
  -2.555300e+02   2.830239e+02
  -3.434354e+02  -3.204599e+02
   6.387231e+01  -5.405997e+02
   5.367147e+02  -1.328730e+02
   6.006087e+02   4.089302e+02
   1.805970e+02   5.946048e+02
  -3.691739e+02   3.492091e+02
  -6.171248e+02  -5.818050e+01
  -3.729646e+02  -3.328524e+02
   1.230374e+02  -3.203052e+02
   3.887190e+02  -7.328671e+01
   2.230834e+02   1.382095e+02
  -8.679177e+01   9.016579e+01
  -1.166990e+02  -1.051130e+02
   1.427050e+02  -1.443548e+02
   3.130786e+02   5.555147e+01
   1.445447e+02   2.666357e+02
  -1.931947e+02   2.803956e+02
  -3.695585e+02   1.178822e+02
  -2.616831e+02  -1.020648e+02
   1.359105e+01  -3.033369e+02
   2.757156e+02  -3.803216e+02
   3.834306e+02  -2.044852e+02
   2.816684e+02   1.619609e+02
   6.417216e+01   4.174285e+02
  -7.529391e+01   3.570011e+02
  -5.345124e+01   1.383163e+02
  -4.172488e+00   5.705825e+01
  -8.421864e+01   1.308204e+02
  -2.431309e+02   1.199487e+02
  -2.881442e+02  -8.447874e+01
  -1.397438e+02  -2.813347e+02
   8.834764e+01  -2.371117e+02
   2.228562e+02   1.992350e+01
   1.742140e+02   2.605170e+02
  -3.362538e+01   2.897269e+02
  -2.761743e+02   9.555357e+01
  -3.554043e+02  -1.783224e+02
  -1.891697e+02  -3.458228e+02
   7.707886e+01  -3.012589e+02
   2.048924e+02  -1.424189e+02
   1.534374e+02  -4.010497e+01
   1.249615e+02  -5.782012e+01
   2.619259e+02  -6.951991e+01
   4.322558e+02   6.273284e+01
   3.632244e+02   2.918720e+02
   7.708155e+00   4.618749e+02
  -3.779106e+02   4.386029e+02
  -5.069692e+02   2.176886e+02
  -3.324980e+02  -9.075294e+01
  -4.018867e+01  -2.868888e+02
   1.178414e+02  -2.356432e+02
   4.504171e+01  -2.640547e+01
  -1.296204e+02   8.784799e+01
  -1.821810e+02  -2.584654e+01
  -3.429214e+01  -1.910254e+02
   1.542398e+02  -1.535996e+02
   1.613147e+02   6.521002e+01
  -2.318125e+01   1.818318e+02
  -1.968451e+02   2.638074e+01
  -1.802776e+02  -2.521210e+02
   1.143895e+01  -3.690494e+02
   2.397201e+02  -2.233586e+02
   3.625803e+02   5.060827e+01
   3.031484e+02   2.552514e+02
   8.918562e+01   2.836997e+02
  -1.299196e+02   1.605982e+02
  -1.781408e+02   1.150144e+01
  -4.770893e+01  -2.906347e+01
   7.302596e+01   5.303996e+01
   2.083791e+01   1.308763e+02
  -1.322618e+02   9.076620e+01
  -1.760537e+02  -2.163645e+01
  -4.692501e+01  -6.886150e+01
   9.088355e+01  -6.637503e-01
   5.356013e+01   9.189768e+01
  -1.443435e+02   9.870033e+01
  -3.121183e+02  -2.929984e+00
  -2.803654e+02  -1.561939e+02
  -5.235866e+01  -2.735894e+02
   2.015301e+02  -2.688450e+02
   2.880257e+02  -1.246898e+02
   1.608458e+02   5.190756e+01
  -3.005734e+01   1.032574e+02
  -8.333028e+01   7.899492e-01
   4.546244e+01  -1.032731e+02
   2.029110e+02  -5.581131e+01
   2.153321e+02   1.072380e+02
   6.943847e+01   2.109573e+02
  -9.542087e+01   1.567404e+02
  -1.427369e+02   2.386709e+01
  -6.108195e+01  -4.325593e+01
   4.217384e+01   6.794323e+00
   4.256316e+01   1.015710e+02
  -8.267131e+01   1.274057e+02
  -2.163003e+02   3.135298e+01
  -2.029337e+02  -1.291110e+02
  -2.181629e+01  -2.247946e+02
   1.675263e+02  -1.690624e+02
   1.944455e+02  -9.877670e+00
   6.267765e+01   1.119919e+02
  -6.925797e+01   1.093351e+02
  -8.212721e+01   2.664456e+01
  -1.133655e+01  -2.910267e+01
   3.177781e+01  -1.488805e+01
  -6.901842e+00   1.973457e+01
  -8.163839e+01  -1.666130e-01
  -1.056040e+02  -8.840625e+01
  -2.323413e+01  -1.752493e+02
   1.339083e+02  -1.666770e+02
   2.489922e+02  -2.944940e+01
   2.147389e+02   1.532308e+02
   4.958146e+01   2.433049e+02
  -1.065784e+02   1.765001e+02
  -1.370250e+02   3.478022e+01
  -7.420457e+01  -4.966393e+01
  -3.176104e+01  -3.264064e+01
  -5.700474e+01   1.668553e+01
  -8.811711e+01   1.163872e+01
  -5.407247e+01  -5.123650e+01
   3.808734e+01  -9.941006e+01
   1.125471e+02  -6.765170e+01
   1.011277e+02   3.449120e+01
  -1.049461e+01   1.242019e+02
  -1.556380e+02   9.928596e+01
  -2.171589e+02  -5.141566e+01
  -1.089808e+02  -2.149808e+02
   1.138684e+02  -2.443686e+02
   2.810855e+02  -1.050661e+02
   2.680518e+02   8.498513e+01
   1.130604e+02   1.811007e+02
  -3.820443e+01   1.520635e+02
  -9.269568e+01   8.734407e+01
  -7.389134e+01   7.382417e+01
  -6.184384e+01   9.879064e+01
  -9.313524e+01   8.379493e+01
  -1.356648e+02  -1.684410e+01
  -1.284254e+02  -1.575537e+02
  -3.745815e+01  -2.349012e+02
   9.868853e+01  -1.798945e+02
   1.824837e+02  -2.266106e+01
   1.445251e+02   1.256251e+02
   2.112823e+01   1.660426e+02
  -7.320443e+01   9.599993e+01
  -6.673528e+01  -2.721755e+00
  -3.277858e+00  -5.047953e+01
   1.803630e+01  -3.884753e+01
  -3.452525e+01  -1.491763e+01
  -8.836056e+01  -1.770964e+01
  -5.274443e+01  -4.057804e+01
   7.086086e+01  -4.617114e+01
   1.759811e+02  -9.085032e+00
   1.547314e+02   5.582230e+01
   1.172714e+01   9.983838e+01
  -1.310200e+02   8.244014e+01
  -1.518470e+02   1.378354e+01
  -5.015897e+01  -4.632770e+01
   6.099219e+01  -4.329663e+01
   8.064770e+01   1.721018e+01
   1.714747e+01   7.208135e+01
  -4.892650e+01   6.469863e+01
  -6.699260e+01   3.440476e+00
  -5.483487e+01  -4.806915e+01
  -5.029158e+01  -4.105044e+01
  -6.177264e+01   3.676260e-01
  -6.873644e+01   1.933348e+00
  -4.493183e+01  -7.036372e+01
   2.358716e+01  -1.568238e+02
   1.186506e+02  -1.566988e+02
   1.783894e+02  -4.448869e+01
   1.382416e+02   9.061607e+01
   1.220427e+01   1.356135e+02
  -8.947258e+01   7.231411e+01
  -6.445390e+01  -1.043070e+01
   6.045387e+01  -2.179078e+01
   1.436111e+02   4.148747e+01
   8.036468e+01   1.097951e+02
  -8.291968e+01   1.183165e+02
  -1.983587e+02   5.649851e+01
  -1.691555e+02  -3.318275e+01
  -3.900631e+01  -8.859928e+01
   6.321889e+01  -7.229182e+01
   5.194177e+01  -6.575433e+00
  -3.820430e+01   3.176238e+01
  -9.518327e+01  -1.708096e+01
  -4.291774e+01  -1.193910e+02
   8.149595e+01  -1.644785e+02
   1.664006e+02  -7.544096e+01
   1.364956e+02   9.566685e+01
   2.201988e+01   2.037080e+02
  -8.284362e+01   1.526081e+02
  -1.112661e+02  -5.317723e+00
  -6.653711e+01  -1.227304e+02
   3.513603e+00  -1.110492e+02
   5.063439e+01  -2.144802e+01
   5.228705e+01   3.098344e+01
   2.290421e+01   7.772292e+00
   5.164802e+00  -2.044650e+01
   2.836675e+01   1.671810e+01
   6.366842e+01   9.062052e+01
   4.358620e+01   1.119816e+02
  -5.135252e+01   5.012555e+01
  -1.444757e+02  -3.320868e+01
  -1.353176e+02  -6.803583e+01
  -2.215875e+01  -5.254524e+01
   8.559118e+01  -2.737869e+01
   9.033611e+01  -9.654205e+00
   1.463175e+01   8.951096e+00
  -3.843320e+01   2.322091e+01
  -1.834144e+01   1.568491e+01
   1.839368e+01  -4.784676e+00
  -3.225112e+00  -8.386016e+00
  -7.115493e+01   1.908881e+00
  -9.628357e+01  -1.766317e+01
  -2.042844e+01  -8.132722e+01
   1.102206e+02  -1.260178e+02
   1.899872e+02  -7.545673e+01
   1.560747e+02   5.716403e+01
   3.872095e+01   1.656571e+02
  -7.466881e+01   1.630657e+02
  -1.170044e+02   7.002793e+01
  -8.504507e+01  -1.769581e+01
  -2.870360e+01  -3.659822e+01
  -2.583950e-01  -1.027091e+01
  -1.303047e+01  -5.265507e+00
  -3.578585e+01  -4.818947e+01
  -2.600995e+01  -9.396831e+01
   2.649693e+01  -7.648162e+01
   8.350214e+01   1.313848e+01
   8.696042e+01   1.045388e+02
   1.623995e+01   1.145166e+02
  -7.882685e+01   3.281569e+01
  -1.109172e+02  -6.703930e+01
  -4.283309e+01  -1.044162e+02
   6.425496e+01  -6.488552e+01
   1.053508e+02   5.121497e+00
   4.749140e+01   5.422670e+01
  -3.172719e+01   6.093507e+01
  -3.623761e+01   3.248348e+01
   3.066756e+01  -4.003139e+00
   7.133656e+01  -1.126603e+01
   1.871881e+01   2.611428e+01
  -7.914358e+01   7.218589e+01
  -1.209018e+02   6.437828e+01
  -7.140741e+01  -1.128811e+01
   1.090988e+01  -8.822864e+01
   5.347732e+01  -8.808868e+01
   4.180030e+01  -1.287965e+01
   7.665989e+00   5.526894e+01
  -2.211319e+01   4.837134e+01
  -3.760324e+01  -1.291391e+01
  -3.107965e+01  -5.400233e+01
  -2.595631e-01  -3.713258e+01
   3.463037e+01   5.761780e+00
   4.388017e+01   2.212654e+01
   2.201857e+01   2.099234e+00
  -3.732399e+00  -1.717131e+01
  -8.289049e+00  -2.325153e+00
  -1.592007e-01   3.478451e+01
  -6.042732e+00   4.922754e+01
  -2.847285e+01   1.556954e+01
  -3.742355e+01  -3.947360e+01
  -7.374465e+00  -6.102990e+01
   4.390204e+01  -2.502039e+01
   6.418753e+01   3.506577e+01
   2.029084e+01   6.350971e+01
  -5.722789e+01   3.942387e+01
  -9.494442e+01  -9.496161e+00
  -5.259205e+01  -4.296776e+01
   2.909764e+01  -4.559935e+01
   6.655181e+01  -2.752421e+01
   2.634523e+01  -6.285836e+00
  -3.493368e+01   2.286089e+00
  -3.766496e+01  -1.016237e+01
   2.681068e+01  -3.058277e+01
   8.719256e+01  -2.454865e+01
