
 $NMID
 id='ANONYMOUS ', fmtdat='(2E16.6)'
 volume=1.0
 tramp=1.0
 $END
  -4.400366e+03  -7.283577e+01
  -2.328034e+03  -2.795782e+03
   6.799851e+02  -2.823580e+03
   2.074286e+03  -9.119292e+02
   7.508677e+02   8.538516e+02
  -6.906180e+02   4.878804e+02
  -9.593089e+02  -3.946836e+02
  -3.449730e+01  -1.150154e+03
   9.650227e+02  -7.846264e+02
   9.800656e+02   1.402654e+02
   4.173488e+02   8.534687e+02
  -2.703376e+02   8.844293e+02
  -6.895937e+02   7.491399e+01
  -3.767362e+02  -8.110227e+02
   3.089971e+02  -8.301917e+02
   6.842433e+02   6.395973e+01
   2.399592e+02   7.611941e+02
  -3.803536e+02   6.749826e+02
  -6.435765e+02   2.243786e+01
  -3.586455e+02  -4.014569e+02
   5.561629e+00  -4.613788e+02
   2.657252e+02  -2.733392e+02
   2.024778e+02  -1.113952e+00
  -1.011562e+02   9.836138e+01
  -4.090343e+02  -8.550372e+01
  -1.899881e+02  -4.121638e+02
   4.785511e+02  -4.589249e+02
   8.596886e+02   8.560137e+01
   4.004729e+02   5.955312e+02
  -4.204371e+02   5.119412e+02
  -7.878050e+02  -4.712298e+01
  -3.296203e+02  -5.241453e+02
   3.167781e+02  -5.429042e+02
   5.851567e+02  -2.056968e+02
   4.442442e+02   2.568833e+02
   7.468426e+01   4.917011e+02
  -2.252031e+02   2.857893e+02
  -2.031098e+02  -2.306987e+02
   1.600008e+02  -4.843899e+02
   4.690327e+02   1.066908e+01
   2.737725e+02   7.159706e+02
  -3.198219e+02   7.366376e+02
  -6.305170e+02   9.904978e+00
  -2.837154e+02  -5.776329e+02
   2.918653e+02  -3.453840e+02
   4.055719e+02   3.222152e+02
  -5.129436e+01   5.619311e+02
  -5.593764e+02   1.642795e+02
  -6.099886e+02  -4.000240e+02
  -1.781360e+02  -6.059345e+02
   3.911891e+02  -3.765039e+02
   6.535057e+02   7.694116e+01
   3.930242e+02   4.242758e+02
  -1.624307e+02   4.086943e+02
  -4.713060e+02   6.267940e+01
  -2.618278e+02  -2.183986e+02
   1.193637e+02  -1.249593e+02
   1.493047e+02   1.561628e+02
  -1.751199e+02   1.971372e+02
  -3.710363e+02  -7.284052e+01
  -1.541268e+02  -3.087945e+02
   2.149877e+02  -2.686269e+02
   3.504571e+02  -7.992379e+01
   2.028763e+02   7.902062e+01
  -3.507463e+01   2.206286e+02
  -2.350230e+02   3.299060e+02
  -3.464925e+02   2.216964e+02
  -2.896753e+02  -1.501671e+02
  -6.292405e+01  -4.623037e+02
   1.410831e+02  -3.972165e+02
   1.368926e+02  -9.758742e+01
   1.650870e+01   3.676722e+01
   2.249693e+01  -8.021753e+01
   1.901099e+02  -1.482237e+02
   2.991987e+02   3.314197e+01
   1.821478e+02   2.748160e+02
  -7.107094e+01   2.811318e+02
  -2.460151e+02   2.723274e+01
  -2.126776e+02  -2.487058e+02
   1.530394e+01  -3.165428e+02
   2.826040e+02  -1.272810e+02
   3.749544e+02   1.819261e+02
   1.840357e+02   3.768531e+02
  -1.137793e+02   3.232540e+02
  -2.465675e+02   1.186411e+02
  -1.639918e+02  -8.247471e+00
  -1.037834e+02   2.591715e+01
  -2.326883e+02   5.726962e+01
  -3.996053e+02  -6.529195e+01
  -3.308279e+02  -2.951434e+02
   2.827958e+00  -4.527530e+02
   3.710750e+02  -4.157726e+02
   5.064955e+02  -1.963070e+02
   3.524151e+02   1.026176e+02
   5.680381e+01   3.134471e+02
  -1.438772e+02   2.672751e+02
  -9.986384e+01   3.034594e+01
   1.026378e+02  -1.176863e+02
   2.035795e+02  -8.252875e-01
   5.522149e+01   2.039149e+02
  -1.689228e+02   1.838435e+02
  -1.923408e+02  -6.077758e+01
   9.894135e+00  -2.031169e+02
   1.971443e+02  -3.892518e+01
   1.646563e+02   2.507860e+02
  -3.845647e+01   3.529744e+02
  -2.378212e+02   1.887776e+02
  -3.272221e+02  -7.282834e+01
  -2.759798e+02  -2.490232e+02
  -9.267777e+01  -2.720152e+02
   1.198906e+02  -1.653034e+02
   1.904747e+02  -1.917597e+01
   6.765579e+01   3.906702e+01
  -7.132621e+01  -3.274329e+01
  -3.502141e+01  -1.253109e+02
   1.258920e+02  -1.036716e+02
   1.877116e+02   1.263450e+01
   6.342500e+01   7.889057e+01
  -8.420638e+01   2.372327e+01
  -6.313050e+01  -7.015512e+01
   1.195331e+02  -8.835020e+01
   2.834949e+02  -2.449833e+00
   2.680222e+02   1.397618e+02
   6.290360e+01   2.599101e+02
  -1.886829e+02   2.679266e+02
  -2.949596e+02   1.281262e+02
  -1.792692e+02  -5.909939e+01
   2.674026e+01  -1.204468e+02
   1.014847e+02  -1.187195e+01
  -2.629233e+01   1.076695e+02
  -1.999259e+02   6.652189e+01
  -2.222999e+02  -1.034691e+02
  -7.217636e+01  -2.167687e+02
   1.012968e+02  -1.670804e+02
   1.557291e+02  -3.114396e+01
   7.895370e+01   4.765366e+01
  -2.677726e+01   1.315365e+01
  -4.187229e+01  -7.569253e+01
   6.747630e+01  -1.126652e+02
   1.992620e+02  -3.253179e+01
   1.971083e+02   1.245728e+02
   2.354911e+01   2.273153e+02
  -1.718134e+02   1.733098e+02
  -2.066140e+02   6.057330e+00
  -7.351187e+01  -1.232871e+02
   6.858052e+01  -1.202006e+02
   9.173393e+01  -3.425197e+01
   2.635566e+01   2.674216e+01
  -1.935754e+01   2.219445e+01
   7.184767e+00  -3.191974e+00
   6.694180e+01   1.176110e+01
   8.678724e+01   8.006333e+01
   1.583534e+01   1.548233e+02
  -1.249532e+02   1.525271e+02
  -2.346382e+02   2.813077e+01
  -2.028741e+02  -1.504117e+02
  -4.088148e+01  -2.425115e+02
   1.129622e+02  -1.739117e+02
   1.396800e+02  -2.354624e+01
   7.276201e+01   6.235240e+01
   2.826435e+01   3.991087e+01
   4.950776e+01  -1.126868e+01
   7.466502e+01  -7.388635e+00
   3.762872e+01   4.699669e+01
  -4.191141e+01   8.327694e+01
  -9.729730e+01   5.131443e+01
  -8.273661e+01  -3.544457e+01
   1.274421e+01  -1.064485e+02
   1.398353e+02  -8.366003e+01
   1.975284e+02   5.039826e+01
   1.033359e+02   2.014656e+02
  -1.053253e+02   2.312581e+02
  -2.709114e+02   9.784650e+01
  -2.634608e+02  -8.918312e+01
  -1.122284e+02  -1.830231e+02
   4.278651e+01  -1.510542e+02
   1.014405e+02  -8.396810e+01
   8.545502e+01  -6.698111e+01
   6.958372e+01  -8.849425e+01
   9.337289e+01  -7.203925e+01
   1.283763e+02   2.453717e+01
   1.172712e+02   1.581341e+02
   2.700511e+01   2.310357e+02
  -1.033423e+02   1.757887e+02
  -1.800174e+02   2.046200e+01
  -1.391913e+02  -1.243707e+02
  -2.068846e+01  -1.628952e+02
   6.614575e+01  -9.483898e+01
   5.961923e+01  -3.280616e+00
   6.387047e+00   3.987757e+01
  -7.843017e+00   3.301382e+01
   3.704675e+01   1.848373e+01
   7.843341e+01   2.277052e+01
   4.584461e+01   3.697410e+01
  -5.960652e+01   3.581953e+01
  -1.543112e+02   3.493321e+00
  -1.436135e+02  -4.985206e+01
  -1.714127e+01  -8.779270e+01
   1.218143e+02  -7.369513e+01
   1.485421e+02  -1.170070e+01
   4.899779e+01   4.335106e+01
  -6.371729e+01   3.810780e+01
  -7.845517e+01  -2.042812e+01
  -5.045300e+00  -6.953869e+01
   6.036444e+01  -5.698986e+01
   6.432572e+01   4.455827e+00
   4.108085e+01   5.254065e+01
   4.062466e+01   4.378604e+01
   6.108876e+01   3.805026e+00
   6.572758e+01   1.439775e+00
   3.226123e+01   6.767780e+01
  -3.663459e+01   1.439212e+02
  -1.176451e+02   1.384180e+02
  -1.626418e+02   3.013379e+01
  -1.209451e+02  -9.308060e+01
  -5.689332e+00  -1.259004e+02
   8.620255e+01  -6.001500e+01
   5.975452e+01   1.608383e+01
  -5.929871e+01   2.000909e+01
  -1.378625e+02  -4.457044e+01
  -7.601537e+01  -1.087860e+02
   8.138271e+01  -1.134998e+02
   1.925272e+02  -5.281468e+01
   1.640018e+02   3.400586e+01
   3.804310e+01   8.795904e+01
  -6.055066e+01   7.197195e+01
  -4.866807e+01   9.072809e+00
   3.897256e+01  -2.466026e+01
   8.942704e+01   2.501195e+01
   2.932929e+01   1.197433e+02
  -9.603000e+01   1.524327e+02
  -1.702483e+02   5.867456e+01
  -1.261991e+02  -1.034465e+02
  -8.014322e+00  -1.985068e+02
   8.712211e+01  -1.445668e+02
   1.047614e+02   5.877271e+00
   6.085185e+01   1.173795e+02
  -3.881780e-01   1.067828e+02
  -4.453424e+01   2.038543e+01
  -5.220393e+01  -3.192976e+01
  -2.706674e+01  -9.049782e+00
  -3.709332e+00   2.173497e+01
  -1.860334e+01  -1.344008e+01
  -5.408980e+01  -8.841412e+01
  -4.228067e+01  -1.105518e+02
   4.561350e+01  -4.491391e+01
   1.378251e+02   4.205045e+01
   1.297802e+02   7.338803e+01
   1.636541e+01   4.997618e+01
  -9.029925e+01   2.084702e+01
  -9.018868e+01   6.866843e+00
  -1.094828e+01  -7.527820e+00
   3.956333e+01  -2.348516e+01
   1.470309e+01  -2.046638e+01
  -2.108751e+01   1.178206e-01
   6.591818e+00   1.061832e+01
   7.499174e+01   7.685670e+00
   8.968546e+01   2.683707e+01
   4.093154e+00   7.966852e+01
  -1.221129e+02   1.095848e+02
  -1.851606e+02   5.225824e+01
  -1.376506e+02  -7.117041e+01
  -2.130569e+01  -1.616633e+02
   8.158931e+01  -1.468018e+02
   1.148638e+02  -5.548848e+01
   8.036460e+01   2.292653e+01
   2.407026e+01   3.567970e+01
  -3.962527e+00   8.405523e+00
   9.712811e+00   3.678872e+00
   3.288782e+01   4.523707e+01
   2.196916e+01   8.997550e+01
  -3.031436e+01   7.116983e+01
  -8.070108e+01  -2.048495e+01
  -7.374286e+01  -1.104942e+02
   1.822632e-01  -1.117606e+02
   8.357926e+01  -1.970794e+01
   1.000043e+02   7.960249e+01
   2.781411e+01   1.037208e+02
  -6.807311e+01   5.220612e+01
  -9.617459e+01  -1.495080e+01
  -3.637715e+01  -5.045704e+01
   3.413114e+01  -4.976403e+01
   3.079378e+01  -2.748641e+01
  -3.503825e+01  -6.278273e-01
  -6.968333e+01   5.939226e+00
  -1.408353e+01  -2.446785e+01
   8.032754e+01  -6.441186e+01
   1.154462e+02  -5.762745e+01
   6.204024e+01   1.168812e+01
  -1.805635e+01   8.151551e+01
  -5.337420e+01   7.679858e+01
  -3.461757e+01   3.295197e+00
   2.276811e+00  -5.573867e+01
   2.817243e+01  -3.994860e+01
   3.556675e+01   2.192268e+01
   2.392736e+01   5.533022e+01
  -5.059927e+00   3.133049e+01
  -3.337156e+01  -1.063558e+01
  -3.868279e+01  -2.171247e+01
  -2.036005e+01  -8.753469e-01
  -1.889423e-01   1.349066e+01
   6.565032e+00  -4.880047e+00
   8.939327e+00  -3.799297e+01
   2.054697e+01  -4.392122e+01
   3.382855e+01  -5.135297e+00
   2.789570e+01   4.724822e+01
  -5.399091e+00   6.154902e+01
  -4.510750e+01   1.945916e+01
  -5.400999e+01  -4.078017e+01
  -1.215744e+01  -6.360560e+01
   5.490807e+01  -3.250172e+01
   8.742431e+01   1.848284e+01
   4.763586e+01   4.635179e+01
  -3.035788e+01   4.049212e+01
  -6.664496e+01   1.895851e+01
  -2.467158e+01   3.077990e+00
   3.847874e+01   2.865746e+00
   3.863021e+01   1.737064e+01
  -3.252787e+01   3.108464e+01
  -9.427247e+01   1.700731e+01
