
 $NMID
 id='ANONYMOUS ', fmtdat='(2E16.6)'
 volume=1.0
 tramp=1.0
 $END
   4.608302e+03   1.332102e+02
   2.679134e+03   2.646928e+03
  -7.646972e+02   3.037538e+03
  -2.116308e+03   9.421345e+02
  -9.794807e+02  -8.814240e+02
   7.049735e+02  -6.806328e+02
   9.780748e+02   4.925418e+02
  -1.198919e+01   1.161598e+03
  -8.802029e+02   8.268469e+02
  -1.053432e+03  -2.023490e+02
  -5.429060e+02  -9.899215e+02
   3.724318e+02  -9.956094e+02
   7.136377e+02  -5.689980e+01
   4.516449e+02   7.744431e+02
  -2.528225e+02   7.317008e+02
  -6.783994e+02  -6.725316e+01
  -2.563678e+02  -6.823832e+02
   4.084646e+02  -6.450165e+02
   6.446812e+02  -7.315169e+01
   3.960885e+02   4.019043e+02
  -7.653770e+00   4.753006e+02
  -3.117945e+02   2.882608e+02
  -2.492782e+02   3.392221e+01
   1.047572e+02  -7.667169e+01
   4.199578e+02   1.172350e+02
   2.369770e+02   4.643015e+02
  -4.723822e+02   4.703139e+02
  -8.948974e+02  -2.988973e+01
  -4.972397e+02  -5.945615e+02
   3.768864e+02  -5.613431e+02
   7.685242e+02  -6.392173e+00
   3.739504e+02   5.034128e+02
  -2.605730e+02   5.528511e+02
  -5.640512e+02   2.179760e+02
  -4.281138e+02  -2.396513e+02
  -9.298571e+01  -4.960790e+02
   2.205821e+02  -3.186475e+02
   2.048080e+02   2.193614e+02
  -1.559175e+02   4.537113e+02
  -5.016467e+02  -2.447090e+01
  -2.874870e+02  -7.223270e+02
   3.485251e+02  -7.508850e+02
   6.612102e+02   2.662232e+00
   2.955493e+02   6.020787e+02
  -3.169584e+02   3.398111e+02
  -4.109760e+02  -3.511053e+02
   8.505423e+01  -5.865545e+02
   5.901343e+02  -1.444781e+02
   6.122989e+02   4.376617e+02
   1.612802e+02   6.067597e+02
  -3.982779e+02   3.389450e+02
  -6.407276e+02  -9.511745e+01
  -3.689630e+02  -4.028392e+02
   1.700376e+02  -3.721675e+02
   4.669784e+02  -5.372412e+01
   2.488163e+02   1.993262e+02
  -1.373169e+02   9.549186e+01
  -1.611239e+02  -1.839325e+02
   1.819481e+02  -2.085387e+02
   3.893107e+02   8.645132e+01
   1.632692e+02   3.308709e+02
  -2.184164e+02   2.703401e+02
  -3.468424e+02   5.454372e+01
  -1.827507e+02  -1.016832e+02
   4.900083e+01  -2.115282e+02
   2.213247e+02  -2.980939e+02
   3.204971e+02  -2.025393e+02
   2.879624e+02   1.382713e+02
   9.336143e+01   4.422981e+02
  -1.102818e+02   4.022232e+02
  -1.408577e+02   1.276223e+02
  -5.195113e+01  -1.378895e+01
  -5.290419e+01   7.406264e+01
  -1.863478e+02   1.231002e+02
  -2.724989e+02  -4.587365e+01
  -1.678447e+02  -2.615657e+02
   5.442818e+01  -2.612864e+02
   2.250131e+02  -2.968484e+01
   2.167874e+02   2.235074e+02
   9.026338e+00   2.966601e+02
  -2.662029e+02   1.332894e+02
  -3.801958e+02  -1.619558e+02
  -2.018079e+02  -3.644835e+02
   1.067621e+02  -3.228098e+02
   2.448041e+02  -1.236765e+02
   1.565339e+02   3.284259e+00
   9.548112e+01  -3.215318e+01
   2.350335e+02  -7.074603e+01
   4.098177e+02   5.246836e+01
   3.397554e+02   2.854429e+02
  -2.623094e+00   4.483194e+02
  -3.599533e+02   4.205769e+02
  -4.896266e+02   2.117119e+02
  -3.421051e+02  -8.655247e+01
  -6.489296e+01  -3.008069e+02
   1.265412e+02  -2.704296e+02
   8.849940e+01  -4.210180e+01
  -1.023867e+02   1.109356e+02
  -1.966497e+02   2.819375e+00
  -5.246811e+01  -1.949617e+02
   1.630042e+02  -1.780373e+02
   1.818731e+02   6.169318e+01
  -2.206919e+01   2.002922e+02
  -2.023541e+02   3.656400e+01
  -1.639091e+02  -2.547586e+02
   3.607100e+01  -3.592717e+02
   2.315888e+02  -1.961871e+02
   3.226328e+02   6.146219e+01
   2.789941e+02   2.379312e+02
   1.049506e+02   2.650715e+02
  -1.038445e+02   1.645576e+02
  -1.775307e+02   2.387378e+01
  -6.380046e+01  -3.318823e+01
   6.744747e+01   3.857962e+01
   3.110601e+01   1.290558e+02
  -1.219756e+02   1.046277e+02
  -1.790382e+02  -1.082944e+01
  -6.214018e+01  -7.185939e+01
   7.322190e+01  -1.614323e+01
   5.015497e+01   7.020792e+01
  -1.203849e+02   8.082658e+01
  -2.731656e+02  -2.083244e+00
  -2.609799e+02  -1.337537e+02
  -6.986334e+01  -2.494722e+02
   1.720248e+02  -2.660664e+02
   2.830276e+02  -1.388202e+02
   1.809352e+02   4.424298e+01
  -1.483235e+01   1.115454e+02
  -8.947974e+01   1.191683e+01
   3.067509e+01  -1.022356e+02
   1.962424e+02  -6.238763e+01
   2.166135e+02   1.015895e+02
   7.331364e+01   2.097974e+02
  -9.056518e+01   1.610658e+02
  -1.416386e+02   3.330859e+01
  -7.252740e+01  -3.723729e+01
   2.249378e+01  -1.709976e+00
   3.471491e+01   8.007933e+01
  -6.903310e+01   1.095003e+02
  -1.946942e+02   2.969609e+01
  -1.933019e+02  -1.196229e+02
  -2.577524e+01  -2.167370e+02
   1.631012e+02  -1.668422e+02
   1.959337e+02  -1.018503e+01
   6.796768e+01   1.126020e+02
  -6.458263e+01   1.114430e+02
  -8.157862e+01   3.190776e+01
  -1.923056e+01  -2.412020e+01
   1.779552e+01  -1.897100e+01
  -1.190111e+01   4.744574e+00
  -6.624524e+01  -1.094413e+01
  -8.106739e+01  -7.957767e+01
  -1.332132e+01  -1.531117e+02
   1.220774e+02  -1.501867e+02
   2.306317e+02  -2.808292e+01
   2.038005e+02   1.475607e+02
   4.360872e+01   2.384959e+02
  -1.105015e+02   1.731652e+02
  -1.379793e+02   2.963915e+01
  -7.030728e+01  -5.451087e+01
  -2.836391e+01  -3.658856e+01
  -5.584023e+01   8.838064e+00
  -8.160406e+01   2.049672e+00
  -4.028482e+01  -5.051401e+01
   4.417534e+01  -8.548807e+01
   1.013169e+02  -5.279138e+01
   8.213569e+01   3.279590e+01
  -1.342271e+01   1.060382e+02
  -1.367378e+02   8.442647e+01
  -1.937877e+02  -4.846248e+01
  -1.018792e+02  -1.984551e+02
   1.021931e+02  -2.304441e+02
   2.655195e+02  -9.957564e+01
   2.608514e+02   8.410980e+01
   1.141666e+02   1.772012e+02
  -3.605462e+01   1.488701e+02
  -9.392937e+01   8.606493e+01
  -8.154147e+01   7.124797e+01
  -6.989297e+01   9.210214e+01
  -9.379664e+01   7.358869e+01
  -1.280978e+02  -2.326461e+01
  -1.174701e+02  -1.535219e+02
  -3.128388e+01  -2.253446e+02
   9.712588e+01  -1.733941e+02
   1.757806e+02  -2.335960e+01
   1.382458e+02   1.205601e+02
   2.059289e+01   1.611987e+02
  -6.692705e+01   9.479007e+01
  -6.088881e+01   2.097295e+00
  -6.425539e+00  -4.249230e+01
   8.945540e+00  -3.567528e+01
  -3.601033e+01  -2.079455e+01
  -7.688488e+01  -2.469294e+01
  -4.209381e+01  -3.744199e+01
   6.378634e+01  -3.448026e+01
   1.562553e+02  -2.485202e+00
   1.429557e+02   4.872152e+01
   1.795824e+01   8.604203e+01
  -1.171625e+02   7.520545e+01
  -1.437295e+02   1.731317e+01
  -4.928762e+01  -3.815149e+01
   5.842687e+01  -3.797942e+01
   7.444229e+01   1.718162e+01
   7.404574e+00   6.752499e+01
  -5.423157e+01   5.852329e+01
  -6.125326e+01  -1.293295e+00
  -4.339495e+01  -4.956990e+01
  -4.458249e+01  -4.102308e+01
  -6.315294e+01  -1.352889e+00
  -6.682294e+01   1.895673e-01
  -3.466216e+01  -6.765276e+01
   3.295476e+01  -1.462614e+02
   1.149497e+02  -1.414338e+02
   1.624128e+02  -3.310280e+01
   1.223519e+02   9.030068e+01
   7.511448e+00   1.240676e+02
  -8.384520e+01   5.966662e+01
  -5.886330e+01  -1.458054e+01
   5.842262e+01  -1.817737e+01
   1.357980e+02   4.406836e+01
   7.604950e+01   1.056271e+02
  -7.849875e+01   1.105576e+02
  -1.889233e+02   5.210455e+01
  -1.627955e+02  -3.226376e+01
  -3.839708e+01  -8.585782e+01
   6.108415e+01  -7.044954e+01
   5.007279e+01  -6.989791e+00
  -3.877658e+01   2.777572e+01
  -9.204501e+01  -2.220814e+01
  -3.360421e+01  -1.199551e+02
   9.262985e+01  -1.557244e+02
   1.693568e+02  -6.250892e+01
   1.270718e+02   1.012938e+02
   9.808867e+00   1.982986e+02
  -8.478757e+01   1.447130e+02
  -1.032711e+02  -5.829461e+00
  -6.101232e+01  -1.170845e+02
  -1.275445e-01  -1.064509e+02
   4.475806e+01  -2.073695e+01
   5.330287e+01   3.073591e+01
   2.763022e+01   8.568300e+00
   3.679648e+00  -2.054696e+01
   1.915993e+01   1.523126e+01
   5.580333e+01   8.908313e+01
   4.406557e+01   1.104183e+02
  -4.544341e+01   4.605799e+01
  -1.395575e+02  -3.903952e+01
  -1.324805e+02  -7.065221e+01
  -1.832146e+01  -4.949805e+01
   8.902142e+01  -2.260087e+01
   8.927313e+01  -8.195131e+00
   9.920615e+00   7.381560e+00
  -3.969438e+01   2.280269e+01
  -1.348492e+01   1.859325e+01
   2.276272e+01  -1.481042e+00
  -6.103758e+00  -8.954145e+00
  -7.681918e+01  -3.792253e+00
  -9.348129e+01  -2.456940e+01
  -7.441989e+00  -8.216170e+01
   1.214394e+02  -1.156961e+02
   1.874388e+02  -5.791322e+01
   1.414017e+02   6.945927e+01
   2.504059e+01   1.634912e+02
  -7.893797e+01   1.500229e+02
  -1.142291e+02   5.783741e+01
  -8.124546e+01  -2.205837e+01
  -2.551368e+01  -3.537946e+01
   3.462297e+00  -8.098556e+00
  -9.475028e+00  -3.018826e+00
  -3.367506e+01  -4.498455e+01
  -2.373109e+01  -9.069988e+01
   2.922036e+01  -7.322063e+01
   8.225850e+01   1.840509e+01
   7.727574e+01   1.103192e+02
   2.461972e+00   1.145033e+02
  -8.458173e+01   2.364155e+01
  -1.036361e+02  -7.786119e+01
  -3.111086e+01  -1.051576e+02
   6.681838e+01  -5.526847e+01
   9.693395e+01   1.238374e+01
   3.816275e+01   4.959794e+01
  -3.212482e+01   4.993125e+01
  -2.945843e+01   2.750511e+01
   3.535207e+01   8.755976e-02
   6.891150e+01  -6.391422e+00
   1.380437e+01   2.465369e+01
  -7.922856e+01   6.556670e+01
  -1.138372e+02   5.838901e+01
  -6.164029e+01  -1.235824e+01
   1.687501e+01  -8.345918e+01
   5.280677e+01  -7.841724e+01
   3.655824e+01  -3.177845e+00
   9.233183e-01   5.779924e+01
  -2.646706e+01   4.249390e+01
  -3.726823e+01  -1.989251e+01
  -2.689494e+01  -5.447659e+01
   3.126166e+00  -3.222956e+01
   3.315232e+01   8.665831e+00
   3.946557e+01   1.994904e+01
   2.080138e+01  -2.943430e-02
   3.080999e-01  -1.347448e+01
  -6.088542e+00   4.477336e+00
  -7.566447e+00   3.712050e+01
  -1.840928e+01   4.368228e+01
  -3.246208e+01   6.149251e+00
  -2.816241e+01  -4.598728e+01
   4.326414e+00  -6.050605e+01
   4.476828e+01  -1.902262e+01
   5.493919e+01   4.097533e+01
   1.320987e+01   6.366416e+01
  -5.489161e+01   3.346621e+01
  -8.811659e+01  -1.636585e+01
  -4.852429e+01  -4.414872e+01
   2.888358e+01  -3.940071e+01
   6.389397e+01  -1.993418e+01
   2.255459e+01  -4.732444e+00
  -3.883674e+01  -3.676299e+00
  -3.780113e+01  -1.736896e+01
   3.254350e+01  -3.202600e+01
   9.324316e+01  -1.937786e+01
