
 $NMID
 id='ANONYMOUS ', fmtdat='(2E16.6)'
 volume=1.0
 tramp=1.0
 $END
   4.147209e+03   1.557338e+02
   2.731032e+03   2.365405e+03
  -5.694016e+02   2.724074e+03
  -1.992380e+03   1.062354e+03
  -1.199506e+03  -6.537472e+02
   2.834332e+02  -4.465781e+02
   7.358990e+02   3.701952e+02
   9.005511e+01   8.737610e+02
  -6.167972e+02   7.025592e+02
  -9.774070e+02  -1.263348e+02
  -5.686407e+02  -8.569662e+02
   2.433278e+02  -8.923686e+02
   6.238437e+02  -1.463300e+02
   3.986271e+02   6.874332e+02
  -2.494863e+02   7.147163e+02
  -6.374591e+02  -1.356658e+01
  -2.456372e+02  -7.129885e+02
   2.965297e+02  -6.889943e+02
   6.055889e+02  -1.879930e+02
   4.727726e+02   3.232214e+02
   5.024682e+01   4.537256e+02
  -2.630403e+02   3.006499e+02
  -1.593344e+02   7.995151e+01
   1.366912e+02   1.871673e+01
   3.709841e+02   1.615099e+02
   1.176988e+02   3.851629e+02
  -4.929124e+02   3.108372e+02
  -7.700844e+02  -6.299729e+01
  -3.877790e+02  -5.049586e+02
   3.596791e+02  -4.303007e+02
   6.483063e+02   1.211977e+01
   3.095499e+02   4.299467e+02
  -2.474033e+02   5.107426e+02
  -5.368188e+02   2.075841e+02
  -4.028140e+02  -2.138876e+02
  -1.182982e+02  -4.235631e+02
   1.370339e+02  -2.881007e+02
   9.237861e+01   1.632179e+02
  -1.573262e+02   3.161069e+02
  -3.484000e+02  -6.131766e+01
  -1.717900e+02  -6.175789e+02
   3.036776e+02  -6.124663e+02
   5.030762e+02  -9.702420e+00
   2.144655e+02   4.550996e+02
  -2.305232e+02   2.409236e+02
  -3.007374e+02  -3.066816e+02
   9.481746e+01  -4.923969e+02
   5.335150e+02  -1.121345e+02
   5.689238e+02   3.932240e+02
   1.874004e+02   5.511434e+02
  -3.287316e+02   3.210282e+02
  -5.908857e+02  -5.482427e+01
  -3.902561e+02  -3.239848e+02
   9.224627e+01  -3.191283e+02
   4.022148e+02  -8.834930e+01
   2.665611e+02   1.107316e+02
  -5.912956e+01   6.353270e+01
  -1.180082e+02  -1.237278e+02
   1.462706e+02  -1.471501e+02
   3.380775e+02   6.691285e+01
   1.680232e+02   2.769809e+02
  -1.844680e+02   2.738593e+02
  -3.543683e+02   1.076215e+02
  -2.293059e+02  -8.511450e+01
   2.996882e+01  -2.559632e+02
   2.472060e+02  -3.429052e+02
   3.397513e+02  -2.083531e+02
   2.729889e+02   1.385606e+02
   8.673432e+01   4.209404e+02
  -7.526455e+01   3.898017e+02
  -9.943950e+01   1.553791e+02
  -5.300241e+01   2.557404e+01
  -8.567681e+01   7.828268e+01
  -2.037632e+02   9.599767e+01
  -2.582560e+02  -6.455685e+01
  -1.465521e+02  -2.524572e+02
   5.951663e+01  -2.379166e+02
   2.101154e+02  -8.327461e+00
   1.927638e+02   2.317774e+02
  -6.626537e+00   2.851891e+02
  -2.624665e+02   1.100483e+02
  -3.687988e+02  -1.641574e+02
  -2.071612e+02  -3.449056e+02
   7.869847e+01  -3.145850e+02
   2.186196e+02  -1.533004e+02
   1.631090e+02  -4.317447e+01
   1.288387e+02  -5.368531e+01
   2.641920e+02  -5.529412e+01
   4.232607e+02   7.350428e+01
   3.425000e+02   2.979023e+02
  -1.045901e+01   4.545806e+02
  -3.729864e+02   4.231765e+02
  -4.981520e+02   2.078572e+02
  -3.305508e+02  -8.628527e+01
  -5.778304e+01  -2.822031e+02
   1.038710e+02  -2.516686e+02
   5.618915e+01  -5.156142e+01
  -1.057361e+02   8.051308e+01
  -1.682530e+02  -8.283785e+00
  -3.858351e+01  -1.693392e+02
   1.357794e+02  -1.544344e+02
   1.517154e+02   5.007168e+01
  -2.111429e+01   1.698037e+02
  -1.840659e+02   2.263868e+01
  -1.667545e+02  -2.497658e+02
   2.200988e+01  -3.655711e+02
   2.400596e+02  -2.140997e+02
   3.522048e+02   5.841999e+01
   2.951405e+02   2.539301e+02
   9.533408e+01   2.773841e+02
  -1.142090e+02   1.613225e+02
  -1.716178e+02   2.154335e+01
  -5.857876e+01  -2.042959e+01
   5.509730e+01   4.970933e+01
   1.468946e+01   1.220810e+02
  -1.216592e+02   8.905343e+01
  -1.645041e+02  -1.559454e+01
  -5.042344e+01  -6.405315e+01
   7.489990e+01  -5.833789e+00
   4.318778e+01   7.870737e+01
  -1.361590e+02   8.629048e+01
  -2.917294e+02  -6.782385e+00
  -2.655164e+02  -1.495379e+02
  -5.391538e+01  -2.619337e+02
   1.904246e+02  -2.629662e+02
   2.829679e+02  -1.297638e+02
   1.682297e+02   4.230099e+01
  -1.825150e+01   1.017778e+02
  -7.855803e+01   1.216895e+01
   3.996068e+01  -8.903369e+01
   1.928864e+02  -5.227414e+01
   2.085097e+02   9.856727e+01
   7.082270e+01   2.009461e+02
  -8.725520e+01   1.565206e+02
  -1.355511e+02   3.373913e+01
  -6.452966e+01  -3.265611e+01
   2.751748e+01   9.429066e+00
   2.905517e+01   9.397653e+01
  -8.333837e+01   1.152107e+02
  -2.053731e+02   2.400664e+01
  -1.938650e+02  -1.271531e+02
  -2.408730e+01  -2.182443e+02
   1.590416e+02  -1.676929e+02
   1.902406e+02  -1.772188e+01
   6.815925e+01   1.016793e+02
  -5.867144e+01   1.067252e+02
  -7.333416e+01   3.366683e+01
  -8.906958e+00  -1.966200e+01
   2.598529e+01  -1.125059e+01
  -1.537070e+01   1.466916e+01
  -8.250015e+01  -8.298998e+00
  -9.513246e+01  -9.026447e+01
  -9.787834e+00  -1.692558e+02
   1.366606e+02  -1.556222e+02
   2.393750e+02  -2.074883e+01
   2.052579e+02   1.555151e+02
   4.653443e+01   2.392035e+02
  -1.038479e+02   1.731327e+02
  -1.387752e+02   3.496127e+01
  -7.904144e+01  -4.788829e+01
  -3.456247e+01  -3.288527e+01
  -5.736892e+01   1.109043e+01
  -8.658022e+01   2.438930e+00
  -4.928191e+01  -5.565560e+01
   4.392704e+01  -9.808732e+01
   1.170462e+02  -6.012452e+01
   9.657606e+01   3.988714e+01
  -1.803269e+01   1.191901e+02
  -1.566537e+02   8.894427e+01
  -2.040234e+02  -5.901486e+01
  -9.401510e+01  -2.101892e+02
   1.154168e+02  -2.315965e+02
   2.713498e+02  -9.506045e+01
   2.601311e+02   8.604331e+01
   1.133441e+02   1.752679e+02
  -3.518919e+01   1.471084e+02
  -9.255799e+01   8.889309e+01
  -7.887236e+01   7.659003e+01
  -6.761815e+01   9.834777e+01
  -9.632210e+01   7.969236e+01
  -1.356843e+02  -2.118902e+01
  -1.239908e+02  -1.588460e+02
  -3.182530e+01  -2.341759e+02
   1.001674e+02  -1.776738e+02
   1.776399e+02  -1.983649e+01
   1.364417e+02   1.268843e+02
   1.623134e+01   1.630934e+02
  -7.165329e+01   8.932119e+01
  -6.200381e+01  -7.301250e+00
  -4.225817e-01  -4.929976e+01
   1.830775e+01  -3.548740e+01
  -3.302906e+01  -1.550397e+01
  -8.331738e+01  -2.150634e+01
  -4.793312e+01  -3.965881e+01
   6.944164e+01  -3.725108e+01
   1.687651e+02   3.023611e-01
   1.480708e+02   5.635599e+01
   1.003475e+01   9.262237e+01
  -1.291279e+02   7.672471e+01
  -1.498292e+02   1.412675e+01
  -4.968603e+01  -4.415501e+01
   6.067852e+01  -4.385594e+01
   7.951559e+01   1.581422e+01
   1.446693e+01   7.323526e+01
  -5.189723e+01   6.682829e+01
  -6.787722e+01   2.021059e+00
  -5.342294e+01  -5.258079e+01
  -4.899414e+01  -4.466353e+01
  -6.257447e+01  -1.542354e+00
  -6.834318e+01  -9.403314e-01
  -4.032749e+01  -7.424713e+01
   3.155308e+01  -1.562707e+02
   1.245810e+02  -1.484106e+02
   1.773460e+02  -3.309469e+01
   1.310864e+02   9.635388e+01
   5.574926e+00   1.328559e+02
  -9.167637e+01   6.711938e+01
  -6.438611e+01  -1.246888e+01
   5.827514e+01  -2.092562e+01
   1.384496e+02   4.161775e+01
   7.698492e+01   1.075385e+02
  -8.137023e+01   1.133873e+02
  -1.929631e+02   5.129007e+01
  -1.643921e+02  -3.583533e+01
  -3.693543e+01  -8.696163e+01
   6.312835e+01  -6.738224e+01
   4.962515e+01  -3.034532e+00
  -4.257767e+01   2.983518e+01
  -9.802843e+01  -2.217056e+01
  -4.025227e+01  -1.233290e+02
   8.877090e+01  -1.638054e+02
   1.706240e+02  -7.241091e+01
   1.331718e+02   9.671056e+01
   1.514753e+01   2.007877e+02
  -8.413998e+01   1.478694e+02
  -1.044652e+02  -7.511263e+00
  -5.860450e+01  -1.207045e+02
   5.694955e+00  -1.061288e+02
   4.798349e+01  -1.758539e+01
   5.067438e+01   3.182295e+01
   2.355183e+01   7.298434e+00
   4.444059e+00  -1.981958e+01
   2.398672e+01   1.932372e+01
   5.839521e+01   9.239349e+01
   4.084636e+01   1.101513e+02
  -5.118441e+01   4.487283e+01
  -1.427962e+02  -3.899524e+01
  -1.330174e+02  -7.126560e+01
  -1.903025e+01  -5.276644e+01
   8.794275e+01  -2.612980e+01
   9.053858e+01  -8.470148e+00
   1.407072e+01   9.032472e+00
  -3.697780e+01   2.284012e+01
  -1.507060e+01   1.661754e+01
   2.014176e+01  -2.103827e+00
  -5.755685e+00  -6.621251e+00
  -7.571211e+01  -8.129681e-01
  -9.680602e+01  -2.425226e+01
  -1.420687e+01  -8.555607e+01
   1.194161e+02  -1.221047e+02
   1.952690e+02  -6.465455e+01
   1.530880e+02   6.664872e+01
   3.050202e+01   1.678274e+02
  -8.217672e+01   1.591844e+02
  -1.196402e+02   6.556761e+01
  -8.416551e+01  -1.992120e+01
  -2.708690e+01  -3.784946e+01
   6.657062e-01  -1.162992e+01
  -1.207612e+01  -5.749506e+00
  -3.389614e+01  -4.754699e+01
  -2.307477e+01  -9.312680e+01
   2.912162e+01  -7.520711e+01
   8.369224e+01   1.637683e+01
   8.294164e+01   1.095470e+02
   9.015864e+00   1.170011e+02
  -8.429469e+01   2.955221e+01
  -1.105976e+02  -7.407101e+01
  -3.770048e+01  -1.085885e+02
   6.809479e+01  -6.303680e+01
   1.041480e+02   9.651919e+00
   4.328226e+01   5.534061e+01
  -3.406454e+01   5.783340e+01
  -3.510746e+01   2.908731e+01
   3.242502e+01  -3.967280e+00
   7.063027e+01  -8.922977e+00
   1.658068e+01   2.677807e+01
  -8.079227e+01   6.944689e+01
  -1.205728e+02   5.930181e+01
  -6.899826e+01  -1.534186e+01
   1.476128e+01  -8.886664e+01
   5.726875e+01  -8.523346e+01
   4.404322e+01  -8.248076e+00
   6.199673e+00   5.830748e+01
  -2.537748e+01   4.874458e+01
  -3.962228e+01  -1.456289e+01
  -3.009665e+01  -5.601372e+01
   1.454454e+00  -3.749040e+01
   3.459221e+01   6.210192e+00
   4.226827e+01   2.277502e+01
   2.156367e+01   1.822372e+00
  -1.296574e+00  -1.789029e+01
  -5.097583e+00  -1.901920e+00
  -3.395210e-01   3.684306e+01
  -9.667419e+00   5.115047e+01
  -3.148693e+01   1.549576e+01
  -3.689220e+01  -4.147866e+01
  -5.256521e+00  -6.215666e+01
   4.366869e+01  -2.305159e+01
   6.101073e+01   3.826631e+01
   1.721536e+01   6.381340e+01
  -5.778276e+01   3.578661e+01
  -9.455937e+01  -1.375961e+01
  -5.270755e+01  -4.433319e+01
   2.882997e+01  -4.426202e+01
   6.676148e+01  -2.634852e+01
   2.718410e+01  -6.989197e+00
  -3.480604e+01   3.114941e-01
  -3.766899e+01  -1.167751e+01
   2.779405e+01  -3.063660e+01
   8.876376e+01  -2.316815e+01
