
 $NMID
 id='ANONYMOUS ', fmtdat='(2E16.6)'
 volume=1.0
 tramp=1.0
 $END
  -4.747077e+03   6.086170e+01
  -2.669200e+03  -2.754416e+03
   7.617429e+02  -3.052809e+03
   1.933495e+03  -1.034477e+03
   9.367377e+02   6.749629e+02
  -4.616665e+02   7.935099e+02
  -9.075329e+02  -4.128610e+02
  -1.948508e+02  -1.147143e+03
   8.564358e+02  -8.006189e+02
   9.332428e+02   1.534537e+02
   5.093068e+02   8.693048e+02
  -2.443066e+02   9.450286e+02
  -6.828951e+02   9.179395e+01
  -4.628360e+02  -7.774693e+02
   3.200484e+02  -7.906247e+02
   7.253613e+02  -1.029824e+01
   3.281556e+02   6.969240e+02
  -3.715967e+02   6.916373e+02
  -6.373406e+02   1.333593e+02
  -4.243914e+02  -3.703144e+02
  -4.046779e+01  -4.980730e+02
   2.497490e+02  -3.262880e+02
   2.343374e+02  -6.063537e+01
  -1.073611e+02   7.480823e+01
  -4.220732e+02  -1.128248e+02
  -1.850138e+02  -4.603077e+02
   4.319466e+02  -4.412089e+02
   8.619090e+02   3.494677e+01
   4.901051e+02   5.460126e+02
  -3.647705e+02   5.242686e+02
  -7.516774e+02   3.366801e+00
  -3.988022e+02  -4.882733e+02
   2.302900e+02  -5.430441e+02
   5.695323e+02  -2.488902e+02
   4.578968e+02   2.030796e+02
   1.295527e+02   5.032078e+02
  -2.118503e+02   3.379376e+02
  -2.264257e+02  -2.096876e+02
   1.540391e+02  -4.566811e+02
   4.981799e+02  -1.315144e+01
   3.098848e+02   7.216358e+02
  -3.204650e+02   7.885178e+02
  -6.713330e+02   3.937722e+01
  -3.015509e+02  -5.883575e+02
   3.238452e+02  -3.601188e+02
   4.349265e+02   3.401604e+02
  -6.716889e+01   5.990810e+02
  -5.939597e+02   1.573230e+02
  -6.262844e+02  -4.301748e+02
  -1.663587e+02  -6.101694e+02
   4.050461e+02  -3.466102e+02
   6.593337e+02   8.351184e+01
   3.882860e+02   4.044857e+02
  -1.728534e+02   3.943445e+02
  -4.875879e+02   6.757688e+01
  -2.631494e+02  -2.192232e+02
   1.478981e+02  -1.288832e+02
   1.877901e+02   1.759447e+02
  -1.661092e+02   2.391711e+02
  -3.980002e+02  -4.807550e+01
  -1.886530e+02  -3.212143e+02
   1.956696e+02  -2.895681e+02
   3.382038e+02  -7.531585e+01
   1.868601e+02   9.751262e+01
  -4.383669e+01   2.162115e+02
  -2.221848e+02   2.987569e+02
  -3.238340e+02   2.005701e+02
  -2.854170e+02  -1.355266e+02
  -8.748644e+01  -4.373194e+02
   1.090785e+02  -4.025384e+02
   1.328360e+02  -1.336588e+02
   4.974618e+01   8.095498e+00
   6.394263e+01  -7.484379e+01
   2.003975e+02  -1.200820e+02
   2.776628e+02   5.224566e+01
   1.676138e+02   2.691991e+02
  -4.951670e+01   2.638548e+02
  -2.129465e+02   2.884233e+01
  -2.085714e+02  -2.191836e+02
  -1.736460e+01  -2.886783e+02
   2.517908e+02  -1.315793e+02
   3.753794e+02   1.519734e+02
   2.110102e+02   3.564607e+02
  -9.749041e+01   3.257030e+02
  -2.458721e+02   1.282546e+02
  -1.601792e+02  -7.270806e+00
  -8.939953e+01   2.372499e+01
  -2.270806e+02   7.255223e+01
  -4.139526e+02  -4.125420e+01
  -3.518913e+02  -2.825750e+02
  -5.696954e+00  -4.474022e+02
   3.617217e+02  -4.241211e+02
   4.898625e+02  -2.168743e+02
   3.375799e+02   8.068053e+01
   6.045411e+01   2.941622e+02
  -1.254086e+02   2.673335e+02
  -8.121166e+01   3.923069e+01
   1.094722e+02  -1.166426e+02
   2.037084e+02  -3.920789e+00
   5.999285e+01   2.033591e+02
  -1.615126e+02   1.932496e+02
  -1.883123e+02  -5.043313e+01
   1.440414e+01  -2.012606e+02
   1.967703e+02  -3.900224e+01
   1.640819e+02   2.536342e+02
  -3.439423e+01   3.579041e+02
  -2.303889e+02   1.941741e+02
  -3.223670e+02  -6.338339e+01
  -2.802250e+02  -2.342876e+02
  -1.064448e+02  -2.584407e+02
   1.042713e+02  -1.617456e+02
   1.790527e+02  -2.619257e+01
   6.262939e+01   3.142471e+01
  -7.367037e+01  -3.675502e+01
  -3.801714e+01  -1.269631e+02
   1.201914e+02  -1.065974e+02
   1.822348e+02   6.826181e+00
   6.437461e+01   7.111104e+01
  -7.609425e+01   1.800238e+01
  -5.498351e+01  -6.953953e+01
   1.181370e+02  -8.322832e+01
   2.728768e+02  -1.981084e+00
   2.605125e+02   1.284756e+02
   7.037954e+01   2.438566e+02
  -1.692052e+02   2.631120e+02
  -2.781849e+02   1.400479e+02
  -1.767017e+02  -4.163286e+01
   1.750686e+01  -1.113308e+02
   9.182855e+01  -1.303333e+01
  -2.977209e+01   1.040229e+02
  -1.974097e+02   6.668848e+01
  -2.191426e+02  -9.925316e+01
  -7.438089e+01  -2.110721e+02
   9.114817e+01  -1.628615e+02
   1.426892e+02  -3.324998e+01
   7.277860e+01   3.808110e+01
  -2.182508e+01   2.069487e+00
  -3.338348e+01  -7.939908e+01
   6.885645e+01  -1.080956e+02
   1.923413e+02  -2.867170e+01
   1.901432e+02   1.194586e+02
   2.361768e+01   2.160022e+02
  -1.635008e+02   1.653195e+02
  -1.943519e+02   7.384513e+00
  -6.475789e+01  -1.152669e+02
   6.721947e+01  -1.120633e+02
   8.150986e+01  -3.037241e+01
   1.700381e+01   2.469126e+01
  -1.800052e+01   1.658929e+01
   1.511200e+01  -7.461870e+00
   7.031421e+01   1.182847e+01
   8.162993e+01   8.343474e+01
   1.166127e+01   1.555737e+02
  -1.213493e+02   1.484897e+02
  -2.281540e+02   2.686476e+01
  -2.023760e+02  -1.458680e+02
  -4.551944e+01  -2.351436e+02
   1.075094e+02  -1.708786e+02
   1.361108e+02  -2.988784e+01
   6.874887e+01   5.373538e+01
   2.788114e+01   3.635601e+01
   5.660111e+01  -9.929920e+00
   8.299340e+01  -3.649556e+00
   4.057154e+01   4.918252e+01
  -4.641796e+01   8.448771e+01
  -1.023553e+02   5.285299e+01
  -7.868397e+01  -3.304232e+01
   1.606163e+01  -1.045025e+02
   1.370902e+02  -8.325018e+01
   1.924029e+02   4.831146e+01
   1.026888e+02   1.974611e+02
  -9.885884e+01   2.284640e+02
  -2.635872e+02   9.949890e+01
  -2.613859e+02  -8.176517e+01
  -1.160753e+02  -1.744426e+02
   3.463423e+01  -1.476335e+02
   9.361887e+01  -8.691480e+01
   8.089861e+01  -7.325920e+01
   6.919485e+01  -9.327198e+01
   9.290448e+01  -7.463372e+01
   1.275814e+02   2.135816e+01
   1.182155e+02   1.516758e+02
   3.293516e+01   2.248574e+02
  -9.467448e+01   1.748489e+02
  -1.736329e+02   2.514529e+01
  -1.371062e+02  -1.191070e+02
  -2.166641e+01  -1.593993e+02
   6.414732e+01  -9.304645e+01
   5.771143e+01  -1.772048e+00
   4.887493e+00   4.011623e+01
  -7.569416e+00   3.243971e+01
   3.906933e+01   1.935348e+01
   7.879525e+01   2.591322e+01
   4.210232e+01   3.858571e+01
  -6.421951e+01   3.323047e+01
  -1.550171e+02   4.727861e-01
  -1.403111e+02  -4.839238e+01
  -1.614987e+01  -8.298211e+01
   1.169371e+02  -7.244155e+01
   1.419988e+02  -1.746402e+01
   4.781040e+01   3.636436e+01
  -5.847606e+01   3.702263e+01
  -7.353491e+01  -1.669764e+01
  -6.568869e+00  -6.738943e+01
   5.431958e+01  -5.901822e+01
   6.073427e+01   1.123883e+00
   4.310736e+01   5.001894e+01
   4.478504e+01   4.172777e+01
   6.275874e+01   1.379914e+00
   6.572324e+01  -1.734473e-01
   3.366374e+01   6.760158e+01
  -3.266476e+01   1.458212e+02
  -1.142068e+02   1.407420e+02
  -1.625054e+02   3.208198e+01
  -1.234422e+02  -9.130164e+01
  -7.541731e+00  -1.247969e+02
   8.572339e+01  -5.974322e+01
   6.013538e+01   1.581190e+01
  -5.830079e+01   1.918606e+01
  -1.366090e+02  -4.406751e+01
  -7.582468e+01  -1.064590e+02
   7.966020e+01  -1.111932e+02
   1.896752e+02  -5.222380e+01
   1.629306e+02   3.244837e+01
   3.872806e+01   8.683387e+01
  -6.061279e+01   7.244164e+01
  -5.033266e+01   8.600901e+00
   3.807322e+01  -2.867421e+01
   9.203468e+01   1.974157e+01
   3.463926e+01   1.187749e+02
  -9.186670e+01   1.576042e+02
  -1.690359e+02   6.538611e+01
  -1.275343e+02  -1.005401e+02
  -1.047460e+01  -1.994741e+02
   8.425334e+01  -1.453387e+02
   1.023547e+02   6.787149e+00
   6.031023e+01   1.174418e+02
   5.566662e-01   1.048136e+02
  -4.396561e+01   1.876731e+01
  -5.298202e+01  -3.096460e+01
  -2.738098e+01  -7.533294e+00
  -2.793550e+00   2.118647e+01
  -1.791496e+01  -1.546095e+01
  -5.522769e+01  -8.883849e+01
  -4.476684e+01  -1.090142e+02
   4.475938e+01  -4.493741e+01
   1.393755e+02   3.861092e+01
   1.322255e+02   6.914568e+01
   1.816985e+01   4.842999e+01
  -8.851182e+01   2.248275e+01
  -8.747328e+01   8.929886e+00
  -8.591055e+00  -6.684309e+00
   3.959246e+01  -2.221036e+01
   1.276206e+01  -1.766139e+01
  -2.278892e+01   2.260704e+00
   6.697341e+00   8.924620e+00
   7.696943e+01   3.231962e+00
   9.266746e+01   2.499062e+01
   6.614188e+00   8.396682e+01
  -1.216394e+02   1.175358e+02
  -1.874575e+02   5.800208e+01
  -1.419821e+02  -7.063803e+01
  -2.607265e+01  -1.642152e+02
   7.791041e+01  -1.492686e+02
   1.135056e+02  -5.732356e+01
   8.097494e+01   2.126240e+01
   2.506583e+01   3.418530e+01
  -4.004825e+00   7.839854e+00
   9.215552e+00   3.515711e+00
   3.361207e+01   4.477555e+01
   2.420824e+01   8.939342e+01
  -2.912142e+01   7.212278e+01
  -8.319880e+01  -1.821939e+01
  -7.872937e+01  -1.101134e+02
  -3.251186e+00  -1.150378e+02
   8.539390e+01  -2.458316e+01
   1.048879e+02   7.702729e+01
   3.173504e+01   1.049107e+02
  -6.713314e+01   5.503138e+01
  -9.713972e+01  -1.271766e+01
  -3.774667e+01  -4.952701e+01
   3.253906e+01  -4.991196e+01
   2.935064e+01  -2.709152e+01
  -3.595655e+01   3.294223e-01
  -6.935693e+01   6.435331e+00
  -1.403852e+01  -2.541880e+01
   7.904546e+01  -6.704741e+01
   1.136509e+02  -5.977474e+01
   6.226358e+01   1.211114e+01
  -1.549105e+01   8.381017e+01
  -5.176211e+01   7.870696e+01
  -3.656019e+01   3.434865e+00
  -2.089915e+00  -5.742903e+01
   2.555527e+01  -4.208209e+01
   3.729793e+01   1.928525e+01
   2.700483e+01   5.334007e+01
  -3.132929e+00   3.097051e+01
  -3.300439e+01  -8.961451e+00
  -3.829086e+01  -1.971062e+01
  -1.975826e+01   2.166688e-01
  -2.084451e-01   1.363460e+01
   5.328568e+00  -4.761895e+00
   7.426834e+00  -3.796853e+01
   1.949333e+01  -4.445594e+01
   3.384597e+01  -5.741773e+00
   2.850604e+01   4.761096e+01
  -5.328928e+00   6.204905e+01
  -4.626986e+01   1.906330e+01
  -5.564098e+01  -4.231953e+01
  -1.290028e+01  -6.515389e+01
   5.588743e+01  -3.353968e+01
   8.904360e+01   1.678987e+01
   4.870766e+01   4.418414e+01
  -2.929153e+01   3.930376e+01
  -6.432236e+01   1.995928e+01
  -2.145323e+01   4.479828e+00
   4.115505e+01   3.362264e+00
   3.975362e+01   1.827361e+01
  -3.257503e+01   3.456146e+01
  -9.501710e+01   2.230930e+01
