
 $NMID
 id='ANONYMOUS ', fmtdat='(2E16.6)'
 volume=1.0
 tramp=1.0
 $END
  -3.138793e+03   2.349407e+01
  -2.144326e+03  -1.496574e+03
   3.764358e+02  -1.888429e+03
   1.668102e+03  -8.465104e+02
   1.013363e+03   4.152106e+01
  -4.363560e+02   1.544111e+02
  -5.221473e+02  -1.446493e+02
  -9.107376e+00  -6.301635e+02
   5.618474e+02  -5.932289e+02
   5.900464e+02  -7.646183e+01
   2.994075e+02   6.153515e+02
  -1.502254e+02   6.621929e+02
  -2.920477e+02   1.335023e+02
  -2.306207e+02  -4.044831e+02
   1.187360e+02  -5.177763e+02
   3.475542e+02  -6.157713e+01
   2.641500e+02   5.295934e+02
  -1.557348e+02   5.063030e+02
  -4.105722e+02   1.769721e+02
  -3.716876e+02  -1.664873e+02
  -1.067212e+02  -2.787271e+02
   1.467219e+02  -1.675614e+02
   8.980199e+01  -2.378227e+01
  -1.397372e+02  -2.494714e+01
  -2.865837e+02  -2.417731e+02
  -4.797984e+01  -3.275417e+02
   3.942085e+02  -1.762501e+02
   5.901608e+02   1.815260e+02
   2.165732e+02   3.635114e+02
  -3.253080e+02   2.272293e+02
  -5.236821e+02  -1.222300e+02
  -1.954005e+02  -3.330520e+02
   2.686305e+02  -3.301367e+02
   4.461778e+02  -1.097288e+02
   2.853121e+02   1.526790e+02
   2.570070e+01   2.999556e+02
  -6.134937e+01   1.670190e+02
   1.023691e+01  -1.098404e+02
   1.707622e+02  -1.927135e+02
   2.064426e+02   1.206309e+02
   5.416632e+01   4.682296e+02
  -2.258603e+02   4.345410e+02
  -3.278663e+02   2.143501e+00
  -1.554710e+02  -3.130947e+02
   1.260584e+02  -1.588175e+02
   1.892423e+02   2.349096e+02
  -8.298502e+01   3.654517e+02
  -4.141562e+02   6.023172e+01
  -4.663915e+02  -3.264836e+02
  -1.502891e+02  -4.668669e+02
   2.863725e+02  -2.787975e+02
   4.990061e+02   3.949540e+01
   3.237817e+02   2.516194e+02
  -5.098907e+01   2.464225e+02
  -2.832064e+02   9.475076e+01
  -2.098722e+02  -4.427451e+01
  -2.103201e+00  -4.589097e+01
   5.231763e+01   4.104249e+01
  -9.464914e+01   6.734038e+01
  -2.167629e+02  -3.635962e+01
  -1.176430e+02  -1.781204e+02
   1.328614e+02  -2.262351e+02
   2.994821e+02  -1.307065e+02
   2.373621e+02   6.935636e+01
  -6.829987e-01   2.742346e+02
  -2.451945e+02   3.389032e+02
  -3.392601e+02   1.681985e+02
  -2.406806e+02  -1.426583e+02
  -5.457961e+01  -3.450065e+02
   5.703786e+01  -3.003031e+02
   4.354807e+01  -1.395689e+02
   1.575769e+01  -7.484469e+01
   8.855373e+01  -1.108617e+02
   2.143714e+02  -7.689223e+01
   2.384092e+02   9.516457e+01
   9.843247e+01   2.442343e+02
  -9.738694e+01   1.914076e+02
  -1.979128e+02  -3.711003e+01
  -1.318732e+02  -2.390713e+02
   5.254544e+01  -2.430228e+02
   2.361931e+02  -5.812357e+01
   2.777389e+02   1.592115e+02
   1.451048e+02   2.704574e+02
  -5.130700e+01   2.378633e+02
  -1.491410e+02   1.392877e+02
  -1.268985e+02   7.445262e+01
  -1.325678e+02   6.559698e+01
  -2.533331e+02   3.254301e+01
  -3.781064e+02  -9.249915e+01
  -2.921698e+02  -2.751569e+02
   2.185172e+01  -4.010321e+02
   3.511084e+02  -3.655677e+02
   4.440094e+02  -1.593120e+02
   2.729260e+02   9.745637e+01
   2.047969e+01   2.402288e+02
  -9.096979e+01   1.837246e+02
  -1.684137e+01   2.420943e+01
   1.146048e+02  -4.791732e+01
   1.332762e+02   3.938621e+01
   1.212512e+01   1.501408e+02
  -1.192518e+02   1.107194e+02
  -1.164106e+02  -4.938026e+01
   2.011588e+01  -1.317746e+02
   1.528766e+02  -5.866601e+00
   1.416886e+02   2.159063e+02
  -2.096695e+01   3.147406e+02
  -2.258635e+02   1.869944e+02
  -3.290561e+02  -5.956587e+01
  -2.550460e+02  -2.402177e+02
  -5.413065e+01  -2.503814e+02
   1.216217e+02  -1.274243e+02
   1.404555e+02  -4.083780e+00
   3.030407e+01   1.490269e+01
  -5.348857e+01  -5.570506e+01
  -1.615964e+00  -1.067150e+02
   1.155181e+02  -6.459095e+01
   1.399899e+02   2.484664e+01
   2.960294e+01   5.423410e+01
  -8.039471e+01  -8.779251e+00
  -4.037856e+01  -8.749152e+01
   1.375584e+02  -8.600607e+01
   2.827494e+02   1.611488e+01
   2.406169e+02   1.580185e+02
   2.474668e+01   2.479381e+02
  -1.954956e+02   2.208371e+02
  -2.515055e+02   8.916839e+01
  -1.278992e+02  -4.686491e+01
   2.981177e+01  -7.672320e+01
   6.244854e+01   4.698087e+00
  -4.839257e+01   7.781152e+01
  -1.733047e+02   3.342521e+01
  -1.767304e+02  -9.669668e+01
  -5.256284e+01  -1.758886e+02
   8.397109e+01  -1.268841e+02
   1.186224e+02  -1.518508e+01
   4.406638e+01   3.588657e+01
  -4.048923e+01  -1.651220e+01
  -2.772790e+01  -9.971645e+01
   8.822711e+01  -1.102347e+02
   1.950176e+02  -1.388262e+01
   1.690599e+02   1.245494e+02
   9.275988e+00   1.958981e+02
  -1.469275e+02   1.415738e+02
  -1.648294e+02   8.176092e+00
  -5.206515e+01  -9.273910e+01
   5.899289e+01  -9.207152e+01
   6.877611e+01  -2.284940e+01
   3.095219e+00   2.531793e+01
  -3.527744e+01   1.002082e+01
   7.068844e+00  -2.330874e+01
   8.267139e+01  -1.394588e+00
   9.962289e+01   8.520402e+01
   1.113738e+01   1.623625e+02
  -1.332124e+02   1.423306e+02
  -2.231226e+02   1.046940e+01
  -1.786192e+02  -1.461064e+02
  -3.379852e+01  -2.124376e+02
   9.535804e+01  -1.497762e+02
   1.201835e+02  -2.887258e+01
   6.888117e+01   4.338539e+01
   3.109286e+01   2.820636e+01
   5.090711e+01  -1.479763e+01
   7.996380e+01  -8.135315e+00
   5.082671e+01   5.397738e+01
  -3.763956e+01   9.897808e+01
  -1.132234e+02   6.136416e+01
  -9.804806e+01  -4.479378e+01
   1.789429e+01  -1.212648e+02
   1.521653e+02  -8.317397e+01
   1.908726e+02   6.172048e+01
   7.885021e+01   1.965735e+02
  -1.142327e+02   2.057598e+02
  -2.466687e+02   7.703389e+01
  -2.262094e+02  -8.339803e+01
  -9.162480e+01  -1.571573e+02
   3.689774e+01  -1.284172e+02
   8.323020e+01  -7.355437e+01
   6.486347e+01  -6.337035e+01
   5.298459e+01  -8.642966e+01
   8.291148e+01  -7.299909e+01
   1.220001e+02   1.755851e+01
   1.105440e+02   1.425049e+02
   2.440791e+01   2.071953e+02
  -9.327430e+01   1.525063e+02
  -1.580358e+02   1.106303e+01
  -1.180644e+02  -1.150057e+02
  -9.728137e+00  -1.430334e+02
   6.937775e+01  -7.679096e+01
   5.868572e+01   9.442540e+00
  -2.476710e+00   4.806042e+01
  -2.415318e+01   3.433206e+01
   2.522556e+01   1.204419e+01
   7.851674e+01   1.543258e+01
   4.751632e+01   3.596920e+01
  -6.603518e+01   3.811283e+01
  -1.593474e+02   5.807363e-01
  -1.332576e+02  -5.768081e+01
  -1.591988e-01  -9.126995e+01
   1.234566e+02  -6.802138e+01
   1.343386e+02  -3.144848e+00
   4.104844e+01   4.834963e+01
  -5.603913e+01   4.045912e+01
  -7.325153e+01  -1.797323e+01
  -1.812375e+01  -6.792277e+01
   4.310621e+01  -5.929283e+01
   6.390813e+01  -1.427815e+00
   5.268237e+01   4.589687e+01
   4.269386e+01   3.878925e+01
   5.014686e+01   1.249032e+00
   6.002656e+01   1.385217e+00
   4.148789e+01   6.629753e+01
  -2.405672e+01   1.393149e+02
  -1.146073e+02   1.333180e+02
  -1.651696e+02   3.152257e+01
  -1.197089e+02  -8.574647e+01
  -2.069981e+00  -1.218671e+02
   8.544467e+01  -6.396238e+01
   5.749789e+01   9.896104e+00
  -5.384096e+01   2.032830e+01
  -1.243887e+02  -3.678387e+01
  -6.578227e+01  -9.749851e+01
   7.674973e+01  -1.014566e+02
   1.739056e+02  -4.164282e+01
   1.435071e+02   3.725652e+01
   2.792622e+01   7.837018e+01
  -5.829522e+01   5.647876e+01
  -4.368822e+01  -5.772531e-01
   3.625196e+01  -2.771110e+01
   8.301168e+01   1.866477e+01
   3.542690e+01   1.060812e+02
  -7.188871e+01   1.421463e+02
  -1.436785e+02   6.360939e+01
  -1.169475e+02  -8.424074e+01
  -1.684908e+01  -1.766420e+02
   7.523034e+01  -1.296332e+02
   9.778737e+01   9.524497e+00
   5.296425e+01   1.102286e+02
  -1.122020e+01   9.570148e+01
  -4.806563e+01   1.542270e+01
  -4.221532e+01  -2.858918e+01
  -1.526707e+01  -6.799659e+00
  -5.576449e+00   1.597716e+01
  -2.890040e+01  -1.884311e+01
  -5.444628e+01  -8.189103e+01
  -3.003402e+01  -9.629042e+01
   5.162819e+01  -3.943297e+01
   1.248076e+02   3.348919e+01
   1.120471e+02   6.337963e+01
   1.585944e+01   4.862331e+01
  -7.472838e+01   2.345146e+01
  -7.927736e+01   4.607145e+00
  -1.548820e+01  -1.167881e+01
   3.224893e+01  -2.087125e+01
   1.871236e+01  -1.213670e+01
  -1.289359e+01   4.502951e+00
   2.814132e+00   6.212024e+00
   6.032923e+01  -1.498203e+00
   8.445009e+01   1.753997e+01
   2.089009e+01   7.216782e+01
  -9.550798e+01   1.088098e+02
  -1.696368e+02   6.365905e+01
  -1.396477e+02  -5.083565e+01
  -3.168808e+01  -1.446982e+02
   7.149600e+01  -1.427247e+02
   1.063345e+02  -6.141713e+01
   7.440355e+01   1.663072e+01
   2.490060e+01   3.473712e+01
   2.300749e+00   1.247642e+01
   1.240075e+01   8.107521e+00
   2.774187e+01   4.469197e+01
   1.704926e+01   8.238077e+01
  -2.538810e+01   6.513971e+01
  -7.087716e+01  -1.289139e+01
  -7.378679e+01  -9.115458e+01
  -1.460363e+01  -9.970184e+01
   6.743894e+01  -2.979019e+01
   9.717134e+01   5.792673e+01
   3.799672e+01   9.347398e+01
  -5.748027e+01   5.943402e+01
  -9.495174e+01  -5.773229e+00
  -4.244583e+01  -5.261769e+01
   3.105865e+01  -5.660081e+01
   3.680759e+01  -2.669369e+01
  -2.356970e+01   6.149221e+00
  -6.261980e+01   9.589538e+00
  -1.793625e+01  -2.441179e+01
   6.985524e+01  -6.058401e+01
   1.093224e+02  -5.031544e+01
   6.522513e+01   1.392912e+01
  -1.123844e+01   7.674662e+01
  -5.206584e+01   7.563210e+01
  -4.060004e+01   1.189296e+01
  -6.110596e+00  -4.761253e+01
   2.226193e+01  -4.398144e+01
   3.431730e+01   9.513325e+00
   2.641001e+01   4.936975e+01
  -1.023500e+00   3.657765e+01
  -3.120044e+01  -4.360807e+00
  -3.868382e+01  -2.310869e+01
  -1.865863e+01  -4.583368e+00
   4.194691e+00   1.779145e+01
   6.457672e+00   7.333279e+00
  -3.557263e+00  -2.913640e+01
   7.671172e-01  -4.778658e+01
   2.511458e+01  -1.998283e+01
   3.852824e+01   3.175329e+01
   1.280384e+01   5.510396e+01
  -3.691157e+01   2.531301e+01
  -5.885908e+01  -2.820855e+01
  -1.964503e+01  -5.461899e+01
   5.090971e+01  -3.423847e+01
   8.504877e+01   8.520171e+00
   4.690915e+01   3.857370e+01
  -2.562725e+01   4.202873e+01
  -5.941103e+01   2.637733e+01
  -2.674397e+01   6.044545e+00
   2.551173e+01  -4.118262e+00
   3.079897e+01   5.041636e+00
  -2.021103e+01   2.333575e+01
  -7.057587e+01   1.984071e+01
