
 $NMID
 id='ANONYMOUS ', fmtdat='(2E16.6)'
 volume=1.0
 tramp=1.0
 $END
   4.170137e+03  -3.677770e+01
   2.442334e+03   2.703029e+03
  -5.640046e+02   2.919465e+03
  -1.842872e+03   9.116696e+02
  -7.841057e+02  -5.415890e+02
   5.310011e+02  -5.884635e+02
   8.896913e+02   4.600236e+02
   1.300524e+02   1.140548e+03
  -7.881083e+02   8.030047e+02
  -8.692499e+02  -1.095077e+02
  -4.765636e+02  -8.987827e+02
   3.215102e+02  -8.371094e+02
   6.223316e+02  -1.558855e+02
   4.012046e+02   7.244492e+02
  -3.547081e+02   7.120879e+02
  -6.494267e+02  -2.776656e+01
  -2.415282e+02  -6.543320e+02
   3.307903e+02  -6.879283e+02
   6.191280e+02  -1.021989e+02
   3.344408e+02   3.334304e+02
  -2.308674e+01   4.869271e+02
  -1.948911e+02   2.186238e+02
  -1.655449e+02   2.601253e+01
   1.224788e+02  -5.505869e+01
   4.063650e+02   1.204046e+02
   1.962301e+02   4.821927e+02
  -4.413786e+02   4.525668e+02
  -8.496017e+02  -5.763226e+01
  -4.599703e+02  -5.450652e+02
   3.833035e+02  -4.882996e+02
   7.367761e+02   2.553841e+01
   3.609101e+02   5.039438e+02
  -2.800060e+02   5.176691e+02
  -5.987683e+02   2.104798e+02
  -4.212399e+02  -2.378942e+02
  -7.108961e+01  -4.898436e+02
   2.203029e+02  -2.824338e+02
   1.888298e+02   2.224841e+02
  -1.927814e+02   4.472778e+02
  -4.899856e+02  -1.280589e+01
  -2.638168e+02  -7.236334e+02
   3.437646e+02  -7.474619e+02
   6.540508e+02   3.773497e+00
   2.569525e+02   5.833874e+02
  -3.252612e+02   3.388443e+02
  -4.045928e+02  -3.580006e+02
   7.448932e+01  -5.875267e+02
   5.767693e+02  -1.487055e+02
   6.050062e+02   4.381328e+02
   1.545413e+02   6.155971e+02
  -4.003189e+02   3.397021e+02
  -6.389111e+02  -9.768506e+01
  -3.625887e+02  -4.092877e+02
   1.800734e+02  -3.742043e+02
   4.619978e+02  -5.139403e+01
   2.357639e+02   2.115829e+02
  -1.404020e+02   1.188171e+02
  -1.548118e+02  -1.565381e+02
   1.779662e+02  -1.994553e+02
   3.694514e+02   6.841852e+01
   1.465780e+02   3.078749e+02
  -2.212284e+02   2.659609e+02
  -3.507711e+02   6.404829e+01
  -1.989405e+02  -1.041769e+02
   3.993915e+01  -2.354685e+02
   2.371673e+02  -3.250779e+02
   3.447240e+02  -2.131704e+02
   2.896347e+02   1.411193e+02
   7.545964e+01   4.412868e+02
  -1.158272e+02   3.898889e+02
  -1.212745e+02   1.167470e+02
  -3.290353e+01  -1.011788e+01
  -5.907483e+01   8.417997e+01
  -2.059841e+02   1.209808e+02
  -2.738708e+02  -6.568242e+01
  -1.440050e+02  -2.770302e+02
   7.910920e+01  -2.526719e+02
   2.246499e+02  -1.051312e-01
   1.935960e+02   2.440586e+02
  -5.671180e+00   2.932412e+02
  -2.616141e+02   1.192461e+02
  -3.706381e+02  -1.670434e+02
  -1.970194e+02  -3.570528e+02
   9.777116e+01  -3.141951e+02
   2.384778e+02  -1.156667e+02
   1.557110e+02  -5.533095e-01
   9.418721e+01  -3.539032e+01
   2.310334e+02  -7.393715e+01
   4.088745e+02   5.056681e+01
   3.463745e+02   2.935449e+02
  -2.105329e-01   4.530719e+02
  -3.712106e+02   4.164096e+02
  -4.974221e+02   1.996835e+02
  -3.334189e+02  -9.530753e+01
  -4.575882e+01  -2.938584e+02
   1.365882e+02  -2.532281e+02
   7.501401e+01  -2.820227e+01
  -1.217059e+02   1.117949e+02
  -2.035263e+02  -1.012637e+01
  -4.325790e+01  -2.054144e+02
   1.772416e+02  -1.763352e+02
   1.863484e+02   6.872518e+01
  -2.408779e+01   2.061462e+02
  -2.040078e+02   3.583052e+01
  -1.658695e+02  -2.548688e+02
   3.586247e+01  -3.544765e+02
   2.340066e+02  -1.905517e+02
   3.240754e+02   6.956096e+01
   2.762702e+02   2.413220e+02
   9.456378e+01   2.613434e+02
  -1.137100e+02   1.572661e+02
  -1.787950e+02   1.962960e+01
  -5.569970e+01  -2.913711e+01
   7.518661e+01   4.627609e+01
   2.929479e+01   1.318089e+02
  -1.313149e+02   9.998292e+01
  -1.866043e+02  -1.806999e+01
  -6.089124e+01  -7.565653e+01
   8.096855e+01  -1.447430e+01
   5.545928e+01   7.482919e+01
  -1.233025e+02   8.263073e+01
  -2.785218e+02  -6.346322e+00
  -2.584801e+02  -1.409276e+02
  -5.772473e+01  -2.508121e+02
   1.836536e+02  -2.569454e+02
   2.821221e+02  -1.242609e+02
   1.684338e+02   5.295144e+01
  -2.663223e+01   1.099384e+02
  -9.129035e+01   5.490644e+00
   3.594002e+01  -1.048070e+02
   1.996983e+02  -5.802971e+01
   2.132832e+02   1.079003e+02
   6.501896e+01   2.115185e+02
  -9.854048e+01   1.562865e+02
  -1.446379e+02   2.563283e+01
  -6.956820e+01  -4.148848e+01
   2.750678e+01   4.329988e-02
   3.597271e+01   8.398579e+01
  -7.272553e+01   1.087194e+02
  -1.979158e+02   2.268155e+01
  -1.897424e+02  -1.271798e+02
  -1.646207e+01  -2.168406e+02
   1.701004e+02  -1.578282e+02
   1.952736e+02   1.284876e+00
   6.005183e+01   1.184388e+02
  -7.440977e+01   1.088886e+02
  -8.651181e+01   2.557981e+01
  -1.800620e+01  -2.918949e+01
   2.244981e+01  -1.843251e+01
  -9.355940e+00   7.079618e+00
  -6.958150e+01  -1.023390e+01
  -8.544350e+01  -8.308859e+01
  -1.246320e+01  -1.581750e+02
   1.285454e+02  -1.491453e+02
   2.348157e+02  -2.118928e+01
   1.997915e+02   1.541582e+02
   3.600124e+01   2.386662e+02
  -1.141844e+02   1.669423e+02
  -1.358658e+02   2.327620e+01
  -6.557895e+01  -5.630541e+01
  -2.689532e+01  -3.447305e+01
  -5.699420e+01   1.354363e+01
  -8.309531e+01   4.825214e+00
  -4.112122e+01  -5.007638e+01
   4.422547e+01  -8.656136e+01
   1.003363e+02  -5.534010e+01
   8.101576e+01   3.315998e+01
  -1.300920e+01   1.069240e+02
  -1.381196e+02   8.368341e+01
  -1.941279e+02  -5.120317e+01
  -9.979820e+01  -2.013863e+02
   1.055036e+02  -2.263575e+02
   2.680345e+02  -9.284473e+01
   2.581120e+02   8.834283e+01
   1.088947e+02   1.769343e+02
  -4.093587e+01   1.459443e+02
  -9.553771e+01   8.374482e+01
  -8.016150e+01   7.106437e+01
  -6.910666e+01   9.198486e+01
  -9.421395e+01   7.265299e+01
  -1.282291e+02  -2.512057e+01
  -1.159383e+02  -1.563062e+02
  -2.843299e+01  -2.260547e+02
   9.893974e+01  -1.713586e+02
   1.756868e+02  -1.960022e+01
   1.364292e+02   1.227011e+02
   1.859121e+01   1.602233e+02
  -6.875503e+01   9.213147e+01
  -6.184665e+01   2.617613e-01
  -6.572598e+00  -4.238783e+01
   8.850188e+00  -3.452172e+01
  -3.714959e+01  -2.044109e+01
  -7.799874e+01  -2.675757e+01
  -4.190713e+01  -4.092092e+01
   6.554795e+01  -3.535399e+01
   1.570574e+02   8.167154e-01
   1.411618e+02   5.279334e+01
   1.485491e+01   8.621535e+01
  -1.184467e+02   7.116548e+01
  -1.419660e+02   1.369374e+01
  -4.631575e+01  -3.748628e+01
   5.938612e+01  -3.386234e+01
   7.231261e+01   2.033533e+01
   3.756873e+00   6.723842e+01
  -5.698895e+01   5.598982e+01
  -6.122900e+01  -3.786736e+00
  -4.100262e+01  -5.088933e+01
  -4.210090e+01  -4.190153e+01
  -6.172434e+01  -1.805864e+00
  -6.645327e+01   5.702409e-01
  -3.483057e+01  -6.635908e+01
   3.318687e+01  -1.442624e+02
   1.153939e+02  -1.400357e+02
   1.619217e+02  -3.189442e+01
   1.210618e+02   9.111280e+01
   5.351504e+00   1.235124e+02
  -8.548334e+01   5.746864e+01
  -5.804066e+01  -1.751289e+01
   6.118396e+01  -1.875706e+01
   1.382126e+02   4.693058e+01
   7.512454e+01   1.090632e+02
  -8.193914e+01   1.114322e+02
  -1.914079e+02   4.993736e+01
  -1.623864e+02  -3.537109e+01
  -3.653536e+01  -8.796646e+01
   6.280766e+01  -7.156438e+01
   5.131642e+01  -7.008478e+00
  -3.705801e+01   2.926986e+01
  -9.036039e+01  -1.998541e+01
  -3.287829e+01  -1.180304e+02
   9.235397e+01  -1.545597e+02
   1.678806e+02  -6.146166e+01
   1.248433e+02   1.026953e+02
   6.868257e+00   1.985657e+02
  -8.711241e+01   1.422201e+02
  -1.028755e+02  -1.011245e+01
  -5.755930e+01  -1.198595e+02
   3.500026e+00  -1.057741e+02
   4.633123e+01  -1.800438e+01
   5.273682e+01   3.309806e+01
   2.676328e+01   9.259986e+00
   3.345764e+00  -2.091341e+01
   1.864242e+01   1.504440e+01
   5.462049e+01   8.938208e+01
   4.294089e+01   1.105049e+02
  -4.551133e+01   4.475409e+01
  -1.381525e+02  -4.117128e+01
  -1.307006e+02  -7.219870e+01
  -1.714896e+01  -4.864778e+01
   8.920809e+01  -2.028006e+01
   8.850847e+01  -6.571610e+00
   9.041627e+00   7.010446e+00
  -4.042803e+01   2.140587e+01
  -1.360301e+01   1.738467e+01
   2.351642e+01  -2.042435e+00
  -4.738471e+00  -9.160575e+00
  -7.551354e+01  -3.568159e+00
  -9.265827e+01  -2.383889e+01
  -7.170450e+00  -8.091516e+01
   1.211903e+02  -1.144266e+02
   1.865670e+02  -5.679585e+01
   1.399827e+02   7.009597e+01
   2.343855e+01   1.629983e+02
  -8.016199e+01   1.479568e+02
  -1.142496e+02   5.575593e+01
  -8.014876e+01  -2.300311e+01
  -2.387060e+01  -3.514351e+01
   4.838643e+00  -7.815176e+00
  -8.620495e+00  -3.362969e+00
  -3.287408e+01  -4.485689e+01
  -2.340474e+01  -8.926844e+01
   2.889931e+01  -7.131816e+01
   8.127819e+01   1.924994e+01
   7.607856e+01   1.096901e+02
   2.476822e+00   1.128663e+02
  -8.351844e+01   2.249460e+01
  -1.018000e+02  -7.758162e+01
  -3.010989e+01  -1.034807e+02
   6.658617e+01  -5.298634e+01
   9.564980e+01   1.379430e+01
   3.671197e+01   4.936471e+01
  -3.311641e+01   4.870699e+01
  -2.958122e+01   2.667835e+01
   3.563183e+01   6.659518e-01
   6.933887e+01  -5.066749e+00
   1.362911e+01   2.509698e+01
  -8.015939e+01   6.480707e+01
  -1.152658e+02   5.749059e+01
  -6.276785e+01  -1.253006e+01
   1.627842e+01  -8.321985e+01
   5.286995e+01  -7.922238e+01
   3.714161e+01  -5.301166e+00
   2.378260e+00   5.556789e+01
  -2.492197e+01   4.190827e+01
  -3.591023e+01  -1.857705e+01
  -2.571204e+01  -5.258027e+01
   3.383244e+00  -3.069310e+01
   3.263460e+01   9.583724e+00
   3.800131e+01   2.037966e+01
   1.930309e+01   5.038842e-01
  -2.182771e-01  -1.344419e+01
  -6.263255e+00   4.096905e+00
  -8.127386e+00   3.642586e+01
  -1.950362e+01   4.267915e+01
  -3.289697e+01   4.782829e+00
  -2.680869e+01  -4.711459e+01
   6.740867e+00  -6.073006e+01
   4.639268e+01  -1.829223e+01
   5.465289e+01   4.221634e+01
   1.206205e+01   6.462350e+01
  -5.562779e+01   3.328978e+01
  -8.806036e+01  -1.742631e+01
  -4.795413e+01  -4.468159e+01
   2.951089e+01  -3.884458e+01
   6.458727e+01  -1.837567e+01
   2.265512e+01  -3.658634e+00
  -3.962134e+01  -3.835371e+00
  -3.899934e+01  -1.810264e+01
   3.190762e+01  -3.208791e+01
   9.328027e+01  -1.865553e+01
