
 $NMID
 id='ANONYMOUS ', fmtdat='(2E16.6)'
 volume=1.0
 tramp=1.0
 $END
  -3.584037e+03   1.193039e+02
  -2.086219e+03  -2.206565e+03
   3.965104e+02  -2.222179e+03
   1.845666e+03  -9.625220e+02
   1.156146e+03   4.330643e+02
  -3.752581e+02   4.521452e+02
  -7.230215e+02  -1.534351e+02
   6.419651e+01  -7.389695e+02
   6.096704e+02  -6.777723e+02
   8.789324e+02  -4.354836e+01
   3.691476e+02   7.015555e+02
  -1.597756e+02   8.015020e+02
  -5.301995e+02   2.188870e+02
  -2.767175e+02  -5.998514e+02
   1.498054e+02  -6.854998e+02
   4.952223e+02  -8.461110e+01
   2.962842e+02   5.955128e+02
  -1.931040e+02   6.268322e+02
  -5.300099e+02   1.800983e+02
  -4.143635e+02  -2.810197e+02
  -9.686089e+01  -3.975940e+02
   1.902458e+02  -2.525677e+02
   9.866465e+01  -4.849194e+01
  -1.237747e+02  -1.144231e+01
  -2.955098e+02  -1.998328e+02
  -6.137510e+01  -3.300248e+02
   4.637536e+02  -2.092120e+02
   6.783307e+02   1.289110e+02
   2.829858e+02   4.254254e+02
  -3.264796e+02   3.124021e+02
  -5.716564e+02  -6.433402e+01
  -2.587646e+02  -3.804388e+02
   2.409534e+02  -4.060665e+02
   4.678621e+02  -1.704931e+02
   3.585675e+02   1.718306e+02
   6.745346e+01   3.495763e+02
  -7.004853e+01   2.328519e+02
  -3.296308e+01  -1.145372e+02
   1.341379e+02  -2.521178e+02
   2.454782e+02   7.856024e+01
   9.462435e+01   4.984892e+02
  -2.507428e+02   4.970289e+02
  -3.863905e+02   2.492912e+01
  -1.656643e+02  -3.470874e+02
   1.767392e+02  -1.857845e+02
   2.170221e+02   2.595948e+02
  -1.010895e+02   3.964048e+02
  -4.533004e+02   7.436433e+01
  -4.828379e+02  -3.424609e+02
  -1.594741e+02  -4.804203e+02
   2.862505e+02  -2.901614e+02
   5.082497e+02   3.593407e+01
   3.464553e+02   2.622227e+02
  -5.640006e+01   2.586050e+02
  -3.213341e+02   7.003353e+01
  -2.283506e+02  -8.729817e+01
   3.121310e+01  -5.545714e+01
   9.276462e+01   8.396313e+01
  -1.036653e+02   1.030502e+02
  -2.560423e+02  -5.808339e+01
  -1.251491e+02  -2.229155e+02
   1.633092e+02  -2.259894e+02
   3.146344e+02  -8.648417e+01
   2.112657e+02   9.433105e+01
  -3.056349e+01   2.560523e+02
  -2.430969e+02   3.215632e+02
  -3.249726e+02   1.834278e+02
  -2.500629e+02  -1.256632e+02
  -8.126351e+01  -3.647378e+02
   5.164619e+01  -3.381680e+02
   7.096416e+01  -1.467347e+02
   4.621504e+01  -4.043238e+01
   8.980767e+01  -7.464223e+01
   1.910230e+02  -7.342740e+01
   2.203433e+02   7.077083e+01
   1.105898e+02   2.285513e+02
  -6.909621e+01   2.079162e+02
  -1.842977e+02  -1.655279e+00
  -1.551666e+02  -2.166567e+02
   1.990451e+01  -2.580464e+02
   2.324636e+02  -9.219640e+01
   3.123563e+02   1.531966e+02
   1.714734e+02   3.029395e+02
  -6.307925e+01   2.690436e+02
  -1.814233e+02   1.350811e+02
  -1.403125e+02   4.704851e+01
  -1.226100e+02   5.486224e+01
  -2.426858e+02   4.334065e+01
  -3.800951e+02  -8.176666e+01
  -2.980466e+02  -2.789304e+02
   2.400345e+01  -4.115933e+02
   3.512306e+02  -3.723126e+02
   4.517038e+02  -1.673120e+02
   2.901986e+02   9.106656e+01
   4.044208e+01   2.525984e+02
  -9.523510e+01   2.139856e+02
  -4.393374e+01   4.104601e+01
   9.202499e+01  -6.282771e+01
   1.382681e+02   1.454793e+01
   2.768688e+01   1.494164e+02
  -1.140484e+02   1.259207e+02
  -1.241465e+02  -4.618453e+01
   1.513700e+01  -1.426163e+02
   1.540324e+02  -1.400865e+01
   1.415734e+02   2.211205e+02
  -2.089927e+01   3.205577e+02
  -2.199150e+02   1.867284e+02
  -3.223684e+02  -5.791097e+01
  -2.610583e+02  -2.347102e+02
  -6.973354e+01  -2.519364e+02
   1.123341e+02  -1.425971e+02
   1.478181e+02  -1.769283e+01
   4.275554e+01   1.523239e+01
  -4.851580e+01  -4.833827e+01
  -3.705460e+00  -1.091854e+02
   1.164763e+02  -7.514779e+01
   1.481283e+02   1.867119e+01
   4.120496e+01   5.905144e+01
  -7.281759e+01   2.457274e+00
  -4.153097e+01  -7.681188e+01
   1.272415e+02  -8.116856e+01
   2.732180e+02   1.187441e+01
   2.442163e+02   1.480689e+02
   4.065556e+01   2.445421e+02
  -1.846276e+02   2.317401e+02
  -2.591572e+02   1.060192e+02
  -1.462497e+02  -4.116854e+01
   2.025381e+01  -8.500644e+01
   6.765916e+01  -5.768406e+00
  -3.984842e+01   7.663188e+01
  -1.725294e+02   3.957012e+01
  -1.835488e+02  -9.205846e+01
  -6.045296e+01  -1.787417e+02
   7.948105e+01  -1.367513e+02
   1.208484e+02  -2.657938e+01
   5.441671e+01   3.049003e+01
  -2.799630e+01  -1.208868e+01
  -2.353897e+01  -9.075922e+01
   8.241056e+01  -1.067313e+02
   1.899979e+02  -1.858867e+01
   1.725477e+02   1.193032e+02
   1.779356e+01   1.979347e+02
  -1.438742e+02   1.501961e+02
  -1.693725e+02   1.634034e+01
  -5.982699e+01  -9.062392e+01
   5.338243e+01  -9.705977e+01
   6.684107e+01  -3.234008e+01
   7.525964e+00   1.789386e+01
  -2.731336e+01   1.187037e+01
   1.102063e+01  -1.384364e+01
   7.675782e+01   4.992586e+00
   9.118075e+01   8.121506e+01
   9.598868e+00   1.545624e+02
  -1.271530e+02   1.408617e+02
  -2.176943e+02   1.503715e+01
  -1.811993e+02  -1.445211e+02
  -3.857458e+01  -2.156940e+02
   9.414918e+01  -1.532476e+02
   1.240808e+02  -2.835998e+01
   7.220636e+01   4.494176e+01
   3.295690e+01   2.913167e+01
   5.062559e+01  -1.224740e+01
   7.711488e+01  -4.475948e+00
   4.471942e+01   5.405699e+01
  -3.958496e+01   9.306598e+01
  -1.092639e+02   5.619056e+01
  -9.295937e+01  -4.073905e+01
   1.706589e+01  -1.140446e+02
   1.459004e+02  -8.042293e+01
   1.861573e+02   5.781397e+01
   8.132132e+01   1.925037e+02
  -1.100393e+02   2.060024e+02
  -2.467448e+02   7.929497e+01
  -2.308684e+02  -8.135858e+01
  -9.754751e+01  -1.583919e+02
   3.447545e+01  -1.314736e+02
   8.433635e+01  -7.877378e+01
   6.919974e+01  -6.780181e+01
   5.764499e+01  -8.869896e+01
   8.583709e+01  -7.243314e+01
   1.232825e+02   1.841203e+01
   1.122713e+02   1.438054e+02
   2.601066e+01   2.113186e+02
  -9.336478e+01   1.584115e+02
  -1.599921e+02   1.505565e+01
  -1.198487e+02  -1.153220e+02
  -1.183861e+01  -1.448075e+02
   6.479462e+01  -7.711181e+01
   5.347947e+01   9.074731e+00
  -2.721923e+00   4.541292e+01
  -1.895487e+01   3.149124e+01
   2.911016e+01   1.245036e+01
   7.558038e+01   1.815068e+01
   4.260948e+01   3.630613e+01
  -6.526282e+01   3.445200e+01
  -1.545368e+02  -1.981359e+00
  -1.321691e+02  -5.562032e+01
  -4.400368e+00  -8.784696e+01
   1.206773e+02  -6.873064e+01
   1.367348e+02  -7.811773e+00
   4.379515e+01   4.515558e+01
  -5.696471e+01   4.067236e+01
  -7.421752e+01  -1.702387e+01
  -1.438242e+01  -6.965185e+01
   4.866477e+01  -6.146903e+01
   6.484246e+01  -5.642435e-01
   4.997808e+01   4.962809e+01
   4.254874e+01   4.188275e+01
   5.395083e+01   2.300198e+00
   6.179587e+01   1.971622e+00
   3.807463e+01   6.816366e+01
  -2.949960e+01   1.416512e+02
  -1.162881e+02   1.336897e+02
  -1.636327e+02   2.922835e+01
  -1.185082e+02  -8.788789e+01
  -3.109254e+00  -1.212567e+02
   8.386980e+01  -6.167476e+01
   5.715449e+01   1.091202e+01
  -5.418649e+01   1.891022e+01
  -1.254135e+02  -3.869060e+01
  -6.751178e+01  -9.895018e+01
   7.619532e+01  -1.024470e+02
   1.757671e+02  -4.339983e+01
   1.472642e+02   3.583697e+01
   3.034471e+01   7.897361e+01
  -5.864094e+01   5.802226e+01
  -4.424807e+01   5.751530e-02
   3.976043e+01  -2.719484e+01
   8.868536e+01   2.144699e+01
   3.617545e+01   1.117341e+02
  -7.905924e+01   1.468728e+02
  -1.529150e+02   6.438377e+01
  -1.203137e+02  -8.696442e+01
  -1.455755e+01  -1.800027e+02
   7.609054e+01  -1.324075e+02
   9.550965e+01   6.760304e+00
   5.274223e+01   1.078719e+02
  -6.905516e+00   9.469260e+01
  -4.417869e+01   1.587068e+01
  -4.368853e+01  -2.822994e+01
  -1.868992e+01  -6.731741e+00
  -4.100831e+00   1.651700e+01
  -2.367378e+01  -1.830898e+01
  -5.248013e+01  -8.242920e+01
  -3.338970e+01  -9.758767e+01
   4.930331e+01  -3.956829e+01
   1.278516e+02   3.523099e+01
   1.166226e+02   6.536266e+01
   1.580081e+01   4.938809e+01
  -7.799514e+01   2.390080e+01
  -8.018494e+01   6.310449e+00
  -1.337209e+01  -9.187360e+00
   3.207615e+01  -1.972558e+01
   1.433220e+01  -1.325537e+01
  -1.634079e+01   2.469365e+00
   5.083435e+00   5.764026e+00
   6.537997e+01   1.332859e+00
   8.478383e+01   2.269944e+01
   1.356832e+01   7.647561e+01
  -1.050469e+02   1.082353e+02
  -1.749009e+02   5.761205e+01
  -1.390333e+02  -5.866371e+01
  -2.830064e+01  -1.495488e+02
   7.474018e+01  -1.430500e+02
   1.087256e+02  -5.951229e+01
   7.583831e+01   1.821782e+01
   2.429590e+01   3.524036e+01
   2.096005e-01   1.241292e+01
   1.114810e+01   7.460435e+00
   2.816715e+01   4.440191e+01
   1.707166e+01   8.342858e+01
  -2.818458e+01   6.599624e+01
  -7.454225e+01  -1.573428e+01
  -7.359650e+01  -9.753049e+01
  -8.858540e+00  -1.040096e+02
   7.370855e+01  -2.701079e+01
   9.844016e+01   6.484291e+01
   3.412880e+01   9.726267e+01
  -6.194345e+01   5.757805e+01
  -9.556030e+01  -8.983911e+00
  -4.009332e+01  -5.218995e+01
   3.188928e+01  -5.419763e+01
   3.456009e+01  -2.619822e+01
  -2.696752e+01   4.562751e+00
  -6.362886e+01   8.011143e+00
  -1.598123e+01  -2.488327e+01
   7.254956e+01  -6.112605e+01
   1.098929e+02  -5.051119e+01
   6.329055e+01   1.569190e+01
  -1.404798e+01   7.959575e+01
  -5.390105e+01   7.566916e+01
  -4.123091e+01   7.566200e+00
  -5.491373e+00  -5.237382e+01
   2.429062e+01  -4.439817e+01
   3.659162e+01   1.288687e+01
   2.689993e+01   5.200610e+01
  -2.650534e+00   3.622008e+01
  -3.257238e+01  -5.635445e+00
  -3.875312e+01  -2.291319e+01
  -1.892112e+01  -3.582483e+00
   2.283539e+00   1.691192e+01
   4.712127e+00   4.062758e+00
  -1.780433e+00  -3.250559e+01
   6.427634e+00  -4.831331e+01
   2.862708e+01  -1.695632e+01
   3.681827e+01   3.622573e+01
   8.084492e+00   5.717056e+01
  -3.927435e+01   2.304574e+01
  -5.703364e+01  -3.246851e+01
  -1.698950e+01  -5.684798e+01
   5.239748e+01  -3.247187e+01
   8.581059e+01   1.230828e+01
   4.705875e+01   4.082634e+01
  -2.699628e+01   4.122848e+01
  -6.165231e+01   2.440627e+01
  -2.647944e+01   5.715992e+00
   2.878244e+01  -2.326252e+00
   3.301454e+01   8.022921e+00
  -2.319598e+01   2.554791e+01
  -7.686309e+01   2.010508e+01
