
 $NMID
 id='ANONYMOUS ', fmtdat='(2E16.6)'
 volume=1.0
 tramp=1.0
 $END
   3.411065e+03   5.049085e+01
   2.263407e+03   1.937190e+03
  -6.786454e+01   2.212504e+03
  -1.178710e+03   1.479294e+03
  -9.563603e+02   8.716036e+01
   4.960489e+01  -3.816887e+02
   4.808928e+02   6.860150e+01
   6.663215e+01   6.779356e+02
  -6.007956e+02   6.856930e+02
  -7.248335e+02   1.489091e+02
  -4.717372e+02  -5.631564e+02
   8.224042e+01  -7.022422e+02
   3.483567e+02  -1.056346e+02
   3.381867e+02   5.614336e+02
  -1.656883e+02   5.678989e+02
  -4.982959e+02   5.283552e+01
  -2.786330e+02  -5.663716e+02
   1.993001e+02  -5.871132e+02
   4.981212e+02  -2.672640e+02
   3.823810e+02   2.447909e+02
   7.825549e+01   4.331773e+02
  -2.001255e+02   2.201703e+02
  -1.135939e+02   2.284839e+01
   1.457474e+02   2.139984e+01
   3.081333e+02   2.639724e+02
   3.091661e+01   3.809237e+02
  -4.282628e+02   2.947166e+02
  -6.870776e+02  -1.277642e+02
  -3.126866e+02  -4.332573e+02
   3.310162e+02  -3.209292e+02
   5.751500e+02   9.725934e+01
   2.329928e+02   4.068785e+02
  -2.625111e+02   3.921631e+02
  -4.884875e+02   1.465555e+02
  -3.531669e+02  -1.584749e+02
  -9.358114e+01  -3.561522e+02
   7.198450e+01  -2.410473e+02
   5.629186e+01   9.590594e+01
  -1.770602e+02   2.716779e+02
  -3.013904e+02  -8.956881e+01
  -1.192537e+02  -5.674691e+02
   2.722840e+02  -5.718332e+02
   4.485832e+02  -2.857831e+01
   2.005960e+02   4.059027e+02
  -2.144160e+02   2.362517e+02
  -2.663254e+02  -2.728610e+02
   9.620481e+01  -4.616734e+02
   5.122270e+02  -9.166936e+01
   5.430523e+02   3.959422e+02
   1.522193e+02   5.456043e+02
  -3.540594e+02   2.967038e+02
  -5.834569e+02  -7.647816e+01
  -3.575394e+02  -3.187120e+02
   9.710103e+01  -2.937643e+02
   3.634702e+02  -7.504487e+01
   2.367997e+02   1.047163e+02
  -4.258051e+01   6.304164e+01
  -9.195250e+01  -9.833321e+01
   1.248740e+02  -1.271150e+02
   2.826618e+02   4.986898e+01
   1.411016e+02   2.440987e+02
  -1.640972e+02   2.650307e+02
  -3.300796e+02   1.135505e+02
  -2.282977e+02  -1.043077e+02
   3.535808e+01  -2.938222e+02
   2.797446e+02  -3.447509e+02
   3.679715e+02  -1.594391e+02
   2.604131e+02   1.810257e+02
   5.470192e+01   4.051105e+02
  -7.578624e+01   3.449032e+02
  -6.429003e+01   1.492832e+02
  -3.258765e+01   6.917692e+01
  -1.131351e+02   1.141303e+02
  -2.500100e+02   7.997328e+01
  -2.691915e+02  -1.115410e+02
  -1.115944e+02  -2.757463e+02
   9.647768e+01  -2.150682e+02
   2.064498e+02   3.082701e+01
   1.494334e+02   2.407437e+02
  -4.001678e+01   2.549429e+02
  -2.511926e+02   7.059616e+01
  -3.245502e+02  -1.729212e+02
  -1.771853e+02  -3.232121e+02
   7.491313e+01  -2.864445e+02
   2.067859e+02  -1.429121e+02
   1.577836e+02  -4.443892e+01
   1.266379e+02  -4.584483e+01
   2.552045e+02  -4.130550e+01
   4.153621e+02   8.395234e+01
   3.324166e+02   2.992690e+02
  -1.601674e+01   4.489869e+02
  -3.909112e+02   4.101983e+02
  -4.964623e+02   1.814510e+02
  -3.024418e+02  -1.052852e+02
  -2.151464e+01  -2.695659e+02
   1.086805e+02  -2.153255e+02
   2.854106e+01  -3.352556e+01
  -1.208402e+02   6.372206e+01
  -1.514709e+02  -2.834677e+01
  -1.866361e+01  -1.634453e+02
   1.346402e+02  -1.292329e+02
   1.323458e+02   5.622640e+01
  -2.678689e+01   1.584159e+02
  -1.796289e+02   1.151116e+01
  -1.592514e+02  -2.482659e+02
   2.832131e+01  -3.562004e+02
   2.486196e+02  -2.062817e+02
   3.558036e+02   6.709340e+01
   2.811518e+02   2.633825e+02
   6.926437e+01   2.753031e+02
  -1.287174e+02   1.467409e+02
  -1.608433e+02   7.403144e+00
  -3.835390e+01  -2.372308e+01
   6.405120e+01   5.275763e+01
   9.313004e+00   1.204528e+02
  -1.281280e+02   8.093296e+01
  -1.621353e+02  -2.161931e+01
  -3.980929e+01  -6.181080e+01
   8.543709e+01   4.210220e+00
   4.465416e+01   8.877833e+01
  -1.444804e+02   8.550607e+01
  -2.980851e+02  -2.239873e+01
  -2.566159e+02  -1.663712e+02
  -3.345517e+01  -2.594063e+02
   2.029203e+02  -2.372231e+02
   2.729877e+02  -1.023572e+02
   1.458264e+02   4.708790e+01
  -3.091670e+01   8.452991e+01
  -7.397327e+01  -5.961485e+00
   4.996179e+01  -9.186972e+01
   1.945212e+02  -4.182188e+01
   1.996358e+02   1.089272e+02
   5.765817e+01   2.002938e+02
  -9.643911e+01   1.431882e+02
  -1.341777e+02   1.540015e+01
  -5.201453e+01  -4.237876e+01
   4.113150e+01   1.462994e+01
   3.068204e+01   1.051863e+02
  -9.306941e+01   1.167237e+02
  -2.119139e+02   1.278197e+01
  -1.863307e+02  -1.377949e+02
  -8.441560e+00  -2.151729e+02
   1.681305e+02  -1.527793e+02
   1.862103e+02  -2.193104e+00
   5.543518e+01   1.083137e+02
  -7.149537e+01   1.017582e+02
  -8.050469e+01   2.100164e+01
  -7.167226e+00  -3.080559e+01
   3.445777e+01  -1.198000e+01
  -8.845893e+00   2.286106e+01
  -8.378337e+01  -2.221185e+00
  -9.908322e+01  -9.479536e+01
  -8.775066e+00  -1.760017e+02
   1.419001e+02  -1.530016e+02
   2.424360e+02  -8.586360e+00
   1.964170e+02   1.641917e+02
   3.376931e+01   2.364463e+02
  -1.110594e+02   1.627367e+02
  -1.341749e+02   2.555334e+01
  -7.016946e+01  -5.265931e+01
  -2.956776e+01  -3.313099e+01
  -5.696483e+01   1.617266e+01
  -8.897790e+01   9.721398e+00
  -5.227682e+01  -5.631471e+01
   4.405933e+01  -1.034702e+02
   1.182641e+02  -6.537311e+01
   9.879396e+01   4.559163e+01
  -2.109606e+01   1.260871e+02
  -1.596239e+02   8.603882e+01
  -2.035944e+02  -6.743411e+01
  -8.764533e+01  -2.141060e+02
   1.234941e+02  -2.243774e+02
   2.736706e+02  -8.113254e+01
   2.522097e+02   9.517805e+01
   1.001688e+02   1.763323e+02
  -4.451679e+01   1.413475e+02
  -9.412662e+01   7.937596e+01
  -7.468968e+01   6.862790e+01
  -6.347455e+01   9.407940e+01
  -9.371013e+01   7.795862e+01
  -1.318401e+02  -2.251868e+01
  -1.163042e+02  -1.584302e+02
  -2.257345e+01  -2.285300e+02
   1.045159e+02  -1.677506e+02
   1.736671e+02  -1.085385e+01
   1.283917e+02   1.296302e+02
   9.545336e+00   1.602916e+02
  -7.560393e+01   8.530925e+01
  -6.275621e+01  -1.049289e+01
   2.325544e+00  -5.136649e+01
   2.257341e+01  -3.618815e+01
  -3.143494e+01  -1.444202e+01
  -8.529679e+01  -2.070644e+01
  -4.868967e+01  -4.146985e+01
   7.356356e+01  -3.927088e+01
   1.725593e+02   3.111138e+00
   1.442542e+02   6.353885e+01
   1.144644e+00   9.669788e+01
  -1.331606e+02   7.191801e+01
  -1.455842e+02   4.608552e+00
  -4.385817e+01  -4.895636e+01
   6.076533e+01  -4.083893e+01
   7.642066e+01   2.046988e+01
   1.413288e+01   7.291003e+01
  -4.909765e+01   6.208190e+01
  -6.556445e+01  -1.657284e+00
  -5.175108e+01  -5.201657e+01
  -4.543316e+01  -4.275291e+01
  -5.738442e+01  -7.344403e-01
  -6.592095e+01  -5.158736e-01
  -4.163695e+01  -7.152393e+01
   3.046044e+01  -1.513122e+02
   1.257862e+02  -1.438008e+02
   1.781673e+02  -3.070615e+01
   1.281289e+02   9.612977e+01
   7.952129e-01   1.311416e+02
  -9.310112e+01   6.473972e+01
  -6.100569e+01  -1.352506e+01
   6.132659e+01  -1.885484e+01
   1.374171e+02   4.648785e+01
   7.119677e+01   1.103436e+02
  -8.723398e+01   1.105034e+02
  -1.945630e+02   4.402300e+01
  -1.610308e+02  -4.146823e+01
  -3.254195e+01  -8.777236e+01
   6.466723e+01  -6.608109e+01
   5.000448e+01  -3.466357e+00
  -3.870635e+01   2.924702e+01
  -9.101340e+01  -1.938962e+01
  -3.631506e+01  -1.159905e+02
   8.432289e+01  -1.565436e+02
   1.611766e+02  -6.827092e+01
   1.252723e+02   9.659406e+01
   1.172798e+01   1.968547e+02
  -8.538149e+01   1.412578e+02
  -1.046751e+02  -1.415851e+01
  -5.536748e+01  -1.238631e+02
   1.184468e+01  -1.048866e+02
   5.193458e+01  -1.499953e+01
   4.877503e+01   3.303509e+01
   2.009906e+01   7.947771e+00
   5.388868e+00  -1.774384e+01
   2.740872e+01   2.135611e+01
   5.696407e+01   9.181104e+01
   3.401847e+01   1.073473e+02
  -5.515254e+01   4.248622e+01
  -1.382215e+02  -3.963913e+01
  -1.251445e+02  -7.163226e+01
  -1.673167e+01  -5.290642e+01
   8.433618e+01  -2.428942e+01
   8.785674e+01  -4.987761e+00
   1.513130e+01   1.172458e+01
  -3.670623e+01   2.240258e+01
  -1.910227e+01   1.399425e+01
   1.604947e+01  -4.235127e+00
  -3.822989e+00  -7.157473e+00
  -6.918283e+01  -3.607697e-01
  -9.358832e+01  -2.216562e+01
  -1.857552e+01  -8.211474e+01
   1.118229e+02  -1.192487e+02
   1.901354e+02  -6.500993e+01
   1.515930e+02   6.272025e+01
   2.972190e+01   1.625339e+02
  -8.245924e+01   1.545955e+02
  -1.178076e+02   6.270305e+01
  -8.077639e+01  -2.093417e+01
  -2.561067e+01  -3.765978e+01
  -8.749764e-01  -1.204713e+01
  -1.304148e+01  -7.798133e+00
  -3.114427e+01  -4.914828e+01
  -1.903763e+01  -9.173164e+01
   2.959313e+01  -7.240360e+01
   7.970254e+01   1.587224e+01
   7.994690e+01   1.041162e+02
   1.183268e+01   1.118899e+02
  -7.758264e+01   2.987015e+01
  -1.052367e+02  -6.870245e+01
  -3.740645e+01  -1.037054e+02
   6.528731e+01  -6.120944e+01
   1.018563e+02   9.685813e+00
   4.240568e+01   5.569400e+01
  -3.490228e+01   5.769659e+01
  -3.680494e+01   2.780870e+01
   3.035013e+01  -4.369136e+00
   6.976400e+01  -7.893098e+00
   1.691941e+01   2.705219e+01
  -7.982803e+01   6.579418e+01
  -1.205729e+02   5.451656e+01
  -6.957369e+01  -1.611135e+01
   1.427542e+01  -8.523153e+01
   5.722619e+01  -8.258064e+01
   4.338980e+01  -1.129431e+01
   5.559240e+00   5.260667e+01
  -2.431699e+01   4.554942e+01
  -3.585476e+01  -1.325761e+01
  -2.654185e+01  -5.349422e+01
   2.382878e+00  -3.687093e+01
   3.303581e+01   6.874334e+00
   4.050340e+01   2.464086e+01
   2.058562e+01   3.912743e+00
  -2.024211e+00  -1.797897e+01
  -6.103952e+00  -4.989615e+00
  -4.441892e-01   3.379771e+01
  -7.718537e+00   5.070850e+01
  -2.956664e+01   1.709051e+01
  -3.719331e+01  -3.964901e+01
  -7.137814e+00  -6.174660e+01
   4.303314e+01  -2.455572e+01
   6.190942e+01   3.632740e+01
   1.843520e+01   6.290232e+01
  -5.696485e+01   3.600366e+01
  -9.313711e+01  -1.330374e+01
  -5.081263e+01  -4.415413e+01
   2.934756e+01  -4.377466e+01
   6.642022e+01  -2.510991e+01
   2.758875e+01  -5.296849e+00
  -3.260282e+01   2.003568e+00
  -3.655190e+01  -9.834425e+00
   2.508080e+01  -2.799651e+01
   8.316099e+01  -2.102675e+01
