
 $NMID
 id='ANONYMOUS ', fmtdat='(2E16.6)'
 volume=1.0
 tramp=1.0
 $END
  -3.427420e+03  -1.644567e+02
  -2.174186e+03  -1.908131e+03
   1.414691e+02  -2.257443e+03
   1.547042e+03  -1.191039e+03
   7.990683e+02  -6.888227e+01
  -1.797139e+02   3.123132e+02
  -4.963096e+02  -2.288999e+02
   4.282273e+01  -8.250785e+02
   5.676250e+02  -5.558139e+02
   6.554275e+02  -7.469049e+01
   3.292749e+02   5.325535e+02
  -1.071264e+02   6.384001e+02
  -4.075387e+02   1.480729e+02
  -2.433662e+02  -5.595382e+02
   1.933179e+02  -6.392666e+02
   4.639203e+02  -8.031114e+01
   2.743606e+02   5.625710e+02
  -2.062431e+02   5.882236e+02
  -4.875581e+02   1.519974e+02
  -3.676392e+02  -2.525645e+02
  -9.819157e+01  -3.720393e+02
   1.893579e+02  -1.886573e+02
   1.147880e+02   1.428522e+01
  -2.167475e+02  -2.834054e+01
  -3.347244e+02  -2.783475e+02
  -3.845460e+01  -4.227453e+02
   4.940598e+02  -2.074840e+02
   6.850356e+02   2.472063e+02
   2.488079e+02   4.631766e+02
  -3.760138e+02   2.553923e+02
  -5.954670e+02  -1.750294e+02
  -2.039650e+02  -4.440952e+02
   3.205441e+02  -3.819101e+02
   5.198807e+02  -1.270454e+02
   3.398299e+02   2.006153e+02
   2.785134e+01   3.565922e+02
  -9.889128e+01   1.836085e+02
   1.132897e+01  -1.449224e+02
   2.128451e+02  -2.396497e+02
   2.810864e+02   1.143391e+02
   4.299085e+01   5.564976e+02
  -2.868888e+02   5.089379e+02
  -3.985573e+02  -4.591995e+00
  -1.612338e+02  -3.660609e+02
   1.913592e+02  -1.628986e+02
   2.197593e+02   3.033408e+02
  -1.173364e+02   4.159002e+02
  -4.943432e+02   3.942368e+01
  -5.275827e+02  -4.085254e+02
  -1.429331e+02  -5.290322e+02
   3.614554e+02  -2.737794e+02
   5.712807e+02   9.648485e+01
   3.344684e+02   3.123269e+02
  -1.071922e+02   2.621968e+02
  -3.414845e+02   5.188748e+01
  -2.140854e+02  -8.912767e+01
   2.913104e+01  -4.034524e+01
   5.974330e+01   8.489230e+01
  -1.265316e+02   8.824013e+01
  -2.513474e+02  -6.499077e+01
  -1.218880e+02  -2.280558e+02
   1.573821e+02  -2.593280e+02
   3.324180e+02  -1.372854e+02
   2.611445e+02   8.525066e+01
  -2.465256e+00   3.094746e+02
  -2.816221e+02   3.748746e+02
  -3.913423e+02   1.673432e+02
  -2.674253e+02  -1.926577e+02
  -3.805825e+01  -4.067950e+02
   8.748490e+01  -3.287004e+02
   5.283887e+01  -1.391088e+02
   1.224749e+01  -8.313433e+01
   1.048983e+02  -1.380921e+02
   2.559005e+02  -9.102926e+01
   2.748070e+02   1.179880e+02
   1.068329e+02   2.862245e+02
  -1.119021e+02   2.124482e+02
  -2.142665e+02  -5.156864e+01
  -1.421406e+02  -2.692722e+02
   5.924799e+01  -2.672363e+02
   2.643334e+02  -6.022571e+01
   3.156371e+02   1.898365e+02
   1.572395e+02   3.186592e+02
  -7.565580e+01   2.696672e+02
  -1.889470e+02   1.347833e+02
  -1.460144e+02   5.062320e+01
  -1.331190e+02   5.542795e+01
  -2.674278e+02   4.196678e+01
  -4.067060e+02  -9.390888e+01
  -3.168262e+02  -3.045851e+02
   3.205326e+01  -4.453990e+02
   3.964677e+02  -3.969890e+02
   4.995367e+02  -1.647682e+02
   3.046920e+02   1.189934e+02
   1.384989e+01   2.757244e+02
  -1.224659e+02   2.074601e+02
  -3.315048e+01   2.471503e+01
   1.259093e+02  -5.690703e+01
   1.537754e+02   4.485189e+01
   7.168345e+00   1.689946e+02
  -1.490648e+02   1.164879e+02
  -1.357097e+02  -7.157750e+01
   3.227511e+01  -1.563097e+02
   1.765972e+02  -6.928748e+00
   1.531396e+02   2.430958e+02
  -2.980527e+01   3.439520e+02
  -2.433400e+02   2.016905e+02
  -3.492064e+02  -6.584489e+01
  -2.745187e+02  -2.665659e+02
  -6.092934e+01  -2.823331e+02
   1.338766e+02  -1.468709e+02
   1.616589e+02  -7.412091e-01
   3.891283e+01   2.750791e+01
  -5.814968e+01  -5.641037e+01
   5.406134e-01  -1.225168e+02
   1.343241e+02  -7.447425e+01
   1.616451e+02   3.242367e+01
   3.475452e+01   6.876426e+01
  -9.139428e+01  -4.241161e+00
  -4.886543e+01  -9.325180e+01
   1.457295e+02  -8.945265e+01
   3.050539e+02   2.340769e+01
   2.617982e+02   1.744486e+02
   2.613730e+01   2.677928e+02
  -2.188538e+02   2.362038e+02
  -2.831118e+02   9.107432e+01
  -1.419566e+02  -5.880015e+01
   4.095824e+01  -8.803497e+01
   7.805542e+01   7.537568e+00
  -5.240550e+01   9.022758e+01
  -1.961262e+02   3.676956e+01
  -1.966778e+02  -1.121897e+02
  -5.293326e+01  -1.997333e+02
   1.007112e+02  -1.417528e+02
   1.379542e+02  -1.466546e+01
   5.380162e+01   4.491789e+01
  -4.306463e+01  -1.045729e+01
  -3.447244e+01  -1.032970e+02
   9.137908e+01  -1.188108e+02
   2.126740e+02  -1.422531e+01
   1.855401e+02   1.405153e+02
   5.236709e+00   2.185154e+02
  -1.704672e+02   1.514588e+02
  -1.861808e+02  -2.223680e+00
  -5.435507e+01  -1.114578e+02
   7.190759e+01  -1.026752e+02
   8.094517e+01  -2.182564e+01
   8.157313e+00   3.147514e+01
  -3.562767e+01   1.511502e+01
   5.785412e+00  -2.039151e+01
   8.298014e+01   7.642927e-01
   1.016983e+02   8.998783e+01
   1.119852e+01   1.725300e+02
  -1.442531e+02   1.531008e+02
  -2.438635e+02   1.032697e+01
  -1.943666e+02  -1.632776e+02
  -2.961894e+01  -2.358139e+02
   1.136063e+02  -1.614738e+02
   1.341936e+02  -2.373897e+01
   6.929175e+01   5.349067e+01
   2.779620e+01   3.361488e+01
   5.181004e+01  -1.514042e+01
   8.423119e+01  -9.696126e+00
   5.132822e+01   5.481698e+01
  -4.208566e+01   1.015457e+02
  -1.177559e+02   6.332746e+01
  -1.017900e+02  -4.598223e+01
   1.830689e+01  -1.291320e+02
   1.624225e+02  -8.730314e+01
   2.064146e+02   6.911865e+01
   8.513322e+01   2.176891e+02
  -1.295697e+02   2.244717e+02
  -2.757612e+02   7.684064e+01
  -2.477716e+02  -1.003384e+02
  -9.528821e+01  -1.787629e+02
   4.689981e+01  -1.419287e+02
   9.531613e+01  -7.841384e+01
   7.587677e+01  -6.609686e+01
   6.362561e+01  -9.032963e+01
   9.294149e+01  -7.540318e+01
   1.304641e+02   2.263599e+01
   1.147749e+02   1.585654e+02
   2.021162e+01   2.289512e+02
  -1.065394e+02   1.663294e+02
  -1.745202e+02   6.950851e+00
  -1.273238e+02  -1.327833e+02
  -7.604017e+00  -1.602364e+02
   7.781904e+01  -8.379050e+01
   6.543465e+01   1.085042e+01
  -1.920242e-01   5.178217e+01
  -2.328833e+01   3.833351e+01
   2.787313e+01   1.683243e+01
   8.228844e+01   2.045253e+01
   4.947046e+01   3.902951e+01
  -7.044513e+01   3.838791e+01
  -1.711616e+02  -1.655164e+00
  -1.456188e+02  -6.246107e+01
  -2.710749e+00  -9.749163e+01
   1.340708e+02  -7.212409e+01
   1.475391e+02  -2.865313e+00
   4.476342e+01   5.086838e+01
  -6.153984e+01   4.051591e+01
  -7.726798e+01  -2.095327e+01
  -1.397213e+01  -7.147762e+01
   5.032279e+01  -6.002092e+01
   6.679922e+01   1.478884e+00
   5.243983e+01   5.135050e+01
   4.544141e+01   4.444843e+01
   5.632076e+01   5.260356e+00
   6.396326e+01   3.985946e+00
   3.915798e+01   7.112096e+01
  -3.269956e+01   1.480347e+02
  -1.263135e+02   1.411124e+02
  -1.767062e+02   3.026961e+01
  -1.264429e+02  -9.607755e+01
   1.291719e-01  -1.317669e+02
   9.319472e+01  -6.550166e+01
   6.189161e+01   1.353881e+01
  -5.947237e+01   1.957821e+01
  -1.351808e+02  -4.580782e+01
  -7.005939e+01  -1.093642e+02
   8.673083e+01  -1.079368e+02
   1.929068e+02  -4.017771e+01
   1.580647e+02   4.461422e+01
   2.912134e+01   8.721769e+01
  -6.623655e+01   6.202377e+01
  -4.954988e+01   5.886990e-01
   3.911769e+01  -2.741158e+01
   8.866577e+01   2.326144e+01
   3.236492e+01   1.154230e+02
  -8.595716e+01   1.492378e+02
  -1.589302e+02   6.094250e+01
  -1.214460e+02  -9.795082e+01
  -8.893085e+00  -1.931518e+02
   8.774810e+01  -1.385266e+02
   1.063311e+02   1.366175e+01
   5.545920e+01   1.231143e+02
  -1.327262e+01   1.067372e+02
  -5.263945e+01   1.701037e+01
  -4.774799e+01  -3.387447e+01
  -1.932683e+01  -1.026042e+01
  -6.101075e+00   1.740047e+01
  -2.808928e+01  -1.923856e+01
  -5.481828e+01  -9.030463e+01
  -3.065895e+01  -1.077603e+02
   5.549208e+01  -4.250084e+01
   1.346934e+02   4.193981e+01
   1.215558e+02   7.416863e+01
   1.663076e+01   5.257614e+01
  -8.268461e+01   2.137762e+01
  -8.713134e+01   3.336774e+00
  -1.598416e+01  -1.036904e+01
   3.612122e+01  -2.093720e+01
   1.982799e+01  -1.554297e+01
  -1.481622e+01   1.603999e+00
   4.265309e+00   7.838367e+00
   6.812113e+01   4.122706e+00
   9.138220e+01   2.458657e+01
   1.643010e+01   7.873263e+01
  -1.112505e+02   1.122426e+02
  -1.861048e+02   6.067687e+01
  -1.462260e+02  -6.117522e+01
  -2.670787e+01  -1.578629e+02
   8.203315e+01  -1.508260e+02
   1.153193e+02  -6.117546e+01
   7.900162e+01   2.139062e+01
   2.551980e+01   3.721328e+01
   1.664104e+00   1.089700e+01
   1.313799e+01   6.978755e+00
   2.950687e+01   4.903087e+01
   1.650645e+01   9.120211e+01
  -3.019286e+01   7.027403e+01
  -7.620754e+01  -1.816835e+01
  -7.429521e+01  -1.040588e+02
  -8.782699e+00  -1.082381e+02
   7.495299e+01  -2.589170e+01
   1.003287e+02   6.979387e+01
   3.508115e+01   1.018878e+02
  -6.422413e+01   5.900849e+01
  -1.005670e+02  -1.066658e+01
  -4.308997e+01  -5.568395e+01
   3.395630e+01  -5.777253e+01
   3.799448e+01  -2.895743e+01
  -2.769197e+01   2.899841e+00
  -6.837822e+01   6.738317e+00
  -1.736643e+01  -2.651166e+01
   7.948299e+01  -6.370180e+01
   1.205332e+02  -5.300553e+01
   6.929823e+01   1.526152e+01
  -1.522206e+01   8.271595e+01
  -5.706158e+01   8.076579e+01
  -4.114798e+01   1.126495e+01
  -3.225535e+00  -5.159393e+01
   2.477233e+01  -4.519315e+01
   3.474505e+01   1.338616e+01
   2.571097e+01   5.401213e+01
  -1.940248e+00   3.750612e+01
  -3.268599e+01  -7.098908e+00
  -4.056146e+01  -2.522527e+01
  -2.053798e+01  -4.552696e+00
   3.467066e+00   1.787959e+01
   8.095589e+00   5.308067e+00
   2.583575e-01  -3.231488e+01
   5.770368e+00  -4.861756e+01
   2.777437e+01  -1.633174e+01
   3.678478e+01   3.779500e+01
   7.898076e+00   5.887323e+01
  -4.127817e+01   2.346612e+01
  -5.988351e+01  -3.429423e+01
  -1.768934e+01  -6.005394e+01
   5.525174e+01  -3.468180e+01
   9.023774e+01   1.284149e+01
   4.936000e+01   4.336427e+01
  -2.817917e+01   4.344025e+01
  -6.431865e+01   2.512137e+01
  -2.780686e+01   6.151932e+00
   2.944974e+01  -4.877457e-01
   3.286614e+01   9.936827e+00
  -2.606498e+01   2.511206e+01
  -8.112102e+01   1.657263e+01
