
 $NMID
 id='ANONYMOUS ', fmtdat='(2E16.6)'
 volume=1.0
 tramp=1.0
 $END
   3.481062e+03  -8.470379e+01
   2.267384e+03   1.956636e+03
  -3.723493e+02   2.042243e+03
  -1.563879e+03   1.004351e+03
  -9.787878e+02  -1.112646e+02
   2.577452e+02  -2.317644e+02
   4.378156e+02   1.541914e+02
   3.645303e+01   5.758490e+02
  -3.839472e+02   6.532208e+02
  -6.943952e+02   1.008926e+02
  -3.577580e+02  -5.333898e+02
   2.397026e+01  -7.756961e+02
   3.548289e+02  -1.847086e+02
   2.697283e+02   4.052476e+02
  -1.517117e+02   6.607453e+02
  -4.258276e+02   5.755009e+01
  -2.578906e+02  -5.248055e+02
   1.281823e+02  -6.212016e+02
   4.578084e+02  -2.149464e+02
   4.569397e+02   1.771485e+02
   1.404876e+02   3.327195e+02
  -1.616116e+02   2.546539e+02
  -1.236056e+02   7.271145e+01
   1.525339e+02   1.083733e+02
   2.689548e+02   2.655579e+02
   4.473186e+00   3.390690e+02
  -4.591227e+02   1.293825e+02
  -6.104118e+02  -1.899821e+02
  -2.225680e+02  -3.562328e+02
   2.968140e+02  -2.084301e+02
   5.142055e+02   1.093952e+02
   2.225786e+02   3.523285e+02
  -2.361019e+02   3.622834e+02
  -4.554196e+02   1.459624e+02
  -3.365432e+02  -1.582533e+02
  -7.867112e+01  -3.036133e+02
   3.477146e+01  -1.924373e+02
  -3.872174e+01   8.121844e+01
  -1.602946e+02   1.408245e+02
  -1.731467e+02  -1.340642e+02
  -7.445898e+00  -4.493331e+02
   2.020533e+02  -3.936040e+02
   2.736752e+02  -2.023145e+01
   1.376290e+02   2.588614e+02
  -9.360634e+01   1.117520e+02
  -1.400752e+02  -2.414960e+02
   1.007515e+02  -3.353429e+02
   4.143025e+02  -5.039113e+01
   4.755470e+02   3.415615e+02
   1.737187e+02   4.745746e+02
  -2.649094e+02   2.883901e+02
  -5.047762e+02  -3.121869e+01
  -3.541158e+02  -2.310083e+02
   2.053431e+01  -2.299843e+02
   2.742466e+02  -9.492362e+01
   2.243185e+02   1.613841e+01
   2.321851e+01   2.097488e+01
  -4.712886e+01  -4.043635e+01
   8.458327e+01  -5.015807e+01
   2.108484e+02   4.648055e+01
   1.228283e+02   1.807749e+02
  -1.383603e+02   2.330259e+02
  -3.294648e+02   1.328912e+02
  -2.641116e+02  -9.046728e+01
   1.260916e+01  -3.108440e+02
   2.849766e+02  -3.621949e+02
   3.650258e+02  -1.696377e+02
   2.426207e+02   1.462457e+02
   6.519588e+01   3.510478e+02
  -2.399829e+01   3.289686e+02
  -2.501919e+01   1.909624e+02
  -4.509206e+01   1.114745e+02
  -1.420456e+02   1.067943e+02
  -2.440940e+02   4.790516e+01
  -2.363164e+02  -1.147751e+02
  -9.414233e+01  -2.509926e+02
   9.352639e+01  -1.961848e+02
   1.988700e+02   3.109860e+01
   1.422399e+02   2.438728e+02
  -5.005330e+01   2.531469e+02
  -2.495376e+02   6.564759e+01
  -3.042712e+02  -1.673888e+02
  -1.623777e+02  -2.889360e+02
   4.764034e+01  -2.643369e+02
   1.570120e+02  -1.652212e+02
   1.482440e+02  -9.015787e+01
   1.620986e+02  -6.760624e+01
   2.897716e+02  -2.391761e+01
   4.048037e+02   1.074088e+02
   3.079935e+02   2.992012e+02
  -2.799661e+01   4.335045e+02
  -3.719463e+02   3.958492e+02
  -4.705286e+02   1.775948e+02
  -2.908990e+02  -9.010510e+01
  -3.231116e+01  -2.438410e+02
   8.295158e+01  -1.983090e+02
   1.154259e+01  -4.616925e+01
  -1.096342e+02   3.449963e+01
  -1.260631e+02  -3.166528e+01
  -1.397245e+01  -1.314855e+02
   1.047648e+02  -1.021905e+02
   1.053144e+02   4.448271e+01
  -2.314533e+01   1.213020e+02
  -1.555367e+02  -2.558521e+00
  -1.514797e+02  -2.320657e+02
   1.972228e+01  -3.360995e+02
   2.435453e+02  -2.004945e+02
   3.575248e+02   6.697979e+01
   2.727747e+02   2.618948e+02
   5.489831e+01   2.667584e+02
  -1.256426e+02   1.347742e+02
  -1.449738e+02   1.056876e+01
  -3.660904e+01  -4.877366e+00
   4.275035e+01   6.278858e+01
  -6.799920e+00   1.074525e+02
  -1.186717e+02   6.445800e+01
  -1.418151e+02  -2.189078e+01
  -3.417359e+01  -5.086940e+01
   7.551675e+01   1.013551e+01
   3.440129e+01   8.940428e+01
  -1.501263e+02   8.790159e+01
  -3.024773e+02  -2.136072e+01
  -2.551531e+02  -1.741696e+02
  -2.228632e+01  -2.676875e+02
   2.119773e+02  -2.342813e+02
   2.688916e+02  -9.470855e+01
   1.371673e+02   4.632557e+01
  -2.681638e+01   7.929658e+01
  -6.042442e+01   6.236364e-01
   5.229101e+01  -7.286844e+01
   1.795382e+02  -3.118733e+01
   1.842698e+02   9.890673e+01
   5.739432e+01   1.816069e+02
  -8.472217e+01   1.346011e+02
  -1.217884e+02   2.138095e+01
  -4.456055e+01  -3.039879e+01
   4.136365e+01   2.522535e+01
   2.298637e+01   1.106650e+02
  -1.014693e+02   1.163214e+02
  -2.115455e+02   1.067529e+01
  -1.803453e+02  -1.342971e+02
  -1.203531e+01  -2.079353e+02
   1.516473e+02  -1.528070e+02
   1.738817e+02  -1.649383e+01
   6.133597e+01   9.083386e+01
  -5.458203e+01   9.598389e+01
  -6.730854e+01   2.914707e+01
  -9.153959e-01  -1.976953e+01
   3.722773e+01  -4.431303e+00
  -1.173182e+01   2.874415e+01
  -9.501255e+01   9.362633e-01
  -1.096769e+02  -9.542395e+01
  -9.402130e+00  -1.784129e+02
   1.466675e+02  -1.523185e+02
   2.380231e+02  -8.610184e+00
   1.893839e+02   1.585408e+02
   3.840358e+01   2.268627e+02
  -9.779795e+01   1.607147e+02
  -1.291653e+02   3.366432e+01
  -7.883213e+01  -4.250686e+01
  -3.764339e+01  -2.941537e+01
  -5.542372e+01   1.362360e+01
  -8.736696e+01   4.670275e+00
  -5.709561e+01  -6.161840e+01
   4.102092e+01  -1.097082e+02
   1.281911e+02  -6.631721e+01
   1.106422e+02   4.953061e+01
  -2.039405e+01   1.326493e+02
  -1.689367e+02   8.766471e+01
  -2.050922e+02  -6.864638e+01
  -8.023618e+01  -2.124275e+02
   1.278540e+02  -2.188996e+02
   2.659567e+02  -7.901160e+01
   2.419603e+02   9.042429e+01
   9.906142e+01   1.673959e+02
  -3.893149e+01   1.361822e+02
  -8.767716e+01   7.961781e+01
  -6.879535e+01   7.184010e+01
  -5.713193e+01   9.738113e+01
  -9.105286e+01   8.199998e+01
  -1.340950e+02  -1.828392e+01
  -1.208007e+02  -1.555943e+02
  -2.591670e+01  -2.265394e+02
   1.003545e+02  -1.656867e+02
   1.679732e+02  -1.085703e+01
   1.238596e+02   1.255591e+02
   9.189665e+00   1.532969e+02
  -7.289552e+01   7.896259e+01
  -5.944260e+01  -1.450583e+01
   6.157762e+00  -5.318434e+01
   2.814180e+01  -3.472172e+01
  -2.712528e+01  -9.894284e+00
  -8.527834e+01  -1.581215e+01
  -5.054098e+01  -3.909911e+01
   7.355589e+01  -3.939005e+01
   1.737649e+02   3.501640e+00
   1.428184e+02   6.528228e+01
  -3.052658e+00   9.820360e+01
  -1.361011e+02   7.169218e+01
  -1.452923e+02   2.834531e+00
  -4.312175e+01  -5.175928e+01
   6.157818e+01  -4.353307e+01
   7.995012e+01   2.054043e+01
   1.918383e+01   7.755658e+01
  -4.887241e+01   6.800635e+01
  -7.330094e+01   1.042216e+00
  -6.036165e+01  -5.410173e+01
  -4.745955e+01  -4.501505e+01
  -5.418154e+01  -1.758736e+00
  -6.509625e+01  -2.185069e+00
  -4.491593e+01  -7.621342e+01
   2.856180e+01  -1.558662e+02
   1.292876e+02  -1.454799e+02
   1.841731e+02  -3.100051e+01
   1.318895e+02   9.718756e+01
   8.264283e-01   1.348304e+02
  -9.481659e+01   7.095100e+01
  -6.430311e+01  -1.024844e+01
   5.757451e+01  -2.269738e+01
   1.345283e+02   3.797088e+01
   7.209670e+01   1.046916e+02
  -8.158918e+01   1.101587e+02
  -1.868012e+02   4.602866e+01
  -1.546836e+02  -3.949449e+01
  -3.035953e+01  -8.349255e+01
   6.226382e+01  -5.876432e+01
   4.572934e+01   2.761351e+00
  -4.213569e+01   3.042752e+01
  -9.350042e+01  -2.134072e+01
  -4.076340e+01  -1.172413e+02
   7.768948e+01  -1.566829e+02
   1.573862e+02  -7.166654e+01
   1.287080e+02   8.951206e+01
   1.936268e+01   1.903773e+02
  -8.050012e+01   1.398989e+02
  -1.041427e+02  -9.889777e+00
  -5.501054e+01  -1.174095e+02
   1.317942e+01  -1.006150e+02
   5.086069e+01  -1.517441e+01
   4.369568e+01   3.002159e+01
   1.591803e+01   6.021425e+00
   6.670577e+00  -1.651011e+01
   3.168806e+01   2.271556e+01
   5.771510e+01   8.945404e+01
   3.029754e+01   1.028779e+02
  -5.731161e+01   4.150096e+01
  -1.349054e+02  -3.589826e+01
  -1.207054e+02  -6.851422e+01
  -1.738651e+01  -5.448624e+01
   7.963991e+01  -2.755524e+01
   8.543267e+01  -5.294164e+00
   1.815870e+01   1.321612e+01
  -3.256818e+01   2.193550e+01
  -1.877718e+01   1.178247e+01
   1.380879e+01  -4.140966e+00
  -3.891840e+00  -4.043530e+00
  -6.639932e+01   2.779400e+00
  -9.287660e+01  -2.145820e+01
  -2.330944e+01  -8.198644e+01
   1.053326e+02  -1.195738e+02
   1.882012e+02  -6.795432e+01
   1.550369e+02   5.706412e+01
   3.454475e+01   1.590405e+02
  -8.028721e+01   1.567680e+02
  -1.176401e+02   6.818630e+01
  -8.124965e+01  -1.772627e+01
  -2.720504e+01  -3.863461e+01
  -3.845342e+00  -1.491845e+01
  -1.475173e+01  -9.925873e+00
  -2.986418e+01  -4.964552e+01
  -1.677495e+01  -9.106941e+01
   2.953925e+01  -7.206848e+01
   7.859585e+01   1.423451e+01
   8.149197e+01   1.009552e+02
   1.627487e+01   1.112842e+02
  -7.489267e+01   3.472345e+01
  -1.084020e+02  -6.317942e+01
  -4.277942e+01  -1.042690e+02
   6.403440e+01  -6.750815e+01
   1.060355e+02   6.447090e+00
   4.730858e+01   6.008396e+01
  -3.472382e+01   6.425633e+01
  -4.171661e+01   2.924703e+01
   2.472120e+01  -8.025342e+00
   6.777819e+01  -1.070153e+01
   1.892089e+01   2.729701e+01
  -7.740584e+01   6.599897e+01
  -1.202773e+02   5.271859e+01
  -7.119107e+01  -1.779231e+01
   1.375429e+01  -8.545312e+01
   5.917216e+01  -8.330587e+01
   4.712383e+01  -1.293916e+01
   8.378913e+00   5.329310e+01
  -2.409879e+01   5.047803e+01
  -3.860719e+01  -8.458018e+00
  -3.019486e+01  -5.434742e+01
   4.267052e-01  -4.170887e+01
   3.429809e+01   4.197720e+00
   4.297037e+01   2.637038e+01
   2.079341e+01   5.207197e+00
  -4.268525e+00  -2.149163e+01
  -5.685962e+00  -9.978322e+00
   6.896439e+00   3.275602e+01
   1.470566e+00   5.624366e+01
  -2.763346e+01   2.577453e+01
  -4.526469e+01  -3.336639e+01
  -1.755638e+01  -6.089426e+01
   3.903945e+01  -2.851456e+01
   6.490668e+01   3.029192e+01
   2.218828e+01   5.906457e+01
  -5.650835e+01   3.670437e+01
  -9.426490e+01  -9.709781e+00
  -5.154647e+01  -4.247371e+01
   2.899603e+01  -4.692099e+01
   6.661819e+01  -3.007205e+01
   3.060265e+01  -6.977077e+00
  -2.699001e+01   6.005179e+00
  -3.388449e+01  -3.332573e+00
   2.057324e+01  -2.436253e+01
   7.542382e+01  -2.219027e+01
