
 $NMID
 id='ANONYMOUS ', fmtdat='(2E16.6)'
 volume=1.0
 tramp=1.0
 $END
   4.477900e+03  -4.933667e+01
   2.672777e+03   2.727425e+03
  -4.526072e+02   3.040082e+03
  -2.070922e+03   1.180302e+03
  -1.066947e+03  -5.905222e+02
   4.440651e+02  -7.381155e+02
   9.880210e+02   3.597987e+02
   1.102049e+02   1.148179e+03
  -9.491859e+02   8.309845e+02
  -1.098105e+03  -9.854083e+01
  -5.798412e+02  -9.315742e+02
   1.522557e+02  -8.604397e+02
   7.411170e+02  -1.387400e+02
   4.866558e+02   7.754332e+02
  -3.141278e+02   7.796630e+02
  -7.496043e+02  -9.732268e+00
  -3.850170e+02  -7.003977e+02
   3.265724e+02  -7.432036e+02
   7.079784e+02  -1.312879e+02
   4.809166e+02   3.498501e+02
   7.562332e+01   5.192094e+02
  -2.226921e+02   3.201284e+02
  -2.242226e+02   9.530542e+01
   7.452563e+01  -9.178996e+01
   4.148590e+02   5.472170e+01
   2.086459e+02   4.574169e+02
  -4.581874e+02   4.711218e+02
  -9.153346e+02  -1.158892e+01
  -5.217958e+02  -5.446343e+02
   3.678093e+02  -5.659355e+02
   7.749947e+02  -3.282711e+01
   4.073701e+02   4.935283e+02
  -2.499850e+02   5.407634e+02
  -5.823313e+02   2.468413e+02
  -4.715573e+02  -2.303097e+02
  -1.185106e+02  -5.167715e+02
   2.088052e+02  -3.252468e+02
   2.369767e+02   2.286533e+02
  -1.465854e+02   4.730155e+02
  -5.062974e+02   1.797032e+01
  -3.327365e+02  -7.333843e+02
   3.265281e+02  -7.989124e+02
   7.019434e+02  -1.044652e+01
   3.034287e+02   6.290688e+02
  -3.472473e+02   3.834311e+02
  -4.577682e+02  -3.667919e+02
   6.241775e+01  -6.306160e+02
   6.023320e+02  -1.724222e+02
   6.289263e+02   4.379240e+02
   1.604063e+02   6.257367e+02
  -4.094020e+02   3.558295e+02
  -6.579770e+02  -8.900154e+01
  -3.935257e+02  -4.165423e+02
   1.766954e+02  -4.029358e+02
   4.981869e+02  -6.446679e+01
   2.712527e+02   2.345283e+02
  -1.560122e+02   1.461813e+02
  -2.009962e+02  -1.688206e+02
   1.660571e+02  -2.380738e+02
   4.050680e+02   5.492317e+01
   1.766894e+02   3.286913e+02
  -2.284734e+02   2.823424e+02
  -3.611222e+02   5.499528e+01
  -1.803585e+02  -1.116543e+02
   6.093244e+01  -2.186309e+02
   2.260214e+02  -3.056341e+02
   3.200508e+02  -2.183074e+02
   2.943533e+02   1.232308e+02
   1.063069e+02   4.405402e+02
  -1.016329e+02   4.087319e+02
  -1.395893e+02   1.282707e+02
  -5.068001e+01  -1.947958e+01
  -4.848153e+01   6.985532e+01
  -1.823857e+02   1.235818e+02
  -2.689392e+02  -4.696182e+01
  -1.677457e+02  -2.633256e+02
   5.303262e+01  -2.601489e+02
   2.177591e+02  -2.560321e+01
   2.094090e+02   2.226103e+02
   1.365993e+01   2.924819e+02
  -2.583943e+02   1.339137e+02
  -3.800217e+02  -1.583529e+02
  -2.050665e+02  -3.661981e+02
   1.065736e+02  -3.306377e+02
   2.558053e+02  -1.224896e+02
   1.662958e+02   1.099206e+01
   9.570491e+01  -2.341729e+01
   2.273046e+02  -7.157333e+01
   4.098510e+02   4.721784e+01
   3.494945e+02   2.936498e+02
   3.665543e+00   4.579684e+02
  -3.639167e+02   4.305729e+02
  -4.948580e+02   2.201801e+02
  -3.491451e+02  -8.216610e+01
  -6.851756e+01  -3.012956e+02
   1.288364e+02  -2.733803e+02
   8.911513e+01  -3.565866e+01
  -1.080732e+02   1.264104e+02
  -2.155425e+02   1.036105e+01
  -6.938029e+01  -2.081480e+02
   1.669469e+02  -1.971599e+02
   1.997348e+02   5.486928e+01
  -1.418256e+01   2.111226e+02
  -2.105456e+02   4.372763e+01
  -1.777004e+02  -2.581731e+02
   3.322945e+01  -3.662033e+02
   2.402381e+02  -1.986165e+02
   3.302730e+02   6.567463e+01
   2.821836e+02   2.371614e+02
   1.035148e+02   2.596101e+02
  -1.076444e+02   1.625446e+02
  -1.812407e+02   2.739743e+01
  -6.060682e+01  -2.893764e+01
   7.879545e+01   4.014819e+01
   4.012280e+01   1.314765e+02
  -1.264365e+02   1.093736e+02
  -1.916601e+02  -6.888783e+00
  -6.795350e+01  -7.334240e+01
   7.927706e+01  -1.974692e+01
   5.791106e+01   6.945926e+01
  -1.201375e+02   8.369344e+01
  -2.778480e+02   2.111412e+00
  -2.638277e+02  -1.297242e+02
  -7.070421e+01  -2.472938e+02
   1.709421e+02  -2.685132e+02
   2.814901e+02  -1.446915e+02
   1.804546e+02   4.081088e+01
  -1.503724e+01   1.134391e+02
  -9.028169e+01   1.445959e+01
   3.125887e+01  -1.046758e+02
   2.003434e+02  -6.724707e+01
   2.220573e+02   1.018256e+02
   7.512808e+01   2.160229e+02
  -9.329169e+01   1.667798e+02
  -1.456752e+02   3.364978e+01
  -7.455025e+01  -3.944396e+01
   2.246601e+01  -2.390047e+00
   3.493685e+01   8.130456e+01
  -6.935885e+01   1.111355e+02
  -1.968663e+02   3.014644e+01
  -1.959467e+02  -1.213284e+02
  -2.630128e+01  -2.202144e+02
   1.661553e+02  -1.693376e+02
   2.003275e+02  -8.757689e+00
   6.872280e+01   1.167992e+02
  -6.745027e+01   1.142518e+02
  -8.311591e+01   3.214377e+01
  -1.720140e+01  -2.371775e+01
   1.968652e+01  -1.484635e+01
  -1.447501e+01   9.794156e+00
  -7.253463e+01  -8.857273e+00
  -8.692264e+01  -8.342335e+01
  -1.538636e+01  -1.602563e+02
   1.231530e+02  -1.552763e+02
   2.338622e+02  -2.995105e+01
   2.081003e+02   1.496375e+02
   4.791623e+01   2.426539e+02
  -1.092015e+02   1.754601e+02
  -1.390607e+02   2.961382e+01
  -7.014813e+01  -5.487045e+01
  -2.860629e+01  -3.530965e+01
  -5.690409e+01   1.276760e+01
  -8.494284e+01   5.360646e+00
  -4.246546e+01  -4.999092e+01
   4.513904e+01  -8.496724e+01
   1.020993e+02  -5.289432e+01
   7.967340e+01   3.305045e+01
  -1.485594e+01   1.048253e+02
  -1.383278e+02   8.442955e+01
  -1.957312e+02  -4.781203e+01
  -1.045595e+02  -1.997394e+02
   1.005199e+02  -2.315715e+02
   2.681020e+02  -1.020172e+02
   2.642254e+02   8.221037e+01
   1.165990e+02   1.767410e+02
  -3.544571e+01   1.497280e+02
  -9.379709e+01   8.810793e+01
  -8.011591e+01   7.447089e+01
  -6.918238e+01   9.557814e+01
  -9.523818e+01   7.693417e+01
  -1.306912e+02  -2.072539e+01
  -1.210817e+02  -1.543296e+02
  -3.415215e+01  -2.293818e+02
   9.619437e+01  -1.788049e+02
   1.771611e+02  -2.624861e+01
   1.409640e+02   1.209796e+02
   2.309169e+01   1.627055e+02
  -6.480766e+01   9.498869e+01
  -5.835729e+01   1.707339e+00
  -5.131320e+00  -4.071277e+01
   6.981960e+00  -3.162329e+01
  -4.086098e+01  -1.818406e+01
  -8.104415e+01  -2.604130e+01
  -4.311873e+01  -4.085999e+01
   6.525107e+01  -3.616801e+01
   1.577750e+02  -1.868819e+00
   1.436358e+02   4.909131e+01
   1.758614e+01   8.515081e+01
  -1.184170e+02   7.458227e+01
  -1.443825e+02   1.820940e+01
  -4.793520e+01  -3.690864e+01
   6.135736e+01  -3.687407e+01
   7.567254e+01   1.873203e+01
   5.384550e+00   7.019107e+01
  -5.809046e+01   6.050922e+01
  -6.253260e+01  -1.719903e+00
  -4.247522e+01  -5.137693e+01
  -4.399803e+01  -4.180413e+01
  -6.400449e+01   2.087478e-01
  -6.792127e+01   2.177551e+00
  -3.517877e+01  -6.774412e+01
   3.287336e+01  -1.478571e+02
   1.153679e+02  -1.433593e+02
   1.636561e+02  -3.339874e+01
   1.239119e+02   9.202170e+01
   7.488174e+00   1.264879e+02
  -8.588851e+01   6.056410e+01
  -5.929938e+01  -1.617143e+01
   6.135397e+01  -1.969224e+01
   1.405011e+02   4.513661e+01
   7.778890e+01   1.095711e+02
  -8.068181e+01   1.155929e+02
  -1.932178e+02   5.626099e+01
  -1.669192e+02  -3.075364e+01
  -4.068522e+01  -8.740456e+01
   6.046609e+01  -7.393625e+01
   5.033355e+01  -9.040971e+00
  -4.006052e+01   2.913385e+01
  -9.572637e+01  -2.055924e+01
  -3.693649e+01  -1.224300e+02
   9.388948e+01  -1.625333e+02
   1.744523e+02  -6.845851e+01
   1.324127e+02   1.018314e+02
   1.219192e+01   2.038105e+02
  -8.514154e+01   1.494261e+02
  -1.040554e+02  -5.265513e+00
  -6.206696e+01  -1.185501e+02
  -1.553817e+00  -1.062849e+02
   4.433587e+01  -1.930129e+01
   5.435293e+01   3.124626e+01
   2.845110e+01   7.378131e+00
   2.530933e+00  -2.185174e+01
   1.762495e+01   1.549467e+01
   5.688755e+01   9.012756e+01
   4.687759e+01   1.109736e+02
  -4.476162e+01   4.633093e+01
  -1.426098e+02  -3.848403e+01
  -1.358435e+02  -7.007198e+01
  -1.886453e+01  -5.021892e+01
   9.088660e+01  -2.437475e+01
   8.986970e+01  -9.754094e+00
   8.690868e+00   7.058964e+00
  -4.062698e+01   2.286122e+01
  -1.257042e+01   1.744274e+01
   2.470776e+01  -3.256855e+00
  -5.572701e+00  -9.316961e+00
  -7.804412e+01  -2.749617e+00
  -9.475056e+01  -2.487049e+01
  -6.857496e+00  -8.554159e+01
   1.242698e+02  -1.199088e+02
   1.913212e+02  -5.916338e+01
   1.447554e+02   7.188129e+01
   2.669113e+01   1.670195e+02
  -7.927863e+01   1.516888e+02
  -1.155610e+02   5.820276e+01
  -8.253080e+01  -2.207978e+01
  -2.539880e+01  -3.559734e+01
   4.739436e+00  -8.465516e+00
  -7.960413e+00  -3.435760e+00
  -3.321408e+01  -4.499360e+01
  -2.477661e+01  -9.098368e+01
   2.902492e+01  -7.402552e+01
   8.457165e+01   1.830165e+01
   8.094120e+01   1.125497e+02
   4.075793e+00   1.177603e+02
  -8.690723e+01   2.531710e+01
  -1.073912e+02  -7.835438e+01
  -3.255649e+01  -1.064122e+02
   6.832847e+01  -5.567737e+01
   9.841164e+01   1.282127e+01
   3.729211e+01   4.968139e+01
  -3.424160e+01   4.994644e+01
  -2.993261e+01   2.704045e+01
   3.736146e+01  -8.117275e-01
   7.119059e+01  -7.123996e+00
   1.382812e+01   2.520178e+01
  -8.100420e+01   6.768439e+01
  -1.156165e+02   6.020604e+01
  -6.267092e+01  -1.296085e+01
   1.628750e+01  -8.585766e+01
   5.274170e+01  -8.065208e+01
   3.779886e+01  -3.899537e+00
   3.227480e+00   5.824296e+01
  -2.489094e+01   4.303862e+01
  -3.750045e+01  -1.928856e+01
  -2.767043e+01  -5.361542e+01
   2.841358e+00  -3.129870e+01
   3.331303e+01   8.881425e+00
   3.898011e+01   1.950272e+01
   2.044698e+01  -3.342995e-01
   1.215134e+00  -1.338747e+01
  -5.002361e+00   5.236222e+00
  -8.371413e+00   3.863908e+01
  -2.160178e+01   4.493941e+01
  -3.547278e+01   5.073916e+00
  -2.828176e+01  -4.927664e+01
   6.960499e+00  -6.414579e+01
   4.799682e+01  -2.012167e+01
   5.712849e+01   4.319249e+01
   1.366595e+01   6.706700e+01
  -5.630901e+01   3.524720e+01
  -9.108164e+01  -1.692666e+01
  -5.064166e+01  -4.573348e+01
   2.962345e+01  -4.077977e+01
   6.653017e+01  -2.039140e+01
   2.332778e+01  -4.151017e+00
  -4.187409e+01  -3.077616e+00
  -4.126404e+01  -1.859769e+01
   3.269421e+01  -3.533124e+01
   9.727537e+01  -2.259712e+01
