
 $NMID
 id='ANONYMOUS ', fmtdat='(2E16.6)'
 volume=1.0
 tramp=1.0
 $END
   4.178650e+03  -2.224914e+01
   2.668370e+03   2.545703e+03
  -5.959471e+02   2.751985e+03
  -1.950319e+03   1.067164e+03
  -9.871497e+02  -4.580077e+02
   6.076994e+02  -5.707416e+02
   8.458899e+02   3.075052e+02
   4.167211e+00   9.878960e+02
  -7.457238e+02   7.741651e+02
  -8.512527e+02  -6.605732e+01
  -4.891966e+02  -8.245070e+02
   2.590601e+02  -9.594473e+02
   5.682715e+02  -1.664949e+02
   4.190499e+02   7.303557e+02
  -2.860042e+02   7.618329e+02
  -6.202877e+02   3.360220e-01
  -2.640688e+02  -6.849326e+02
   3.472056e+02  -5.930939e+02
   6.331104e+02  -1.406132e+02
   3.704375e+02   3.570613e+02
  -5.416177e+00   4.463800e+02
  -3.013886e+02   2.105404e+02
  -1.940442e+02  -3.048226e+01
   1.478481e+02  -9.041033e+01
   4.297027e+02   1.713097e+02
   1.990621e+02   4.608531e+02
  -4.632167e+02   4.062823e+02
  -8.573266e+02  -1.183037e+02
  -4.105085e+02  -5.974611e+02
   4.245620e+02  -4.917380e+02
   7.721240e+02   6.412477e+01
   3.523634e+02   5.234756e+02
  -3.055518e+02   5.451416e+02
  -5.981122e+02   1.960799e+02
  -4.269411e+02  -2.216848e+02
  -7.035478e+01  -4.788262e+02
   1.956367e+02  -3.045682e+02
   1.743296e+02   2.220041e+02
  -1.731668e+02   4.676509e+02
  -4.694145e+02  -1.100549e+01
  -2.760770e+02  -7.296638e+02
   3.270406e+02  -7.683707e+02
   6.450668e+02  -6.458894e+00
   3.028924e+02   6.085283e+02
  -3.111363e+02   3.768391e+02
  -4.199933e+02  -3.214706e+02
   5.530140e+01  -5.954541e+02
   5.854368e+02  -1.523781e+02
   6.241941e+02   4.387418e+02
   1.578452e+02   6.332496e+02
  -4.194900e+02   3.700625e+02
  -6.683203e+02  -8.240770e+01
  -3.840681e+02  -4.167284e+02
   1.688194e+02  -3.857303e+02
   4.594134e+02  -4.672962e+01
   2.345590e+02   2.199469e+02
  -1.405794e+02   1.137649e+02
  -1.539783e+02  -1.707401e+02
   1.731537e+02  -2.047327e+02
   3.531174e+02   7.058536e+01
   1.330841e+02   3.036213e+02
  -2.119982e+02   2.631320e+02
  -3.288840e+02   7.716956e+01
  -1.980659e+02  -8.799784e+01
   1.297960e+01  -2.441657e+02
   2.197707e+02  -3.577737e+02
   3.649299e+02  -2.327162e+02
   3.224641e+02   1.562683e+02
   8.013262e+01   4.673462e+02
  -1.342466e+02   3.914669e+02
  -1.228542e+02   9.633131e+01
  -2.579028e+00  -1.742578e+01
  -2.897683e+01   1.093133e+02
  -2.119113e+02   1.568641e+02
  -3.109231e+02  -5.253118e+01
  -1.720704e+02  -2.950381e+02
   8.258304e+01  -2.754521e+02
   2.470762e+02  -6.066564e+00
   2.059814e+02   2.540877e+02
  -1.289300e+01   2.997213e+02
  -2.732800e+02   1.126513e+02
  -3.662130e+02  -1.689083e+02
  -1.880066e+02  -3.549959e+02
   1.061230e+02  -3.087951e+02
   2.404610e+02  -1.225848e+02
   1.533399e+02  -8.751430e-01
   9.263219e+01  -3.044583e+01
   2.273343e+02  -6.661206e+01
   4.106133e+02   5.003830e+01
   3.525099e+02   2.834857e+02
   1.231533e+01   4.586884e+02
  -3.666189e+02   4.381977e+02
  -5.093362e+02   2.124022e+02
  -3.530199e+02  -1.017910e+02
  -5.647011e+01  -3.097639e+02
   1.374455e+02  -2.568975e+02
   8.413552e+01  -1.780096e+01
  -1.184817e+02   1.185192e+02
  -2.046556e+02  -1.308436e+01
  -4.888392e+01  -2.136150e+02
   1.702778e+02  -1.784081e+02
   1.858836e+02   7.215304e+01
  -2.141127e+01   2.089489e+02
  -2.065889e+02   3.510388e+01
  -1.736393e+02  -2.570054e+02
   2.866461e+01  -3.595733e+02
   2.342154e+02  -1.988904e+02
   3.330664e+02   5.637053e+01
   2.868852e+02   2.365371e+02
   1.005203e+02   2.694487e+02
  -1.181362e+02   1.705716e+02
  -1.850203e+02   2.322472e+01
  -5.766102e+01  -3.930840e+01
   8.060535e+01   3.496308e+01
   3.533338e+01   1.320167e+02
  -1.325939e+02   1.094276e+02
  -1.930155e+02  -1.151674e+01
  -6.193576e+01  -7.917240e+01
   8.895967e+01  -2.093508e+01
   6.331469e+01   7.503738e+01
  -1.256728e+02   9.054939e+01
  -2.905869e+02   6.605726e-01
  -2.693094e+02  -1.422363e+02
  -5.975407e+01  -2.596545e+02
   1.895262e+02  -2.659215e+02
   2.902182e+02  -1.272658e+02
   1.730634e+02   5.659059e+01
  -2.867459e+01   1.148027e+02
  -9.864254e+01   5.255034e+00
   3.123331e+01  -1.114461e+02
   2.046101e+02  -6.540958e+01
   2.256563e+02   1.076923e+02
   7.358113e+01   2.190930e+02
  -1.012888e+02   1.647691e+02
  -1.540785e+02   2.737122e+01
  -7.419088e+01  -4.741183e+01
   3.265224e+01  -6.594833e+00
   4.425674e+01   8.475469e+01
  -7.080032e+01   1.184397e+02
  -2.051426e+02   3.285690e+01
  -2.004574e+02  -1.266149e+02
  -2.159304e+01  -2.277820e+02
   1.748963e+02  -1.715796e+02
   2.053573e+02  -2.940350e+00
   6.702155e+01   1.262152e+02
  -7.449076e+01   1.212834e+02
  -9.252318e+01   3.087836e+01
  -2.304219e+01  -3.154380e+01
   2.180395e+01  -2.390332e+01
  -8.529919e+00   6.073056e+00
  -7.033506e+01  -8.373055e+00
  -9.082220e+01  -8.188343e+01
  -1.882233e+01  -1.610140e+02
   1.266360e+02  -1.593295e+02
   2.422644e+02  -3.163430e+01
   2.122332e+02   1.516133e+02
   4.496703e+01   2.461516e+02
  -1.148345e+02   1.779249e+02
  -1.415011e+02   2.700816e+01
  -7.064162e+01  -6.068190e+01
  -2.700547e+01  -3.706642e+01
  -5.450285e+01   1.614758e+01
  -8.091333e+01   9.915923e+00
  -4.174774e+01  -5.073254e+01
   4.179205e+01  -9.137332e+01
   1.009624e+02  -5.745947e+01
   8.607113e+01   3.591980e+01
  -1.014817e+01   1.127901e+02
  -1.405133e+02   8.968981e+01
  -2.028411e+02  -4.811097e+01
  -1.080572e+02  -2.033645e+02
   1.053070e+02  -2.366151e+02
   2.748388e+02  -1.030330e+02
   2.665863e+02   8.488805e+01
   1.118495e+02   1.823247e+02
  -4.026014e+01   1.528752e+02
  -9.575759e+01   8.653997e+01
  -7.969872e+01   7.002817e+01
  -6.792009e+01   9.125335e+01
  -9.410899e+01   7.463944e+01
  -1.302176e+02  -2.257938e+01
  -1.192258e+02  -1.565339e+02
  -3.075160e+01  -2.301707e+02
   1.002084e+02  -1.763230e+02
   1.805627e+02  -2.276103e+01
   1.426619e+02   1.226075e+02
   2.223747e+01   1.634230e+02
  -6.917948e+01   9.742262e+01
  -6.346744e+01   4.189592e+00
  -5.962539e+00  -4.286443e+01
   1.111017e+01  -3.735773e+01
  -3.663997e+01  -1.964226e+01
  -8.239790e+01  -2.127627e+01
  -4.834391e+01  -3.692627e+01
   6.310113e+01  -3.944294e+01
   1.612407e+02  -7.189292e+00
   1.478816e+02   4.953404e+01
   1.736126e+01   9.053864e+01
  -1.224534e+02   7.625024e+01
  -1.478570e+02   1.359249e+01
  -4.895895e+01  -4.155158e+01
   6.155570e+01  -3.676278e+01
   7.651720e+01   1.990576e+01
   6.494835e+00   6.723050e+01
  -5.651497e+01   5.509639e+01
  -6.179647e+01  -4.118120e+00
  -4.141644e+01  -4.974214e+01
  -4.223441e+01  -4.017806e+01
  -6.223135e+01  -2.347754e-01
  -6.775634e+01   1.110476e+00
  -3.654326e+01  -6.651471e+01
   3.156257e+01  -1.468852e+02
   1.152368e+02  -1.447617e+02
   1.649051e+02  -3.640374e+01
   1.252204e+02   9.032369e+01
   8.115254e+00   1.270182e+02
  -8.636208e+01   6.163152e+01
  -6.011556e+01  -1.580198e+01
   6.210957e+01  -2.038648e+01
   1.427192e+02   4.499951e+01
   7.860071e+01   1.104440e+02
  -8.311581e+01   1.158631e+02
  -1.965114e+02   5.487342e+01
  -1.673244e+02  -3.261405e+01
  -3.934343e+01  -8.846288e+01
   6.074876e+01  -7.453224e+01
   5.016617e+01  -1.156081e+01
  -3.624358e+01   2.553147e+01
  -8.751540e+01  -2.113491e+01
  -3.159886e+01  -1.173438e+02
   9.052734e+01  -1.544727e+02
   1.666316e+02  -6.250837e+01
   1.278258e+02   1.026182e+02
   1.187359e+01   2.014944e+02
  -8.693357e+01   1.469751e+02
  -1.095023e+02  -7.393068e+00
  -6.521225e+01  -1.220733e+02
   1.161388e+00  -1.110159e+02
   4.875511e+01  -2.257875e+01
   5.520533e+01   3.130154e+01
   2.713266e+01   9.448272e+00
   4.279140e+00  -2.045991e+01
   2.209972e+01   1.488511e+01
   5.822111e+01   8.955001e+01
   4.357837e+01   1.117500e+02
  -4.802555e+01   4.743675e+01
  -1.414942e+02  -3.858769e+01
  -1.329738e+02  -7.113315e+01
  -1.828319e+01  -5.039615e+01
   8.926335e+01  -2.327905e+01
   9.012376e+01  -8.691597e+00
   1.149726e+01   7.596680e+00
  -3.947494e+01   2.407597e+01
  -1.552941e+01   1.968191e+01
   2.039911e+01  -1.807209e+00
  -6.340674e+00  -1.027756e+01
  -7.502647e+01  -3.746605e+00
  -9.269714e+01  -2.248867e+01
  -9.662707e+00  -7.979702e+01
   1.176819e+02  -1.161532e+02
   1.855678e+02  -6.116970e+01
   1.419633e+02   6.631064e+01
   2.594109e+01   1.627249e+02
  -7.927863e+01   1.506705e+02
  -1.148284e+02   5.834829e+01
  -8.081523e+01  -2.191352e+01
  -2.460485e+01  -3.553165e+01
   3.302594e+00  -8.941234e+00
  -1.059642e+01  -4.735810e+00
  -3.412417e+01  -4.664013e+01
  -2.374861e+01  -9.086404e+01
   2.881117e+01  -7.209278e+01
   8.134277e+01   1.810791e+01
   7.765802e+01   1.076446e+02
   5.180005e+00   1.112882e+02
  -8.187326e+01   2.271948e+01
  -1.030300e+02  -7.592149e+01
  -3.223235e+01  -1.031405e+02
   6.676279e+01  -5.525785e+01
   9.838812e+01   1.166445e+01
   3.955904e+01   5.008021e+01
  -3.260060e+01   5.203677e+01
  -3.062117e+01   2.938056e+01
   3.512895e+01   2.710594e-01
   6.987652e+01  -7.049917e+00
   1.424615e+01   2.483910e+01
  -8.035566e+01   6.690204e+01
  -1.159292e+02   6.034559e+01
  -6.364261e+01  -1.082423e+01
   1.573793e+01  -8.284852e+01
   5.206128e+01  -7.956137e+01
   3.548896e+01  -5.806958e+00
   7.130859e-02   5.538190e+01
  -2.631578e+01   4.166876e+01
  -3.610625e+01  -1.943055e+01
  -2.598099e+01  -5.425848e+01
   3.453076e+00  -3.217453e+01
   3.326137e+01   9.253273e+00
   3.985706e+01   2.139920e+01
   2.060037e+01   1.278684e+00
  -1.027391e+00  -1.355687e+01
  -8.130309e+00   3.551984e+00
  -8.828387e+00   3.684367e+01
  -1.812436e+01   4.401935e+01
  -3.250940e+01   6.014079e+00
  -2.947314e+01  -4.699438e+01
   3.128851e+00  -6.237663e+01
   4.583116e+01  -2.087335e+01
   5.749928e+01   3.999020e+01
   1.518810e+01   6.403257e+01
  -5.480590e+01   3.449730e+01
  -8.915891e+01  -1.512829e+01
  -4.934409e+01  -4.359833e+01
   2.890084e+01  -4.021549e+01
   6.489354e+01  -2.100881e+01
   2.377743e+01  -4.545285e+00
  -3.830632e+01  -1.972636e+00
  -3.885144e+01  -1.626759e+01
   3.029556e+01  -3.231920e+01
   9.165529e+01  -2.052206e+01
