
 $NMID
 id='ANONYMOUS ', fmtdat='(2E16.6)'
 volume=1.0
 tramp=1.0
 $END
   2.499159e+03   1.781633e+02
   1.478839e+03   1.176906e+03
  -1.794169e+02   1.499926e+03
  -1.018292e+03   8.724478e+02
  -8.177490e+02   2.289875e+00
   1.438519e+02  -1.615888e+02
   3.300368e+02   6.521774e+01
   1.371860e+01   4.106025e+02
  -3.091130e+02   3.486621e+02
  -5.747851e+02   7.395044e+01
  -2.702668e+02  -4.786348e+02
  -8.414421e+00  -4.636197e+02
   2.595697e+02  -1.018199e+02
   1.584426e+02   2.043445e+02
  -5.881000e+01   3.754824e+02
  -2.187260e+02   5.973973e+01
  -2.391514e+02  -3.186457e+02
   6.025092e+01  -4.222783e+02
   2.956760e+02  -2.219442e+02
   3.403373e+02   7.332267e+01
   1.680653e+02   2.207748e+02
  -7.237238e+01   2.203261e+02
  -5.461166e+01   1.361521e+02
   6.493555e+01   1.096858e+02
   1.675505e+02   1.846900e+02
  -2.723427e+01   2.013492e+02
  -3.340420e+02   5.136330e+01
  -4.294643e+02  -1.037429e+02
  -1.583956e+02  -1.663497e+02
   1.684877e+02  -8.506324e+01
   2.846042e+02   6.298809e+01
   1.174345e+02   1.757914e+02
  -1.527123e+02   1.900826e+02
  -2.783037e+02   9.837660e+01
  -2.207347e+02  -6.908686e+01
  -9.324602e+01  -1.780015e+02
  -4.265459e+01  -1.300523e+02
  -7.404376e+01   1.259663e+01
  -9.166622e+01   3.407217e+01
  -4.949086e+01  -1.049106e+02
   3.028257e+01  -2.570961e+02
   1.143367e+02  -2.289529e+02
   1.149784e+02  -2.648079e+01
   5.631787e+01   1.183779e+02
  -4.030371e+01   3.414809e+01
  -4.428169e+01  -1.525141e+02
   8.849356e+01  -1.914431e+02
   2.494315e+02  -1.073405e+01
   2.906678e+02   2.078321e+02
   1.167063e+02   2.792180e+02
  -1.439853e+02   1.698569e+02
  -3.016342e+02  -6.401080e+00
  -2.415245e+02  -1.056679e+02
  -3.221069e+01  -1.157375e+02
   1.382846e+02  -7.875803e+01
   1.564045e+02  -4.001944e+01
   5.716204e+01  -1.353706e+01
  -7.176092e+00  -5.320904e+00
   4.211735e+01  -3.348109e-02
   1.184928e+02   3.291928e+01
   7.695097e+01   9.957167e+01
  -8.935213e+01   1.483376e+02
  -2.223896e+02   9.972192e+01
  -1.743629e+02  -5.548201e+01
   2.145057e+01  -2.145064e+02
   1.959212e+02  -2.432909e+02
   2.280480e+02  -1.104522e+02
   1.456568e+02   8.555762e+01
   5.531748e+01   2.129649e+02
   1.534327e+01   2.231340e+02
  -2.982661e+00   1.622611e+02
  -4.878772e+01   1.003768e+02
  -1.198104e+02   5.520887e+01
  -1.651554e+02  -2.876425e+00
  -1.398796e+02  -8.787639e+01
  -5.360734e+01  -1.472130e+02
   5.153746e+01  -1.113664e+02
   1.141685e+02   1.639632e+01
   8.913944e+01   1.429782e+02
  -2.155365e+01   1.512453e+02
  -1.526166e+02   3.797737e+01
  -1.933467e+02  -1.055164e+02
  -1.135137e+02  -1.808945e+02
   1.613564e+01  -1.697173e+02
   8.965374e+01  -1.208766e+02
   9.659142e+01  -8.058943e+01
   1.242570e+02  -5.928680e+01
   2.117254e+02  -1.414654e+01
   2.837000e+02   8.101005e+01
   2.040709e+02   2.101714e+02
  -3.203861e+01   2.940492e+02
  -2.586392e+02   2.643790e+02
  -3.109184e+02   1.160691e+02
  -1.829663e+02  -5.694378e+01
  -1.915849e+01  -1.509605e+02
   4.259282e+01  -1.259578e+02
  -5.748600e+00  -3.858835e+01
  -7.030208e+01   1.023976e+01
  -7.109204e+01  -1.801281e+01
  -1.120655e+01  -6.790254e+01
   4.898580e+01  -5.574718e+01
   5.002085e+01   1.816022e+01
  -1.707550e+01   5.831865e+01
  -9.247943e+01  -1.316516e+01
  -9.437951e+01  -1.523563e+02
   1.041272e+01  -2.238734e+02
   1.630200e+02  -1.389597e+02
   2.447458e+02   4.175678e+01
   1.856163e+02   1.774362e+02
   3.464313e+01   1.786177e+02
  -8.267997e+01   8.583732e+01
  -8.803994e+01   7.518934e+00
  -1.956367e+01   4.884238e+00
   2.307955e+01   4.856963e+01
  -1.239685e+01   6.840030e+01
  -7.785614e+01   3.523199e+01
  -8.532535e+01  -1.440841e+01
  -1.728408e+01  -2.395053e+01
   4.655192e+01   1.850558e+01
   1.396181e+01   6.470062e+01
  -1.087635e+02   5.593467e+01
  -2.074361e+02  -2.163002e+01
  -1.716414e+02  -1.228972e+02
  -1.265749e+01  -1.798274e+02
   1.424346e+02  -1.527756e+02
   1.757914e+02  -6.223555e+01
   8.828712e+01   2.371673e+01
  -1.390339e+01   4.275571e+01
  -3.086858e+01  -2.121172e+00
   4.029229e+01  -4.092713e+01
   1.161064e+02  -1.157807e+01
   1.154567e+02   6.777922e+01
   3.553213e+01   1.147818e+02
  -5.186710e+01   8.157244e+01
  -7.201766e+01   1.102916e+01
  -2.121468e+01  -1.481119e+01
   2.961981e+01   2.873672e+01
   8.532053e+00   8.430019e+01
  -7.755243e+01   7.926758e+01
  -1.450343e+02   2.379975e+00
  -1.169557e+02  -9.150276e+01
  -6.445193e+00  -1.338422e+02
   9.469196e+01  -9.787840e+01
   1.061146e+02  -1.564938e+01
   3.688264e+01   4.984888e+01
  -3.108591e+01   5.710527e+01
  -3.580176e+01   2.025863e+01
   6.230674e+00  -8.442218e+00
   2.604225e+01   1.597772e+00
  -1.251329e+01   2.224828e+01
  -6.976798e+01   9.026549e-01
  -7.605619e+01  -6.809222e+01
  -1.320015e+00  -1.252584e+02
   1.046483e+02  -1.025580e+02
   1.603483e+02   1.722012e-01
   1.235535e+02   1.113322e+02
   2.465591e+01   1.511279e+02
  -6.254303e+01   1.041157e+02
  -8.475608e+01   2.343064e+01
  -5.384034e+01  -2.374103e+01
  -2.805132e+01  -1.573443e+01
  -4.007860e+01   9.724876e+00
  -6.332951e+01   1.050892e+00
  -4.380627e+01  -4.631695e+01
   2.884348e+01  -7.915177e+01
   9.510325e+01  -4.698525e+01
   8.197985e+01   3.619532e+01
  -1.568548e+01   9.469972e+01
  -1.219682e+02   6.093277e+01
  -1.426798e+02  -5.029925e+01
  -4.968528e+01  -1.463712e+02
   9.209487e+01  -1.461768e+02
   1.793057e+02  -4.991227e+01
   1.584979e+02   6.082468e+01
   6.389944e+01   1.082291e+02
  -2.408099e+01   8.815076e+01
  -5.472012e+01   5.310289e+01
  -4.142805e+01   5.080153e+01
  -3.546173e+01   6.918861e+01
  -6.186190e+01   5.862637e+01
  -9.315607e+01  -9.567865e+00
  -8.342537e+01  -1.035461e+02
  -1.783717e+01  -1.525999e+02
   6.723081e+01  -1.120751e+02
   1.110635e+02  -6.632501e+00
   8.008018e+01   8.599379e+01
   3.503725e+00   1.027820e+02
  -5.045251e+01   4.852736e+01
  -3.906720e+01  -1.618625e+01
   8.241924e+00  -3.907076e+01
   2.382035e+01  -2.161984e+01
  -1.684643e+01  -3.627902e+00
  -5.961076e+01  -1.037983e+01
  -3.437664e+01  -2.836285e+01
   5.467283e+01  -2.645309e+01
   1.228874e+02   6.471672e+00
   9.577698e+01   4.912443e+01
  -8.357494e+00   6.875540e+01
  -9.699923e+01   4.836030e+01
  -9.898785e+01   9.002832e-01
  -2.894958e+01  -3.717899e+01
   4.061354e+01  -3.280844e+01
   5.478038e+01   1.187268e+01
   1.760486e+01   5.403553e+01
  -2.901906e+01   5.024452e+01
  -5.143107e+01   3.503236e+00
  -4.655096e+01  -3.671887e+01
  -3.526127e+01  -3.080425e+01
  -3.555217e+01  -7.239368e-02
  -4.373598e+01  -1.249475e+00
  -3.362823e+01  -5.384937e+01
   1.670528e+01  -1.091639e+02
   9.015056e+01  -1.004689e+02
   1.304670e+02  -2.087659e+01
   9.222003e+01   6.760830e+01
  -1.005549e+00   9.411641e+01
  -6.729203e+01   5.100684e+01
  -4.475542e+01  -5.592551e+00
   3.876086e+01  -1.605174e+01
   8.982531e+01   2.447744e+01
   4.668143e+01   7.023805e+01
  -5.608934e+01   7.339038e+01
  -1.247609e+02   2.853456e+01
  -1.019005e+02  -2.841230e+01
  -1.838407e+01  -5.487816e+01
   4.234617e+01  -3.543902e+01
   2.936150e+01   5.643898e+00
  -3.108263e+01   2.234575e+01
  -6.646784e+01  -1.435237e+01
  -3.133289e+01  -8.064619e+01
   4.941311e+01  -1.098382e+02
   1.055766e+02  -5.367567e+01
   8.910096e+01   5.705035e+01
   1.609712e+01   1.281738e+02
  -5.213306e+01   9.502125e+01
  -6.882357e+01  -6.922474e+00
  -3.480954e+01  -7.873845e+01
   1.153643e+01  -6.552583e+01
   3.444545e+01  -7.854447e+00
   2.625771e+01   1.998673e+01
   7.566383e+00   2.828655e+00
   5.235664e+00  -1.032742e+01
   2.452034e+01   1.755951e+01
   4.003881e+01   6.101979e+01
   1.758381e+01   6.790481e+01
  -4.181935e+01   2.725407e+01
  -9.125381e+01  -2.327014e+01
  -8.002949e+01  -4.594865e+01
  -1.222474e+01  -3.891052e+01
   5.133480e+01  -2.079664e+01
   5.698255e+01  -3.197696e+00
   1.416192e+01   1.023731e+01
  -2.025731e+01   1.361256e+01
  -1.343039e+01   4.840003e+00
   8.010015e+00  -4.469003e+00
  -1.468182e+00  -1.262633e+00
  -4.252793e+01   4.407777e+00
  -6.334525e+01  -1.381189e+01
  -1.937691e+01  -5.717242e+01
   6.888574e+01  -8.397750e+01
   1.299169e+02  -4.939601e+01
   1.102761e+02   3.663615e+01
   2.681322e+01   1.085606e+02
  -5.401942e+01   1.097953e+02
  -8.079375e+01   4.981626e+01
  -5.617769e+01  -1.073621e+01
  -1.990910e+01  -2.726214e+01
  -4.223797e+00  -1.174110e+01
  -1.038528e+01  -7.955701e+00
  -1.917764e+01  -3.415933e+01
  -1.091266e+01  -6.190877e+01
   1.936762e+01  -4.954196e+01
   5.367618e+01   7.804324e+00
   5.875914e+01   6.674665e+01
   1.537823e+01   7.672878e+01
  -5.018671e+01   2.790819e+01
  -7.722347e+01  -3.948590e+01
  -3.256612e+01  -7.201749e+01
   4.372143e+01  -4.967296e+01
   7.506757e+01   2.867153e+00
   3.413201e+01   4.350483e+01
  -2.464794e+01   4.674757e+01
  -3.125727e+01   1.936511e+01
   1.466648e+01  -8.062608e+00
   4.606494e+01  -8.160625e+00
   1.441698e+01   1.991629e+01
  -5.151144e+01   4.555225e+01
  -8.301361e+01   3.447120e+01
  -5.136668e+01  -1.404301e+01
   7.534291e+00  -5.960935e+01
   4.172002e+01  -5.833889e+01
   3.580868e+01  -1.073529e+01
   8.943349e+00   3.617769e+01
  -1.558633e+01   3.722423e+01
  -2.786126e+01  -2.960380e+00
  -2.256838e+01  -3.757218e+01
  -6.167015e-01  -3.162953e+01
   2.410337e+01   8.905775e-01
   3.046398e+01   1.911037e+01
   1.414759e+01   4.565315e+00
  -3.610137e+00  -1.678708e+01
  -2.333076e+00  -1.096603e+01
   9.851160e+00   2.149217e+01
   6.438468e+00   4.285387e+01
  -1.847771e+01   2.404825e+01
  -3.633029e+01  -1.912585e+01
  -1.795045e+01  -4.202899e+01
   2.525531e+01  -2.175958e+01
   4.659218e+01   1.851647e+01
   1.662087e+01   3.910404e+01
  -3.937177e+01   2.546508e+01
  -6.566403e+01  -5.385577e+00
  -3.594424e+01  -2.856013e+01
   1.923908e+01  -3.383152e+01
   4.521475e+01  -2.375155e+01
   2.248892e+01  -6.197245e+00
  -1.534170e+01   6.063600e+00
  -2.158707e+01   1.155986e+00
   1.152072e+01  -1.595384e+01
   4.761598e+01  -1.800510e+01
