
 $NMID
 id='ANONYMOUS ', fmtdat='(2E16.6)'
 volume=1.0
 tramp=1.0
 $END
  -3.934438e+03   9.765491e+01
  -2.548818e+03  -2.066178e+03
   3.605939e+02  -2.581265e+03
   1.773363e+03  -1.201269e+03
   9.956000e+02   1.935978e+02
  -3.811226e+02   5.486615e+02
  -7.043707e+02  -1.817781e+02
  -3.510333e+01  -9.337942e+02
   6.566132e+02  -7.076015e+02
   8.509063e+02  -4.429865e+01
   4.715221e+02   6.069646e+02
  -1.178906e+02   7.522416e+02
  -4.647053e+02   2.120401e+02
  -4.121725e+02  -7.054896e+02
   1.981038e+02  -7.044240e+02
   5.896636e+02  -3.525835e+01
   3.656028e+02   6.202900e+02
  -2.346126e+02   6.700578e+02
  -5.398567e+02   1.048509e+02
  -3.673025e+02  -3.009552e+02
  -2.905423e+01  -3.980437e+02
   2.447696e+02  -2.108833e+02
   1.637086e+02   4.310244e+00
  -1.740424e+02   5.253754e+01
  -3.869186e+02  -1.735169e+02
  -1.496630e+02  -4.393553e+02
   4.624970e+02  -3.638237e+02
   7.947587e+02   1.039934e+02
   3.781244e+02   5.110272e+02
  -3.914347e+02   4.029796e+02
  -7.143903e+02  -9.076610e+01
  -3.018728e+02  -4.876176e+02
   3.061657e+02  -4.800105e+02
   5.608884e+02  -1.756453e+02
   3.870281e+02   2.129477e+02
   6.707565e+01   4.429897e+02
  -1.622089e+02   2.728697e+02
  -1.187496e+02  -1.875036e+02
   1.854017e+02  -3.931305e+02
   4.157161e+02   4.411344e+01
   2.024997e+02   6.706218e+02
  -3.116198e+02   6.885734e+02
  -5.668718e+02   1.102754e+01
  -2.587475e+02  -5.314590e+02
   2.706774e+02  -3.111969e+02
   3.673309e+02   3.229876e+02
  -6.410134e+01   5.356125e+02
  -5.543640e+02   1.281132e+02
  -6.099200e+02  -4.202525e+02
  -1.722836e+02  -5.962503e+02
   3.995809e+02  -3.338614e+02
   6.448023e+02   8.464427e+01
   3.729142e+02   3.815831e+02
  -1.565267e+02   3.459987e+02
  -4.341926e+02   5.385628e+01
  -2.378352e+02  -1.666496e+02
   1.033685e+02  -8.615404e+01
   1.283806e+02   1.350579e+02
  -1.524389e+02   1.611211e+02
  -3.250698e+02  -6.155393e+01
  -1.484993e+02  -2.642591e+02
   1.731360e+02  -2.550591e+02
   3.199901e+02  -1.055101e+02
   2.172953e+02   6.963306e+01
  -1.204321e+01   2.509652e+02
  -2.416137e+02   3.566351e+02
  -3.659574e+02   2.096951e+02
  -2.917640e+02  -1.689828e+02
  -6.591104e+01  -4.466545e+02
   1.032111e+02  -3.694676e+02
   8.446231e+01  -1.141062e+02
   6.201861e+00  -2.676252e+01
   6.705236e+01  -1.317952e+02
   2.412448e+02  -1.431034e+02
   3.083330e+02   7.054956e+01
   1.574971e+02   2.916371e+02
  -8.602338e+01   2.609788e+02
  -2.327425e+02  -1.480847e+00
  -1.871803e+02  -2.465129e+02
   2.234435e+01  -2.893234e+02
   2.689075e+02  -1.092970e+02
   3.589722e+02   1.681742e+02
   1.943423e+02   3.457881e+02
  -8.133240e+01   3.143641e+02
  -2.196457e+02   1.424128e+02
  -1.594720e+02   2.285825e+01
  -1.154535e+02   4.040283e+01
  -2.458415e+02   6.855696e+01
  -4.136145e+02  -4.914702e+01
  -3.518591e+02  -2.824893e+02
  -1.141147e+01  -4.600103e+02
   3.656907e+02  -4.392947e+02
   5.031231e+02  -2.112619e+02
   3.380784e+02   9.992277e+01
   4.414470e+01   2.976553e+02
  -1.300476e+02   2.427518e+02
  -6.321233e+01   2.561967e+01
   1.244121e+02  -9.299268e+01
   1.904153e+02   2.351410e+01
   3.609970e+01   1.938101e+02
  -1.644662e+02   1.567146e+02
  -1.721269e+02  -6.687842e+01
   2.004876e+01  -1.869524e+02
   1.935277e+02  -2.837202e+01
   1.685677e+02   2.471467e+02
  -2.195379e+01   3.534096e+02
  -2.295381e+02   2.048858e+02
  -3.384435e+02  -5.445924e+01
  -2.904553e+02  -2.452321e+02
  -9.540380e+01  -2.749346e+02
   1.195897e+02  -1.614621e+02
   1.793156e+02  -1.225326e+01
   5.248097e+01   3.819680e+01
  -7.625187e+01  -4.229220e+01
  -2.869559e+01  -1.317823e+02
   1.281869e+02  -1.015885e+02
   1.800919e+02   1.555607e+01
   5.270878e+01   7.458993e+01
  -8.980026e+01   1.352628e+01
  -6.048712e+01  -8.084109e+01
   1.287255e+02  -9.475957e+01
   2.938963e+02  -2.075341e+00
   2.717858e+02   1.441089e+02
   5.855587e+01   2.608516e+02
  -1.922938e+02   2.621561e+02
  -2.878828e+02   1.225211e+02
  -1.666203e+02  -5.526496e+01
   3.173465e+01  -1.086483e+02
   9.508559e+01  -3.008132e+00
  -3.452059e+01   1.075024e+02
  -2.014104e+02   6.242729e+01
  -2.198874e+02  -1.043487e+02
  -7.212833e+01  -2.131474e+02
   9.793554e+01  -1.610873e+02
   1.492746e+02  -2.604774e+01
   6.979812e+01   4.774177e+01
  -3.623271e+01   3.688474e+00
  -4.468100e+01  -9.078918e+01
   7.360629e+01  -1.225398e+02
   2.073171e+02  -3.252376e+01
   1.997842e+02   1.275512e+02
   2.226092e+01   2.251087e+02
  -1.692703e+02   1.679245e+02
  -1.985456e+02   4.050193e+00
  -6.491743e+01  -1.204779e+02
   7.238864e+01  -1.146884e+02
   9.008543e+01  -2.699367e+01
   1.998344e+01   3.415639e+01
  -2.733526e+01   2.241542e+01
   3.376293e+00  -1.245737e+01
   7.172420e+01   2.165853e+00
   9.626621e+01   8.218664e+01
   2.178207e+01   1.656884e+02
  -1.282303e+02   1.600628e+02
  -2.419646e+02   2.815495e+01
  -2.093400e+02  -1.524875e+02
  -4.449835e+01  -2.415379e+02
   1.104188e+02  -1.736741e+02
   1.381734e+02  -2.836704e+01
   7.226454e+01   5.703752e+01
   2.908856e+01   3.754760e+01
   5.328385e+01  -1.494651e+01
   8.124087e+01  -1.228419e+01
   4.682153e+01   4.881621e+01
  -3.753159e+01   9.624456e+01
  -1.032185e+02   6.605762e+01
  -9.205106e+01  -3.317043e+01
   9.170683e+00  -1.178690e+02
   1.450389e+02  -9.358961e+01
   2.062875e+02   5.121577e+01
   1.066167e+02   2.086865e+02
  -1.081369e+02   2.384215e+02
  -2.749206e+02   1.024027e+02
  -2.650073e+02  -8.451563e+01
  -1.131978e+02  -1.796495e+02
   3.904985e+01  -1.512159e+02
   9.558890e+01  -8.578532e+01
   7.864969e+01  -6.903371e+01
   6.461266e+01  -9.183321e+01
   9.055875e+01  -7.713657e+01
   1.298618e+02   1.927476e+01
   1.215917e+02   1.552544e+02
   3.283324e+01   2.309789e+02
  -9.862759e+01   1.766140e+02
  -1.795145e+02   2.069845e+01
  -1.420081e+02  -1.252838e+02
  -2.169805e+01  -1.644786e+02
   7.055156e+01  -9.520119e+01
   6.594652e+01   8.602658e-01
   7.071303e+00   4.749415e+01
  -1.309180e+01   3.803820e+01
   3.403583e+01   1.670131e+01
   8.217301e+01   1.921479e+01
   4.905746e+01   3.859754e+01
  -6.540723e+01   4.268214e+01
  -1.660268e+02   8.514343e+00
  -1.500332e+02  -5.181842e+01
  -1.478730e+01  -9.438478e+01
   1.257175e+02  -7.944170e+01
   1.487627e+02  -1.442985e+01
   4.898182e+01   4.347414e+01
  -6.108509e+01   4.053975e+01
  -7.773620e+01  -1.668286e+01
  -1.152823e+01  -6.770474e+01
   5.233764e+01  -5.939837e+01
   6.348758e+01  -5.050620e-01
   4.752699e+01   4.787121e+01
   4.523391e+01   4.097653e+01
   5.970400e+01   1.861194e+00
   6.541625e+01  -8.168395e-01
   3.860922e+01   6.690215e+01
  -2.806880e+01   1.478981e+02
  -1.154457e+02   1.466590e+02
  -1.687230e+02   3.802971e+01
  -1.285499e+02  -9.062802e+01
  -8.290715e+00  -1.300158e+02
   8.765084e+01  -6.552637e+01
   6.144781e+01   1.464001e+01
  -6.034306e+01   2.295809e+01
  -1.408492e+02  -4.108018e+01
  -7.864087e+01  -1.083519e+02
   8.084606e+01  -1.161949e+02
   1.935509e+02  -5.591324e+01
   1.654823e+02   3.224787e+01
   3.857746e+01   8.794665e+01
  -6.132000e+01   7.291004e+01
  -5.052564e+01   9.000241e+00
   3.706156e+01  -2.862401e+01
   9.059756e+01   1.842121e+01
   3.646878e+01   1.166468e+02
  -8.580394e+01   1.575722e+02
  -1.644330e+02   6.844108e+01
  -1.298521e+02  -9.707278e+01
  -1.634523e+01  -1.987565e+02
   8.305309e+01  -1.464047e+02
   1.071378e+02   7.345430e+00
   6.335254e+01   1.210702e+02
  -3.371794e+00   1.086312e+02
  -4.986654e+01   2.008042e+01
  -5.378745e+01  -3.196140e+01
  -2.509543e+01  -9.001960e+00
  -4.488834e+00   2.048956e+01
  -2.432902e+01  -1.548972e+01
  -5.936459e+01  -8.933998e+01
  -4.268476e+01  -1.109217e+02
   4.885333e+01  -4.800365e+01
   1.404119e+02   3.612466e+01
   1.319829e+02   6.898355e+01
   1.993625e+01   5.050946e+01
  -8.659510e+01   2.455932e+01
  -8.931195e+01   9.513459e+00
  -1.272108e+01  -7.370192e+00
   3.891582e+01  -2.331231e+01
   1.690744e+01  -1.857989e+01
  -1.944972e+01   2.322766e+00
   4.523427e+00   9.549993e+00
   7.251738e+01   2.554694e+00
   9.362123e+01   2.156787e+01
   1.408679e+01   8.017698e+01
  -1.137788e+02   1.186631e+02
  -1.856596e+02   6.554676e+01
  -1.459502e+02  -6.205640e+01
  -3.086796e+01  -1.614455e+02
   7.568810e+01  -1.529825e+02
   1.133319e+02  -6.199407e+01
   8.151141e+01   1.957285e+01
   2.650542e+01   3.465391e+01
  -1.235335e+00   8.882437e+00
   1.149599e+01   4.778035e+00
   3.450337e+01   4.669765e+01
   2.465716e+01   9.114600e+01
  -2.745525e+01   7.327520e+01
  -8.126311e+01  -1.537182e+01
  -8.002763e+01  -1.047406e+02
  -8.826103e+00  -1.109393e+02
   7.945236e+01  -2.629287e+01
   1.036680e+02   7.141566e+01
   3.514602e+01   1.020651e+02
  -6.411775e+01   5.796209e+01
  -9.837132e+01  -9.137205e+00
  -4.148257e+01  -5.068017e+01
   3.158675e+01  -5.410639e+01
   3.193447e+01  -2.946057e+01
  -3.288775e+01   1.681577e+00
  -6.961512e+01   8.397323e+00
  -1.629093e+01  -2.546076e+01
   7.855381e+01  -6.849717e+01
   1.171591e+02  -6.165461e+01
   6.699850e+01   1.030128e+01
  -1.271171e+01   8.383867e+01
  -5.124156e+01   8.269244e+01
  -3.689810e+01   9.665444e+00
  -2.748900e+00  -5.355751e+01
   2.418211e+01  -4.348463e+01
   3.574179e+01   1.646184e+01
   2.705484e+01   5.354469e+01
  -2.269174e+00   3.437119e+01
  -3.355447e+01  -7.647352e+00
  -4.070458e+01  -2.174104e+01
  -2.025143e+01  -1.465990e+00
   2.465347e+00   1.551158e+01
   8.114205e+00  -5.410506e-01
   4.675253e+00  -3.520172e+01
   1.253770e+01  -4.556918e+01
   2.977577e+01  -9.578863e+00
   3.167863e+01   4.349660e+01
   9.727043e-01   6.085731e+01
  -4.388538e+01   2.184353e+01
  -5.859571e+01  -3.753687e+01
  -1.721553e+01  -6.274987e+01
   5.408565e+01  -3.596453e+01
   8.981624e+01   1.201018e+01
   5.059169e+01   4.216953e+01
  -2.749243e+01   4.198401e+01
  -6.425063e+01   2.401994e+01
  -2.457184e+01   5.730917e+00
   3.643538e+01   6.178123e-01
   3.787366e+01   1.387305e+01
  -2.880884e+01   3.134050e+01
  -8.889760e+01   2.178121e+01
