
 $NMID
 id='ANONYMOUS ', fmtdat='(2E16.6)'
 volume=1.0
 tramp=1.0
 $END
   4.358066e+03   6.746506e+01
   2.631886e+03   2.343079e+03
  -4.318700e+02   2.787705e+03
  -2.025150e+03   1.034184e+03
  -9.410327e+02  -4.168780e+02
   6.046692e+02  -6.246449e+02
   7.924591e+02   3.075049e+02
   3.620416e+01   9.908489e+02
  -7.722024e+02   9.072437e+02
  -8.972220e+02  -4.326340e+01
  -5.528728e+02  -7.804792e+02
   5.305391e+01  -8.347492e+02
   5.747515e+02  -1.482692e+02
   4.059237e+02   6.467015e+02
  -1.783942e+02   7.728361e+02
  -5.702375e+02   4.920714e+01
  -3.757674e+02  -6.895730e+02
   2.847018e+02  -7.211548e+02
   5.694420e+02  -1.747575e+02
   4.520946e+02   3.511017e+02
   3.890251e+01   4.864787e+02
  -1.919052e+02   2.962964e+02
  -2.024953e+02   7.895698e+01
   1.075197e+02  -6.569535e+01
   3.914817e+02   1.258460e+02
   1.711887e+02   4.230672e+02
  -4.708431e+02   4.215690e+02
  -8.729533e+02  -5.734335e+01
  -4.488770e+02  -5.412676e+02
   3.720928e+02  -5.004716e+02
   7.542575e+02   9.867237e+00
   3.621747e+02   4.701061e+02
  -2.640483e+02   5.233321e+02
  -5.679248e+02   2.068041e+02
  -4.403472e+02  -2.136725e+02
  -9.927771e+01  -4.777027e+02
   1.877172e+02  -2.976294e+02
   1.873871e+02   2.116216e+02
  -1.734758e+02   4.253937e+02
  -4.558007e+02  -3.653998e+01
  -2.480258e+02  -7.006528e+02
   3.481380e+02  -7.219853e+02
   6.333803e+02   9.016485e+00
   2.457450e+02   5.767426e+02
  -3.208231e+02   3.275530e+02
  -4.044707e+02  -3.477777e+02
   8.502246e+01  -5.840513e+02
   5.822584e+02  -1.450804e+02
   6.159801e+02   4.332154e+02
   1.665920e+02   6.128134e+02
  -3.990749e+02   3.447661e+02
  -6.498559e+02  -9.730563e+01
  -3.866720e+02  -4.030550e+02
   1.625106e+02  -3.776608e+02
   4.689396e+02  -6.709731e+01
   2.683962e+02   1.977695e+02
  -1.056393e+02   1.272168e+02
  -1.484384e+02  -1.411888e+02
   1.629056e+02  -2.033255e+02
   3.668245e+02   5.336797e+01
   1.684674e+02   3.161303e+02
  -2.051239e+02   3.070904e+02
  -3.660635e+02   1.038987e+02
  -2.288854e+02  -9.673443e+01
   2.765037e+01  -2.513630e+02
   2.451003e+02  -3.392934e+02
   3.494436e+02  -2.206276e+02
   2.848337e+02   1.300985e+02
   7.826261e+01   4.302446e+02
  -9.731399e+01   3.968645e+02
  -1.040745e+02   1.428228e+02
  -3.140161e+01   1.490158e+01
  -6.712337e+01   9.144781e+01
  -2.119094e+02   1.153099e+02
  -2.784621e+02  -7.004333e+01
  -1.543835e+02  -2.774132e+02
   6.928532e+01  -2.527859e+02
   2.205839e+02  -4.058743e+00
   1.976183e+02   2.447499e+02
  -3.285501e+00   2.985233e+02
  -2.668103e+02   1.225665e+02
  -3.729868e+02  -1.683005e+02
  -2.048523e+02  -3.635743e+02
   9.457011e+01  -3.250604e+02
   2.358804e+02  -1.295539e+02
   1.641984e+02  -6.210860e+00
   1.075818e+02  -3.311974e+01
   2.403205e+02  -6.903660e+01
   4.179471e+02   5.766466e+01
   3.510542e+02   2.979678e+02
   3.122402e+00   4.619961e+02
  -3.743718e+02   4.283188e+02
  -5.052426e+02   2.067851e+02
  -3.411453e+02  -9.145258e+01
  -5.216999e+01  -2.949037e+02
   1.263866e+02  -2.544905e+02
   7.036086e+01  -3.297662e+01
  -1.187246e+02   1.039852e+02
  -1.958846e+02  -8.755039e+00
  -4.729068e+01  -2.002901e+02
   1.640928e+02  -1.772531e+02
   1.830441e+02   5.804550e+01
  -1.762540e+01   1.986741e+02
  -2.038784e+02   3.669236e+01
  -1.770354e+02  -2.562217e+02
   2.841106e+01  -3.701885e+02
   2.475929e+02  -2.082390e+02
   3.501313e+02   6.660455e+01
   2.899203e+02   2.543731e+02
   9.084274e+01   2.749636e+02
  -1.238847e+02   1.598919e+02
  -1.832642e+02   1.669886e+01
  -5.617062e+01  -3.255160e+01
   7.643851e+01   4.277641e+01
   3.390681e+01   1.291018e+02
  -1.251276e+02   1.013609e+02
  -1.827117e+02  -1.254159e+01
  -6.003180e+01  -7.155193e+01
   8.277429e+01  -1.226617e+01
   5.678221e+01   8.016498e+01
  -1.293334e+02   9.173802e+01
  -2.942460e+02  -1.167105e+00
  -2.744266e+02  -1.454235e+02
  -6.341173e+01  -2.622882e+02
   1.881757e+02  -2.683629e+02
   2.896547e+02  -1.338709e+02
   1.736327e+02   4.591540e+01
  -2.404516e+01   1.073305e+02
  -9.037222e+01   7.003067e+00
   3.754224e+01  -1.044925e+02
   2.053428e+02  -6.166957e+01
   2.229141e+02   1.057282e+02
   7.235877e+01   2.161849e+02
  -9.837938e+01   1.635170e+02
  -1.484413e+02   2.746317e+01
  -6.925822e+01  -4.477941e+01
   3.277320e+01  -6.929412e-01
   3.860759e+01   8.990154e+01
  -7.684790e+01   1.177158e+02
  -2.054463e+02   2.813864e+01
  -1.960859e+02  -1.283782e+02
  -2.040787e+01  -2.241582e+02
   1.690090e+02  -1.679091e+02
   1.974099e+02  -6.536691e+00
   6.422860e+01   1.164867e+02
  -6.948911e+01   1.113915e+02
  -8.280955e+01   2.718379e+01
  -1.301169e+01  -2.863229e+01
   2.547805e+01  -1.539093e+01
  -1.143615e+01   1.428824e+01
  -7.745230e+01  -5.498161e+00
  -9.315895e+01  -8.777129e+01
  -1.392128e+01  -1.689032e+02
   1.317029e+02  -1.595246e+02
   2.409341e+02  -2.481609e+01
   2.085500e+02   1.567492e+02
   4.590531e+01   2.445629e+02
  -1.101052e+02   1.751554e+02
  -1.401166e+02   2.953201e+01
  -7.398070e+01  -5.468413e+01
  -3.009796e+01  -3.568103e+01
  -5.605404e+01   1.279870e+01
  -8.499589e+01   7.765896e+00
  -4.667100e+01  -5.038346e+01
   4.329454e+01  -9.262331e+01
   1.090986e+02  -6.134130e+01
   9.019078e+01   3.629042e+01
  -1.537507e+01   1.169116e+02
  -1.486111e+02   9.132107e+01
  -2.047580e+02  -5.514611e+01
  -1.021075e+02  -2.121924e+02
   1.115903e+02  -2.364343e+02
   2.771661e+02  -9.717813e+01
   2.671282e+02   8.984987e+01
   1.135302e+02   1.811550e+02
  -3.993354e+01   1.510965e+02
  -9.614751e+01   8.746540e+01
  -7.920887e+01   7.349949e+01
  -6.753749e+01   9.617022e+01
  -9.650144e+01   7.934870e+01
  -1.341392e+02  -2.042392e+01
  -1.223796e+02  -1.585222e+02
  -3.092649e+01  -2.342713e+02
   1.010096e+02  -1.783313e+02
   1.800479e+02  -2.040354e+01
   1.397555e+02   1.269293e+02
   1.904725e+01   1.650972e+02
  -7.042671e+01   9.366746e+01
  -6.236693e+01  -1.872196e+00
  -3.775959e+00  -4.500950e+01
   1.269359e+01  -3.430218e+01
  -3.714625e+01  -1.729966e+01
  -8.349393e+01  -2.428874e+01
  -4.685469e+01  -4.151592e+01
   6.799811e+01  -3.812386e+01
   1.657892e+02  -3.014042e-01
   1.480034e+02   5.548966e+01
   1.348565e+01   9.138304e+01
  -1.263304e+02   7.520531e+01
  -1.498223e+02   1.397048e+01
  -4.975615e+01  -4.130176e+01
   6.158544e+01  -3.900670e+01
   7.829058e+01   1.828946e+01
   9.922361e+00   7.042542e+01
  -5.518268e+01   6.163321e+01
  -6.524359e+01   1.236863e-01
  -4.753019e+01  -5.078237e+01
  -4.665202e+01  -4.247802e+01
  -6.397037e+01  -7.993815e-01
  -6.975858e+01   5.895652e-01
  -3.893282e+01  -7.065898e+01
   3.175268e+01  -1.528876e+02
   1.203094e+02  -1.484434e+02
   1.711771e+02  -3.548561e+01
   1.283510e+02   9.398662e+01
   6.951116e+00   1.311824e+02
  -8.890835e+01   6.458276e+01
  -6.217098e+01  -1.454161e+01
   6.003099e+01  -2.039984e+01
   1.405358e+02   4.438504e+01
   7.720710e+01   1.098874e+02
  -8.403746e+01   1.149551e+02
  -1.976722e+02   5.270186e+01
  -1.679905e+02  -3.599247e+01
  -3.778232e+01  -9.055116e+01
   6.432900e+01  -7.322224e+01
   5.161555e+01  -7.415936e+00
  -4.059843e+01   2.915056e+01
  -9.541819e+01  -2.188717e+01
  -3.628186e+01  -1.230231e+02
   9.377496e+01  -1.622559e+02
   1.738854e+02  -6.757217e+01
   1.320689e+02   1.026768e+02
   1.144081e+01   2.047209e+02
  -8.747158e+01   1.490457e+02
  -1.065188e+02  -7.965986e+00
  -6.104525e+01  -1.221196e+02
   2.710932e+00  -1.086090e+02
   4.727983e+01  -1.915645e+01
   5.315859e+01   3.271055e+01
   2.633555e+01   8.691129e+00
   3.638144e+00  -2.068392e+01
   2.110182e+01   1.656763e+01
   5.755740e+01   9.149550e+01
   4.368141e+01   1.121910e+02
  -4.880268e+01   4.661467e+01
  -1.439484e+02  -3.990795e+01
  -1.352571e+02  -7.302040e+01
  -1.842938e+01  -5.250642e+01
   9.112124e+01  -2.399296e+01
   9.153706e+01  -7.681959e+00
   1.091160e+01   8.086919e+00
  -4.019496e+01   2.229451e+01
  -1.469678e+01   1.684088e+01
   2.280081e+01  -2.303822e+00
  -4.902110e+00  -7.591899e+00
  -7.652311e+01  -1.617227e+00
  -9.586089e+01  -2.433053e+01
  -1.083761e+01  -8.504221e+01
   1.214809e+02  -1.208506e+02
   1.930457e+02  -6.227742e+01
   1.488710e+02   6.945601e+01
   2.848082e+01   1.681115e+02
  -8.090159e+01   1.558019e+02
  -1.179049e+02   6.156924e+01
  -8.366669e+01  -2.129635e+01
  -2.658110e+01  -3.619026e+01
   2.300498e+00  -9.574538e+00
  -1.084206e+01  -5.355306e+00
  -3.411831e+01  -4.842756e+01
  -2.331608e+01  -9.406597e+01
   3.077252e+01  -7.486568e+01
   8.579777e+01   1.854483e+01
   8.245740e+01   1.122918e+02
   6.274575e+00   1.178054e+02
  -8.567334e+01   2.697776e+01
  -1.086366e+02  -7.658150e+01
  -3.487051e+01  -1.073128e+02
   6.855724e+01  -5.859290e+01
   1.020531e+02   1.164394e+01
   4.148584e+01   5.300691e+01
  -3.364047e+01   5.440497e+01
  -3.267231e+01   2.939028e+01
   3.414480e+01  -8.532608e-01
   7.072557e+01  -7.273296e+00
   1.539338e+01   2.586937e+01
  -8.133585e+01   6.829395e+01
  -1.193055e+02   6.038589e+01
  -6.688948e+01  -1.289496e+01
   1.528928e+01  -8.695152e+01
   5.497563e+01  -8.367536e+01
   4.009921e+01  -7.279638e+00
   3.940268e+00   5.742749e+01
  -2.507446e+01   4.528884e+01
  -3.752207e+01  -1.714483e+01
  -2.824441e+01  -5.476313e+01
   2.245841e+00  -3.409329e+01
   3.393362e+01   8.038047e+00
   4.103301e+01   2.134823e+01
   2.152772e+01   1.022929e+00
  -2.392334e-01  -1.518928e+01
  -5.990774e+00   2.374315e+00
  -5.352395e+00   3.762936e+01
  -1.586371e+01   4.729439e+01
  -3.311179e+01   9.835230e+00
  -3.183177e+01  -4.516550e+01
   1.702234e+00  -6.238626e+01
   4.628574e+01  -2.106257e+01
   5.871883e+01   4.097155e+01
   1.432029e+01   6.575941e+01
  -5.824460e+01   3.611997e+01
  -9.319777e+01  -1.511625e+01
  -5.127891e+01  -4.560017e+01
   2.954288e+01  -4.314987e+01
   6.667934e+01  -2.309960e+01
   2.477383e+01  -5.151351e+00
  -3.861437e+01  -1.591086e+00
  -3.944335e+01  -1.578317e+01
   3.103427e+01  -3.288088e+01
   9.414490e+01  -2.191363e+01
