
 $NMID
 id='ANONYMOUS ', fmtdat='(2E16.6)'
 volume=1.0
 tramp=1.0
 $END
  -4.576290e+03   2.824407e+02
  -2.785466e+03  -2.977825e+03
   1.050805e+03  -2.922416e+03
   2.596555e+03  -7.739558e+02
   9.839074e+02   7.072103e+02
  -9.579698e+02   6.489094e+02
  -9.050441e+02  -6.642238e+02
   8.906702e+01  -1.189479e+03
   9.407494e+02  -7.660428e+02
   1.031283e+03   1.068262e+02
   3.854131e+02   8.955587e+02
  -3.145208e+02   9.499172e+02
  -7.552550e+02   1.685635e+02
  -3.924714e+02  -8.286511e+02
   4.056085e+02  -8.716498e+02
   6.869848e+02   4.080447e+01
   2.323543e+02   7.413722e+02
  -4.202548e+02   6.585794e+02
  -6.993359e+02   2.481761e+01
  -3.873917e+02  -4.096602e+02
   3.396959e+01  -4.191894e+02
   3.135403e+02  -2.677160e+02
   2.587512e+02   2.266307e+01
  -7.650540e+01   1.048517e+02
  -4.293892e+02  -9.205814e+01
  -2.226189e+02  -4.546893e+02
   4.911509e+02  -4.498314e+02
   9.032448e+02   9.408551e+01
   4.435654e+02   6.429206e+02
  -4.536553e+02   5.647183e+02
  -8.240459e+02  -5.216214e+01
  -3.606212e+02  -5.233686e+02
   3.223887e+02  -5.581685e+02
   6.124626e+02  -1.928902e+02
   4.284571e+02   2.647206e+02
   3.852574e+01   5.126807e+02
  -2.486379e+02   3.109926e+02
  -2.034359e+02  -2.426010e+02
   1.734518e+02  -5.073453e+02
   4.960903e+02  -2.467813e+00
   2.820726e+02   7.366373e+02
  -3.421689e+02   7.437925e+02
  -6.564138e+02  -6.868384e-03
  -2.876699e+02  -6.240887e+02
   3.288525e+02  -3.627782e+02
   4.305369e+02   3.393982e+02
  -5.256166e+01   5.922357e+02
  -5.861919e+02   1.674357e+02
  -6.334519e+02  -4.152475e+02
  -1.746255e+02  -6.217192e+02
   4.078115e+02  -3.837979e+02
   6.656837e+02   6.757109e+01
   3.924033e+02   4.195627e+02
  -1.729484e+02   4.058157e+02
  -4.712082e+02   5.292057e+01
  -2.412798e+02  -2.321868e+02
   1.474946e+02  -1.235197e+02
   1.600085e+02   1.764011e+02
  -1.825893e+02   2.090463e+02
  -3.652417e+02  -8.258012e+01
  -1.277838e+02  -3.109624e+02
   2.259874e+02  -2.394278e+02
   3.193070e+02  -4.059952e+01
   1.615658e+02   9.209828e+01
  -3.901602e+01   2.060930e+02
  -2.121489e+02   3.195191e+02
  -3.473048e+02   2.316258e+02
  -3.257367e+02  -1.362091e+02
  -9.511675e+01  -4.656525e+02
   1.402981e+02  -4.108562e+02
   1.520561e+02  -1.020761e+02
   1.942926e+01   3.957589e+01
   9.827046e+00  -8.584904e+01
   1.792248e+02  -1.603135e+02
   3.008239e+02   3.084022e+01
   1.910939e+02   2.835073e+02
  -6.853385e+01   2.853088e+02
  -2.504386e+02   1.946855e+01
  -2.149767e+02  -2.567592e+02
   1.485629e+01  -3.124021e+02
   2.810294e+02  -1.209063e+02
   3.670853e+02   1.787065e+02
   1.763121e+02   3.636738e+02
  -1.121843e+02   3.088224e+02
  -2.315134e+02   1.135785e+02
  -1.479794e+02  -1.012961e+01
  -9.190981e+01   2.451357e+01
  -2.260150e+02   5.970239e+01
  -3.917034e+02  -5.027914e+01
  -3.281917e+02  -2.741994e+02
  -6.556506e+00  -4.391333e+02
   3.455488e+02  -4.208934e+02
   4.907681e+02  -2.131652e+02
   3.580060e+02   9.227359e+01
   6.611942e+01   3.087968e+02
  -1.444727e+02   2.657342e+02
  -1.058991e+02   2.099124e+01
   1.125971e+02  -1.308533e+02
   2.239064e+02  -2.277358e+00
   6.768649e+01   2.146435e+02
  -1.715729e+02   1.937692e+02
  -1.984055e+02  -5.999540e+01
   1.208258e+01  -2.050746e+02
   1.995236e+02  -3.721437e+01
   1.611842e+02   2.519390e+02
  -4.134737e+01   3.473539e+02
  -2.284084e+02   1.825170e+02
  -3.156548e+02  -6.469710e+01
  -2.763649e+02  -2.312681e+02
  -1.069849e+02  -2.622178e+02
   1.059204e+02  -1.723649e+02
   1.867025e+02  -3.119085e+01
   7.089509e+01   3.626656e+01
  -7.051131e+01  -2.938222e+01
  -3.711737e+01  -1.260614e+02
   1.248334e+02  -1.108324e+02
   1.893714e+02   5.598696e+00
   6.741182e+01   7.751579e+01
  -7.935875e+01   2.795188e+01
  -5.926459e+01  -6.367518e+01
   1.177871e+02  -8.365375e+01
   2.763490e+02  -3.252745e+00
   2.616721e+02   1.342091e+02
   6.331470e+01   2.550412e+02
  -1.831166e+02   2.685251e+02
  -2.913659e+02   1.317811e+02
  -1.812173e+02  -5.776270e+01
   2.247127e+01  -1.225764e+02
   9.961169e+01  -1.381750e+01
  -2.522282e+01   1.075958e+02
  -1.982100e+02   6.771386e+01
  -2.226283e+02  -1.017471e+02
  -7.530330e+01  -2.152782e+02
   9.682155e+01  -1.676425e+02
   1.526965e+02  -3.474240e+01
   7.970254e+01   4.385178e+01
  -2.442985e+01   1.247546e+01
  -4.224869e+01  -7.385129e+01
   6.285157e+01  -1.124661e+02
   1.944280e+02  -3.591650e+01
   1.960368e+02   1.199319e+02
   2.604712e+01   2.241418e+02
  -1.685793e+02   1.723043e+02
  -2.048948e+02   5.799898e+00
  -7.398215e+01  -1.244070e+02
   6.660139e+01  -1.230892e+02
   9.041286e+01  -3.705853e+01
   2.841692e+01   2.646887e+01
  -1.485842e+01   2.559714e+01
   8.443415e+00   3.754891e-01
   6.337826e+01   1.113902e+01
   8.347871e+01   7.400205e+01
   1.852323e+01   1.491200e+02
  -1.197849e+02   1.525251e+02
  -2.332542e+02   3.421452e+01
  -2.073302e+02  -1.449205e+02
  -4.411332e+01  -2.413099e+02
   1.137606e+02  -1.758152e+02
   1.412747e+02  -2.744188e+01
   7.222121e+01   6.085363e+01
   2.586358e+01   3.996631e+01
   4.867622e+01  -1.048123e+01
   7.339641e+01  -6.393897e+00
   3.686533e+01   4.650527e+01
  -4.011859e+01   8.120270e+01
  -9.413042e+01   4.985577e+01
  -8.124778e+01  -3.333022e+01
   9.189852e+00  -1.043716e+02
   1.344461e+02  -8.576028e+01
   1.948882e+02   4.328669e+01
   1.066159e+02   1.944674e+02
  -1.007821e+02   2.308404e+02
  -2.662154e+02   1.026148e+02
  -2.603244e+02  -8.274532e+01
  -1.116044e+02  -1.806865e+02
   3.881446e+01  -1.522587e+02
   9.625943e+01  -8.604744e+01
   8.266886e+01  -6.837630e+01
   7.029602e+01  -8.791520e+01
   9.360292e+01  -7.033564e+01
   1.267956e+02   2.484518e+01
   1.162043e+02   1.545982e+02
   2.911832e+01   2.255411e+02
  -9.927858e+01   1.727938e+02
  -1.776254e+02   2.309479e+01
  -1.394897e+02  -1.187424e+02
  -2.240013e+01  -1.587718e+02
   6.426144e+01  -9.520497e+01
   5.843281e+01  -6.557832e+00
   6.600662e+00   3.816397e+01
  -6.481801e+00   3.454206e+01
   3.802603e+01   2.049376e+01
   7.731708e+01   2.217948e+01
   4.380763e+01   3.476858e+01
  -5.886419e+01   3.565603e+01
  -1.513576e+02   6.559954e+00
  -1.425372e+02  -4.641335e+01
  -2.080950e+01  -8.696400e+01
   1.160228e+02  -7.566867e+01
   1.456807e+02  -1.569638e+01
   5.094968e+01   3.916611e+01
  -5.915114e+01   3.530033e+01
  -7.454495e+01  -2.010162e+01
  -4.073705e+00  -6.649955e+01
   5.915094e+01  -5.362893e+01
   6.243341e+01   5.050068e+00
   4.026665e+01   5.058545e+01
   4.121662e+01   4.211212e+01
   6.111564e+01   4.158670e+00
   6.441690e+01   1.326507e+00
   3.125382e+01   6.499771e+01
  -3.488835e+01   1.409002e+02
  -1.128812e+02   1.376713e+02
  -1.578222e+02   3.276899e+01
  -1.196490e+02  -8.969202e+01
  -7.496558e+00  -1.232429e+02
   8.363410e+01  -5.852151e+01
   5.861528e+01   1.697218e+01
  -5.959718e+01   2.057623e+01
  -1.380535e+02  -4.365400e+01
  -7.731685e+01  -1.073734e+02
   7.869644e+01  -1.129500e+02
   1.894873e+02  -5.411717e+01
   1.624868e+02   3.099253e+01
   3.930482e+01   8.528458e+01
  -5.760436e+01   7.132699e+01
  -4.671208e+01   1.045409e+01
   3.777174e+01  -2.269247e+01
   8.617225e+01   2.574208e+01
   2.738755e+01   1.180439e+02
  -9.487989e+01   1.488651e+02
  -1.674026e+02   5.557226e+01
  -1.240766e+02  -1.032282e+02
  -7.317145e+00  -1.959419e+02
   8.728170e+01  -1.430560e+02
   1.060443e+02   4.979162e+00
   6.295036e+01   1.165737e+02
   9.541941e-01   1.088430e+02
  -4.471310e+01   2.389851e+01
  -5.341142e+01  -3.016988e+01
  -2.796295e+01  -9.474258e+00
  -4.073296e+00   2.155058e+01
  -1.910359e+01  -1.218655e+01
  -5.489285e+01  -8.656274e+01
  -4.331854e+01  -1.099599e+02
   4.458136e+01  -4.564108e+01
   1.365990e+02   4.060150e+01
   1.290923e+02   7.171310e+01
   1.677631e+01   4.832520e+01
  -8.839195e+01   2.070241e+01
  -8.804921e+01   8.846420e+00
  -1.036745e+01  -5.241889e+00
   3.787757e+01  -2.294450e+01
   1.240734e+01  -2.127035e+01
  -2.214318e+01  -2.150936e-01
   7.004515e+00   1.085486e+01
   7.510543e+01   6.965594e+00
   8.919568e+01   2.444499e+01
   4.350870e+00   7.701303e+01
  -1.197769e+02   1.090872e+02
  -1.814460e+02   5.444893e+01
  -1.351972e+02  -6.844075e+01
  -2.174924e+01  -1.595946e+02
   7.913118e+01  -1.453378e+02
   1.124327e+02  -5.439067e+01
   7.874240e+01   2.323083e+01
   2.300492e+01   3.496315e+01
  -4.506536e+00   7.524298e+00
   9.556836e+00   3.260121e+00
   3.300846e+01   4.472812e+01
   2.182340e+01   8.825533e+01
  -3.053473e+01   6.891472e+01
  -7.986576e+01  -2.156004e+01
  -7.193015e+01  -1.092975e+02
   1.344247e+00  -1.095881e+02
   8.339535e+01  -1.864505e+01
   9.880601e+01   7.856980e+01
   2.733526e+01   1.017499e+02
  -6.674506e+01   5.127713e+01
  -9.460389e+01  -1.366842e+01
  -3.621495e+01  -4.786870e+01
   3.269601e+01  -4.800559e+01
   2.913151e+01  -2.734067e+01
  -3.589120e+01  -1.461263e+00
  -6.945182e+01   5.082834e+00
  -1.390331e+01  -2.474311e+01
   7.925104e+01  -6.469184e+01
   1.137896e+02  -5.833804e+01
   6.085420e+01   1.033382e+01
  -1.728614e+01   7.967757e+01
  -5.126920e+01   7.547432e+01
  -3.262502e+01   3.075694e+00
   2.692065e+00  -5.521517e+01
   2.757194e+01  -3.958568e+01
   3.544333e+01   2.115673e+01
   2.467022e+01   5.389522e+01
  -3.896637e+00   3.094814e+01
  -3.274702e+01  -9.210446e+00
  -3.871966e+01  -1.983513e+01
  -2.071177e+01  -5.736152e-01
  -2.091039e-01   1.146437e+01
   7.442230e+00  -6.694939e+00
   1.037874e+01  -3.767505e+01
   2.116594e+01  -4.171911e+01
   3.361807e+01  -3.217884e+00
   2.712519e+01   4.732878e+01
  -5.630428e+00   6.021294e+01
  -4.449224e+01   1.862826e+01
  -5.310602e+01  -4.029646e+01
  -1.196744e+01  -6.191666e+01
   5.382818e+01  -3.088475e+01
   8.563474e+01   1.849338e+01
   4.635873e+01   4.457567e+01
  -2.997428e+01   3.802813e+01
  -6.459913e+01   1.784456e+01
  -2.278781e+01   3.572478e+00
   3.893425e+01   3.768040e+00
   3.780458e+01   1.773250e+01
  -3.198915e+01   3.098064e+01
  -9.165389e+01   1.720460e+01
