
 $NMID
 id='ANONYMOUS ', fmtdat='(2E16.6)'
 volume=1.0
 tramp=1.0
 $END
   3.401993e+03  -3.007731e+01
   2.123320e+03   1.774501e+03
  -1.716119e+02   2.205710e+03
  -1.424203e+03   9.911605e+02
  -8.041987e+02   1.761614e+02
   6.336929e+01   7.451139e+00
   4.726599e+02   2.695850e+02
  -5.127699e+01   7.230167e+02
  -4.963372e+02   5.523324e+02
  -5.819199e+02   8.672634e+01
  -3.954954e+02  -5.080174e+02
   1.010699e+00  -6.775444e+02
   3.687703e+02  -1.725023e+02
   2.186214e+02   4.789669e+02
  -1.870887e+02   6.203357e+02
  -4.004374e+02   5.108167e+01
  -2.368237e+02  -5.605144e+02
   1.540597e+02  -6.029128e+02
   4.651840e+02  -1.610494e+02
   4.163707e+02   2.116672e+02
   7.153161e+01   3.373558e+02
  -1.531139e+02   2.135708e+02
  -9.308121e+01   5.227406e+01
   1.795613e+02   9.058778e+01
   2.723360e+02   2.737826e+02
   3.866083e+01   3.871355e+02
  -4.955904e+02   1.814836e+02
  -6.368633e+02  -1.986956e+02
  -2.232579e+02  -3.947753e+02
   3.527489e+02  -2.165206e+02
   5.456882e+02   1.398599e+02
   2.089989e+02   3.899127e+02
  -2.759329e+02   3.697441e+02
  -4.815668e+02   1.454507e+02
  -3.370497e+02  -1.774434e+02
  -3.919427e+01  -3.356812e+02
   7.286734e+01  -1.837090e+02
  -2.986368e+01   1.173720e+02
  -1.733111e+02   2.029076e+02
  -2.469784e+02  -1.135087e+02
  -6.232543e+01  -5.163558e+02
   2.321642e+02  -4.816649e+02
   3.599871e+02  -1.848619e+01
   1.694783e+02   3.353509e+02
  -1.307428e+02   1.744150e+02
  -2.090323e+02  -2.570414e+02
   6.942527e+01  -3.884886e+02
   4.465295e+02  -8.059984e+01
   5.198105e+02   3.488703e+02
   1.774090e+02   5.044085e+02
  -3.072861e+02   3.051704e+02
  -5.458178e+02  -4.081792e+01
  -3.633537e+02  -2.692492e+02
   4.831093e+01  -2.691937e+02
   3.092317e+02  -1.072910e+02
   2.365136e+02   3.762145e+01
   1.442659e+01   4.180656e+01
  -5.042175e+01  -4.487366e+01
   9.819760e+01  -6.995398e+01
   2.311822e+02   3.821869e+01
   1.360301e+02   1.947499e+02
  -1.315505e+02   2.566653e+02
  -3.247648e+02   1.567565e+02
  -2.685245e+02  -6.911558e+01
  -5.429809e+00  -3.020760e+02
   2.675594e+02  -3.760656e+02
   3.668358e+02  -1.873230e+02
   2.562790e+02   1.566011e+02
   6.434473e+01   3.828365e+02
  -4.435300e+01   3.375647e+02
  -3.549024e+01   1.605608e+02
  -2.278957e+01   8.524365e+01
  -1.075159e+02   1.262805e+02
  -2.382175e+02   9.679817e+01
  -2.673708e+02  -8.634130e+01
  -1.296044e+02  -2.578116e+02
   8.024740e+01  -2.159974e+02
   2.031258e+02   2.182442e+01
   1.539763e+02   2.414512e+02
  -3.878189e+01   2.568104e+02
  -2.487179e+02   7.061953e+01
  -3.149652e+02  -1.634279e+02
  -1.735081e+02  -2.904098e+02
   4.899360e+01  -2.645805e+02
   1.654121e+02  -1.535012e+02
   1.461529e+02  -7.674860e+01
   1.416767e+02  -6.635663e+01
   2.669000e+02  -4.300471e+01
   4.013491e+02   8.175736e+01
   3.278503e+02   2.806579e+02
  -4.796516e+00   4.364017e+02
  -3.620208e+02   4.096352e+02
  -4.764179e+02   1.917106e+02
  -3.001427e+02  -9.021170e+01
  -3.138170e+01  -2.551527e+02
   9.536296e+01  -2.062966e+02
   1.833209e+01  -3.860693e+01
  -1.198002e+02   4.805296e+01
  -1.445111e+02  -3.313590e+01
  -1.781050e+01  -1.522558e+02
   1.234468e+02  -1.195495e+02
   1.250486e+02   4.634421e+01
  -1.589677e+01   1.337790e+02
  -1.570797e+02   1.126960e+01
  -1.558176e+02  -2.236185e+02
   1.096643e+01  -3.350755e+02
   2.329980e+02  -2.098148e+02
   3.557189e+02   5.308084e+01
   2.855466e+02   2.556840e+02
   6.814670e+01   2.773529e+02
  -1.291189e+02   1.490638e+02
  -1.605523e+02   9.982756e+00
  -4.345929e+01  -1.987908e+01
   5.316400e+01   5.193566e+01
   4.639371e+00   1.106440e+02
  -1.202638e+02   7.274042e+01
  -1.508129e+02  -2.033783e+01
  -3.650253e+01  -5.743931e+01
   8.301181e+01   2.430599e+00
   4.533936e+01   8.614034e+01
  -1.415535e+02   9.313379e+01
  -2.987751e+02  -7.087273e+00
  -2.608264e+02  -1.580896e+02
  -3.604558e+01  -2.625659e+02
   2.003511e+02  -2.431126e+02
   2.670588e+02  -1.043090e+02
   1.404138e+02   4.778988e+01
  -3.000468e+01   8.664949e+01
  -7.090909e+01  -9.418538e-01
   4.521976e+01  -8.653408e+01
   1.835386e+02  -4.475018e+01
   1.947454e+02   9.643353e+01
   6.494885e+01   1.888822e+02
  -8.583062e+01   1.419955e+02
  -1.305485e+02   2.229821e+01
  -5.378133e+01  -3.697606e+01
   4.146511e+01   1.463896e+01
   3.493071e+01   1.037818e+02
  -8.846505e+01   1.193600e+02
  -2.096323e+02   2.054523e+01
  -1.885682e+02  -1.281008e+02
  -1.835910e+01  -2.107828e+02
   1.544046e+02  -1.590497e+02
   1.805468e+02  -1.696456e+01
   6.379219e+01   9.770198e+01
  -5.778590e+01   1.041474e+02
  -7.358281e+01   3.162787e+01
  -8.179624e+00  -2.482551e+01
   3.358443e+01  -1.376740e+01
  -6.355375e+00   2.269757e+01
  -8.525668e+01   4.743624e+00
  -1.083114e+02  -8.477168e+01
  -2.073730e+01  -1.724891e+02
   1.351272e+02  -1.592465e+02
   2.381673e+02  -2.166066e+01
   1.994786e+02   1.495890e+02
   4.614852e+01   2.271877e+02
  -9.631888e+01   1.642795e+02
  -1.292499e+02   3.503538e+01
  -7.593203e+01  -4.413728e+01
  -3.360846e+01  -3.005417e+01
  -5.077287e+01   1.612790e+01
  -8.269355e+01   1.164845e+01
  -5.510942e+01  -5.404810e+01
   3.484642e+01  -1.054257e+02
   1.163026e+02  -6.918670e+01
   1.068948e+02   4.132247e+01
  -1.140285e+01   1.315820e+02
  -1.596918e+02   9.699803e+01
  -2.097897e+02  -5.758457e+01
  -9.513089e+01  -2.107225e+02
   1.161207e+02  -2.278115e+02
   2.656107e+02  -9.291736e+01
   2.476039e+02   8.161132e+01
   1.049701e+02   1.669827e+02
  -3.557046e+01   1.403158e+02
  -8.626609e+01   8.321350e+01
  -6.822013e+01   7.126163e+01
  -5.567590e+01   9.451256e+01
  -8.716993e+01   8.125794e+01
  -1.309546e+02  -1.357393e+01
  -1.236357e+02  -1.492942e+02
  -3.493776e+01  -2.246918e+02
   9.369937e+01  -1.703239e+02
   1.703814e+02  -1.745478e+01
   1.331753e+02   1.223445e+02
   1.709154e+01   1.558963e+02
  -7.212297e+01   8.493134e+01
  -6.459464e+01  -9.355039e+00
  -4.683523e-02  -5.176972e+01
   2.426278e+01  -3.697909e+01
  -2.768938e+01  -1.190944e+01
  -8.406886e+01  -1.489876e+01
  -5.145237e+01  -3.780777e+01
   6.984014e+01  -4.259097e+01
   1.712364e+02  -5.214515e+00
   1.456202e+02   5.728829e+01
   4.102265e+00   9.739266e+01
  -1.298642e+02   7.739937e+01
  -1.440173e+02   9.296588e+00
  -4.614968e+01  -4.929763e+01
   5.781258e+01  -4.520307e+01
   7.837473e+01   1.632882e+01
   2.170249e+01   7.273756e+01
  -4.352318e+01   6.622481e+01
  -6.849256e+01   4.409477e+00
  -5.931220e+01  -4.821887e+01
  -4.952618e+01  -4.173024e+01
  -5.490441e+01  -6.610836e-01
  -6.330003e+01   7.720823e-01
  -4.518408e+01  -6.998693e+01
   2.158559e+01  -1.515820e+02
   1.186098e+02  -1.484421e+02
   1.767183e+02  -3.949922e+01
   1.324795e+02   8.907033e+01
   6.627867e+00   1.311899e+02
  -8.943673e+01   7.092297e+01
  -6.200692e+01  -9.400602e+00
   5.869572e+01  -2.329446e+01
   1.364955e+02   3.626380e+01
   7.531554e+01   1.037765e+02
  -7.877368e+01   1.130812e+02
  -1.862745e+02   5.283581e+01
  -1.574151e+02  -3.313197e+01
  -3.464964e+01  -8.324473e+01
   5.940171e+01  -6.408265e+01
   4.718254e+01  -2.162596e+00
  -3.782297e+01   3.129389e+01
  -9.044977e+01  -1.633069e+01
  -4.234122e+01  -1.130157e+02
   7.209418e+01  -1.564858e+02
   1.530534e+02  -7.421276e+01
   1.296945e+02   8.747198e+01
   2.430608e+01   1.909016e+02
  -7.747049e+01   1.426372e+02
  -1.070676e+02  -7.613405e+00
  -6.174140e+01  -1.177598e+02
   9.030833e+00  -1.033909e+02
   5.189435e+01  -1.768899e+01
   4.715931e+01   2.948650e+01
   1.728600e+01   6.532485e+00
   5.452106e+00  -1.758900e+01
   3.114295e+01   1.990326e+01
   6.059581e+01   8.705277e+01
   3.546936e+01   1.032211e+02
  -5.362016e+01   4.454848e+01
  -1.352528e+02  -3.137210e+01
  -1.238334e+02  -6.377553e+01
  -2.037904e+01  -5.199364e+01
   7.850690e+01  -2.903915e+01
   8.548313e+01  -9.275281e+00
   1.789163e+01   1.124848e+01
  -3.330070e+01   2.393949e+01
  -1.913152e+01   1.475001e+01
   1.412919e+01  -4.291507e+00
  -3.388605e+00  -6.115164e+00
  -6.619048e+01   3.357978e+00
  -9.303560e+01  -1.700736e+01
  -2.497600e+01  -7.787162e+01
   1.004875e+02  -1.203946e+02
   1.819918e+02  -7.361104e+01
   1.521883e+02   5.072272e+01
   3.759038e+01   1.550862e+02
  -7.347494e+01   1.558000e+02
  -1.123904e+02   6.892750e+01
  -7.963184e+01  -1.599022e+01
  -2.689448e+01  -3.645510e+01
  -2.408655e+00  -1.280023e+01
  -1.415859e+01  -7.433735e+00
  -3.215731e+01  -4.652902e+01
  -2.168034e+01  -8.828336e+01
   2.506239e+01  -7.143328e+01
   7.671053e+01   1.130092e+01
   8.195334e+01   9.608067e+01
   1.831096e+01   1.074035e+02
  -7.227143e+01   3.392331e+01
  -1.068105e+02  -6.007450e+01
  -4.404221e+01  -9.997949e+01
   6.016539e+01  -6.582493e+01
   1.024240e+02   3.443238e+00
   4.716543e+01   5.508045e+01
  -3.158645e+01   6.152119e+01
  -3.830133e+01   2.983807e+01
   2.614717e+01  -7.465355e+00
   6.754495e+01  -1.165472e+01
   1.915434e+01   2.635510e+01
  -7.506253e+01   6.813195e+01
  -1.171639e+02   5.771223e+01
  -7.048241e+01  -1.342441e+01
   1.029439e+01  -8.421605e+01
   5.330894e+01  -8.409064e+01
   4.240364e+01  -1.460054e+01
   8.008301e+00   5.097015e+01
  -2.177575e+01   4.816895e+01
  -3.634613e+01  -9.502176e+00
  -2.933785e+01  -5.267050e+01
  -8.681342e-02  -3.951899e+01
   3.371352e+01   4.269915e+00
   4.253328e+01   2.432055e+01
   2.049776e+01   4.538329e+00
  -5.101331e+00  -1.943685e+01
  -7.454934e+00  -7.787854e+00
   4.771957e+00   3.180986e+01
   4.235907e-01   5.223399e+01
  -2.604924e+01   2.220991e+01
  -4.201939e+01  -3.366644e+01
  -1.530959e+01  -5.891371e+01
   3.847857e+01  -2.709858e+01
   6.334784e+01   2.999617e+01
   2.238214e+01   5.826028e+01
  -5.366914e+01   3.736134e+01
  -9.168103e+01  -7.606649e+00
  -5.148146e+01  -4.021555e+01
   2.670030e+01  -4.545688e+01
   6.362367e+01  -2.972014e+01
   2.864197e+01  -7.195541e+00
  -2.798931e+01   5.210328e+00
  -3.370594e+01  -4.422849e+00
   2.122186e+01  -2.559852e+01
   7.611374e+01  -2.391798e+01
