
 $NMID
 id='ANONYMOUS ', fmtdat='(2E16.6)'
 volume=1.0
 tramp=1.0
 $END
  -1.278394e+07   1.859719e+06
  -9.264328e+06  -5.828688e+06
  -3.890537e+05  -8.632204e+06
   5.445413e+06  -5.292387e+06
   4.461681e+06   4.769734e+03
   7.601185e+04   2.421393e+06
  -2.519186e+06   8.569799e+05
  -1.707058e+06  -2.065684e+06
   6.603928e+05  -3.136393e+06
   2.272306e+06  -1.390374e+06
   2.096020e+06   1.365725e+06
   4.979481e+05   2.397291e+06
  -1.069580e+06   7.522407e+05
  -1.064544e+06  -1.702716e+06
   5.543424e+05  -2.244741e+06
   2.022859e+06  -2.470499e+05
   1.636435e+06   2.281259e+06
  -3.655280e+05   3.043565e+06
  -2.209837e+06   1.704130e+06
  -2.533247e+06  -3.182825e+05
  -1.482195e+06  -1.573677e+06
  -2.186667e+05  -1.667493e+06
   1.927832e+05  -1.139469e+06
  -3.454772e+05  -8.200552e+05
  -8.053280e+05  -1.119442e+06
  -2.024456e+04  -1.589249e+06
   1.792884e+06  -1.342751e+06
   2.894249e+06  -1.540140e+05
   1.960594e+06   1.098386e+06
  -1.636515e+05   1.363318e+06
  -1.357495e+06   5.722829e+05
  -7.016638e+05  -4.012208e+05
   6.860964e+05  -6.954568e+05
   1.275257e+06  -1.099088e+05
   7.714236e+05   8.854256e+05
  -7.855228e+04   1.432167e+06
  -5.841050e+05   9.007289e+05
  -5.541474e+05  -3.048047e+05
  -1.550082e+05  -8.621657e+05
   1.660703e+05  -5.302389e+04
  -6.071713e+04   1.077512e+06
  -6.903758e+05   8.797063e+05
  -8.545070e+05  -6.253853e+05
   1.460924e+04  -1.561878e+06
   1.215716e+06  -6.069545e+05
   1.372884e+06   1.248011e+06
   4.670444e+04   1.952747e+06
  -1.644072e+06   8.501501e+05
  -2.142510e+06  -8.314786e+05
  -9.851344e+05  -1.602739e+06
   8.179569e+05  -1.102593e+06
   1.739441e+06   6.117505e+03
   1.082861e+06   8.241901e+05
  -4.029999e+05   8.014961e+05
  -1.240128e+06   7.758960e+04
  -7.228273e+05  -5.691955e+05
   3.483832e+05  -4.596774e+05
   6.482578e+05   1.861802e+05
  -7.055236e+04   4.976833e+05
  -7.440879e+05   5.738174e+04
  -3.966973e+05  -6.073264e+05
   6.662286e+05  -7.332715e+05
   1.298028e+06  -1.463308e+05
   8.246944e+05   7.570545e+05
  -3.838423e+05   1.443920e+06
  -1.445217e+06   1.440526e+06
  -1.732298e+06   5.270585e+05
  -1.211309e+06  -8.649527e+05
  -3.539660e+05  -1.744167e+06
   2.381912e+05  -1.511883e+06
   3.300144e+05  -6.836352e+05
   2.334638e+05  -2.430484e+05
   3.878090e+05  -3.889540e+05
   7.889700e+05  -4.117196e+05
   9.837909e+05   1.698603e+05
   6.198516e+05   8.700910e+05
  -1.410069e+05   8.760615e+05
  -7.556089e+05   8.403227e+04
  -7.374267e+05  -8.031050e+05
  -2.671470e+04  -1.045368e+06
   8.967477e+05  -5.007223e+05
   1.308516e+06   3.856849e+05
   8.764810e+05   1.003383e+06
   3.873604e+04   1.036536e+06
  -4.588751e+05   6.774728e+05
  -4.374526e+05   3.874710e+05
  -4.406285e+05   3.746614e+05
  -9.013994e+05   3.685561e+05
  -1.437206e+06  -1.215740e+04
  -1.267218e+06  -7.502234e+05
  -2.194400e+05  -1.386440e+06
   9.733958e+05  -1.432451e+06
   1.415089e+06  -7.794567e+05
   9.043505e+05   1.876629e+05
   3.021064e+04   8.078764e+05
  -4.351044e+05   6.469173e+05
  -1.990271e+05  -4.059873e+04
   3.639136e+05  -4.767777e+05
   6.158116e+05  -1.999440e+05
   3.022045e+05   3.631038e+05
  -1.887585e+05   4.309005e+05
  -2.681039e+05  -8.569408e+04
   1.802092e+05  -4.263488e+05
   6.665667e+05   2.886798e+04
   6.250163e+05   9.310496e+05
  -3.378658e+04   1.357755e+06
  -8.831296e+05   8.547611e+05
  -1.347839e+06  -1.566365e+05
  -1.105880e+06  -9.091130e+05
  -3.215372e+05  -9.907162e+05
   4.205513e+05  -5.605231e+05
   5.736556e+05  -9.915265e+04
   1.749521e+05   3.192215e+03
  -1.626555e+05  -2.403629e+05
   4.857014e+04  -4.459288e+05
   5.680357e+05  -2.775823e+05
   7.170082e+05   1.596949e+05
   2.383322e+05   4.334559e+05
  -3.581878e+05   2.843461e+05
  -3.896940e+05  -9.564858e+04
   2.112371e+05  -2.960989e+05
   8.228365e+05  -9.325659e+04
   7.892013e+05   3.857764e+05
   6.716121e+04   7.775777e+05
  -7.454734e+05   7.356914e+05
  -9.701624e+05   2.227921e+05
  -4.685308e+05  -3.671046e+05
   2.392534e+05  -5.121078e+05
   4.819243e+05  -1.146533e+05
   8.723329e+04   3.393596e+05
  -4.829387e+05   3.100274e+05
  -6.372605e+05  -1.710177e+05
  -2.437222e+05  -5.581348e+05
   2.933874e+05  -4.492433e+05
   4.749052e+05  -1.912228e+04
   1.838276e+05   2.404613e+05
  -2.273944e+05   7.598615e+04
  -2.818898e+05  -3.076487e+05
   1.467010e+05  -4.935522e+05
   6.663985e+05  -2.442564e+05
   7.288997e+05   2.919241e+05
   2.120569e+05   6.933428e+05
  -4.167486e+05   6.254255e+05
  -5.906052e+05   1.603331e+05
  -2.423183e+05  -2.777780e+05
   1.810085e+05  -3.323676e+05
   2.588385e+05  -5.939488e+04
   1.872938e+04   1.844419e+05
  -1.943003e+05   1.598222e+05
  -1.394873e+05  -1.909622e+04
   9.597738e+04  -6.295732e+04
   2.190610e+05   1.425972e+05
   1.740894e+04   3.949079e+05
  -4.203989e+05   3.671740e+05
  -7.277235e+05  -5.477785e+04
  -5.724004e+05  -6.105435e+05
  -1.155650e+04  -8.615980e+05
   5.193059e+05  -5.977526e+05
   6.397948e+05  -5.158913e+04
   4.003546e+05   3.292738e+05
   1.546172e+05   3.262508e+05
   1.152426e+05   1.276455e+05
   1.545644e+05   6.173231e+04
   3.978772e+04   2.121890e+05
  -2.510962e+05   3.440766e+05
  -4.923471e+05   1.912149e+05
  -4.258012e+05  -2.230202e+05
   4.189513e+03  -5.604752e+05
   5.563890e+05  -4.674314e+05
   8.138838e+05   7.243662e+04
   5.055504e+05   6.701597e+05
  -2.056481e+05   8.521736e+05
  -8.026480e+05   4.914969e+05
  -8.689958e+05  -8.323876e+04
  -4.639385e+05  -4.263530e+05
  -9.197040e+03  -4.034913e+05
   1.624906e+05  -2.547788e+05
   8.762032e+04  -2.593439e+05
   3.409871e+04  -4.067344e+05
   1.733760e+05  -4.324792e+05
   4.110024e+05  -1.442705e+05
   4.919954e+05   3.325502e+05
   2.569662e+05   6.424819e+05
  -1.708601e+05   5.248763e+05
  -4.532515e+05   6.117353e+04
  -3.458001e+05  -3.876344e+05
   4.091115e+04  -4.941751e+05
   3.368480e+05  -2.344342e+05
   2.975941e+05   1.327136e+05
   5.014049e+04   3.310327e+05
  -8.600452e+04   2.986740e+05
   1.509773e+04   1.771059e+05
   1.459627e+05   1.190192e+05
   2.204845e+04   1.361782e+05
  -3.649693e+05   1.184729e+05
  -6.882696e+05  -2.979494e+04
  -5.960360e+05  -2.757954e+05
  -8.436123e+04  -4.632513e+05
   4.576347e+05  -4.376129e+05
   6.085966e+05  -1.956697e+05
   3.239321e+05   8.175902e+04
  -4.847456e+04   1.780145e+05
  -1.594333e+05   5.197561e+04
  -1.494929e+03  -1.105606e+05
   1.689253e+05  -9.200799e+04
   1.714063e+05   1.075408e+05
   6.629590e+04   2.581122e+05
   8.250558e+03   1.686307e+05
   4.883686e+04  -6.485867e+04
   1.152308e+05  -1.473718e+05
   1.046317e+05   6.302559e+04
  -3.891074e+04   3.562455e+05
  -2.690047e+05   3.881475e+05
  -4.106075e+05   7.725058e+04
  -2.741665e+05  -2.895205e+05
   1.058995e+05  -3.675264e+05
   3.969415e+05  -1.154385e+05
   2.674056e+05   1.903254e+05
  -2.127298e+05   2.577466e+05
  -5.764379e+05   4.338304e+04
  -4.362116e+05  -2.549248e+05
   9.372495e+04  -3.955425e+05
   5.172049e+05  -2.787458e+05
   4.750000e+05  -9.060697e+03
   8.767252e+04   1.847851e+05
  -2.114888e+05   1.392028e+05
  -1.314687e+05  -7.401794e+04
   2.050163e+05  -1.821506e+05
   4.121508e+05   1.875355e+04
   2.362322e+05   4.075149e+05
  -1.969354e+05   6.008709e+05
  -5.154510e+05   3.300456e+05
  -4.643656e+05  -2.434183e+05
  -1.224453e+05  -6.352052e+05
   2.197324e+05  -5.027410e+05
   3.388640e+05   4.984479e+03
   2.195441e+05   4.006726e+05
  -7.260668e+03   3.678296e+05
  -1.822744e+05   6.411375e+04
  -2.029112e+05  -1.216883e+05
  -9.222017e+04  -5.053890e+04
  -3.263177e+03   4.504146e+04
  -6.719766e+04  -7.499981e+04
  -1.974496e+05  -3.160940e+05
  -1.393278e+05  -3.817585e+05
   1.994897e+05  -1.698005e+05
   5.431667e+05   1.170963e+05
   5.125517e+05   2.535563e+05
   9.111758e+04   2.331645e+05
  -3.168502e+05   1.721173e+05
  -3.520064e+05   1.071568e+05
  -1.045164e+05   9.211780e+03
   5.594772e+04  -8.264720e+04
  -2.607429e+04  -9.031977e+04
  -1.307930e+05  -4.208875e+04
  -8.540458e+03  -4.556603e+04
   2.624887e+05  -9.029087e+04
   3.640555e+05  -1.831452e+04
   1.222737e+05   2.250368e+05
  -2.941545e+05   4.202370e+05
  -5.528152e+05   2.916555e+05
  -4.667829e+05  -1.305279e+05
  -1.245076e+05  -4.928224e+05
   2.194954e+05  -4.940184e+05
   3.511174e+05  -1.966998e+05
   2.414969e+05   7.986297e+04
   4.351150e+04   1.200576e+05
  -5.158476e+04   5.616420e+03
   1.658227e+04  -3.085825e+04
   1.321236e+05   1.091318e+05
   1.259427e+05   2.756088e+05
  -4.807392e+04   2.378564e+05
  -2.499786e+05  -4.292516e+04
  -2.700663e+05  -3.344368e+05
  -3.568325e+04  -3.571882e+05
   2.780899e+05  -7.905718e+04
   3.754798e+05   2.526766e+05
   1.329697e+05   3.718531e+05
  -2.366771e+05   2.350866e+05
  -3.791892e+05  -3.170438e+03
  -1.859707e+05  -1.774139e+05
   7.834851e+04  -2.170305e+05
   9.537194e+04  -1.337406e+05
  -1.161765e+05  -7.981354e+03
  -2.341718e+05   2.743886e+04
  -4.998490e+04  -9.869496e+04
   2.707401e+05  -2.668029e+05
   4.028973e+05  -2.478281e+05
   2.449511e+05   1.865321e+04
  -1.151122e+04   2.977905e+05
  -1.451326e+05   3.050738e+05
  -1.169972e+05   4.786625e+04
  -1.739338e+04  -1.788803e+05
   7.735926e+04  -1.442124e+05
   1.297231e+05   6.711191e+04
   1.016503e+05   1.967320e+05
  -1.352782e+04   1.287465e+05
  -1.380435e+05  -1.550107e+04
  -1.665235e+05  -6.768641e+04
  -8.757766e+04  -1.157143e+04
   3.621488e+03   3.198259e+04
   2.944427e+04  -2.800933e+04
   2.036355e+04  -1.407200e+05
   5.200546e+04  -1.680839e+05
   1.228178e+05  -4.013720e+04
   1.389030e+05   1.510830e+05
   2.856851e+04   2.279303e+05
  -1.476431e+05   1.094777e+05
  -2.244106e+05  -9.660777e+04
  -9.229134e+04  -2.043824e+05
   1.604010e+05  -1.385852e+05
   2.973680e+05   1.315442e+04
   1.716670e+05   1.199565e+05
  -9.226132e+04   1.305184e+05
  -2.123548e+05   7.523505e+04
  -6.851152e+04   8.704453e+03
   1.477800e+05  -1.475769e+04
   1.570107e+05   3.865472e+04
  -7.289009e+04   1.246631e+05
  -2.909354e+05   1.161311e+05
