
 $NMID
 id='ANONYMOUS ', fmtdat='(2E16.6)'
 volume=1.0
 tramp=1.0
 $END
  -5.395102e+07  -2.616917e+06
  -3.051132e+07  -3.470489e+07
   8.907828e+06  -3.580708e+07
   2.666479e+07  -1.272916e+07
   1.509913e+07   7.175525e+06
  -3.508260e+06   8.592671e+06
  -9.106545e+06  -1.468364e+06
  -2.258971e+06  -9.220660e+06
   6.049120e+06  -8.590356e+06
   9.130105e+06  -1.575905e+06
   6.489319e+06   6.183994e+06
   5.303308e+05   8.306073e+06
  -3.985067e+06   2.503302e+06
  -2.489720e+06  -5.319715e+06
   3.679560e+06  -6.149054e+06
   7.392975e+06   1.537922e+06
   3.861217e+06   9.873429e+06
  -4.043392e+06   1.109796e+07
  -9.918549e+06   5.233074e+06
  -1.031240e+07  -2.467706e+06
  -5.993122e+06  -7.566121e+06
  -1.400715e+05  -8.350792e+06
   3.151343e+06  -5.511221e+06
   1.750105e+06  -2.249392e+06
  -1.283124e+06  -2.016425e+06
  -2.765762e+05  -4.165881e+06
   5.414177e+06  -4.253297e+06
   9.478741e+06  -2.519815e+05
   6.719767e+06   4.262674e+06
   1.183295e+04   5.034289e+06
  -3.830096e+06   2.479575e+06
  -2.571878e+06  -1.277772e+05
   5.359892e+05  -1.150889e+06
   2.335934e+06  -6.441764e+05
   2.292676e+06   1.457008e+06
   6.426316e+05   3.983231e+06
  -1.941834e+06   3.700479e+06
  -3.191754e+06  -3.689302e+05
  -1.449019e+06  -3.701643e+06
   9.910774e+05  -1.772434e+06
   3.836461e+05   2.524328e+06
  -2.382799e+06   2.211423e+06
  -2.207958e+06  -3.099887e+06
   2.536097e+06  -5.657972e+06
   6.608671e+06  -5.531872e+05
   4.530493e+06   6.863922e+06
  -2.209995e+06   8.013899e+06
  -7.214345e+06   2.003118e+06
  -6.539450e+06  -4.438390e+06
  -1.651029e+06  -5.772306e+06
   3.342616e+06  -2.527057e+06
   4.977088e+06   1.509737e+06
   2.245138e+06   3.315578e+06
  -2.344297e+06   1.982579e+06
  -4.269257e+06  -1.024972e+06
  -1.755387e+06  -2.634353e+06
   1.690028e+06  -1.240259e+06
   1.647998e+06   9.940377e+05
  -1.205572e+06   7.795519e+05
  -2.175959e+06  -1.705778e+06
   7.676746e+05  -3.095353e+06
   4.424721e+06  -1.518714e+06
   4.918347e+06   1.480892e+06
   2.037013e+06   3.840254e+06
  -1.908776e+06   5.039168e+06
  -5.008139e+06   4.608662e+06
  -6.089172e+06   1.525428e+06
  -4.363382e+06  -3.247445e+06
  -7.470838e+05  -6.027829e+06
   1.865706e+06  -4.519172e+06
   1.606273e+06  -1.119773e+06
   5.129444e+04   1.384008e+05
   1.189663e+04  -1.131106e+06
   1.715883e+06  -1.823701e+06
   2.889348e+06  -1.833806e+05
   2.055062e+06   1.993993e+06
   2.658185e+04   2.202543e+06
  -1.575678e+06   2.655537e+05
  -1.698751e+06  -2.035480e+06
   1.162934e+04  -2.904785e+06
   2.772706e+06  -1.581429e+06
   4.370850e+06   1.294996e+06
   3.015656e+06   3.781601e+06
  -2.116544e+05   4.097040e+06
  -2.312586e+06   2.514860e+06
  -2.164956e+06   9.902967e+05
  -1.741087e+06   6.161344e+05
  -2.833729e+06   4.431510e+05
  -4.210663e+06  -7.742118e+05
  -3.371787e+06  -2.720456e+06
  -1.040668e+05  -4.032927e+06
   3.168368e+06  -3.813370e+06
   4.142928e+06  -2.067618e+06
   2.648392e+06   4.562508e+05
   2.563273e+05   2.254143e+06
  -1.128987e+06   1.924224e+06
  -5.701094e+05  -5.124502e+04
   1.090261e+06  -1.292541e+06
   1.877760e+06  -3.641650e+05
   8.805035e+05   1.211980e+06
  -5.199069e+05   1.108859e+06
  -4.231148e+05  -3.524439e+05
   9.858584e+05  -6.434624e+05
   1.698133e+06   1.240496e+06
   5.613539e+05   3.297526e+06
  -1.492362e+06   3.210832e+06
  -2.939927e+06   1.057817e+06
  -3.170305e+06  -1.351953e+06
  -2.250709e+06  -2.641957e+06
  -4.770616e+05  -2.548477e+06
   1.223961e+06  -1.447764e+06
   1.565369e+06  -2.236400e+05
   4.841466e+05   4.780336e+04
  -3.472393e+05  -7.406578e+05
   4.261713e+05  -1.302335e+06
   1.877789e+06  -5.322803e+05
   1.970545e+06   8.950310e+05
   3.531434e+05   1.382853e+06
  -1.149996e+06   5.497533e+05
  -8.727667e+05  -4.349697e+05
   8.043918e+05  -4.972675e+05
   2.106118e+06   2.958623e+05
   1.711595e+06   1.294913e+06
  -2.204843e+05   1.914888e+06
  -2.254227e+06   1.620977e+06
  -2.722546e+06   2.586029e+05
  -1.177719e+06  -1.254786e+06
   9.327117e+05  -1.462504e+06
   1.540179e+06  -1.539043e+05
   1.781549e+05   1.077119e+06
  -1.502864e+06   7.114481e+05
  -1.676376e+06  -7.788823e+05
  -3.187802e+05  -1.609357e+06
   1.061622e+06  -9.375787e+05
   1.211262e+06   3.103106e+05
   2.278923e+05   7.539692e+05
  -7.822559e+05   3.749578e+04
  -7.173601e+05  -1.047977e+06
   5.788420e+05  -1.406625e+06
   1.989319e+06  -5.262738e+05
   2.004230e+06   1.050436e+06
   3.621415e+05   2.047399e+06
  -1.430196e+06   1.601583e+06
  -1.694158e+06   1.913016e+05
  -4.834061e+05  -8.518746e+05
   6.498894e+05  -7.825027e+05
   6.260272e+05  -8.277904e+04
  -9.788932e+04   3.444825e+05
  -4.626240e+05   2.195562e+05
  -1.253599e+05  -2.986186e+04
   4.107044e+05   9.720593e+04
   4.804170e+05   6.546601e+05
  -2.154395e+05   1.149739e+06
  -1.361614e+06   8.667136e+05
  -2.044439e+06  -4.199906e+05
  -1.431026e+06  -1.923819e+06
   2.216338e+05  -2.383369e+06
   1.581951e+06  -1.383746e+06
   1.648997e+06   1.182049e+05
   8.520541e+05   8.615849e+05
   3.446704e+05   6.329528e+05
   4.925068e+05   2.357555e+05
   6.086899e+05   3.348456e+05
   7.083605e+04   7.565607e+05
  -8.629961e+05   8.738369e+05
  -1.413269e+06   3.158563e+05
  -1.031658e+06  -6.977481e+05
   2.347696e+05  -1.421737e+06
   1.685470e+06  -1.047979e+06
   2.205781e+06   4.792560e+05
   1.100694e+06   2.062424e+06
  -1.009574e+06   2.306799e+06
  -2.497475e+06   9.875306e+05
  -2.290858e+06  -6.546794e+05
  -9.302112e+05  -1.296202e+06
   1.862762e+05  -9.127973e+05
   3.625275e+05  -5.144335e+05
   8.004641e+04  -7.715674e+05
   1.248932e+05  -1.303395e+06
   6.809393e+05  -1.262291e+06
   1.281409e+06  -2.990034e+05
   1.315556e+06   1.074252e+06
   5.419785e+05   1.871108e+06
  -6.184017e+05   1.416029e+06
  -1.262398e+06  -6.526267e+03
  -7.846345e+05  -1.263830e+06
   3.946603e+05  -1.358973e+06
   1.132226e+06  -3.747883e+05
   7.695040e+05   6.962965e+05
  -1.436601e+05   1.042598e+06
  -5.322562e+05   7.443844e+05
  -7.797307e+04   3.984896e+05
   4.312362e+05   3.355953e+05
   6.024753e+04   3.799449e+05
  -1.130337e+06   1.934217e+05
  -2.027729e+06  -3.478266e+05
  -1.580724e+06  -1.029571e+06
   5.678069e+04  -1.401429e+06
   1.578454e+06  -1.101347e+06
   1.796330e+06  -2.573649e+05
   7.990388e+05   4.892341e+05
  -2.699514e+05   5.537578e+05
  -4.973755e+05   2.426814e+04
  -1.868279e+04  -4.232331e+05
   4.388782e+05  -2.600218e+05
   4.744070e+05   3.406042e+05
   2.560721e+05   7.259289e+05
   9.844101e+04   4.854913e+05
   1.251258e+05  -9.128536e+04
   2.602028e+05  -2.943689e+05
   2.681746e+05   2.270756e+05
  -1.343489e+05   9.766591e+05
  -8.916881e+05   1.048738e+06
  -1.358500e+06   1.567303e+05
  -8.450674e+05  -9.196706e+05
   4.249547e+05  -1.127708e+06
   1.258322e+06  -3.263017e+05
   7.277741e+05   5.665170e+05
  -6.926530e+05   6.319193e+05
  -1.553713e+06  -9.699147e+04
  -9.751151e+05  -8.365348e+05
   4.752819e+05  -9.528359e+05
   1.455958e+06  -4.602995e+05
   1.196820e+06   1.845528e+05
   1.300164e+05   4.977591e+05
  -6.352560e+05   2.578595e+05
  -3.768501e+05  -2.983783e+05
   5.802908e+05  -5.264772e+05
   1.179635e+06   7.396034e+04
   6.781478e+05   1.175050e+06
  -5.751528e+05   1.701494e+06
  -1.468652e+06   8.912184e+05
  -1.247265e+06  -7.430011e+05
  -2.069113e+05  -1.768117e+06
   7.220338e+05  -1.271937e+06
   9.018308e+05   1.791392e+05
   4.161467e+05   1.167744e+06
  -2.208622e+05   9.377246e+05
  -5.530231e+05   7.459122e+04
  -4.536389e+05  -3.611989e+05
  -1.548334e+05  -1.223414e+05
  -4.877042e+04   8.708201e+04
  -2.843417e+05  -3.128113e+05
  -5.067982e+05  -9.620111e+05
  -1.788953e+05  -1.049903e+06
   7.176440e+05  -3.741511e+05
   1.454883e+06   4.546102e+05
   1.252094e+06   8.127171e+05
   1.796133e+05   6.906857e+05
  -8.310858e+05   4.273999e+05
  -9.630800e+05   1.811031e+05
  -3.606121e+05  -6.764477e+04
   1.394636e+05  -2.286405e+05
   4.384030e+04  -1.829584e+05
  -2.527196e+05  -7.048622e+04
  -5.814482e+04  -1.354862e+05
   6.400172e+05  -2.569430e+05
   1.042027e+06   2.507241e+03
   4.556125e+05   7.049696e+05
  -8.176152e+05   1.193507e+06
  -1.700363e+06   7.627827e+05
  -1.429911e+06  -4.244162e+05
  -2.905110e+05  -1.392475e+06
   7.606384e+05  -1.369560e+06
   1.045251e+06  -5.524800e+05
   6.551537e+05   2.130320e+05
   1.431898e+05   3.600607e+05
  -5.995480e+04   8.914380e+04
   7.786246e+04   4.278395e+02
   2.867259e+05   3.623486e+05
   2.418617e+05   7.940160e+05
  -1.714350e+05   6.813190e+05
  -6.806095e+05  -9.791257e+04
  -7.610867e+05  -9.304455e+05
  -1.454538e+05  -1.037571e+06
   7.432793e+05  -2.805022e+05
   1.050438e+06   6.893955e+05
   3.687706e+05   1.085985e+06
  -7.061897e+05   6.961385e+05
  -1.123641e+06  -6.350106e+04
  -5.364116e+05  -6.239247e+05
   2.909138e+05  -6.937099e+05
   3.931553e+05  -3.627604e+05
  -2.297654e+05   1.199590e+04
  -6.399716e+05   5.121190e+04
  -1.529462e+05  -3.116741e+05
   8.106231e+05  -6.774047e+05
   1.252244e+06  -5.217969e+05
   7.685513e+05   1.960675e+05
  -9.007873e+04   8.717529e+05
  -5.618436e+05   8.524279e+05
  -4.489723e+05   1.683796e+05
  -7.367507e+04  -4.718188e+05
   2.347920e+05  -4.475644e+05
   3.593572e+05   1.228286e+05
   2.614213e+05   5.706333e+05
  -5.171165e+04   4.443283e+05
  -3.934552e+05  -3.207489e+04
  -4.743406e+05  -2.901399e+05
  -2.353930e+05  -1.051813e+05
   3.756150e+04   1.686579e+05
   6.658664e+04   7.354500e+04
  -4.917857e+04  -3.518463e+05
   1.586798e+04  -5.873524e+05
   3.197625e+05  -2.625203e+05
   4.970752e+05   3.606607e+05
   1.999408e+05   6.553102e+05
  -3.959944e+05   3.319977e+05
  -6.826789e+05  -2.624289e+05
  -2.733747e+05  -5.628384e+05
   5.065990e+05  -3.688302e+05
   8.933141e+05   6.079134e+04
   4.863849e+05   3.712821e+05
  -2.940819e+05   4.162687e+05
  -6.461502e+05   2.505767e+05
  -2.661524e+05   1.672402e+04
   3.279853e+05  -1.001784e+05
   4.076008e+05   3.023430e+04
  -1.374627e+05   2.862662e+05
  -7.034553e+05   2.948849e+05
