
 $NMID
 id='ANONYMOUS ', fmtdat='(2E16.6)'
 volume=1.0
 tramp=1.0
 $END
  -5.678738e+07   1.162500e+06
  -3.478514e+07  -3.460330e+07
   6.852892e+06  -3.860504e+07
   2.754219e+07  -1.517201e+07
   1.666263e+07   6.876010e+06
  -3.220661e+06   9.446007e+06
  -9.889721e+06  -1.133951e+06
  -2.899938e+06  -9.787992e+06
   6.101286e+06  -9.425757e+06
   9.656556e+06  -2.129809e+06
   7.143237e+06   6.079871e+06
   1.004741e+06   8.595003e+06
  -3.940499e+06   2.857666e+06
  -2.747063e+06  -5.348656e+06
   3.654852e+06  -6.589955e+06
   7.929415e+06   1.222035e+06
   4.648476e+06   1.017166e+07
  -3.579539e+06   1.192733e+07
  -1.004568e+07   6.155149e+06
  -1.093932e+07  -1.815418e+06
  -6.872686e+06  -7.403194e+06
  -9.053251e+05  -8.752183e+06
   2.860464e+06  -6.207880e+06
   1.914355e+06  -2.714277e+06
  -1.107088e+06  -2.035665e+06
  -3.930112e+05  -4.112845e+06
   5.243104e+06  -4.547315e+06
   9.639147e+06  -7.713395e+05
   7.177081e+06   3.953164e+06
   4.257071e+05   5.088178e+06
  -3.618803e+06   2.717735e+06
  -2.495116e+06   1.423074e+05
   4.947539e+05  -9.141990e+05
   2.181684e+06  -5.778298e+05
   2.227911e+06   1.303475e+06
   8.462019e+05   3.881292e+06
  -1.696353e+06   3.935019e+06
  -3.299039e+06   9.421670e+03
  -1.855677e+06  -3.629114e+06
   7.447463e+05  -2.016544e+06
   4.450908e+05   2.403928e+06
  -2.394440e+06   2.343298e+06
  -2.509786e+06  -3.168927e+06
   2.358584e+06  -6.217351e+06
   7.024507e+06  -1.144346e+06
   5.308878e+06   6.894234e+06
  -1.770524e+06   8.638337e+06
  -7.427848e+06   2.590067e+06
  -7.049466e+06  -4.320841e+06
  -1.947265e+06  -5.996707e+06
   3.427418e+06  -2.763685e+06
   5.271322e+06   1.441126e+06
   2.466288e+06   3.448899e+06
  -2.400669e+06   2.241195e+06
  -4.563440e+06  -8.508292e+05
  -2.000414e+06  -2.702468e+06
   1.703556e+06  -1.410054e+06
   1.751097e+06   9.958970e+05
  -1.335179e+06   9.238298e+05
  -2.515753e+06  -1.759569e+06
   6.010531e+05  -3.501022e+06
   4.660223e+06  -1.993828e+06
   5.361509e+06   1.287890e+06
   2.398102e+06   3.964772e+06
  -1.684414e+06   5.323888e+06
  -4.885144e+06   4.975665e+06
  -6.162213e+06   1.909872e+06
  -4.686205e+06  -3.048731e+06
  -1.098428e+06  -6.162241e+06
   1.775945e+06  -4.806932e+06
   1.753495e+06  -1.224111e+06
   1.426254e+05   2.873804e+05
  -1.087165e+05  -9.758780e+05
   1.520858e+06  -1.861958e+06
   2.803857e+06  -3.533904e+05
   2.095952e+06   1.846466e+06
   1.088847e+05   2.131726e+06
  -1.521711e+06   2.550742e+05
  -1.720901e+06  -2.013513e+06
  -8.433317e+04  -2.928832e+06
   2.724244e+06  -1.738434e+06
   4.522976e+06   1.069463e+06
   3.340839e+06   3.699585e+06
   6.643195e+04   4.267534e+06
  -2.239477e+06   2.798616e+06
  -2.236466e+06   1.189922e+06
  -1.832323e+06   7.110088e+05
  -2.936954e+06   5.325868e+05
  -4.370806e+06  -6.745546e+05
  -3.549061e+06  -2.696691e+06
  -2.196388e+05  -4.128540e+06
   3.117910e+06  -3.978213e+06
   4.122809e+06  -2.232139e+06
   2.676494e+06   3.419106e+05
   3.496736e+05   2.228451e+06
  -1.042668e+06   1.974168e+06
  -5.686494e+05  -1.625012e+04
   1.055605e+06  -1.341862e+06
   1.909183e+06  -4.444305e+05
   9.614089e+05   1.192772e+06
  -4.873198e+05   1.128581e+06
  -4.242452e+05  -3.836904e+05
   1.075088e+06  -6.991215e+05
   1.886734e+06   1.301253e+06
   6.755169e+05   3.511914e+06
  -1.581126e+06   3.425186e+06
  -3.141060e+06   1.121129e+06
  -3.314105e+06  -1.411579e+06
  -2.299609e+06  -2.707629e+06
  -4.992251e+05  -2.586180e+06
   1.204662e+06  -1.492776e+06
   1.572646e+06  -2.691135e+05
   4.954539e+05   3.539838e+04
  -3.748441e+05  -7.489241e+05
   3.951226e+05  -1.363518e+06
   1.919237e+06  -6.214329e+05
   2.068504e+06   8.641580e+05
   4.080588e+05   1.426934e+06
  -1.171189e+06   5.932431e+05
  -8.911976e+05  -4.421599e+05
   8.516925e+05  -5.201085e+05
   2.180237e+06   3.026248e+05
   1.748204e+06   1.328115e+06
  -2.261978e+05   1.963399e+06
  -2.282279e+06   1.691433e+06
  -2.777919e+06   3.256720e+05
  -1.250513e+06  -1.255221e+06
   8.997448e+05  -1.541341e+06
   1.579726e+06  -2.252837e+05
   2.320573e+05   1.091304e+06
  -1.514302e+06   7.751465e+05
  -1.742744e+06  -7.600090e+05
  -3.570225e+05  -1.657336e+06
   1.091962e+06  -9.883282e+05
   1.266145e+06   3.087216e+05
   2.476932e+05   7.883037e+05
  -8.107084e+05   6.784348e+04
  -7.677289e+05  -1.048681e+06
   5.460622e+05  -1.449456e+06
   2.008795e+06  -5.944354e+05
   2.074513e+06   1.011893e+06
   4.291224e+05   2.083598e+06
  -1.422757e+06   1.682992e+06
  -1.735947e+06   2.390999e+05
  -5.152266e+05  -8.683934e+05
   6.514372e+05  -8.169837e+05
   6.267489e+05  -9.023318e+04
  -1.201907e+05   3.486442e+05
  -4.767832e+05   2.025311e+05
  -9.744055e+04  -5.838192e+04
   4.659995e+05   9.231959e+04
   5.253962e+05   6.849128e+05
  -1.983677e+05   1.201451e+06
  -1.378164e+06   9.245210e+05
  -2.103232e+06  -3.773585e+05
  -1.514966e+06  -1.926899e+06
   1.678146e+05  -2.435761e+06
   1.592815e+06  -1.439934e+06
   1.687592e+06   1.027507e+05
   8.601429e+05   8.709688e+05
   3.264062e+05   6.183348e+05
   5.003969e+05   1.923103e+05
   6.557516e+05   3.095064e+05
   1.096701e+05   7.790564e+05
  -8.688493e+05   9.197661e+05
  -1.445205e+06   3.452247e+05
  -1.055171e+06  -7.007852e+05
   2.311608e+05  -1.455519e+06
   1.707197e+06  -1.101026e+06
   2.262863e+06   4.436924e+05
   1.172301e+06   2.091754e+06
  -9.829792e+05   2.400048e+06
  -2.547073e+06   1.076869e+06
  -2.368571e+06  -6.323741e+05
  -9.642585e+05  -1.326974e+06
   2.004977e+05  -9.344696e+05
   3.662723e+05  -5.026081e+05
   3.718440e+04  -7.617947e+05
   6.423048e+04  -1.332450e+06
   6.518796e+05  -1.321483e+06
   1.302416e+06  -3.514241e+05
   1.371910e+06   1.056106e+06
   6.023774e+05   1.891884e+06
  -5.921567e+05   1.458215e+06
  -1.290725e+06   2.122574e+04
  -8.383995e+05  -1.281337e+06
   3.766901e+05  -1.412692e+06
   1.175266e+06  -4.158681e+05
   8.312185e+05   7.081995e+05
  -1.183781e+05   1.096932e+06
  -5.441778e+05   7.940666e+05
  -8.537512e+04   4.110956e+05
   4.471597e+05   3.232897e+05
   7.142064e+04   3.820276e+05
  -1.157842e+06   2.326276e+05
  -2.091961e+06  -2.947596e+05
  -1.648101e+06  -1.015503e+06
   2.146051e+04  -1.453770e+06
   1.589931e+06  -1.185215e+06
   1.841319e+06  -3.077148e+05
   8.430819e+05   4.978504e+05
  -2.578809e+05   5.863815e+05
  -5.186223e+05   3.701559e+04
  -4.598276e+04  -4.343326e+05
   4.329424e+05  -2.735841e+05
   4.944614e+05   3.323415e+05
   2.870339e+05   7.168369e+05
   1.222298e+05   4.787569e+05
   1.339207e+05  -8.760548e+04
   2.619323e+05  -2.870585e+05
   2.791518e+05   2.290892e+05
  -1.114175e+05   9.896452e+05
  -8.805045e+05   1.095792e+06
  -1.384998e+06   2.186907e+05
  -8.979882e+05  -8.992007e+05
   3.907900e+05  -1.171376e+06
   1.268576e+06  -3.856963e+05
   7.543291e+05   5.530178e+05
  -6.957269e+05   6.641971e+05
  -1.590678e+06  -7.098135e+04
  -1.005783e+06  -8.499908e+05
   4.826724e+05  -9.892658e+05
   1.490463e+06  -4.877978e+05
   1.226147e+06   1.785898e+05
   1.362973e+05   5.091311e+05
  -6.493239e+05   2.756280e+05
  -3.997814e+05  -2.933884e+05
   5.659961e+05  -5.502736e+05
   1.194703e+06   3.526543e+04
   7.261594e+05   1.162748e+06
  -5.244500e+05   1.737833e+06
  -1.457737e+06   9.465586e+05
  -1.284982e+06  -7.195073e+05
  -2.544659e+05  -1.790974e+06
   7.103813e+05  -1.307723e+06
   9.299137e+05   1.692667e+05
   4.471358e+05   1.189242e+06
  -2.175811e+05   9.671462e+05
  -5.692971e+05   8.931063e+04
  -4.621295e+05  -3.636680e+05
  -1.499852e+05  -1.279244e+05
  -5.333138e+04   9.125785e+04
  -3.149024e+05  -3.027364e+05
  -5.472373e+05  -9.638315e+05
  -1.972091e+05  -1.074522e+06
   7.340081e+05  -4.107404e+05
   1.490915e+06   4.279068e+05
   1.286702e+06   8.071114e+05
   2.015930e+05   7.020377e+05
  -8.266067e+05   4.474670e+05
  -9.768289e+05   2.021902e+05
  -3.811283e+05  -5.612398e+04
   1.320294e+05  -2.333323e+05
   5.460376e+04  -1.943492e+05
  -2.428160e+05  -7.233007e+04
  -6.557247e+04  -1.310700e+05
   6.296176e+05  -2.687837e+05
   1.057729e+06  -2.940908e+04
   4.983460e+05   6.888598e+05
  -7.834790e+05   1.230156e+06
  -1.706875e+06   8.367072e+05
  -1.470917e+06  -3.729120e+05
  -3.345444e+05  -1.402181e+06
   7.355484e+05  -1.419992e+06
   1.040366e+06  -5.967613e+05
   6.639311e+05   1.955722e+05
   1.595638e+05   3.573349e+05
  -4.325300e+04   8.743302e+04
   9.047796e+04   8.928514e+02
   3.005743e+05   3.693953e+05
   2.635441e+05   8.059792e+05
  -1.514280e+05   6.970321e+05
  -6.847687e+05  -7.712801e+04
  -7.968582e+05  -9.120325e+05
  -1.878270e+05  -1.038960e+06
   7.311673e+05  -3.073638e+05
   1.079381e+06   6.600337e+05
   4.113649e+05   1.086913e+06
  -6.888638e+05   7.320327e+05
  -1.145334e+06  -2.541643e+04
  -5.754880e+05  -6.193210e+05
   2.669889e+05  -7.223145e+05
   3.947667e+05  -3.908942e+05
  -2.211266e+05   1.139581e+04
  -6.454407e+05   6.822714e+04
  -1.689421e+05  -3.106950e+05
   8.070401e+05  -7.098272e+05
   1.273745e+06  -5.675780e+05
   8.031720e+05   1.743136e+05
  -6.269110e+04   8.910951e+05
  -5.506817e+05   8.945835e+05
  -4.524936e+05   1.998901e+05
  -8.800145e+04  -4.687082e+05
   2.191183e+05  -4.639751e+05
   3.589696e+05   1.081772e+05
   2.823396e+05   5.710497e+05
  -2.972367e+04   4.573024e+05
  -3.970101e+05  -1.802834e+04
  -4.992998e+05  -2.836267e+05
  -2.481317e+05  -1.049020e+05
   5.391406e+04   1.714522e+05
   8.504733e+04   8.475728e+04
  -6.400816e+04  -3.384407e+05
  -2.514509e+04  -5.870453e+05
   2.958302e+05  -2.833384e+05
   5.139074e+05   3.313280e+05
   2.331888e+05   6.425258e+05
  -3.847012e+05   3.473558e+05
  -6.998004e+05  -2.363426e+05
  -2.935564e+05  -5.564692e+05
   5.053539e+05  -3.929215e+05
   9.096434e+05   2.779601e+04
   5.066300e+05   3.606449e+05
  -2.800370e+05   4.368262e+05
  -6.428140e+05   2.822004e+05
  -2.743319e+05   3.313863e+04
   3.145354e+05  -1.066125e+05
   4.011310e+05   1.495123e+04
  -1.312164e+05   2.811612e+05
  -6.949841e+05   3.056933e+05
