
 $NMID
 id='ANONYMOUS ', fmtdat='(2E16.6)'
 volume=1.0
 tramp=1.0
 $END
   4.076927e+07   1.220498e+06
   2.461544e+07   2.393789e+07
  -4.452977e+06   2.679828e+07
  -1.944400e+07   1.216964e+07
  -1.267980e+07  -3.135767e+06
   1.477571e+06  -6.853580e+06
   7.438659e+06  -4.565483e+05
   3.228104e+06   6.914994e+06
  -3.775568e+06   8.123543e+06
  -7.222728e+06   2.461220e+06
  -5.478320e+06  -4.897489e+06
  -5.215774e+05  -7.046871e+06
   3.319331e+06  -1.851188e+06
   2.261481e+06   5.059553e+06
  -2.711335e+06   5.895253e+06
  -6.052617e+06  -5.271480e+05
  -3.652550e+06  -7.689853e+06
   2.668195e+06  -9.021654e+06
   7.612214e+06  -4.269073e+06
   7.846075e+06   2.014340e+06
   4.164589e+06   5.693357e+06
  -7.532286e+04   5.703837e+06
  -1.616532e+06   3.642741e+06
   7.481793e+04   2.238056e+06
   1.796311e+06   3.002616e+06
  -2.816270e+05   4.389569e+06
  -5.487481e+06   3.381853e+06
  -8.425536e+06  -4.448621e+05
  -5.378595e+06  -3.892472e+06
   7.536467e+05  -3.992242e+06
   3.912697e+06  -1.392639e+06
   2.007517e+06   1.063497e+06
  -1.663811e+06   1.591997e+06
  -3.249540e+06   1.663402e+05
  -2.080989e+06  -2.314137e+06
   2.217426e+05  -3.971351e+06
   1.915267e+06  -2.717323e+06
   1.926222e+06   8.600417e+05
   4.321577e+05   2.805256e+06
  -7.128631e+05   5.268136e+05
   2.543391e+05  -2.880298e+06
   2.253920e+06  -2.211951e+06
   2.082945e+06   2.281348e+06
  -1.229028e+06   4.538889e+06
  -4.381727e+06   8.635132e+05
  -3.484511e+06  -4.835823e+06
   1.210564e+06  -6.060626e+06
   5.539361e+06  -1.694514e+06
   5.801216e+06   3.508128e+06
   1.965744e+06   5.016978e+06
  -2.793051e+06   2.625544e+06
  -4.759154e+06  -8.710912e+05
  -2.534591e+06  -2.725201e+06
   1.597374e+06  -1.896380e+06
   3.555906e+06   4.939323e+05
   1.701138e+06   1.960286e+06
  -1.262858e+06   1.074947e+06
  -1.648897e+06  -7.774030e+05
   5.659821e+05  -1.075035e+06
   1.957976e+06   5.650560e+05
   2.966092e+05   2.031864e+06
  -2.745200e+06   1.557845e+06
  -3.909158e+06  -4.984694e+05
  -1.955675e+06  -2.776799e+06
   1.686640e+06  -4.216697e+06
   4.675184e+06  -3.845111e+06
   5.328694e+06  -1.034257e+06
   3.423394e+06   2.979637e+06
   4.643592e+05   5.241077e+06
  -1.333826e+06   4.160656e+06
  -1.176869e+06   1.597295e+06
  -4.743328e+05   4.931707e+05
  -9.113846e+05   1.106981e+06
  -2.248180e+06   1.158238e+06
  -2.785142e+06  -5.710882e+05
  -1.602155e+06  -2.470529e+06
   4.873889e+05  -2.322076e+06
   1.947777e+06  -5.690675e+04
   1.730219e+06   2.330431e+06
  -2.108254e+05   2.879533e+06
  -2.688414e+06   1.198879e+06
  -3.737172e+06  -1.480370e+06
  -2.327320e+06  -3.297592e+06
   2.707143e+05  -3.224227e+06
   1.754454e+06  -1.927856e+06
   1.576761e+06  -9.326857e+05
   1.452088e+06  -8.064854e+05
   2.683357e+06  -6.260359e+05
   4.050820e+06   6.072324e+05
   3.289852e+06   2.571686e+06
   1.159771e+05   3.946747e+06
  -3.197573e+06   3.692804e+06
  -4.182555e+06   1.793445e+06
  -2.491158e+06  -7.293229e+05
   7.550706e+04  -2.255444e+06
   1.327762e+06  -1.713081e+06
   5.134658e+05   1.482158e+05
  -1.157572e+06   1.196508e+06
  -1.769262e+06   3.164566e+05
  -7.256684e+05  -1.127189e+06
   6.127137e+05  -1.079649e+06
   5.883143e+05   3.432759e+05
  -7.441376e+05   9.353081e+05
  -1.747232e+06  -6.084138e+05
  -1.135109e+06  -2.898154e+06
   7.952532e+05  -3.526189e+06
   2.738275e+06  -1.762581e+06
   3.511270e+06   9.746451e+05
   2.627053e+06   2.770819e+06
   5.519830e+05   2.756674e+06
  -1.309679e+06   1.436812e+06
  -1.598320e+06   1.359027e+05
  -4.796263e+05  -5.237713e+04
   3.459382e+05   7.279520e+05
  -3.501612e+05   1.220416e+06
  -1.719137e+06   5.253277e+05
  -1.893786e+06  -7.602439e+05
  -4.216020e+05  -1.278408e+06
   1.107931e+06  -5.818746e+05
   9.651522e+05   4.341207e+05
  -7.480222e+05   6.707027e+05
  -2.260639e+06  -1.123722e+05
  -1.954533e+06  -1.326217e+06
   1.197570e+05  -2.094976e+06
   2.290965e+06  -1.731131e+06
   2.734188e+06  -2.801337e+05
   1.154278e+06   1.182497e+06
  -8.669017e+05   1.345222e+06
  -1.398520e+06   1.364513e+05
  -1.152247e+05  -9.891982e+05
   1.459377e+06  -6.739390e+05
   1.672772e+06   7.210758e+05
   4.199375e+05   1.595898e+06
  -9.786130e+05   1.048919e+06
  -1.250897e+06  -1.796750e+05
  -3.312778e+05  -7.155095e+05
   7.087988e+05  -6.454896e+04
   6.749250e+05   1.015547e+06
  -6.079642e+05   1.359243e+06
  -1.973249e+06   4.629178e+05
  -1.947998e+06  -1.069255e+06
  -3.462158e+05  -2.006534e+06
   1.379719e+06  -1.579848e+06
   1.665147e+06  -2.279895e+05
   5.249860e+05   8.267925e+05
  -6.249115e+05   8.051447e+05
  -6.828341e+05   6.347101e+04
   6.171713e+04  -4.627523e+05
   5.696175e+05  -3.194842e+05
   3.057717e+05   9.052432e+04
  -3.354496e+05   7.797827e+04
  -5.495691e+05  -5.287042e+05
   1.217651e+05  -1.129778e+06
   1.322491e+06  -8.830490e+05
   2.024658e+06   4.092472e+05
   1.400392e+06   1.906340e+06
  -2.417504e+05   2.388708e+06
  -1.608669e+06   1.448670e+06
  -1.736180e+06  -7.370591e+04
  -9.617493e+05  -9.631174e+05
  -3.501216e+05  -8.371188e+05
  -3.651817e+05  -3.450897e+05
  -4.845593e+05  -2.715899e+05
  -5.987459e+04  -6.675905e+05
   8.260602e+05  -8.926291e+05
   1.442640e+06  -3.696138e+05
   1.111628e+06   7.380752e+05
  -1.975295e+05   1.527903e+06
  -1.706634e+06   1.106556e+06
  -2.237652e+06  -4.757603e+05
  -1.147264e+06  -2.046340e+06
   9.201035e+05  -2.294486e+06
   2.426621e+06  -1.047587e+06
   2.339521e+06   5.669673e+05
   1.065231e+06   1.312480e+06
  -1.304320e+05   1.044481e+06
  -4.704812e+05   6.115922e+05
  -2.448007e+05   7.274543e+05
  -1.983126e+05   1.182868e+06
  -6.472300e+05   1.178797e+06
  -1.221135e+06   2.703690e+05
  -1.273384e+06  -1.085936e+06
  -5.087980e+05  -1.870148e+06
   6.420318e+05  -1.401182e+06
   1.269606e+06  -2.665821e+03
   8.068025e+05   1.219602e+06
  -3.235184e+05   1.352770e+06
  -1.052666e+06   4.711735e+05
  -7.710205e+05  -5.538415e+05
   3.968326e+04  -9.711326e+05
   4.127571e+05  -7.727947e+05
   3.741483e+04  -4.544099e+05
  -3.983692e+05  -3.620094e+05
  -3.930149e+04  -3.878945e+05
   1.084986e+06  -2.062485e+05
   1.956856e+06   3.274604e+05
   1.569374e+06   9.936750e+05
   1.804241e+04   1.346321e+06
  -1.483879e+06   1.069919e+06
  -1.764627e+06   3.031611e+05
  -8.355513e+05  -3.939685e+05
   2.245518e+05  -5.064675e+05
   4.737843e+05  -6.664872e+04
  -7.582092e+03   3.544010e+05
  -4.701169e+05   2.305648e+05
  -4.557361e+05  -3.441383e+05
  -1.664798e+05  -7.353701e+05
  -1.955457e+04  -4.781545e+05
  -1.427264e+05   1.415097e+05
  -3.318283e+05   3.470259e+05
  -2.807753e+05  -2.227206e+05
   1.865791e+05  -9.914751e+05
   8.927117e+05  -1.020093e+06
   1.255012e+06  -1.036621e+05
   7.394895e+05   9.136507e+05
  -4.245419e+05   1.045062e+06
  -1.192190e+06   2.436890e+05
  -7.019371e+05  -5.957661e+05
   6.790743e+05  -6.413248e+05
   1.589473e+06   7.410750e+04
   1.071318e+06   8.397680e+05
  -4.173011e+05   1.022909e+06
  -1.496157e+06   5.517852e+05
  -1.272980e+06  -1.495863e+05
  -1.624321e+05  -5.233766e+05
   6.333014e+05  -2.899784e+05
   3.511790e+05   2.731142e+05
  -6.161185e+05   4.736774e+05
  -1.158547e+06  -1.470781e+05
  -5.837007e+05  -1.200627e+06
   6.783241e+05  -1.645693e+06
   1.511812e+06  -8.072421e+05
   1.226062e+06   7.918133e+05
   1.649815e+05   1.789488e+06
  -7.514308e+05   1.304828e+06
  -9.242196e+05  -1.462058e+05
  -4.530013e+05  -1.178869e+06
   1.756211e+05  -9.858721e+05
   5.406049e+05  -9.816981e+04
   4.961120e+05   3.886203e+05
   2.041829e+05   1.513606e+05
   3.235845e+04  -1.068934e+05
   2.093969e+05   2.680184e+05
   4.670704e+05   9.518136e+05
   2.264769e+05   1.079230e+06
  -6.530682e+05   3.889756e+05
  -1.463189e+06  -4.830260e+05
  -1.305230e+06  -8.457042e+05
  -1.789805e+05  -6.839767e+05
   8.935476e+05  -3.994029e+05
   9.928502e+05  -1.829386e+05
   3.204970e+05   3.378946e+04
  -1.639177e+05   2.174181e+05
   1.112332e+04   2.255225e+05
   3.133761e+05   1.238155e+05
   2.812249e+04   1.364318e+05
  -7.141998e+05   2.052590e+05
  -1.029730e+06  -4.436195e+04
  -3.421557e+05  -6.863472e+05
   9.015293e+05  -1.122458e+06
   1.662053e+06  -6.813300e+05
   1.328290e+06   4.813561e+05
   2.287637e+05   1.405245e+06
  -7.700865e+05   1.330811e+06
  -1.047844e+06   4.811672e+05
  -6.524816e+05  -2.679018e+05
  -1.053403e+05  -3.568413e+05
   1.134094e+05  -3.776861e+04
  -6.387408e+04   4.702305e+04
  -3.125858e+05  -3.537314e+05
  -2.496460e+05  -8.029115e+05
   1.990253e+05  -6.592041e+05
   6.822313e+05   1.621389e+05
   6.887771e+05   9.853866e+05
   4.687875e+04   1.019497e+06
  -7.777043e+05   1.908680e+05
  -9.987921e+05  -7.706029e+05
  -2.972718e+05  -1.082598e+06
   7.254608e+05  -6.262096e+05
   1.084300e+06   1.065532e+05
   4.893347e+05   5.866505e+05
  -2.943300e+05   6.266435e+05
  -3.468643e+05   3.465635e+05
   2.835648e+05   2.649605e+04
   6.535525e+05  -2.185699e+04
   1.260672e+05   3.003558e+05
  -8.280800e+05   6.624776e+05
  -1.220976e+06   5.397841e+05
  -7.114537e+05  -1.603872e+05
   1.144688e+05  -8.431506e+05
   5.284657e+05  -8.201326e+05
   3.872958e+05  -1.236276e+05
   2.559866e+04   4.913494e+05
  -2.521832e+05   4.064458e+05
  -3.494235e+05  -1.848729e+05
  -2.361212e+05  -5.769978e+05
   6.999333e+04  -3.915791e+05
   3.852205e+05   6.563856e+04
   4.527659e+05   2.630748e+05
   2.368306e+05   7.873460e+04
  -1.328287e+04  -1.237246e+05
  -7.796590e+04   9.803862e+03
  -3.947114e+04   3.734789e+05
  -1.260840e+05   5.099371e+05
  -3.431319e+05   1.511318e+05
  -4.046338e+05  -4.246003e+05
  -8.548853e+04  -6.514985e+05
   4.268503e+05  -2.885837e+05
   6.314761e+05   3.108976e+05
   2.249826e+05   5.857878e+05
  -4.987393e+05   3.474315e+05
  -8.530897e+05  -1.057086e+05
  -4.576510e+05  -3.832157e+05
   2.987954e+05  -3.663715e+05
   6.288774e+05  -1.840803e+05
   2.228458e+05  -7.285666e+03
  -3.806225e+05   3.730870e+04
  -4.179627e+05  -1.055793e+05
   1.992950e+05  -3.083049e+05
   7.877560e+05  -2.568710e+05
