
 $NMID
 id='ANONYMOUS ', fmtdat='(2E16.6)'
 volume=1.0
 tramp=1.0
 $END
   6.010975e+07  -2.514590e+06
   3.785261e+07   3.582331e+07
  -6.225595e+06   4.116878e+07
  -2.897265e+07   1.689588e+07
  -1.807019e+07  -6.854039e+06
   3.130528e+06  -1.019135e+07
   1.064609e+07   9.099500e+05
   3.397182e+06   1.040451e+07
  -6.316900e+06   1.028294e+07
  -1.029375e+07   2.532271e+06
  -7.721116e+06  -6.333088e+06
  -1.208607e+06  -9.138463e+06
   4.119674e+06  -3.094402e+06
   2.967342e+06   5.689798e+06
  -3.817594e+06   7.139474e+06
  -8.501187e+06  -1.115702e+06
  -5.170837e+06  -1.074230e+07
   3.561693e+06  -1.278137e+07
   1.054201e+07  -6.746153e+06
   1.161514e+07   1.701562e+06
   7.413889e+06   7.657544e+06
   1.187914e+06   9.188778e+06
  -2.795174e+06   6.665103e+06
  -1.919236e+06   3.075723e+06
   1.141559e+06   2.304444e+06
   3.641831e+05   4.383307e+06
  -5.553857e+06   4.815503e+06
  -1.020921e+07   8.806083e+05
  -7.647180e+06  -4.087652e+06
  -5.063233e+05  -5.318599e+06
   3.786509e+06  -2.841011e+06
   2.556806e+06  -1.407705e+05
  -6.476421e+05   9.190566e+05
  -2.370663e+06   5.115158e+05
  -2.312830e+06  -1.447986e+06
  -8.544314e+05  -4.103652e+06
   1.736154e+06  -4.165113e+06
   3.415372e+06  -8.659149e+04
   2.001479e+06   3.742957e+06
  -6.720166e+05   2.097188e+06
  -4.036010e+05  -2.553455e+06
   2.561454e+06  -2.529591e+06
   2.761451e+06   3.326847e+06
  -2.332231e+06   6.701616e+06
  -7.399527e+06   1.444778e+06
  -5.796496e+06  -7.155380e+06
   1.656631e+06  -9.210356e+06
   7.821206e+06  -2.902896e+06
   7.593229e+06   4.501260e+06
   2.183127e+06   6.406898e+06
  -3.641575e+06   3.026593e+06
  -5.698672e+06  -1.472693e+06
  -2.730382e+06  -3.680293e+06
   2.502950e+06  -2.469668e+06
   4.891003e+06   8.023237e+05
   2.211068e+06   2.840804e+06
  -1.775453e+06   1.540993e+06
  -1.901745e+06  -1.047514e+06
   1.403456e+06  -1.068695e+06
   2.780988e+06   1.778791e+06
  -4.695461e+05   3.764554e+06
  -4.877791e+06   2.287349e+06
  -5.767251e+06  -1.219746e+06
  -2.662709e+06  -4.170469e+06
   1.722644e+06  -5.679040e+06
   5.158998e+06  -5.320573e+06
   6.521821e+06  -2.082974e+06
   4.989588e+06   3.173150e+06
   1.232744e+06   6.537354e+06
  -1.831191e+06   5.186639e+06
  -1.892672e+06   1.393483e+06
  -2.443304e+05  -2.946031e+05
   4.848421e+04   9.676048e+05
  -1.613874e+06   1.902312e+06
  -2.936242e+06   3.342274e+05
  -2.179139e+06  -1.975214e+06
  -7.491002e+04  -2.253438e+06
   1.640694e+06  -2.317178e+05
   1.828448e+06   2.180940e+06
   8.403778e+04   3.125582e+06
  -2.883756e+06   1.850057e+06
  -4.796889e+06  -1.103851e+06
  -3.582785e+06  -3.877971e+06
  -1.440121e+05  -4.515860e+06
   2.314619e+06  -3.012234e+06
   2.355579e+06  -1.324898e+06
   1.963247e+06  -8.025025e+05
   3.157541e+06  -5.986821e+05
   4.696029e+06   6.973637e+05
   3.819812e+06   2.876395e+06
   2.470535e+05   4.427171e+06
  -3.337567e+06   4.261928e+06
  -4.405533e+06   2.377523e+06
  -2.840018e+06  -3.692876e+05
  -3.542848e+05  -2.363770e+06
   1.112408e+06  -2.091057e+06
   5.978464e+05   1.551338e+04
  -1.126317e+06   1.428315e+06
  -2.034806e+06   4.875416e+05
  -1.030704e+06  -1.257819e+06
   5.216814e+05  -1.203350e+06
   4.663164e+05   4.208741e+05
  -1.157560e+06   7.903846e+05
  -2.079156e+06  -1.353453e+06
  -8.029523e+05  -3.788103e+06
   1.668120e+06  -3.760417e+06
   3.415354e+06  -1.275377e+06
   3.618543e+06   1.513830e+06
   2.490828e+06   2.946816e+06
   5.267623e+05   2.798623e+06
  -1.298703e+06   1.596939e+06
  -1.684718e+06   2.825369e+05
  -5.322966e+05  -3.703848e+04
   4.037267e+05   8.013272e+05
  -4.094392e+05   1.462737e+06
  -2.045425e+06   6.819725e+05
  -2.225985e+06  -9.063211e+05
  -4.551654e+05  -1.525856e+06
   1.252099e+06  -6.428016e+05
   9.605854e+05   4.789730e+05
  -9.246914e+05   5.725490e+05
  -2.365881e+06  -3.249982e+05
  -1.891601e+06  -1.447025e+06
   2.491196e+05  -2.128715e+06
   2.460360e+06  -1.822811e+06
   2.985135e+06  -3.539797e+05
   1.349582e+06   1.337963e+06
  -9.480743e+05   1.652881e+06
  -1.683267e+06   2.558516e+05
  -2.539752e+05  -1.157868e+06
   1.616918e+06  -8.344202e+05
   1.875690e+06   8.081860e+05
   3.949551e+05   1.784871e+06
  -1.171843e+06   1.077412e+06
  -1.371596e+06  -3.214701e+05
  -2.781895e+05  -8.483112e+05
   8.640211e+05  -7.926461e+04
   8.210980e+05   1.118960e+06
  -5.852269e+05   1.548256e+06
  -2.149656e+06   6.342015e+05
  -2.221674e+06  -1.082103e+06
  -4.648064e+05  -2.232126e+06
   1.519855e+06  -1.811406e+06
   1.864647e+06  -2.655133e+05
   5.609256e+05   9.311370e+05
  -6.959855e+05   8.809420e+05
  -6.733653e+05   9.335657e+04
   1.361088e+05  -3.827513e+05
   5.262724e+05  -2.139819e+05
   1.105644e+05   8.175829e+04
  -5.107273e+05  -8.202934e+04
  -5.793859e+05  -7.338713e+05
   2.057126e+05  -1.297094e+06
   1.479159e+06  -9.970640e+05
   2.258070e+06   4.026558e+05
   1.626791e+06   2.065039e+06
  -1.800590e+05   2.615081e+06
  -1.715966e+06   1.551005e+06
  -1.822880e+06  -1.119264e+05
  -9.262521e+05  -9.507528e+05
  -3.371406e+05  -6.798767e+05
  -5.204425e+05  -2.053806e+05
  -7.000672e+05  -3.193756e+05
  -1.230817e+05  -8.311083e+05
   9.336423e+05  -9.930089e+05
   1.560287e+06  -3.713704e+05
   1.136435e+06   7.638070e+05
  -2.547142e+05   1.574818e+06
  -1.840492e+06   1.184855e+06
  -2.432984e+06  -4.785680e+05
  -1.263968e+06  -2.247689e+06
   1.046852e+06  -2.582825e+06
   2.733413e+06  -1.167506e+06
   2.553842e+06   6.741463e+05
   1.045241e+06   1.434928e+06
  -2.202180e+05   1.017069e+06
  -4.080416e+05   5.390055e+05
  -4.792465e+04   8.028919e+05
  -6.407046e+04   1.417176e+06
  -6.902433e+05   1.416367e+06
  -1.391863e+06   3.808184e+05
  -1.470071e+06  -1.130733e+06
  -6.459662e+05  -2.028366e+06
   6.350322e+05  -1.563316e+06
   1.386542e+06  -2.396887e+04
   9.055903e+05   1.373532e+06
  -3.979538e+05   1.521774e+06
  -1.262772e+06   4.597468e+05
  -9.031037e+05  -7.501897e+05
   1.141828e+05  -1.180291e+06
   5.774048e+05  -8.630985e+05
   9.204989e+04  -4.482565e+05
  -4.766577e+05  -3.472473e+05
  -7.461503e+04  -4.101228e+05
   1.241809e+06  -2.542975e+05
   2.243631e+06   3.099010e+05
   1.771918e+06   1.086490e+06
  -1.345462e+04   1.561801e+06
  -1.697740e+06   1.277651e+06
  -1.977736e+06   3.374335e+05
  -9.145717e+05  -5.294830e+05
   2.703472e+05  -6.297895e+05
   5.584590e+05  -4.453089e+04
   5.245169e+04   4.608164e+05
  -4.656439e+05   2.908689e+05
  -5.304923e+05  -3.557721e+05
  -3.021927e+05  -7.650834e+05
  -1.268020e+05  -5.085131e+05
  -1.489494e+05   9.655479e+04
  -2.900781e+05   3.065498e+05
  -3.005209e+05  -2.478606e+05
   1.250874e+05  -1.061072e+06
   9.441976e+05  -1.174425e+06
   1.476698e+06  -2.375942e+05
   9.576055e+05   9.583010e+05
  -4.139341e+05   1.252481e+06
  -1.352614e+06   4.135028e+05
  -8.071230e+05  -5.940346e+05
   7.466612e+05  -7.157593e+05
   1.713103e+06   7.585334e+04
   1.087612e+06   9.192842e+05
  -5.186551e+05   1.072042e+06
  -1.609736e+06   5.286379e+05
  -1.324684e+06  -1.938102e+05
  -1.472740e+05  -5.506254e+05
   6.988263e+05  -2.987116e+05
   4.290016e+05   3.111509e+05
  -6.065481e+05   5.849035e+05
  -1.276590e+06  -4.096012e+04
  -7.723398e+05  -1.243908e+06
   5.655725e+05  -1.856451e+06
   1.562756e+06  -1.009375e+06
   1.376427e+06   7.739008e+05
   2.704561e+05   1.922573e+06
  -7.663875e+05   1.405636e+06
  -1.002599e+06  -1.805065e+05
  -4.826007e+05  -1.280187e+06
   2.332444e+05  -1.044713e+06
   6.119048e+05  -9.824787e+04
   4.974230e+05   3.949500e+05
   1.624642e+05   1.422405e+05
   5.715994e+04  -1.005489e+05
   3.359346e+05   3.170592e+05
   5.863123e+05   1.031396e+06
   2.141649e+05   1.158740e+06
  -7.844200e+05   4.467553e+05
  -1.600470e+06  -4.609344e+05
  -1.384214e+06  -8.716935e+05
  -2.172591e+05  -7.536214e+05
   8.902631e+05  -4.754186e+05
   1.051292e+06  -2.160066e+05
   4.088498e+05   5.527680e+04
  -1.424120e+05   2.485370e+05
  -5.731356e+04   2.154393e+05
   2.613793e+05   8.525284e+04
   6.796468e+04   1.388617e+05
  -6.780192e+05   2.806196e+05
  -1.132357e+06   3.002068e+04
  -5.289762e+05  -7.311087e+05
   8.418932e+05  -1.311608e+06
   1.824978e+06  -8.966474e+05
   1.569676e+06   3.971783e+05
   3.551451e+05   1.502969e+06
  -7.876171e+05   1.522298e+06
  -1.112863e+06   6.362018e+05
  -7.093232e+05  -2.134835e+05
  -1.688781e+05  -3.810015e+05
   4.688664e+04  -8.688623e+04
  -9.924881e+04   3.189956e+03
  -3.252115e+05  -3.976299e+05
  -2.833404e+05  -8.663330e+05
   1.625699e+05  -7.451454e+05
   7.312517e+05   8.692220e+04
   8.479171e+05   9.780140e+05
   1.969411e+05   1.108218e+06
  -7.817583e+05   3.224155e+05
  -1.151212e+06  -7.104606e+05
  -4.378838e+05  -1.162516e+06
   7.364688e+05  -7.807093e+05
   1.224787e+06   2.721947e+04
   6.173571e+05   6.594056e+05
  -2.825607e+05   7.709471e+05
  -4.194686e+05   4.215501e+05
   2.390479e+05  -6.485745e+03
   6.924307e+05  -7.070909e+04
   1.805133e+05   3.312640e+05
  -8.665831e+05   7.608379e+05
  -1.366629e+06   6.136507e+05
  -8.611247e+05  -1.806553e+05
   6.654162e+04  -9.536685e+05
   5.865980e+05  -9.611073e+05
   4.789751e+05  -2.157283e+05
   9.033733e+04   5.018100e+05
  -2.337887e+05   4.946240e+05
  -3.811796e+05  -1.196328e+05
  -3.014863e+05  -6.120704e+05
   2.962301e+04  -4.864641e+05
   4.237578e+05   2.084408e+04
   5.366737e+05   3.010503e+05
   2.683801e+05   1.107828e+05
  -5.909632e+04  -1.794855e+05
  -9.734574e+04  -8.596692e+04
   6.158235e+04   3.594224e+05
   2.469513e+04   6.183990e+05
  -3.122538e+05   2.955188e+05
  -5.419571e+05  -3.541584e+05
  -2.432951e+05  -6.826586e+05
   4.124512e+05  -3.684527e+05
   7.452965e+05   2.536233e+05
   3.108449e+05   5.961217e+05
  -5.407337e+05   4.213256e+05
  -9.714731e+05  -2.989761e+04
  -5.416623e+05  -3.860359e+05
   2.976456e+05  -4.656470e+05
   6.848730e+05  -3.001484e+05
   2.911771e+05  -3.792185e+04
  -3.372954e+05   1.071986e+05
  -4.268525e+05  -2.144078e+04
   1.462327e+05  -2.996817e+05
   7.495763e+05  -3.210208e+05
