
 $NMID
 id='ANONYMOUS ', fmtdat='(2E16.6)'
 volume=1.0
 tramp=1.0
 $END
  -3.993197e+07   1.103458e+06
  -2.587275e+07  -2.153937e+07
   2.279214e+06  -2.645620e+07
   1.830782e+07  -1.367881e+07
   1.305513e+07   1.797508e+06
  -7.702207e+05   6.919063e+06
  -7.497049e+06   1.233353e+06
  -3.942845e+06  -6.668395e+06
   3.151852e+06  -8.645008e+06
   7.098176e+06  -3.118885e+06
   5.739218e+06   4.596261e+06
   8.513052e+05   7.068814e+06
  -3.218277e+06   1.928827e+06
  -2.489278e+06  -5.161169e+06
   2.417703e+06  -6.267788e+06
   6.118811e+06   4.603155e+04
   4.171307e+06   7.436940e+06
  -2.053813e+06   9.168337e+06
  -7.257903e+06   4.661780e+06
  -7.770324e+06  -1.596199e+06
  -4.256911e+06  -5.304652e+06
  -2.110112e+05  -5.374135e+06
   1.118071e+06  -3.529778e+06
  -5.860214e+05  -2.436662e+06
  -2.067531e+06  -3.347262e+06
   2.842124e+05  -4.648173e+06
   5.624915e+06  -3.535944e+06
   8.583797e+06   2.899998e+05
   5.479279e+06   3.748408e+06
  -7.881378e+05   3.924874e+06
  -4.022743e+06   1.325180e+06
  -1.959875e+06  -1.240097e+06
   1.975561e+06  -1.770260e+06
   3.590425e+06  -1.341013e+05
   2.178820e+06   2.530235e+06
  -2.785897e+05   4.119903e+06
  -1.846991e+06   2.697495e+06
  -1.729995e+06  -8.751301e+05
  -3.605018e+05  -2.668157e+06
   6.049846e+05  -3.067959e+05
  -3.309681e+05   3.083399e+06
  -2.259700e+06   2.411838e+06
  -2.274011e+06  -2.126070e+06
   7.862027e+05  -4.617174e+06
   4.082863e+06  -1.237285e+06
   3.686702e+06   4.451203e+06
  -7.433462e+05   6.019174e+06
  -5.368346e+06   1.984709e+06
  -6.095487e+06  -3.240373e+06
  -2.348251e+06  -5.046081e+06
   2.720697e+06  -2.898473e+06
   5.005949e+06   5.956351e+05
   2.846608e+06   2.642897e+06
  -1.436119e+06   2.047204e+06
  -3.605498e+06  -2.451965e+05
  -1.864848e+06  -1.833943e+06
   1.184887e+06  -1.145191e+06
   1.762492e+06   7.088113e+05
  -4.300344e+05   1.238133e+06
  -2.076451e+06  -2.597509e+05
  -6.668598e+05  -1.931191e+06
   2.452904e+06  -1.821170e+06
   3.941073e+06   1.111472e+05
   2.187040e+06   2.600434e+06
  -1.525820e+06   4.316977e+06
  -4.656478e+06   4.054169e+06
  -5.362883e+06   1.205344e+06
  -3.501939e+06  -2.898315e+06
  -6.492378e+05  -5.290295e+06
   1.109783e+06  -4.356319e+06
   1.095720e+06  -1.850147e+06
   6.014774e+05  -6.662829e+05
   1.124806e+06  -1.152935e+06
   2.417202e+06  -1.117622e+06
   2.887238e+06   6.743068e+05
   1.637462e+06   2.626802e+06
  -5.586412e+05   2.452393e+06
  -2.115821e+06   5.483433e+04
  -1.884487e+06  -2.457461e+06
   1.683602e+05  -3.011892e+06
   2.741839e+06  -1.266510e+06
   3.821448e+06   1.433464e+06
   2.428907e+06   3.233345e+06
  -1.369327e+05   3.192888e+06
  -1.614763e+06   1.984200e+06
  -1.484692e+06   1.056627e+06
  -1.441447e+06   9.591859e+05
  -2.775143e+06   8.019802e+05
  -4.253121e+06  -4.490426e+05
  -3.537535e+06  -2.547889e+06
  -2.662588e+05  -4.124530e+06
   3.232453e+06  -3.964680e+06
   4.325667e+06  -1.966087e+06
   2.589107e+06   7.347878e+05
  -7.894274e+04   2.354196e+06
  -1.367392e+06   1.782677e+06
  -5.211540e+05  -1.600376e+05
   1.187808e+06  -1.268111e+06
   1.817570e+06  -3.826220e+05
   7.653005e+05   1.130939e+06
  -6.271495e+05   1.136035e+06
  -6.636708e+05  -3.525820e+05
   7.151731e+05  -1.084828e+06
   1.903319e+06   4.432735e+05
   1.444104e+06   2.945744e+06
  -5.712224e+05   3.837488e+06
  -2.805657e+06   2.117431e+06
  -3.819269e+06  -8.295637e+05
  -2.935401e+06  -2.864291e+06
  -6.831210e+05  -2.927505e+06
   1.342779e+06  -1.549499e+06
   1.674699e+06  -1.778711e+05
   5.031445e+05   3.790172e+04
  -3.871519e+05  -7.512603e+05
   3.076798e+05  -1.278987e+06
   1.752476e+06  -6.142308e+05
   2.001154e+06   7.023783e+05
   5.011024e+05   1.307428e+06
  -1.140181e+06   6.530674e+05
  -1.048248e+06  -4.341086e+05
   7.647477e+05  -7.760140e+05
   2.428819e+06   7.140963e+03
   2.154490e+06   1.347910e+06
  -4.096096e+04   2.252741e+06
  -2.361705e+06   1.921081e+06
  -2.864787e+06   3.931239e+05
  -1.249211e+06  -1.183170e+06
   8.438437e+05  -1.416942e+06
   1.428851e+06  -1.927885e+05
   1.419383e+05   1.011470e+06
  -1.499350e+06   7.494851e+05
  -1.782472e+06  -6.882710e+05
  -5.167801e+05  -1.662845e+06
   9.799812e+05  -1.161097e+06
   1.333382e+06   1.221042e+05
   3.923517e+05   7.377928e+05
  -7.327423e+05   9.879320e+04
  -7.379719e+05  -1.039984e+06
   5.985675e+05  -1.441601e+06
   2.054237e+06  -5.425160e+05
   2.071850e+06   1.058120e+06
   4.314777e+05   2.086294e+06
  -1.381787e+06   1.704045e+06
  -1.733555e+06   3.060671e+05
  -5.862762e+05  -8.454893e+05
   6.265910e+05  -8.701304e+05
   7.251829e+05  -7.873058e+04
  -5.172418e+04   5.193636e+05
  -6.213957e+05   3.715349e+05
  -3.632019e+05  -1.112798e+05
   3.446551e+05  -1.406452e+05
   6.222708e+05   5.112607e+05
  -6.407225e+04   1.194775e+06
  -1.351692e+06   9.829325e+05
  -2.140253e+06  -3.550370e+05
  -1.533981e+06  -1.949109e+06
   1.743217e+05  -2.517965e+06
   1.647913e+06  -1.590295e+06
   1.847043e+06   1.087351e+04
   1.061972e+06   1.003748e+06
   3.873809e+05   9.094125e+05
   3.632087e+05   3.648728e+05
   4.978562e+05   2.469000e+05
   9.268720e+04   6.802923e+05
  -8.275135e+05   9.768007e+05
  -1.514234e+06   4.538764e+05
  -1.213666e+06  -7.479898e+05
   1.489930e+05  -1.640337e+06
   1.763410e+06  -1.238093e+06
   2.377569e+06   4.214019e+05
   1.288902e+06   2.110900e+06
  -8.676780e+05   2.447187e+06
  -2.502271e+06   1.202718e+06
  -2.493243e+06  -4.982622e+05
  -1.192398e+06  -1.353154e+06
   9.661755e+04  -1.133530e+06
   5.017120e+05  -6.737539e+05
   2.641004e+05  -7.536255e+05
   1.750204e+05  -1.219115e+06
   6.262052e+05  -1.245038e+06
   1.258988e+06  -3.243179e+05
   1.366370e+06   1.096535e+06
   5.927927e+05   1.945265e+06
  -6.302172e+05   1.489855e+06
  -1.336365e+06   4.776683e+04
  -8.978509e+05  -1.246108e+06
   2.773967e+05  -1.436054e+06
   1.079356e+06  -5.571002e+05
   8.394843e+05   5.253219e+05
   1.879189e+04   1.013910e+06
  -3.840497e+05   8.404298e+05
  -1.877792e+04   4.925109e+05
   4.238393e+05   3.687188e+05
   5.151573e+04   4.065591e+05
  -1.124375e+06   2.620632e+05
  -2.056002e+06  -2.650771e+05
  -1.684933e+06  -9.811296e+05
  -8.461189e+04  -1.408738e+06
   1.500951e+06  -1.176429e+06
   1.839860e+06  -3.914692e+05
   9.052222e+05   3.679248e+05
  -2.053747e+05   5.336384e+05
  -4.935259e+05   9.755046e+04
  -5.260327e+03  -3.562986e+05
   4.885080e+05  -2.512468e+05
   4.868336e+05   3.437136e+05
   1.829339e+05   7.618442e+05
   2.200677e+04   4.945073e+05
   1.515271e+05  -1.637078e+05
   3.555904e+05  -3.834856e+05
   3.084065e+05   2.241547e+05
  -1.709305e+05   1.049879e+06
  -9.011518e+05   1.099870e+06
  -1.292542e+06   1.504477e+05
  -7.894763e+05  -9.259623e+05
   4.033481e+05  -1.097258e+06
   1.225145e+06  -2.868001e+05
   7.516605e+05   6.047386e+05
  -6.880548e+05   7.008708e+05
  -1.681173e+06  -1.847471e+04
  -1.175330e+06  -8.509372e+05
   3.942953e+05  -1.108026e+06
   1.566748e+06  -6.492802e+05
   1.361125e+06   1.100056e+05
   1.940237e+05   5.516701e+05
  -6.573968e+05   3.332948e+05
  -3.750953e+05  -2.685139e+05
   6.350135e+05  -5.066724e+05
   1.213810e+06   1.272783e+05
   6.350302e+05   1.239856e+06
  -6.712218e+05   1.734727e+06
  -1.562216e+06   8.819420e+05
  -1.308431e+06  -7.962836e+05
  -2.273015e+05  -1.875340e+06
   7.511438e+05  -1.402357e+06
   9.833639e+05   1.156621e+05
   5.246335e+05   1.227896e+06
  -1.444162e+05   1.055602e+06
  -5.645711e+05   1.279724e+05
  -5.419499e+05  -3.997571e+05
  -2.275878e+05  -1.616199e+05
  -2.830577e+04   1.182433e+05
  -2.177687e+05  -2.602585e+05
  -5.169797e+05  -9.788951e+05
  -2.831247e+05  -1.135054e+06
   6.607207e+05  -4.391592e+05
   1.553992e+06   4.619024e+05
   1.409747e+06   8.525340e+05
   2.130862e+05   7.110281e+05
  -9.348993e+05   4.415987e+05
  -1.042883e+06   2.258534e+05
  -3.325131e+05  -1.436162e+04
   1.684986e+05  -2.298818e+05
  -2.794764e+04  -2.486396e+05
  -3.424900e+05  -1.342106e+05
  -2.852695e+04  -1.411016e+05
   7.546226e+05  -2.257609e+05
   1.078557e+06   1.777781e+04
   3.626677e+05   6.974687e+05
  -9.192178e+05   1.191193e+06
  -1.708848e+06   7.613890e+05
  -1.388637e+06  -4.625110e+05
  -2.773186e+05  -1.466642e+06
   7.610807e+05  -1.417885e+06
   1.079941e+06  -5.288511e+05
   6.912490e+05   2.693618e+05
   1.161077e+05   3.684729e+05
  -1.250151e+05   2.984611e+04
   6.610449e+04  -6.221035e+04
   3.469365e+05   3.610095e+05
   2.914390e+05   8.376778e+05
  -1.902851e+05   6.934096e+05
  -7.186172e+05  -1.596053e+05
  -7.400822e+05  -1.017152e+06
  -6.681930e+04  -1.058836e+06
   8.107471e+05  -2.076571e+05
   1.060615e+06   7.866683e+05
   3.369293e+05   1.121164e+06
  -7.388328e+05   6.686748e+05
  -1.132551e+06  -7.912459e+04
  -5.286333e+05  -5.886788e+05
   2.831399e+05  -6.558586e+05
   3.424257e+05  -3.766351e+05
  -3.065028e+05  -2.892544e+04
  -6.866932e+05   3.963604e+04
  -1.388038e+05  -3.069117e+05
   8.490239e+05  -7.212338e+05
   1.258967e+06  -6.162187e+05
   7.444603e+05   1.320867e+05
  -9.318786e+04   8.824680e+05
  -5.172210e+05   8.765494e+05
  -3.871473e+05   1.394171e+05
  -3.354474e+04  -5.157193e+05
   2.509321e+05  -4.267986e+05
   3.673157e+05   1.932653e+05
   2.631984e+05   5.973601e+05
  -5.942785e+04   4.022269e+05
  -4.030104e+05  -6.141170e+04
  -4.826857e+05  -2.535025e+05
  -2.538045e+05  -6.911673e+04
   1.674610e+04   1.190073e+05
   8.983067e+04  -2.870491e+04
   4.736488e+04  -3.917082e+05
   1.305829e+05  -5.169695e+05
   3.516580e+05  -1.472448e+05
   4.173009e+05   4.376924e+05
   9.067394e+04   6.724941e+05
  -4.412198e+05   3.076745e+05
  -6.610944e+05  -3.100886e+05
  -2.461097e+05  -6.087008e+05
   5.086914e+05  -3.792538e+05
   8.890890e+05   8.679233e+04
   4.879297e+05   3.867803e+05
  -2.983644e+05   3.852708e+05
  -6.459526e+05   2.036891e+05
  -2.244419e+05   1.690987e+04
   4.045189e+05  -3.618479e+04
   4.393292e+05   1.119018e+05
  -2.124633e+05   3.307833e+05
  -8.325425e+05   2.840797e+05
