
 $NMID
 id='ANONYMOUS ', fmtdat='(2E16.6)'
 volume=1.0
 tramp=1.0
 $END
   5.605758e+07  -3.598696e+05
   3.388604e+07   3.463926e+07
  -7.281757e+06   3.803186e+07
  -2.742545e+07   1.461318e+07
  -1.639182e+07  -7.024800e+06
   3.306924e+06  -9.298431e+06
   9.771122e+06   1.255163e+06
   2.735717e+06   9.722340e+06
  -6.172648e+06   9.238378e+06
  -9.580587e+06   1.969717e+06
  -6.964123e+06  -6.109125e+06
  -8.604839e+05  -8.501940e+06
   3.929110e+06  -2.760806e+06
   2.621755e+06   5.327008e+06
  -3.717803e+06   6.459323e+06
  -7.819940e+06  -1.320474e+06
  -4.444772e+06  -1.011486e+07
   3.707700e+06  -1.172884e+07
   1.000490e+07  -5.932448e+06
   1.076666e+07   1.946434e+06
   6.676182e+06   7.394861e+06
   7.802232e+05   8.642121e+06
  -2.896068e+06   6.095698e+06
  -1.928535e+06   2.678557e+06
   1.042907e+06   2.046308e+06
   3.066157e+05   4.061754e+06
  -5.246699e+06   4.390858e+06
  -9.517501e+06   6.025208e+05
  -7.017510e+06  -4.008590e+06
  -3.431087e+05  -5.014765e+06
   3.605192e+06  -2.612347e+06
   2.448008e+06  -9.994644e+04
  -5.197948e+05   8.779211e+05
  -2.163669e+06   5.128246e+05
  -2.161831e+06  -1.330685e+06
  -7.604816e+05  -3.835976e+06
   1.730519e+06  -3.851496e+06
   3.243527e+06   3.184744e+04
   1.776996e+06   3.595630e+06
  -7.489202e+05   1.975324e+06
  -3.861745e+05  -2.374289e+06
   2.407061e+06  -2.273890e+06
   2.435963e+06   3.168275e+06
  -2.413846e+06   6.114407e+06
  -6.950425e+06   1.044078e+06
  -5.148035e+06  -6.874661e+06
   1.864684e+06  -8.505402e+06
   7.367954e+06  -2.451244e+06
   6.896955e+06   4.376580e+06
   1.830601e+06   5.959520e+06
  -3.433578e+06   2.678905e+06
  -5.191188e+06  -1.510346e+06
  -2.387079e+06  -3.452960e+06
   2.404886e+06  -2.183968e+06
   4.497498e+06   9.062692e+05
   1.939662e+06   2.700429e+06
  -1.702138e+06   1.369025e+06
  -1.716098e+06  -1.013706e+06
   1.335851e+06  -9.017950e+05
   2.471765e+06   1.771786e+06
  -6.309828e+05   3.458667e+06
  -4.628967e+06   1.914631e+06
  -5.283691e+06  -1.345254e+06
  -2.315247e+06  -3.951760e+06
   1.745066e+06  -5.227518e+06
   4.901210e+06  -4.827853e+06
   6.109005e+06  -1.785112e+06
   4.572965e+06   3.078826e+06
   9.856849e+05   6.097901e+06
  -1.831582e+06   4.724059e+06
  -1.760247e+06   1.188586e+06
  -1.500533e+05  -2.896581e+05
   8.403612e+04   9.499762e+05
  -1.527790e+06   1.798167e+06
  -2.762368e+06   2.955020e+05
  -2.026369e+06  -1.857026e+06
  -6.419022e+04  -2.099990e+06
   1.506628e+06  -2.173000e+05
   1.659265e+06   2.022296e+06
   3.000924e+04   2.891438e+06
  -2.715472e+06   1.667493e+06
  -4.441819e+06  -1.128442e+06
  -3.237565e+06  -3.700412e+06
  -3.039144e+03  -4.210616e+06
   2.249510e+06  -2.730037e+06
   2.226340e+06  -1.144675e+06
   1.824428e+06  -6.753592e+05
   2.913032e+06  -4.767555e+05
   4.307363e+06   7.416198e+05
   3.459376e+06   2.725819e+06
   1.440623e+05   4.082068e+06
  -3.150046e+06   3.872357e+06
  -4.108792e+06   2.128333e+06
  -2.632385e+06  -3.849050e+05
  -3.032659e+05  -2.202091e+06
   1.063237e+06  -1.927067e+06
   5.596076e+05   2.557769e+04
  -1.065494e+06   1.304886e+06
  -1.892441e+06   4.066138e+05
  -9.290056e+05  -1.192275e+06
   5.014455e+05  -1.104720e+06
   4.133933e+05   3.889341e+05
  -1.077626e+06   6.771596e+05
  -1.851063e+06  -1.316005e+06
  -6.145043e+05  -3.488568e+06
   1.624360e+06  -3.369178e+06
   3.133858e+06  -1.058988e+06
   3.257348e+06   1.457711e+06
   2.223396e+06   2.723712e+06
   4.435017e+05   2.566558e+06
  -1.217514e+06   1.451479e+06
  -1.557363e+06   2.364369e+05
  -4.888282e+05  -4.386003e+04
   3.570504e+05   7.463422e+05
  -4.128037e+05   1.340504e+06
  -1.905803e+06   5.821232e+05
  -2.029703e+06  -8.883852e+05
  -3.800229e+05  -1.417208e+06
   1.167470e+06  -5.660058e+05
   8.728446e+05   4.539844e+05
  -8.531398e+05   5.001297e+05
  -2.152158e+06  -3.398276e+05
  -1.703953e+06  -1.347765e+06
   2.612187e+05  -1.938278e+06
   2.287153e+06  -1.629888e+06
   2.750644e+06  -2.717098e+05
   1.214027e+06   1.261624e+06
  -9.140216e+05   1.506930e+06
  -1.563451e+06   1.966136e+05
  -2.108732e+05  -1.080491e+06
   1.508806e+06  -7.390521e+05
   1.708908e+06   7.815645e+05
   3.239607e+05   1.645235e+06
  -1.097621e+06   9.589800e+05
  -1.247667e+06  -3.272672e+05
  -2.320807e+05  -7.844062e+05
   8.016437e+05  -5.377513e+04
   7.394585e+05   1.048637e+06
  -5.650100e+05   1.420884e+06
  -1.993830e+06   5.506512e+05
  -2.030315e+06  -1.036215e+06
  -3.869711e+05  -2.065512e+06
   1.435106e+06  -1.637756e+06
   1.719773e+06  -2.058494e+05
   4.943338e+05   8.675623e+05
  -6.581890e+05   7.960080e+05
  -6.207357e+05   7.706268e+04
   1.266243e+05  -3.433024e+05
   4.767668e+05  -1.901832e+05
   9.515060e+04   6.273540e+04
  -4.611586e+05  -9.748122e+04
  -5.090554e+05  -6.866202e+05
   2.169251e+05  -1.184706e+06
   1.378249e+06  -8.890294e+05
   2.070903e+06   4.104646e+05
   1.461830e+06   1.930306e+06
  -2.099681e+05   2.402995e+06
  -1.600764e+06   1.393858e+06
  -1.666731e+06  -1.330654e+05
  -8.332521e+05  -8.785472e+05
  -3.080943e+05  -6.183772e+05
  -4.882148e+05  -1.978149e+05
  -6.423049e+05  -3.152837e+05
  -9.543053e+04  -7.709289e+05
   8.752513e+05  -8.935844e+05
   1.435123e+06  -3.145224e+05
   1.029480e+06   7.132122e+05
  -2.563681e+05   1.435037e+06
  -1.707607e+06   1.056694e+06
  -2.227645e+06  -4.798106e+05
  -1.120832e+06  -2.088158e+06
   1.013562e+06  -2.354474e+06
   2.536081e+06  -1.019391e+06
   2.330223e+06   6.675832e+05
   9.293551e+05   1.330544e+06
  -2.166352e+05   9.213243e+05
  -3.732187e+05   4.888456e+05
  -5.091785e+04   7.489747e+05
  -8.606950e+04   1.313198e+06
  -6.662624e+05   1.293718e+06
  -1.292111e+06   3.244391e+05
  -1.335756e+06  -1.067469e+06
  -5.607416e+05  -1.879278e+06
   6.111778e+05  -1.429386e+06
   1.275610e+06   2.330885e+03
   8.059433e+05   1.280942e+06
  -3.970206e+05   1.389842e+06
  -1.169464e+06   3.915289e+05
  -8.105710e+05  -7.136713e+05
   1.349267e+05  -1.082618e+06
   5.515114e+05  -7.766427e+05
   9.230723e+04  -4.056118e+05
  -4.352627e+05  -3.272210e+05
  -6.331454e+04  -3.784827e+05
   1.147965e+06  -2.096154e+05
   2.061106e+06   3.278555e+05
   1.610227e+06   1.032552e+06
  -4.608088e+04   1.436452e+06
  -1.590892e+06   1.143344e+06
  -1.825041e+06   2.716038e+05
  -8.256022e+05  -5.068845e+05
   2.643277e+05  -5.749881e+05
   5.135149e+05  -2.783227e+04
   3.839220e+04   4.291119e+05
  -4.325273e+05   2.618228e+05
  -4.823533e+05  -3.370490e+05
  -2.698285e+05  -7.121389e+05
  -1.116683e+05  -4.739511e+05
  -1.348298e+05   8.418679e+04
  -2.652521e+05   2.780353e+05
  -2.716529e+05  -2.316283e+05
   1.287096e+05  -9.749449e+05
   8.892676e+05  -1.066255e+06
   1.370585e+06  -1.920822e+05
   8.701454e+05   9.029275e+05
  -4.060082e+05   1.149525e+06
  -1.258509e+06   3.584839e+05
  -7.346046e+05  -5.598110e+05
   6.993923e+05  -6.438914e+05
   1.570815e+06   9.925846e+04
   9.789004e+05   8.594132e+05
  -4.954081e+05   9.699835e+05
  -1.482951e+06   4.549941e+05
  -1.209146e+06  -1.995036e+05
  -1.252944e+05  -5.061009e+05
   6.468761e+05  -2.608298e+05
   3.898134e+05   2.964459e+05
  -5.685218e+05   5.324327e+05
  -1.178320e+06  -5.662195e+04
  -6.953040e+05  -1.160549e+06
   5.493981e+05  -1.705412e+06
   1.456287e+06  -9.075569e+05
   1.255603e+06   7.340673e+05
   2.184182e+05   1.773480e+06
  -7.261361e+05   1.278882e+06
  -9.162537e+05  -1.841346e+05
  -4.203125e+05  -1.183551e+06
   2.328139e+05  -9.524807e+05
   5.642464e+05  -7.826082e+04
   4.498291e+05   3.684311e+05
   1.457673e+05   1.299928e+05
   5.449774e+04  -8.959455e+04
   3.057373e+05   3.033180e+05
   5.230844e+05   9.613748e+05
   1.753540e+05   1.065989e+06
  -7.322899e+05   3.935831e+05
  -1.464806e+06  -4.499808e+05
  -1.256459e+06  -8.216251e+05
  -1.865437e+05  -6.971461e+05
   8.247528e+05  -4.259989e+05
   9.689122e+05  -1.816607e+05
   3.757188e+05   6.150954e+04
  -1.346446e+05   2.277090e+05
  -5.769270e+04   1.921611e+05
   2.381801e+05   7.712835e+04
   6.214322e+04   1.302051e+05
  -6.266226e+05   2.526607e+05
  -1.044731e+06   9.821298e+03
  -4.793244e+05  -6.877143e+05
   7.957697e+05  -1.199377e+06
   1.699869e+06  -7.957341e+05
   1.444826e+06   3.939007e+05
   3.045200e+05   1.390457e+06
  -7.518265e+05   1.389084e+06
  -1.037522e+06   5.701528e+05
  -6.514974e+05  -2.055661e+05
  -1.509260e+05  -3.552864e+05
   4.393084e+04  -8.441867e+04
  -8.996889e+04  -1.977050e+03
  -2.905576e+05  -3.706708e+05
  -2.457122e+05  -8.011318e+05
   1.620300e+05  -6.852712e+05
   6.741209e+05   8.903363e+04
   7.694141e+05   9.146907e+05
   1.663660e+05   1.028198e+06
  -7.267990e+05   2.893025e+05
  -1.052846e+06  -6.713693e+05
  -3.862874e+05  -1.080130e+06
   6.928777e+05  -7.099412e+05
   1.130094e+06   4.554879e+04
   5.575178e+05   6.212610e+05
  -2.758568e+05   7.081872e+05
  -3.964556e+05   3.795709e+05
   2.185094e+05  -6.190495e+03
   6.385376e+05  -5.531025e+04
   1.612511e+05   3.095238e+05
  -8.100065e+05   6.863004e+05
  -1.268626e+06   5.382942e+05
  -7.904271e+05  -1.856187e+05
   7.777830e+04  -8.786263e+05
   5.594719e+05  -8.740746e+05
   4.495395e+05  -1.898714e+05
   7.783308e+04   4.640738e+05
  -2.243848e+05   4.538508e+05
  -3.516973e+05  -1.136640e+05
  -2.683285e+05  -5.689217e+05
   3.698707e+04  -4.505868e+05
   3.913312e+05   2.509809e+04
   4.883815e+05   2.886994e+05
   2.436395e+05   1.079496e+05
  -5.064614e+04  -1.696657e+05
  -8.379119e+04  -8.483385e+04
   5.616761e+04   3.343583e+05
   1.457936e+04   5.782308e+05
  -2.959111e+05   2.734289e+05
  -5.001094e+05  -3.357120e+05
  -2.179899e+05  -6.372677e+05
   3.859157e+05  -3.354359e+05
   6.859837e+05   2.457353e+05
   2.792560e+05   5.544990e+05
  -5.059740e+05   3.789909e+05
  -8.971849e+05  -4.363223e+04
  -4.936036e+05  -3.650970e+05
   2.838366e+05  -4.260579e+05
   6.390378e+05  -2.669614e+05
   2.711775e+05  -2.835362e+04
  -3.121007e+05   9.843040e+04
  -3.949841e+05  -2.269492e+04
   1.354622e+05  -2.746422e+05
   6.921443e+05  -2.879414e+05
