
 $NMID
 id='ANONYMOUS ', fmtdat='(2E16.6)'
 volume=1.0
 tramp=1.0
 $END
  -6.199479e+07   2.025175e+05
  -3.692949e+07  -3.913066e+07
   8.867435e+06  -4.217001e+07
   3.057290e+07  -1.522354e+07
   1.764642e+07   8.620257e+06
  -4.091952e+06   1.014810e+07
  -1.058920e+07  -1.973548e+06
  -2.455650e+06  -1.076385e+07
   7.112979e+06  -9.596061e+06
   1.046427e+07  -1.705978e+06
   7.492226e+06   6.655958e+06
   9.226270e+05   9.104113e+06
  -4.221608e+06   3.077600e+06
  -2.764972e+06  -5.483766e+06
   4.123954e+06  -6.667741e+06
   8.469514e+06   1.690967e+06
   4.650104e+06   1.108934e+07
  -4.228986e+06   1.273256e+07
  -1.100995e+07   6.457410e+06
  -1.189153e+07  -2.076584e+06
  -7.537321e+06  -8.177646e+06
  -9.464535e+05  -9.791635e+06
   3.488995e+06  -6.946914e+06
   2.666868e+06  -2.755276e+06
  -8.406590e+05  -1.688691e+06
  -5.382184e+05  -4.013119e+06
   5.255282e+06  -4.803410e+06
   1.003854e+07  -9.314133e+05
   7.653880e+06   4.160610e+06
   6.840680e+05   5.474521e+06
  -3.589682e+06   3.084020e+06
  -2.684573e+06   4.888709e+05
   8.541710e+04  -6.956791e+05
   1.819686e+06  -6.980183e+05
   2.261847e+06   9.991614e+05
   1.123292e+06   3.872328e+06
  -1.734765e+06   4.294768e+06
  -3.776757e+06   1.939479e+05
  -2.227882e+06  -3.971957e+06
   8.405679e+05  -2.499623e+06
   6.435566e+05   2.250796e+06
  -2.482118e+06   2.311164e+06
  -2.539699e+06  -3.522330e+06
   2.923638e+06  -6.663011e+06
   7.920288e+06  -9.932785e+05
   5.680837e+06   7.729307e+06
  -2.225114e+06   9.406528e+06
  -8.110010e+06   2.653837e+06
  -7.303468e+06  -4.766919e+06
  -1.759005e+06  -6.333259e+06
   3.687781e+06  -2.693040e+06
   5.357848e+06   1.763064e+06
   2.323488e+06   3.727977e+06
  -2.721555e+06   2.265799e+06
  -4.847596e+06  -1.101562e+06
  -2.005760e+06  -2.993835e+06
   1.884813e+06  -1.463990e+06
   1.744120e+06   1.106822e+06
  -1.607472e+06   8.112725e+05
  -2.613909e+06  -2.233692e+06
   1.030728e+06  -3.942490e+06
   5.346073e+06  -1.965635e+06
   5.770270e+06   1.717871e+06
   2.406378e+06   4.414005e+06
  -1.826119e+06   5.627369e+06
  -5.068049e+06   5.209985e+06
  -6.473018e+06   2.032048e+06
  -5.015442e+06  -3.194156e+06
  -1.141014e+06  -6.477968e+06
   2.045121e+06  -4.940116e+06
   1.957559e+06  -1.027890e+06
  -2.549481e+03   5.497856e+05
  -4.432598e+05  -9.548545e+05
   1.319536e+06  -2.078027e+06
   2.823548e+06  -6.069108e+05
   2.227485e+06   1.677853e+06
   2.723590e+05   2.069513e+06
  -1.373660e+06   3.003823e+05
  -1.668028e+06  -1.926497e+06
  -1.179762e+05  -2.933890e+06
   2.771186e+06  -1.848875e+06
   4.748009e+06   1.045587e+06
   3.569432e+06   3.917140e+06
   5.363610e+04   4.607763e+06
  -2.480704e+06   3.012721e+06
  -2.483021e+06   1.198461e+06
  -1.963292e+06   6.186438e+05
  -3.010951e+06   4.209056e+05
  -4.429553e+06  -8.025078e+05
  -3.545297e+06  -2.807978e+06
  -1.538888e+05  -4.167040e+06
   3.165250e+06  -3.976571e+06
   4.133882e+06  -2.274112e+06
   2.723731e+06   2.713930e+05
   4.444932e+05   2.222270e+06
  -9.885697e+05   2.034359e+06
  -5.872706e+05   1.543860e+04
   1.046582e+06  -1.360831e+06
   1.956720e+06  -4.380525e+05
   1.006830e+06   1.235070e+06
  -4.668743e+05   1.129907e+06
  -3.541548e+05  -3.988046e+05
   1.189738e+06  -5.771339e+05
   1.869202e+06   1.578290e+06
   4.118933e+05   3.698614e+06
  -1.916508e+06   3.303485e+06
  -3.262405e+06   8.057732e+05
  -3.174273e+06  -1.622273e+06
  -2.107893e+06  -2.707461e+06
  -4.228443e+05  -2.516528e+06
   1.194780e+06  -1.475939e+06
   1.561746e+06  -2.779760e+05
   4.968845e+05   4.110616e+04
  -3.642624e+05  -7.595392e+05
   4.427585e+05  -1.391932e+06
   1.990380e+06  -6.002485e+05
   2.090122e+06   9.454679e+05
   3.636678e+05   1.475949e+06
  -1.197222e+06   5.641907e+05
  -8.480675e+05  -4.589649e+05
   8.878899e+05  -4.406862e+05
   2.121975e+06   4.137721e+05
   1.632146e+06   1.351886e+06
  -3.022303e+05   1.893686e+06
  -2.298651e+06   1.612334e+06
  -2.780098e+06   2.741184e+05
  -1.243413e+06  -1.302062e+06
   9.450133e+05  -1.575876e+06
   1.638075e+06  -2.130326e+05
   2.430561e+05   1.126849e+06
  -1.541954e+06   7.680442e+05
  -1.734803e+06  -8.092345e+05
  -2.929544e+05  -1.671836e+06
   1.143183e+06  -9.314446e+05
   1.250583e+06   3.800089e+05
   1.969974e+05   8.102012e+05
  -8.407083e+05   4.695975e+04
  -7.685311e+05  -1.071778e+06
   5.560567e+05  -1.458164e+06
   2.022491e+06  -5.880937e+05
   2.080385e+06   1.035238e+06
   4.045299e+05   2.106134e+06
  -1.468034e+06   1.671754e+06
  -1.752838e+06   1.994217e+05
  -4.871012e+05  -8.874189e+05
   6.741948e+05  -7.991831e+05
   6.052268e+05  -8.658595e+04
  -1.437179e+05   3.014277e+05
  -4.414995e+05   1.521764e+05
  -2.381894e+04  -4.245396e+04
   5.002355e+05   1.656465e+05
   4.921250e+05   7.451383e+05
  -2.533270e+05   1.209776e+06
  -1.409020e+06   8.980601e+05
  -2.105987e+06  -4.139911e+05
  -1.497800e+06  -1.956955e+06
   1.981107e+05  -2.431286e+06
   1.607491e+06  -1.389677e+06
   1.654340e+06   1.491705e+05
   8.011845e+05   8.489879e+05
   3.081959e+05   5.446867e+05
   5.434679e+05   1.536498e+05
   7.014004e+05   3.405754e+05
   1.044596e+05   8.155729e+05
  -8.989914e+05   9.004556e+05
  -1.441829e+06   3.004162e+05
  -1.012053e+06  -7.050743e+05
   2.724179e+05  -1.412498e+06
   1.718976e+06  -1.050946e+06
   2.244355e+06   4.818205e+05
   1.122333e+06   2.118411e+06
  -1.055062e+06   2.393027e+06
  -2.594080e+06   1.016499e+06
  -2.343450e+06  -7.050292e+05
  -8.909759e+05  -1.340424e+06
   2.411097e+05  -8.822656e+05
   3.354719e+05  -4.557455e+05
  -1.644043e+04  -7.732269e+05
   5.244213e+04  -1.376406e+06
   6.829840e+05  -1.345400e+06
   1.330787e+06  -3.443970e+05
   1.371914e+06   1.071848e+06
   5.860715e+05   1.901088e+06
  -6.052759e+05   1.454431e+06
  -1.288825e+06  -2.614413e+03
  -8.114595e+05  -1.312632e+06
   4.262449e+05  -1.411955e+06
   1.216102e+06  -3.627656e+05
   8.243932e+05   7.768496e+05
  -1.736787e+05   1.126548e+06
  -6.040802e+05   7.785399e+05
  -1.092758e+05   3.894583e+05
   4.542534e+05   3.192297e+05
   7.328011e+04   3.796641e+05
  -1.180053e+06   2.110073e+05
  -2.116303e+06  -3.333691e+05
  -1.638282e+06  -1.055169e+06
   7.152497e+04  -1.477543e+06
   1.644652e+06  -1.175943e+06
   1.860429e+06  -2.624154e+05
   8.243846e+05   5.492490e+05
  -2.833117e+05   6.023929e+05
  -5.299362e+05   1.316757e+04
  -5.155416e+04  -4.613435e+05
   4.244643e+05  -2.775709e+05
   4.967569e+05   3.382756e+05
   3.105406e+05   7.152553e+05
   1.457539e+05   4.812662e+05
   1.301870e+05  -6.545195e+04
   2.403476e+05  -2.601676e+05
   2.707178e+05   2.358914e+05
  -1.073684e+05   9.809148e+05
  -8.967869e+05   1.093298e+06
  -1.427432e+06   2.207448e+05
  -9.253996e+05  -9.126623e+05
   4.068734e+05  -1.197796e+06
   1.298269e+06  -4.001753e+05
   7.551687e+05   5.528615e+05
  -7.119571e+05   6.504237e+05
  -1.577076e+06  -1.058190e+05
  -9.554279e+05  -8.678143e+05
   5.230781e+05  -9.567411e+05
   1.485896e+06  -4.278999e+05
   1.195266e+06   2.137778e+05
   1.150060e+05   5.024746e+05
  -6.555243e+05   2.531671e+05
  -4.060318e+05  -3.086785e+05
   5.591823e+05  -5.609690e+05
   1.200434e+06   2.483797e+04
   7.442037e+05   1.161596e+06
  -5.098750e+05   1.748833e+06
  -1.453692e+06   9.555716e+05
  -1.281064e+06  -7.201723e+05
  -2.423207e+05  -1.786071e+06
   7.206347e+05  -1.283465e+06
   9.199149e+05   1.973535e+05
   4.140253e+05   1.193438e+06
  -2.518345e+05   9.466632e+05
  -5.763926e+05   7.158409e+04
  -4.391931e+05  -3.616334e+05
  -1.279189e+05  -1.204759e+05
  -6.172424e+04   8.328331e+04
  -3.407741e+05  -3.228699e+05
  -5.481798e+05  -9.754137e+05
  -1.611901e+05  -1.067982e+06
   7.662039e+05  -3.956559e+05
   1.480710e+06   4.404752e+05
   1.252937e+06   8.162613e+05
   1.911382e+05   7.080659e+05
  -8.087862e+05   4.437484e+05
  -9.688272e+05   1.854003e+05
  -3.970334e+05  -7.405824e+04
   1.258239e+05  -2.350204e+05
   8.031172e+04  -1.787483e+05
  -2.164952e+05  -5.728390e+04
  -7.511082e+04  -1.308298e+05
   6.036242e+05  -2.768496e+05
   1.062026e+06  -2.955608e+04
   5.324538e+05   7.006625e+05
  -7.681249e+05   1.243469e+06
  -1.732959e+06   8.432469e+05
  -1.503449e+06  -3.707735e+05
  -3.364116e+05  -1.401092e+06
   7.531626e+05  -1.423785e+06
   1.046883e+06  -6.083245e+05
   6.604233e+05   1.846164e+05
   1.687997e+05   3.600185e+05
  -2.228500e+04   1.051105e+05
   9.738560e+04   2.034553e+04
   2.850870e+05   3.783510e+05
   2.477396e+05   8.070880e+05
  -1.509060e+05   7.026145e+05
  -6.811547e+05  -6.289044e+04
  -8.093625e+05  -9.011574e+05
  -2.106211e+05  -1.046277e+06
   7.200992e+05  -3.299205e+05
   1.087125e+06   6.439368e+05
   4.224800e+05   1.092887e+06
  -6.909369e+05   7.481656e+05
  -1.159338e+06  -2.538485e+04
  -5.854176e+05  -6.415946e+05
   2.750250e+05  -7.443330e+05
   4.184808e+05  -3.925141e+05
  -1.993565e+05   2.130286e+04
  -6.405887e+05   6.915975e+04
  -1.749478e+05  -3.170548e+05
   8.111513e+05  -7.027836e+05
   1.295745e+06  -5.418810e+05
   8.240396e+05   1.990418e+05
  -6.623565e+04   9.008324e+05
  -5.768371e+05   8.998976e+05
  -4.784290e+05   2.121639e+05
  -9.883277e+04  -4.612221e+05
   2.184504e+05  -4.761956e+05
   3.594183e+05   8.939669e+04
   2.831812e+05   5.724275e+05
  -2.816667e+04   4.769700e+05
  -3.990590e+05  -1.091162e+04
  -5.042695e+05  -3.013748e+05
  -2.468383e+05  -1.191392e+05
   6.205078e+04   1.890848e+05
   8.184589e+04   1.188703e+05
  -9.258511e+04  -3.284675e+05
  -6.121162e+04  -6.144386e+05
   2.879090e+05  -3.214598e+05
   5.429638e+05   3.118021e+05
   2.678830e+05   6.444340e+05
  -3.769589e+05   3.574343e+05
  -7.148193e+05  -2.269633e+05
  -3.030941e+05  -5.508699e+05
   5.140864e+05  -3.937295e+05
   9.238191e+05   2.331665e+04
   5.120016e+05   3.631595e+05
  -2.835934e+05   4.518829e+05
  -6.521486e+05   2.986884e+05
  -2.915312e+05   3.386996e+04
   2.939083e+05  -1.246286e+05
   3.947385e+05  -7.814386e+03
  -1.122367e+05   2.687713e+05
  -6.660500e+05   3.072258e+05
