
 $NMID
 id='ANONYMOUS ', fmtdat='(2E16.6)'
 volume=1.0
 tramp=1.0
 $END
  -2.251198e+07   3.087634e+05
  -1.543345e+07  -1.019702e+07
  -4.258434e+05  -1.431504e+07
   9.646151e+06  -9.933982e+06
   8.443077e+06  -1.287577e+06
   7.043485e+05   4.154676e+06
  -4.699664e+06   2.294983e+06
  -3.722251e+06  -3.635136e+06
   9.396721e+05  -6.512459e+06
   4.304377e+06  -3.009487e+06
   3.783478e+06   2.949023e+06
   5.065230e+05   4.871837e+06
  -2.234594e+06   9.969683e+05
  -1.825230e+06  -4.096587e+06
   1.306412e+06  -4.851522e+06
   3.891406e+06  -5.593116e+05
   2.981108e+06   4.484037e+06
  -9.241161e+05   5.770195e+06
  -4.331443e+06   2.776374e+06
  -4.422277e+06  -1.296825e+06
  -1.840772e+06  -3.148469e+06
   3.216715e+05  -2.398890e+06
  -3.689973e+04  -1.286057e+06
  -1.869079e+06  -1.804312e+06
  -2.176022e+06  -3.474621e+06
   6.730414e+05  -4.054728e+06
   4.802472e+06  -2.207967e+06
   6.329436e+06   9.462485e+05
   3.418809e+06   2.985582e+06
  -1.374955e+06   2.516345e+06
  -3.507762e+06   2.447369e+05
  -1.276433e+06  -1.816623e+06
   2.464018e+06  -1.909781e+06
   3.717326e+06   1.890532e+05
   1.698041e+06   2.795212e+06
  -9.424037e+05   3.480965e+06
  -1.635870e+06   1.440093e+06
  -4.951371e+05  -1.258298e+06
   6.048075e+05  -1.619733e+06
   4.175625e+05   7.463469e+05
  -7.505051e+05   2.880553e+06
  -1.777963e+06   1.953263e+06
  -1.676205e+06  -1.149880e+06
  -2.190056e+05  -2.792116e+06
   1.608728e+06  -9.962927e+05
   1.980782e+06   2.224534e+06
  -8.070217e+04   3.325176e+06
  -3.163174e+06   1.179810e+06
  -4.323240e+06  -2.063149e+06
  -2.061535e+06  -3.550784e+06
   1.825974e+06  -2.389390e+06
   3.884629e+06   5.277920e+04
   2.488807e+06   1.717150e+06
  -6.310032e+05   1.542369e+06
  -2.366196e+06   1.115511e+05
  -1.415431e+06  -1.015638e+06
   6.709728e+05  -7.697967e+05
   1.429231e+06   4.301494e+05
   1.659790e+05   1.185686e+06
  -1.423319e+06   6.355813e+05
  -1.255140e+06  -6.609938e+05
   7.228225e+05  -1.336507e+06
   2.356998e+06  -5.328163e+05
   1.603888e+06   1.341403e+06
  -1.207033e+06   2.876035e+06
  -3.688767e+06   2.667959e+06
  -3.885284e+06   4.862513e+05
  -2.101587e+06  -2.306370e+06
  -1.894498e+05  -3.783284e+06
   5.770025e+05  -3.246465e+06
   5.394314e+05  -1.837028e+06
   7.648074e+05  -1.070898e+06
   1.631014e+06  -1.011998e+06
   2.475408e+06  -4.443175e+05
   2.370168e+06   1.167681e+06
   1.032722e+06   2.591692e+06
  -8.607091e+05   2.167433e+06
  -2.056275e+06  -8.731632e+04
  -1.595080e+06  -2.262300e+06
   3.156482e+05  -2.484015e+06
   2.243887e+06  -7.197751e+05
   2.665322e+06   1.420585e+06
   1.388570e+06   2.380509e+06
  -2.785606e+05   1.957149e+06
  -9.760105e+05   1.103276e+06
  -7.803668e+05   7.469709e+05
  -9.478996e+05   8.934408e+05
  -2.151186e+06   7.655502e+05
  -3.352160e+06  -2.878757e+05
  -2.811820e+06  -2.016099e+06
  -1.902715e+05  -3.327811e+06
   2.722932e+06  -3.148269e+06
   3.635357e+06  -1.378484e+06
   2.036410e+06   8.517076e+05
  -3.372572e+05   1.975414e+06
  -1.317847e+06   1.318729e+06
  -3.992147e+05  -2.154344e+05
   1.047687e+06  -9.717094e+05
   1.423200e+06  -2.575998e+05
   4.967186e+05   8.887700e+05
  -5.998206e+05   9.245733e+05
  -6.755442e+05  -2.661218e+05
   3.731185e+05  -1.091396e+06
   1.532417e+06  -1.228904e+05
   1.570761e+06   2.061715e+06
   7.800032e+04   3.326284e+06
  -2.092047e+06   2.248581e+06
  -3.361529e+06  -3.833010e+05
  -2.701218e+06  -2.440887e+06
  -6.213720e+05  -2.568350e+06
   1.185300e+06  -1.265276e+06
   1.416684e+06  -6.866771e+04
   4.116517e+05   3.998949e+04
  -3.127956e+05  -6.106027e+05
   2.092996e+05  -9.799908e+05
   1.324333e+06  -4.740833e+05
   1.572278e+06   4.934696e+05
   4.506185e+05   9.931655e+05
  -9.047583e+05   5.555692e+05
  -9.341489e+05  -3.489736e+05
   5.672028e+05  -7.606872e+05
   2.095470e+06  -1.382296e+05
   1.955389e+06   1.120244e+06
   4.956806e+04   1.982081e+06
  -1.973438e+06   1.654668e+06
  -2.369012e+06   3.215073e+05
  -9.959975e+05  -9.307082e+05
   6.660345e+05  -1.064887e+06
   1.071851e+06  -1.212995e+05
   5.418317e+04   7.731970e+05
  -1.209179e+06   5.751502e+05
  -1.455401e+06  -5.332706e+05
  -4.932879e+05  -1.352706e+06
   7.380553e+05  -1.030078e+06
   1.116347e+06   1.225708e+03
   3.987576e+05   5.693645e+05
  -5.401743e+05   9.306951e+04
  -5.635811e+05  -8.356186e+05
   5.274198e+05  -1.145629e+06
   1.685618e+06  -3.810621e+05
   1.655071e+06   9.050031e+05
   3.241755e+05   1.690096e+06
  -1.112942e+06   1.371624e+06
  -1.405311e+06   2.654243e+05
  -5.096600e+05  -6.780070e+05
   4.987709e+05  -7.302065e+05
   6.459342e+05  -5.388963e+04
  -1.010881e+03   5.141939e+05
  -5.830195e+05   3.922715e+05
  -4.447356e+05  -1.187315e+05
   2.044072e+05  -2.391725e+05
   5.453646e+05   3.191946e+05
   8.282955e+03   9.544142e+05
  -1.085940e+06   8.055046e+05
  -1.740255e+06  -3.013857e+05
  -1.221423e+06  -1.603986e+06
   1.774056e+05  -2.077556e+06
   1.382471e+06  -1.351243e+06
   1.584327e+06  -2.125618e+04
   9.638230e+05   9.036016e+05
   3.380935e+05   9.127992e+05
   2.070923e+05   4.036506e+05
   3.013903e+05   1.708530e+05
   5.025359e+04   4.905152e+05
  -6.580219e+05   8.052740e+05
  -1.264180e+06   4.045642e+05
  -1.056655e+06  -6.477751e+05
   9.528891e+04  -1.425397e+06
   1.468763e+06  -1.051554e+06
   1.976037e+06   3.580863e+05
   1.080091e+06   1.727214e+06
  -6.614012e+05   1.987166e+06
  -2.004777e+06   1.011433e+06
  -2.077264e+06  -3.532449e+05
  -1.080383e+06  -1.120178e+06
   2.875148e+04  -1.029779e+06
   4.920071e+05  -6.392553e+05
   3.577700e+05  -6.019339e+05
   2.245875e+05  -9.155765e+05
   5.074292e+05  -9.507709e+05
   9.941543e+05  -2.285418e+05
   1.084628e+06   9.260609e+05
   4.478547e+05   1.607972e+06
  -5.493080e+05   1.212848e+06
  -1.104705e+06   3.861725e+04
  -7.426446e+05  -9.938280e+05
   1.828253e+05  -1.166762e+06
   8.180218e+05  -5.181560e+05
   6.716370e+05   3.251001e+05
   8.239029e+04   7.656741e+05
  -2.235992e+05   6.975700e+05
   1.966220e+04   4.453673e+05
   3.220217e+05   3.318518e+05
   2.259808e+04   3.433416e+05
  -8.892935e+05   2.112415e+05
  -1.629816e+06  -2.258328e+05
  -1.365595e+06  -7.919924e+05
  -1.133154e+05  -1.106696e+06
   1.171357e+06  -9.212384e+05
   1.486672e+06  -3.419953e+05
   7.607331e+05   2.290195e+05
  -1.423982e+05   3.944964e+05
  -3.830124e+05   1.072516e+05
   2.844452e+04  -2.415569e+05
   4.334178e+05  -1.825713e+05
   3.834686e+05   2.924313e+05
   7.365710e+04   6.466831e+05
  -4.951499e+04   4.106769e+05
   1.342733e+05  -1.748945e+05
   3.454510e+05  -3.624749e+05
   2.596277e+05   1.812541e+05
  -1.893605e+05   8.786804e+05
  -7.527167e+05   8.739920e+05
  -9.864899e+05   5.949837e+04
  -5.569650e+05  -7.747073e+05
   3.492493e+05  -8.331902e+05
   9.668620e+05  -1.526093e+05
   5.964907e+05   5.300113e+05
  -5.599795e+05   5.773078e+05
  -1.409305e+06  -6.111355e+03
  -1.037379e+06  -7.008441e+05
   2.790024e+05  -9.576475e+05
   1.315572e+06  -5.997201e+05
   1.175608e+06   6.398895e+04
   1.844234e+05   4.720335e+05
  -5.379051e+05   2.952133e+05
  -2.834426e+05  -2.059312e+05
   5.604560e+05  -3.741046e+05
   9.892047e+05   1.742607e+05
   4.408208e+05   1.056227e+06
  -6.544903e+05   1.389960e+06
  -1.336904e+06   6.517542e+05
  -1.059549e+06  -7.071009e+05
  -1.415037e+05  -1.567189e+06
   6.485499e+05  -1.177940e+06
   8.221417e+05   7.363835e+04
   4.532011e+05   1.018530e+06
  -8.435335e+04   9.003734e+05
  -4.521510e+05   1.185988e+05
  -4.800533e+05  -3.495204e+05
  -2.292225e+05  -1.517540e+05
  -8.778935e+03   1.112879e+05
  -1.119342e+05  -1.884791e+05
  -3.853121e+05  -8.058114e+05
  -2.664312e+05  -9.542349e+05
   4.934204e+05  -3.608995e+05
   1.285446e+06   4.136033e+05
   1.200069e+06   7.324057e+05
   1.683920e+05   5.812513e+05
  -8.261776e+05   3.410252e+05
  -8.834206e+05   1.828773e+05
  -2.372096e+05   7.982203e+03
   1.614644e+05  -1.820830e+05
  -6.989916e+04  -2.326389e+05
  -3.353866e+05  -1.482941e+05
   1.565303e+03  -1.200534e+05
   6.878964e+05  -1.472247e+05
   8.821723e+05   5.749485e+04
   1.999922e+05   5.749341e+05
  -8.409660e+05   9.263010e+05
  -1.390741e+06   5.438316e+05
  -1.064256e+06  -4.488553e+05
  -1.689361e+05  -1.226375e+06
   6.489722e+05  -1.130581e+06
   9.026105e+05  -3.699041e+05
   5.707085e+05   2.708418e+05
   6.209359e+04   3.054896e+05
  -1.518346e+05  -1.136583e+04
   3.797883e+04  -8.703466e+04
   3.024046e+05   2.894530e+05
   2.411233e+05   6.973293e+05
  -1.860336e+05   5.547458e+05
  -5.989046e+05  -1.875865e+05
  -5.501444e+05  -8.948847e+05
   3.397738e+04  -8.690692e+05
   7.070187e+05  -9.708543e+04
   8.350886e+05   7.266227e+05
   2.109448e+05   9.308493e+05
  -6.367227e+05   4.906669e+05
  -9.045873e+05  -1.128417e+05
  -3.881992e+05  -4.636775e+05
   2.483176e+05  -4.837734e+05
   2.488919e+05  -2.889241e+05
  -2.998979e+05  -5.096234e+04
  -5.795531e+05   5.308095e+03
  -8.883167e+04  -2.476832e+05
   7.198192e+05  -5.772067e+05
   1.013323e+06  -5.084168e+05
   5.615652e+05   9.243391e+04
  -1.062710e+05   7.054759e+05
  -4.092442e+05   6.874740e+05
  -2.753518e+05   6.842300e+04
   1.268501e+04  -4.460209e+05
   2.285849e+05  -3.182020e+05
   3.001157e+05   2.129079e+05
   1.924563e+05   5.016047e+05
  -7.288110e+04   2.902957e+05
  -3.285691e+05  -8.145379e+04
  -3.748135e+05  -1.930271e+05
  -2.063560e+05  -3.744463e+04
  -1.188760e+04   6.476381e+04
   7.340547e+04  -9.125050e+04
   1.105182e+05  -3.498633e+05
   2.090604e+05  -3.753464e+05
   3.225360e+05  -3.182078e+04
   2.734426e+05   4.256765e+05
  -2.289364e+04   5.645617e+05
  -3.953055e+05   2.185543e+05
  -5.061423e+05  -3.051585e+05
  -1.616951e+05  -5.267784e+05
   4.175827e+05  -2.900187e+05
   7.038527e+05   1.189183e+05
   3.769411e+05   3.348783e+05
  -2.580733e+05   2.753479e+05
  -5.271757e+05   1.073889e+05
  -1.512974e+05  -5.955779e+02
   3.828937e+05   1.729056e+04
   3.781051e+05   1.545937e+05
  -2.242545e+05   2.957585e+05
  -7.594574e+05   2.070936e+05
