
 $NMID
 id='ANONYMOUS ', fmtdat='(2E16.6)'
 volume=1.0
 tramp=1.0
 $END
  -5.295548e+07   1.659256e+06
  -3.302878e+07  -3.148833e+07
   5.595904e+06  -3.597630e+07
   2.539540e+07  -1.492981e+07
   1.586258e+07   5.754445e+06
  -2.661353e+06   8.905448e+06
  -9.345215e+06  -6.195894e+05
  -3.125501e+06  -9.081396e+06
   5.423437e+06  -9.204425e+06
   9.054144e+06  -2.352227e+06
   6.841837e+06   5.666478e+06
   1.034556e+06   8.187348e+06
  -3.726737e+06   2.688033e+06
  -2.698842e+06  -5.205539e+06
   3.333828e+06  -6.460586e+06
   7.506526e+06   9.325012e+05
   4.580074e+06   9.501191e+06
  -3.159378e+06   1.129471e+07
  -9.352022e+06   5.886679e+06
  -1.023169e+07  -1.650541e+06
  -6.378997e+06  -6.855861e+06
  -8.582546e+05  -8.019701e+06
   2.452955e+06  -5.682924e+06
   1.438240e+06  -2.656192e+06
  -1.252816e+06  -2.224901e+06
  -2.945343e+05  -4.125558e+06
   5.179616e+06  -4.331406e+06
   9.284047e+06  -6.536231e+05
   6.799166e+06   3.788446e+06
   2.593749e+05   4.794095e+06
  -3.595976e+06   2.459969e+06
  -2.350813e+06  -7.210760e+04
   7.385813e+05  -1.035826e+06
   2.377451e+06  -4.953402e+05
   2.180690e+06   1.477362e+06
   6.632906e+05   3.844523e+06
  -1.659094e+06   3.669411e+06
  -2.971364e+06  -1.069425e+05
  -1.603748e+06  -3.380662e+06
   6.803306e+05  -1.698085e+06
   3.161375e+05   2.469612e+06
  -2.316526e+06   2.332348e+06
  -2.458888e+06  -2.919820e+06
   1.994567e+06  -5.869874e+06
   6.398232e+06  -1.213642e+06
   5.010984e+06   6.311613e+06
  -1.484660e+06   8.066463e+06
  -6.928866e+06   2.510791e+06
  -6.806223e+06  -4.007849e+06
  -2.031234e+06  -5.724196e+06
   3.231940e+06  -2.770425e+06
   5.155224e+06   1.234488e+06
   2.521289e+06   3.241969e+06
  -2.178607e+06   2.197984e+06
  -4.336012e+06  -6.928577e+05
  -1.971790e+06  -2.495603e+06
   1.574016e+06  -1.359028e+06
   1.734104e+06   9.183500e+05
  -1.153861e+06   9.799296e+05
  -2.424145e+06  -1.452777e+06
   3.362262e+05  -3.189723e+06
   4.190393e+06  -1.981299e+06
   5.048644e+06   1.018151e+06
   2.359927e+06   3.648417e+06
  -1.586351e+06   5.075229e+06
  -4.724548e+06   4.768708e+06
  -5.904337e+06   1.804855e+06
  -4.427405e+06  -2.931286e+06
  -1.051954e+06  -5.900262e+06
   1.597507e+06  -4.668380e+06
   1.611047e+06  -1.327887e+06
   2.301224e+05   1.242486e+05
   9.811043e+04  -9.768212e+05
   1.627735e+06  -1.706026e+06
   2.759050e+06  -1.913168e+05
   1.989210e+06   1.929753e+06
   6.146217e+03   2.144762e+06
  -1.593903e+06   2.232155e+05
  -1.730690e+06  -2.044486e+06
  -5.969343e+04  -2.891636e+06
   2.665927e+06  -1.647792e+06
   4.332150e+06   1.077312e+06
   3.158228e+06   3.528820e+06
   6.771506e+04   4.011289e+06
  -2.070808e+06   2.632896e+06
  -2.062501e+06   1.167771e+06
  -1.732425e+06   7.562672e+05
  -2.858260e+06   5.901164e+05
  -4.283004e+06  -5.950154e+05
  -3.506307e+06  -2.602425e+06
  -2.515907e+05  -4.057066e+06
   3.058035e+06  -3.928409e+06
   4.070954e+06  -2.175233e+06
   2.616176e+06   3.838957e+05
   2.852814e+05   2.206513e+06
  -1.065640e+06   1.913664e+06
  -5.506960e+05  -3.539037e+04
   1.049981e+06  -1.313221e+06
   1.858124e+06  -4.412419e+05
   9.213504e+05   1.153909e+06
  -4.946820e+05   1.114287e+06
  -4.610937e+05  -3.697772e+05
   9.930601e+05  -7.632770e+05
   1.872771e+06   1.119899e+06
   8.231705e+05   3.357909e+06
  -1.362748e+06   3.457009e+06
  -3.031803e+06   1.295750e+06
  -3.358891e+06  -1.271305e+06
  -2.386225e+06  -2.679188e+06
  -5.365513e+05  -2.599063e+06
   1.198764e+06  -1.484149e+06
   1.561514e+06  -2.587430e+05
   4.889354e+05   3.210099e+04
  -3.758943e+05  -7.339298e+05
   3.630469e+05  -1.329443e+06
   1.853889e+06  -6.246511e+05
   2.029867e+06   8.066542e+05
   4.288859e+05   1.380307e+06
  -1.141592e+06   6.023848e+05
  -9.058777e+05  -4.273347e+05
   8.202977e+05  -5.604758e+05
   2.189311e+06   2.346881e+05
   1.796288e+06   1.300293e+06
  -1.798541e+05   1.982289e+06
  -2.247697e+06   1.716749e+06
  -2.744569e+06   3.498232e+05
  -1.238859e+06  -1.213471e+06
   8.633631e+05  -1.501226e+06
   1.525964e+06  -2.284034e+05
   2.214765e+05   1.056917e+06
  -1.480428e+06   7.684661e+05
  -1.726107e+06  -7.231116e+05
  -3.899917e+05  -1.629309e+06
   1.048784e+06  -1.010045e+06
   1.260102e+06   2.628707e+05
   2.748385e+05   7.654346e+05
  -7.824123e+05   7.835183e+04
  -7.562381e+05  -1.023187e+06
   5.357690e+05  -1.425974e+06
   1.977637e+06  -5.882821e+05
   2.045169e+06   9.886745e+05
   4.363468e+05   2.046016e+06
  -1.380647e+06   1.668388e+06
  -1.705738e+06   2.585516e+05
  -5.255650e+05  -8.469462e+05
   6.305183e+05  -8.173804e+05
   6.323237e+05  -9.102093e+04
  -1.048330e+05   3.725123e+05
  -4.925459e+05   2.298277e+05
  -1.406170e+05  -6.735014e+04
   4.397135e+05   4.773307e+04
   5.383350e+05   6.413421e+05
  -1.646165e+05   1.182087e+06
  -1.344744e+06   9.277194e+05
  -2.076411e+06  -3.537203e+05
  -1.505002e+06  -1.888260e+06
   1.506386e+05  -2.409933e+06
   1.567082e+06  -1.451775e+06
   1.688082e+06   7.535293e+04
   8.852520e+05   8.752713e+05
   3.333636e+05   6.565449e+05
   4.683184e+05   2.146361e+05
   6.197416e+05   2.883194e+05
   1.101102e+05   7.482038e+05
  -8.420323e+05   9.195721e+05
  -1.431124e+06   3.661304e+05
  -1.068133e+06  -6.918205e+05
   2.055618e+05  -1.464462e+06
   1.681795e+06  -1.116086e+06
   2.247070e+06   4.185725e+05
   1.186011e+06   2.052561e+06
  -9.309172e+05   2.374635e+06
  -2.489990e+06   1.097437e+06
  -2.355176e+06  -5.837703e+05
  -9.959022e+05  -1.304244e+06
   1.744203e+05  -9.549118e+05
   3.812386e+05  -5.249588e+05
   7.046653e+04  -7.462408e+05
   7.261586e+04  -1.290283e+06
   6.272402e+05  -1.290633e+06
   1.270470e+06  -3.497602e+05
   1.354497e+06   1.036091e+06
   6.027518e+05   1.865011e+06
  -5.791579e+05   1.442719e+06
  -1.276699e+06   3.381114e+04
  -8.431172e+05  -1.248347e+06
   3.440429e+05  -1.395944e+06
   1.136987e+06  -4.415145e+05
   8.243161e+05   6.593336e+05
  -8.506013e+04   1.065682e+06
  -5.023841e+05   7.931227e+05
  -7.017550e+04   4.192308e+05
   4.373132e+05   3.228262e+05
   6.888733e+04   3.792932e+05
  -1.131244e+06   2.412913e+05
  -2.052342e+06  -2.710588e+05
  -1.633301e+06  -9.818307e+05
  -7.061571e+03  -1.421970e+06
   1.539758e+06  -1.174526e+06
   1.808436e+06  -3.291753e+05
   8.436308e+05   4.617375e+05
  -2.403803e+05   5.693384e+05
  -5.056629e+05   5.027975e+04
  -4.122748e+04  -4.131659e+05
   4.336526e+05  -2.676330e+05
   4.869988e+05   3.256384e+05
   2.685055e+05   7.102588e+05
   1.058741e+05   4.721142e+05
   1.346903e+05  -9.991874e+04
   2.722670e+05  -2.997824e+05
   2.805514e+05   2.228607e+05
  -1.141347e+05   9.834983e+05
  -8.620782e+05   1.083153e+06
  -1.343512e+06   2.124431e+05
  -8.695335e+05  -8.821866e+05
   3.783972e+05  -1.141107e+06
   1.236623e+06  -3.704248e+05
   7.444370e+05   5.478254e+05
  -6.786638e+05   6.639126e+05
  -1.580356e+06  -5.099623e+04
  -1.023587e+06  -8.303711e+05
   4.536528e+05  -9.967476e+05
   1.476297e+06  -5.166493e+05
   1.230275e+06   1.565495e+05
   1.470520e+05   5.073134e+05
  -6.381836e+05   2.851807e+05
  -3.907723e+05  -2.812460e+05
   5.644519e+05  -5.366460e+05
   1.177449e+06   4.289253e+04
   7.052426e+05   1.151201e+06
  -5.297251e+05   1.710608e+06
  -1.444834e+06   9.283188e+05
  -1.271691e+06  -7.125333e+05
  -2.565890e+05  -1.773667e+06
   6.975392e+05  -1.306428e+06
   9.248151e+05   1.514212e+05
   4.604474e+05   1.173305e+06
  -1.953768e+05   9.677878e+05
  -5.583472e+05   9.815170e+04
  -4.702395e+05  -3.611274e+05
  -1.615465e+05  -1.309292e+05
  -4.762526e+04   9.492765e+04
  -2.949052e+05  -2.876771e+05
  -5.389661e+05  -9.464189e+05
  -2.155200e+05  -1.066025e+06
   7.063606e+05  -4.138918e+05
   1.479314e+06   4.172300e+05
   1.291305e+06   7.936808e+05
   2.046041e+05   6.905105e+05
  -8.285624e+05   4.436716e+05
  -9.705961e+05   2.088334e+05
  -3.668279e+05  -4.526425e+04
   1.345868e+05  -2.295424e+05
   3.842715e+04  -2.013262e+05
  -2.560410e+05  -8.074993e+04
  -5.876640e+04  -1.298763e+05
   6.386588e+05  -2.601532e+05
   1.042967e+06  -2.748617e+04
   4.708011e+05   6.747816e+05
  -7.856038e+05   1.207028e+06
  -1.672600e+06   8.205539e+05
  -1.433771e+06  -3.722708e+05
  -3.276688e+05  -1.387240e+06
   7.183956e+05  -1.400179e+06
   1.025393e+06  -5.813291e+05
   6.582324e+05   2.008927e+05
   1.515437e+05   3.518827e+05
  -5.581630e+04   7.579914e+04
   8.504327e+04  -1.075015e+04
   3.059210e+05   3.599544e+05
   2.690000e+05   7.961902e+05
  -1.509744e+05   6.853717e+05
  -6.790812e+05  -8.578676e+04
  -7.789612e+05  -9.093286e+05
  -1.703539e+05  -1.023045e+06
   7.301387e+05  -2.892603e+05
   1.061568e+06   6.637747e+05
   3.983521e+05   1.071486e+06
  -6.808715e+05   7.128588e+05
  -1.123625e+06  -2.686879e+04
  -5.617223e+05  -5.995491e+05
   2.602737e+05  -7.001344e+05
   3.763257e+05  -3.845838e+05
  -2.320022e+05   5.175675e+03
  -6.411050e+05   6.602731e+04
  -1.628575e+05  -3.035713e+05
   7.961553e+05  -7.048352e+05
   1.246226e+06  -5.747507e+05
   7.807699e+05   1.585657e+05
  -6.110412e+04   8.748251e+05
  -5.297156e+05   8.800697e+05
  -4.319378e+05   1.892345e+05
  -7.984754e+04  -4.681338e+05
   2.177864e+05  -4.509293e+05
   3.546430e+05   1.188626e+05
   2.777975e+05   5.640556e+05
  -3.116026e+04   4.400669e+05
  -3.912555e+05  -2.270073e+04
  -4.899768e+05  -2.702893e+05
  -2.457894e+05  -9.535839e+04
   4.791863e+04   1.589059e+05
   8.554185e+04   6.310828e+04
  -4.554002e+04  -3.410103e+05
  -1.836431e+03  -5.640642e+05
   2.980454e+05  -2.565905e+05
   4.901024e+05   3.404071e+05
   2.085162e+05   6.346846e+05
  -3.855848e+05   3.367986e+05
  -6.824128e+05  -2.404588e+05
  -2.836756e+05  -5.539960e+05
   4.947924e+05  -3.871337e+05
   8.905835e+05   3.159198e+04
   4.970304e+05   3.557129e+05
  -2.753962e+05   4.222365e+05
  -6.303061e+05   2.679829e+05
  -2.607922e+05   3.177676e+04
   3.237820e+05  -9.423566e+04
   4.006363e+05   2.907618e+04
  -1.414837e+05   2.854887e+05
  -7.050261e+05   3.006342e+05
