
 $NMID
 id='ANONYMOUS ', fmtdat='(2E16.6)'
 volume=1.0
 tramp=1.0
 $END
  -1.484569e+07  -8.551868e+05
  -8.203381e+06  -9.903405e+06
   2.773073e+06  -9.922292e+06
   7.486057e+06  -3.152610e+06
   4.022979e+06   2.316776e+06
  -1.132626e+06   2.332951e+06
  -2.455230e+06  -6.341379e+05
  -4.083182e+05  -2.572163e+06
   1.808493e+06  -2.149167e+06
   2.491135e+06  -2.483645e+05
   1.697926e+06   1.681904e+06
   1.117640e+05   2.179117e+06
  -1.050599e+06   6.866457e+05
  -6.062819e+05  -1.326549e+06
   1.050567e+06  -1.517563e+06
   1.981409e+06   5.235433e+05
   9.516394e+05   2.701690e+06
  -1.184035e+06   2.973103e+06
  -2.722180e+06   1.390775e+06
  -2.826006e+06  -6.636634e+05
  -1.695764e+06  -2.079416e+06
  -7.271366e+04  -2.375734e+06
   9.617031e+05  -1.602192e+06
   6.839295e+05  -5.757132e+05
  -2.067758e+05  -3.724895e+05
  -1.131544e+05  -9.653244e+05
   1.303569e+06  -1.112233e+06
   2.418206e+06  -1.237883e+05
   1.788540e+06   1.087826e+06
   1.023254e+05   1.338939e+06
  -9.016899e+05   7.223771e+05
  -6.757385e+05   9.503353e+04
  -8.687153e+03  -1.896295e+05
   4.330768e+05  -1.879463e+05
   5.579834e+05   2.434216e+05
   2.530771e+05   9.500127e+05
  -4.721220e+05   1.019553e+06
  -9.319252e+05  -1.140567e+04
  -4.874763e+05  -1.002101e+06
   2.608401e+05  -5.983114e+05
   1.574329e+05   5.496134e+05
  -6.064826e+05   5.234520e+05
  -5.502770e+05  -8.696147e+05
   8.000066e+05  -1.531560e+06
   1.909896e+06  -9.987119e+04
   1.239336e+06   1.938765e+06
  -6.765505e+05   2.210345e+06
  -1.976671e+06   5.189506e+05
  -1.673782e+06  -1.222063e+06
  -3.382350e+05  -1.513850e+06
   8.982817e+05  -5.891009e+05
   1.236182e+06   4.755657e+05
   4.974305e+05   8.992038e+05
  -6.752835e+05   4.920657e+05
  -1.132434e+06  -3.285503e+05
  -4.312033e+05  -7.351656e+05
   4.686682e+05  -3.205414e+05
   3.964957e+05   2.781464e+05
  -3.882104e+05   1.534297e+05
  -5.686837e+05  -5.751008e+05
   3.261956e+05  -9.094257e+05
   1.307623e+06  -3.708779e+05
   1.338521e+06   4.985315e+05
   5.039645e+05   1.083102e+06
  -5.034566e+05   1.324647e+06
  -1.266755e+06   1.197100e+06
  -1.574174e+06   4.169478e+05
  -1.170051e+06  -8.264814e+05
  -2.018772e+05  -1.562095e+06
   5.406990e+05  -1.141881e+06
   4.628631e+05  -2.067936e+05
  -3.183225e+04   1.273562e+05
  -1.124414e+05  -2.574376e+05
   3.388374e+05  -5.089207e+05
   6.966369e+05  -1.319494e+05
   5.359473e+05   4.183343e+05
   6.169523e+04   5.039050e+05
  -3.257789e+05   7.543670e+04
  -3.873317e+05  -4.611144e+05
  -8.466025e+03  -7.000896e+05
   6.816878e+05  -4.199910e+05
   1.131028e+06   2.989770e+05
   8.116460e+05   9.824176e+05
  -4.769275e+04   1.107024e+06
  -6.372091e+05   6.870539e+05
  -6.085264e+05   2.477666e+05
  -4.682856e+05   1.190501e+05
  -7.120437e+05   6.841383e+04
  -1.038626e+06  -2.315389e+05
  -8.134051e+05  -6.958213e+05
  -1.599132e+03  -9.869741e+05
   7.815961e+05  -9.185502e+05
   1.001668e+06  -5.120915e+05
   6.523463e+05   8.453526e+04
   9.410504e+04   5.382922e+05
  -2.513948e+05   4.828604e+05
  -1.422891e+05  -6.205149e+02
   2.592944e+05  -3.168802e+05
   4.684790e+05  -8.589460e+04
   2.283800e+05   3.053669e+05
  -1.176705e+05   2.661088e+05
  -7.660081e+04  -9.216502e+04
   2.812678e+05  -1.139344e+05
   4.091251e+05   3.979204e+05
   4.614114e+04   8.669024e+05
  -4.811299e+05   7.385069e+05
  -7.590692e+05   1.462944e+05
  -7.199677e+05  -4.037489e+05
  -4.745991e+05  -6.416134e+05
  -8.577171e+04  -5.916738e+05
   2.922486e+05  -3.426308e+05
   3.730611e+05  -5.663020e+04
   1.172956e+05   1.338838e+04
  -7.966153e+04  -1.824739e+05
   1.193582e+05  -3.243676e+05
   4.777707e+05  -1.215399e+05
   4.833071e+05   2.441655e+05
   6.974499e+04   3.507829e+05
  -2.868400e+05   1.215540e+05
  -1.945311e+05  -1.124613e+05
   2.094949e+05  -9.221456e+04
   4.899815e+05   1.130811e+05
   3.716519e+05   3.241479e+05
  -8.243298e+04   4.386818e+05
  -5.513848e+05   3.623601e+05
  -6.578834e+05   4.356190e+04
  -2.819289e+05  -3.188783e+05
   2.399495e+05  -3.649680e+05
   3.914371e+05  -3.380703e+04
   4.706881e+04   2.713436e+05
  -3.720097e+05   1.687410e+05
  -4.016830e+05  -2.056244e+05
  -5.400690e+04  -3.940477e+05
   2.751304e+05  -2.063300e+05
   2.873429e+05   1.006549e+05
   3.678708e+04   1.901387e+05
  -1.996580e+05   1.306763e+03
  -1.728788e+05  -2.615031e+05
   1.439371e+05  -3.421481e+05
   4.849158e+05  -1.239705e+05
   4.852647e+05   2.620475e+05
   7.846798e+04   5.019138e+05
  -3.610951e+05   3.825279e+05
  -4.147591e+05   3.229210e+04
  -1.065290e+05  -2.121653e+05
   1.650740e+05  -1.820423e+05
   1.427710e+05  -1.775208e+04
  -3.381269e+04   6.664810e+04
  -1.006825e+05   3.362443e+04
  -3.645056e+03  -3.895300e+03
   1.133834e+05   4.845958e+04
   1.057464e+05   1.802989e+05
  -7.149640e+04   2.817650e+05
  -3.402782e+05   2.000825e+05
  -4.946962e+05  -1.148177e+05
  -3.390828e+05  -4.752516e+05
   6.473240e+04  -5.734963e+05
   3.877729e+05  -3.156719e+05
   3.866664e+05   4.588805e+04
   1.839929e+05   2.011331e+05
   7.507709e+04   1.267743e+05
   1.332790e+05   4.224390e+04
   1.638145e+05   9.101269e+04
   1.611982e+04   1.958804e+05
  -2.195236e+05   2.048027e+05
  -3.412024e+05   6.005564e+04
  -2.338897e+05  -1.712481e+05
   7.257468e+04  -3.288465e+05
   4.123067e+05  -2.349302e+05
   5.261555e+05   1.301499e+05
   2.475516e+05   5.081549e+05
  -2.698828e+05   5.548778e+05
  -6.202962e+05   2.169420e+05
  -5.446048e+05  -1.847007e+05
  -1.980708e+05  -3.189618e+05
   6.075772e+04  -2.022645e+05
   7.760869e+04  -1.065600e+05
   8.560054e+01  -1.888100e+05
   2.509588e+04  -3.294782e+05
   1.748446e+05  -3.132998e+05
   3.191516e+05  -6.992643e+04
   3.171765e+05   2.648138e+05
   1.245652e+05   4.547111e+05
  -1.541202e+05   3.400081e+05
  -3.040357e+05  -1.050769e+04
  -1.798423e+05  -3.166112e+05
   1.131520e+05  -3.282913e+05
   2.887728e+05  -7.197505e+04
   1.844539e+05   1.927596e+05
  -5.399231e+04   2.631454e+05
  -1.503111e+05   1.750541e+05
  -2.787598e+04   8.873129e+04
   1.065400e+05   7.936962e+04
   1.519449e+04   9.085652e+04
  -2.811027e+05   3.929201e+04
  -4.985671e+05  -9.754292e+04
  -3.782355e+05  -2.630051e+05
   3.155857e+04  -3.474444e+05
   4.006119e+05  -2.630064e+05
   4.407934e+05  -4.585267e+04
   1.868299e+05   1.369317e+05
  -7.395041e+04   1.397992e+05
  -1.245425e+05  -2.510387e+03
  -7.218060e+03  -1.117316e+05
   1.025889e+05  -6.409748e+04
   1.153868e+05   8.412801e+04
   7.023674e+04   1.739713e+05
   3.224902e+04   1.174236e+05
   2.936282e+04  -1.405638e+04
   5.578266e+04  -6.078241e+04
   6.195150e+04   5.768499e+04
  -3.129191e+04   2.325410e+05
  -2.213253e+05   2.522629e+05
  -3.430342e+05   3.912342e+04
  -2.138254e+05  -2.262336e+05
   1.078956e+05  -2.817523e+05
   3.138675e+05  -8.442547e+04
   1.757597e+05   1.365519e+05
  -1.731474e+05   1.477161e+05
  -3.704370e+05  -3.628552e+04
  -2.173304e+05  -2.092701e+05
   1.298836e+05  -2.189043e+05
   3.507227e+05  -8.918877e+04
   2.781682e+05   5.799457e+04
   2.345962e+04   1.180683e+05
  -1.558728e+05   5.403773e+04
  -9.329580e+04  -7.741781e+04
   1.373613e+05  -1.305122e+05
   2.862175e+05   1.416925e+04
   1.698130e+05   2.825756e+05
  -1.333080e+05   4.137926e+05
  -3.524487e+05   2.179355e+05
  -2.992489e+05  -1.794858e+05
  -4.530559e+04  -4.247564e+05
   1.783838e+05  -2.980623e+05
   2.144096e+05   5.364736e+04
   8.830718e+04   2.838327e+05
  -6.626047e+04   2.193611e+05
  -1.363472e+05   1.158849e+04
  -1.009646e+05  -8.694279e+04
  -2.910945e+04  -2.730834e+04
  -1.493150e+04   1.825212e+04
  -7.827597e+04  -8.221277e+04
  -1.226284e+05  -2.361188e+05
  -2.983119e+04  -2.514440e+05
   1.849960e+05  -8.531531e+04
   3.472530e+05   1.144614e+05
   2.897721e+05   2.000442e+05
   3.961342e+04   1.689755e+05
  -1.940212e+05   1.013015e+05
  -2.296723e+05   3.734109e+04
  -9.309426e+04  -2.249764e+04
   3.130806e+04  -5.556473e+04
   2.015446e+04  -3.899845e+04
  -5.109335e+04  -1.219591e+04
  -1.740003e+04  -3.246256e+04
   1.448030e+05  -6.426049e+04
   2.527795e+05   6.122114e+02
   1.223618e+05   1.735808e+05
  -1.913733e+05   2.921465e+05
  -4.193027e+05   1.866609e+05
  -3.564648e+05  -1.009768e+05
  -7.059659e+04  -3.353262e+05
   1.898505e+05  -3.319078e+05
   2.542530e+05  -1.374150e+05
   1.564531e+05   4.760356e+04
   3.783577e+04   8.765499e+04
  -6.536150e+03   2.744396e+04
   2.169321e+04   7.007810e+03
   6.365895e+04   9.098909e+04
   5.246187e+04   1.921941e+05
  -4.114230e+04   1.661905e+05
  -1.624366e+05  -1.865569e+04
  -1.876404e+05  -2.201824e+05
  -4.337575e+04  -2.522874e+05
   1.747052e+05  -7.549580e+04
   2.556512e+05   1.602738e+05
   9.298449e+04   2.637834e+05
  -1.707384e+05   1.736837e+05
  -2.759994e+05  -1.512088e+04
  -1.333206e+05  -1.583923e+05
   7.271815e+04  -1.753873e+05
   1.034320e+05  -8.844886e+04
  -4.730736e+04   6.075058e+03
  -1.525558e+05   1.254243e+04
  -3.917944e+04  -7.734863e+04
   1.971158e+05  -1.607751e+05
   3.104407e+05  -1.168264e+05
   1.933460e+05   5.585181e+04
  -2.285830e+04   2.137468e+05
  -1.448889e+05   2.079396e+05
  -1.174229e+05   4.556268e+04
  -2.151733e+04  -1.108238e+05
   5.615062e+04  -1.123266e+05
   8.641946e+04   2.280980e+04
   6.332153e+04   1.380832e+05
  -1.152955e+04   1.142243e+05
  -9.543920e+04  -5.140338e+03
  -1.164920e+05  -7.631295e+04
  -5.657319e+04  -3.055387e+04
   1.234313e+04   4.689547e+04
   1.558869e+04   3.017383e+04
  -2.198371e+04  -8.061501e+04
  -9.784698e+03  -1.507853e+05
   7.343670e+04  -7.693668e+04
   1.299484e+05   7.929386e+04
   6.078608e+04   1.579818e+05
  -9.248586e+04   8.351770e+04
  -1.698387e+05  -5.961613e+04
  -6.920922e+04  -1.335102e+05
   1.253327e+05  -8.936304e+04
   2.204206e+05   1.281992e+04
   1.192257e+05   9.035290e+04
  -7.190489e+04   1.058529e+05
  -1.588163e+05   6.653223e+04
  -7.037918e+04   4.662810e+03
   7.119941e+04  -3.020529e+04
   9.544194e+04  -8.127333e+02
  -2.653597e+04   6.408861e+04
  -1.590706e+05   7.098300e+04
