
 $NMID
 id='ANONYMOUS ', fmtdat='(2E16.6)'
 volume=1.0
 tramp=1.0
 $END
  -4.084771e+07  -3.009759e+06
  -2.343980e+07  -2.498451e+07
   5.690429e+06  -2.649873e+07
   1.980384e+07  -1.128939e+07
   1.235067e+07   3.584088e+06
  -1.753354e+06   6.694285e+06
  -7.321973e+06   1.834078e+05
  -2.926006e+06  -6.926140e+06
   3.977309e+06  -7.901839e+06
   7.226614e+06  -2.184807e+06
   5.313858e+06   5.097211e+06
   3.007442e+05   7.087332e+06
  -3.419143e+06   1.750523e+06
  -2.163285e+06  -5.134605e+06
   2.846748e+06  -5.790494e+06
   5.988530e+06   7.478908e+05
   3.355836e+06   7.807653e+06
  -3.009285e+06   8.905878e+06
  -7.803394e+06   3.970322e+06
  -7.815805e+06  -2.359859e+06
  -3.938841e+06  -5.944849e+06
   3.889125e+05  -5.755265e+06
   1.846694e+06  -3.512364e+06
  -2.529848e+04  -2.096704e+06
  -1.829499e+06  -2.994999e+06
   3.352409e+05  -4.443989e+06
   5.634283e+06  -3.311280e+06
   8.509537e+06   6.715611e+05
   5.308079e+06   4.108902e+06
  -9.047077e+05   4.061805e+06
  -4.037946e+06   1.344352e+06
  -2.076504e+06  -1.141746e+06
   1.653138e+06  -1.659312e+06
   3.297079e+06  -1.900080e+05
   2.120836e+06   2.369462e+06
  -2.853127e+05   4.052323e+06
  -2.048824e+06   2.697885e+06
  -1.966281e+06  -9.966781e+05
  -3.184506e+05  -2.910976e+06
   8.284334e+05  -5.010142e+05
  -2.708279e+05   2.935983e+06
  -2.299676e+06   2.170522e+06
  -1.984613e+06  -2.339310e+06
   1.409975e+06  -4.432015e+06
   4.398594e+06  -6.067504e+05
   3.253172e+06   5.009162e+06
  -1.484308e+06   5.989443e+06
  -5.621904e+06   1.470018e+06
  -5.688710e+06  -3.684493e+06
  -1.823140e+06  -5.045529e+06
   2.841864e+06  -2.541105e+06
   4.708841e+06   9.762863e+05
   2.446681e+06   2.756766e+06
  -1.646042e+06   1.814615e+06
  -3.519740e+06  -6.175697e+05
  -1.618545e+06  -2.003906e+06
   1.301226e+06  -1.022889e+06
   1.623371e+06   8.090001e+05
  -5.653654e+05   1.014475e+06
  -1.862121e+06  -6.247571e+05
  -1.692401e+05  -1.962101e+06
   2.787475e+06  -1.377807e+06
   3.838832e+06   6.553591e+05
   1.828025e+06   2.832255e+06
  -1.832884e+06   4.188893e+06
  -4.820959e+06   3.755942e+06
  -5.409088e+06   8.877052e+05
  -3.367932e+06  -3.126653e+06
  -3.140762e+05  -5.294445e+06
   1.441370e+06  -4.110344e+06
   1.171084e+06  -1.544630e+06
   4.298607e+05  -5.179946e+05
   9.299397e+05  -1.169439e+06
   2.326940e+06  -1.171692e+06
   2.847427e+06   6.243038e+05
   1.607572e+06   2.540266e+06
  -5.153236e+05   2.363088e+06
  -1.970056e+06   5.605467e+04
  -1.720585e+06  -2.363008e+06
   2.611149e+05  -2.902039e+06
   2.749621e+06  -1.152699e+06
   3.743617e+06   1.599672e+06
   2.243516e+06   3.407635e+06
  -3.977762e+05   3.240541e+06
  -1.844730e+06   1.862148e+06
  -1.606178e+06   8.609912e+05
  -1.456691e+06   7.596014e+05
  -2.688745e+06   5.691060e+05
  -4.041226e+06  -6.921435e+05
  -3.245465e+06  -2.643677e+06
  -4.228969e+04  -3.961363e+06
   3.280585e+06  -3.654002e+06
   4.249214e+06  -1.733464e+06
   2.510503e+06   7.852059e+05
  -1.118514e+05   2.288949e+06
  -1.377313e+06   1.713968e+06
  -5.209348e+05  -1.613885e+05
   1.189129e+06  -1.186938e+06
   1.784972e+06  -2.789316e+05
   7.029378e+05   1.156398e+06
  -6.347400e+05   1.080652e+06
  -5.825906e+05  -3.407439e+05
   7.398149e+05  -9.040211e+05
   1.690229e+06   6.398503e+05
   1.053377e+06   2.882133e+06
  -8.358064e+05   3.465074e+06
  -2.720371e+06   1.701187e+06
  -3.473354e+06  -1.011543e+06
  -2.597263e+06  -2.792755e+06
  -5.238237e+05  -2.767780e+06
   1.338790e+06  -1.426563e+06
   1.612987e+06  -1.125652e+05
   4.807602e+05   6.099886e+04
  -3.336855e+05  -7.363793e+05
   3.792005e+05  -1.212696e+06
   1.735201e+06  -4.848897e+05
   1.876472e+06   8.019140e+05
   3.923361e+05   1.284650e+06
  -1.118960e+06   5.612924e+05
  -9.602448e+05  -4.442738e+05
   7.479762e+05  -6.544525e+05
   2.250168e+06   1.395221e+05
   1.939618e+06   1.343560e+06
  -1.414472e+05   2.090493e+06
  -2.318604e+06   1.700408e+06
  -2.746165e+06   2.355963e+05
  -1.132286e+06  -1.208296e+06
   9.025773e+05  -1.330268e+06
   1.407722e+06  -1.016863e+05
   9.198873e+04   1.000082e+06
  -1.478942e+06   6.480646e+05
  -1.661327e+06  -7.524207e+05
  -3.925981e+05  -1.599994e+06
   9.908772e+05  -1.028283e+06
   1.240919e+06   1.989352e+05
   3.164438e+05   7.150975e+05
  -7.103919e+05   4.643021e+04
  -6.574268e+05  -1.034080e+06
   6.368355e+05  -1.356087e+06
   1.992989e+06  -4.299969e+05
   1.938220e+06   1.110373e+06
   3.100860e+05   2.020616e+06
  -1.413143e+06   1.557693e+06
  -1.671672e+06   1.979800e+05
  -5.104282e+05  -8.350698e+05
   6.388414e+05  -7.949876e+05
   6.873454e+05  -5.694493e+04
  -6.027792e+04   4.594554e+05
  -5.680240e+05   3.190230e+05
  -3.090976e+05  -8.079131e+04
   3.239645e+05  -6.524062e+04
   5.316404e+05   5.349133e+05
  -1.435849e+05   1.123911e+06
  -1.340804e+06   8.602311e+05
  -2.023704e+06  -4.466640e+05
  -1.371475e+06  -1.939081e+06
   2.824662e+05  -2.394201e+06
   1.633033e+06  -1.428058e+06
   1.736519e+06   9.642233e+04
   9.563963e+05   9.729332e+05
   3.539788e+05   8.441507e+05
   3.703851e+05   3.622999e+05
   4.771160e+05   2.913944e+05
   4.146100e+04   6.723461e+05
  -8.426817e+05   8.784757e+05
  -1.449178e+06   3.484553e+05
  -1.105696e+06  -7.526076e+05
   2.155929e+05  -1.525971e+06
   1.726176e+06  -1.082685e+06
   2.236573e+06   5.127045e+05
   1.114753e+06   2.068858e+06
  -9.636467e+05   2.279186e+06
  -2.447920e+06   1.003705e+06
  -2.330139e+06  -6.050129e+05
  -1.047047e+06  -1.323625e+06
   1.380264e+05  -1.040313e+06
   4.737205e+05  -6.139802e+05
   2.605736e+05  -7.396219e+05
   2.285195e+05  -1.190263e+06
   6.764641e+05  -1.169486e+06
   1.232519e+06  -2.457678e+05
   1.260441e+06   1.114546e+06
   4.789168e+05   1.887737e+06
  -6.689905e+05   1.396998e+06
  -1.273052e+06  -1.830973e+04
  -7.850054e+05  -1.235774e+06
   3.484804e+05  -1.345938e+06
   1.056673e+06  -4.477099e+05
   7.523999e+05   5.695258e+05
  -6.284539e+04   9.655364e+05
  -4.256306e+05   7.582931e+05
  -4.085594e+04   4.515767e+05
   3.959720e+05   3.725419e+05
   3.364630e+04   3.915637e+05
  -1.091347e+06   1.847092e+05
  -1.956606e+06  -3.677428e+05
  -1.554851e+06  -1.024765e+06
   9.770676e+03  -1.345246e+06
   1.510156e+06  -1.040680e+06
   1.772036e+06  -2.713532e+05
   8.235274e+05   4.070091e+05
  -2.380908e+05   5.008915e+05
  -4.731411e+05   5.661888e+04
   1.914049e+04  -3.580913e+05
   4.778440e+05  -2.261721e+05
   4.518569e+05   3.545311e+05
   1.559355e+05   7.480236e+05
   1.141385e+04   4.866649e+05
   1.413455e+05  -1.407115e+05
   3.340237e+05  -3.481412e+05
   2.774944e+05   2.272551e+05
  -2.024850e+05   9.958843e+05
  -9.153876e+05   1.008612e+06
  -1.266022e+06   7.445730e+04
  -7.266297e+05  -9.380389e+05
   4.505374e+05  -1.041840e+06
   1.207575e+06  -2.193361e+05
   6.967791e+05   6.116099e+05
  -6.915167e+05   6.307821e+05
  -1.591412e+06  -9.846679e+04
  -1.060331e+06  -8.527437e+05
   4.305937e+05  -1.014017e+06
   1.502675e+06  -5.310243e+05
   1.271314e+06   1.655770e+05
   1.560199e+05   5.250261e+05
  -6.376695e+05   2.798388e+05
  -3.457740e+05  -2.822623e+05
   6.303554e+05  -4.681044e+05
   1.166104e+06   1.684984e+05
   5.680120e+05   1.222190e+06
  -7.124460e+05   1.648595e+06
  -1.537224e+06   7.884343e+05
  -1.220924e+06  -8.166765e+05
  -1.372510e+05  -1.801601e+06
   7.731397e+05  -1.298680e+06
   9.219543e+05   1.607153e+05
   4.352123e+05   1.187357e+06
  -1.892234e+05   9.821163e+05
  -5.421969e+05   8.813930e+04
  -4.931739e+05  -3.946339e+05
  -2.043806e+05  -1.510459e+05
  -3.273326e+04   1.052147e+05
  -2.023102e+05  -2.789630e+05
  -4.519011e+05  -9.662578e+05
  -2.110729e+05  -1.082525e+06
   6.610167e+05  -3.737521e+05
   1.462187e+06   5.085611e+05
   1.297651e+06   8.660295e+05
   1.674317e+05   6.893948e+05
  -9.052255e+05   3.909560e+05
  -9.989235e+05   1.691780e+05
  -3.184449e+05  -4.287985e+04
   1.689163e+05  -2.174671e+05
  -1.052378e+04  -2.216393e+05
  -3.163536e+05  -1.241782e+05
  -2.616109e+04  -1.398511e+05
   7.238803e+05  -2.003153e+05
   1.035959e+06   6.272249e+04
   3.308406e+05   7.039663e+05
  -9.289158e+05   1.118335e+06
  -1.686145e+06   6.527760e+05
  -1.329939e+06  -5.135417e+05
  -2.071631e+05  -1.418856e+06
   7.983753e+05  -1.323230e+06
   1.065402e+06  -4.656735e+05
   6.546807e+05   2.797362e+05
   9.960736e+04   3.629782e+05
  -1.183510e+05   4.073038e+04
   6.103942e+04  -4.463296e+04
   3.067482e+05   3.581226e+05
   2.375487e+05   8.091133e+05
  -2.125207e+05   6.604478e+05
  -6.870659e+05  -1.737026e+05
  -6.793855e+05  -1.005988e+06
  -2.888921e+04  -1.031979e+06
   7.907446e+05  -1.817542e+05
   9.961310e+05   7.938637e+05
   2.800924e+05   1.097203e+06
  -7.441756e+05   6.180500e+05
  -1.089935e+06  -1.282801e+05
  -4.782261e+05  -6.010505e+05
   3.114838e+05  -6.244534e+05
   3.555360e+05  -3.380931e+05
  -2.869175e+05  -2.667538e+04
  -6.584568e+05   1.216478e+04
  -1.206310e+05  -3.058004e+05
   8.431963e+05  -6.521963e+05
   1.232903e+06  -5.181810e+05
   7.085145e+05   1.779444e+05
  -1.313551e+05   8.462288e+05
  -5.470220e+05   8.113502e+05
  -3.947943e+05   1.126452e+05
  -1.928585e+04  -4.972886e+05
   2.632163e+05  -4.052358e+05
   3.526701e+05   1.918394e+05
   2.278195e+05   5.849844e+05
  -8.112361e+04   3.935544e+05
  -3.882294e+05  -7.285385e+04
  -4.477094e+05  -2.735877e+05
  -2.340844e+05  -8.306056e+04
   7.655564e+03   1.266637e+05
   7.140349e+04  -8.925797e+03
   4.356999e+04  -3.812715e+05
   1.408633e+05  -5.191419e+05
   3.559298e+05  -1.484748e+05
   4.046858e+05   4.401341e+05
   7.514909e+04   6.646428e+05
  -4.365718e+05   2.851507e+05
  -6.326642e+05  -3.265780e+05
  -2.180168e+05  -5.954259e+05
   5.081201e+05  -3.396215e+05
   8.581282e+05   1.235720e+05
   4.538558e+05   3.945580e+05
  -3.101096e+05   3.632389e+05
  -6.397202e+05   1.730307e+05
  -2.247748e+05   4.468203e+00
   3.873982e+05  -3.575156e+04
   4.237498e+05   1.116692e+05
  -2.029580e+05   3.109414e+05
  -7.973483e+05   2.516148e+05
