
 $NMID
 id='ANONYMOUS ', fmtdat='(2E16.6)'
 volume=1.0
 tramp=1.0
 $END
   3.384860e+07  -8.765661e+05
   2.198726e+07   1.818425e+07
  -1.855932e+06   2.242126e+07
  -1.553625e+07   1.172383e+07
  -1.117299e+07  -1.425910e+06
   5.923911e+05  -5.920755e+06
   6.416657e+06  -1.146760e+06
   3.443834e+06   5.672273e+06
  -2.643901e+06   7.452361e+06
  -6.063130e+06   2.717437e+06
  -4.902861e+06  -3.941749e+06
  -7.060464e+05  -6.067734e+06
   2.769964e+06  -1.632759e+06
   2.133375e+06   4.457192e+06
  -2.062568e+06   5.396872e+06
  -5.221556e+06  -1.644269e+04
  -3.556823e+06  -6.337791e+06
   1.758605e+06  -7.804760e+06
   6.185731e+06  -3.935580e+06
   6.583910e+06   1.402069e+06
   3.561099e+06   4.514423e+06
   1.466992e+05   4.517642e+06
  -9.121626e+05   2.959166e+06
   5.703705e+05   2.109220e+06
   1.784224e+06   2.941506e+06
  -2.911112e+05   4.016018e+06
  -4.867961e+06   2.988888e+06
  -7.361556e+06  -3.123453e+05
  -4.664365e+06  -3.241540e+06
   7.220461e+05  -3.348688e+06
   3.482739e+06  -1.091396e+06
   1.665647e+06   1.116252e+06
  -1.764358e+06   1.540376e+06
  -3.142571e+06   7.365922e+04
  -1.853300e+06  -2.244127e+06
   3.110131e+05  -3.562130e+06
   1.615038e+06  -2.273053e+06
   1.435890e+06   7.918750e+05
   2.559671e+05   2.266458e+06
  -5.072076e+05   2.048732e+05
   3.301572e+05  -2.675085e+06
   1.956264e+06  -2.068707e+06
   1.953416e+06   1.810584e+06
  -6.294812e+05   3.934717e+06
  -3.422999e+06   1.072916e+06
  -3.121091e+06  -3.754094e+06
   6.101136e+05  -5.096801e+06
   4.557441e+06  -1.679230e+06
   5.212268e+06   2.773529e+06
   2.020898e+06   4.329984e+06
  -2.337069e+06   2.500357e+06
  -4.313667e+06  -5.042609e+05
  -2.464266e+06  -2.276311e+06
   1.215059e+06  -1.772692e+06
   3.087262e+06   1.961633e+05
   1.609180e+06   1.567642e+06
  -1.006605e+06   9.856550e+05
  -1.524613e+06  -6.107666e+05
   3.444987e+05  -1.090583e+06
   1.789509e+06   1.752008e+05
   6.286150e+05   1.625466e+06
  -2.042508e+06   1.569654e+06
  -3.356684e+06  -6.672739e+04
  -1.873059e+06  -2.205210e+06
   1.329851e+06  -3.675687e+06
   4.024574e+06  -3.433933e+06
   4.596876e+06  -9.882432e+05
   2.962493e+06   2.505858e+06
   5.209984e+05   4.535026e+06
  -9.579129e+05   3.743031e+06
  -9.438147e+05   1.614051e+06
  -5.495298e+05   5.935050e+05
  -1.016374e+06   9.793790e+05
  -2.108320e+06   9.201928e+05
  -2.479481e+06  -6.267349e+05
  -1.382220e+06  -2.294961e+06
   5.146532e+05  -2.122854e+06
   1.845778e+06  -3.209203e+04
   1.621250e+06   2.143079e+06
  -1.662281e+05   2.600699e+06
  -2.369030e+06   1.065278e+06
  -3.262578e+06  -1.263624e+06
  -2.048066e+06  -2.780845e+06
   1.376344e+05  -2.714461e+06
   1.378330e+06  -1.675199e+06
   1.259718e+06  -8.990324e+05
   1.234585e+06  -8.279700e+05
   2.389210e+06  -6.871511e+05
   3.657247e+06   3.999513e+05
   3.034927e+06   2.208521e+06
   2.117187e+05   3.555285e+06
  -2.807575e+06   3.398449e+06
  -3.743947e+06   1.662985e+06
  -2.225971e+06  -6.578819e+05
   9.270146e+04  -2.031827e+06
   1.199386e+06  -1.525691e+06
   4.508256e+05   1.428008e+05
  -1.031629e+06   1.087481e+06
  -1.567662e+06   3.246055e+05
  -6.523404e+05  -9.760083e+05
   5.499772e+05  -9.826154e+05
   5.828439e+05   3.023560e+05
  -6.062025e+05   9.494220e+05
  -1.641499e+06  -3.559158e+05
  -1.260987e+06  -2.528711e+06
   4.769805e+05  -3.326744e+06
   2.422152e+06  -1.848527e+06
   3.308943e+06   7.188998e+05
   2.537522e+06   2.494904e+06
   5.786141e+05   2.539819e+06
  -1.171502e+06   1.329142e+06
  -1.449568e+06   1.405655e+05
  -4.347832e+05  -3.628683e+04
   3.322803e+05   6.483128e+05
  -2.645468e+05   1.099114e+06
  -1.506731e+06   5.252744e+05
  -1.723866e+06  -6.054648e+05
  -4.357349e+05  -1.126511e+06
   9.816064e+05  -5.652314e+05
   9.088404e+05   3.737947e+05
  -6.558562e+05   6.723294e+05
  -2.099180e+06  -7.187308e+03
  -1.863645e+06  -1.172273e+06
   3.960069e+04  -1.951347e+06
   2.047771e+06  -1.652627e+06
   2.475875e+06  -3.276017e+05
   1.073917e+06   1.024408e+06
  -7.307403e+05   1.215980e+06
  -1.229252e+06   1.611532e+05
  -1.180016e+05  -8.697674e+05
   1.294079e+06  -6.406989e+05
   1.536748e+06   5.975384e+05
   4.461071e+05   1.437972e+06
  -8.460798e+05   1.006648e+06
  -1.154571e+06  -1.016758e+05
  -3.451932e+05  -6.361559e+05
   6.248202e+05  -8.649621e+04
   6.290802e+05   8.941282e+05
  -5.217988e+05   1.235226e+06
  -1.770788e+06   4.550491e+05
  -1.778821e+06  -9.223105e+05
  -3.625681e+05  -1.799971e+06
   1.197886e+06  -1.464288e+06
   1.498616e+06  -2.588555e+05
   5.079126e+05   7.323829e+05
  -5.415539e+05   7.524186e+05
  -6.305758e+05   6.713266e+04
   4.114210e+04  -4.519896e+05
   5.394490e+05  -3.235530e+05
   3.208847e+05   9.772988e+04
  -2.920404e+05   1.256837e+05
  -5.346013e+05  -4.378697e+05
   5.788837e+04  -1.027050e+06
   1.167991e+06  -8.400706e+05
   1.841909e+06   3.162819e+05
   1.311360e+06   1.687427e+06
  -1.640249e+05   2.172298e+06
  -1.431603e+06   1.368624e+06
  -1.599337e+06  -1.628812e+04
  -9.181344e+05  -8.788075e+05
  -3.301764e+05  -8.000377e+05
  -3.036391e+05  -3.241575e+05
  -4.190742e+05  -2.125957e+05
  -7.290323e+04  -5.815101e+05
   7.181071e+05  -8.366412e+05
   1.308336e+06  -3.835760e+05
   1.044288e+06   6.544973e+05
  -1.362336e+05   1.418011e+06
  -1.527321e+06   1.059930e+06
  -2.048948e+06  -3.753841e+05
  -1.104128e+06  -1.824840e+06
   7.539687e+05  -2.105069e+06
   2.159470e+06  -1.029171e+06
   2.151634e+06   4.360048e+05
   1.031072e+06   1.173582e+06
  -8.458158e+04   9.850879e+05
  -4.420576e+05   5.849504e+05
  -2.416099e+05   6.471726e+05
  -1.620855e+05   1.044644e+06
  -5.449034e+05   1.066423e+06
  -1.084360e+06   2.718794e+05
  -1.171206e+06  -9.533303e+05
  -5.005191e+05  -1.681066e+06
   5.518509e+05  -1.281957e+06
   1.153365e+06  -3.633300e+04
   7.698879e+05   1.075803e+06
  -2.415689e+05   1.236672e+06
  -9.278556e+05   4.810993e+05
  -7.203282e+05  -4.480842e+05
  -1.731278e+04  -8.691589e+05
   3.270263e+05  -7.238337e+05
   1.529922e+04  -4.285181e+05
  -3.610881e+05  -3.229368e+05
  -4.002113e+04  -3.515905e+05
   9.680891e+05  -2.197999e+05
   1.766340e+06   2.389877e+05
   1.447104e+06   8.520404e+05
   7.124587e+04   1.210558e+06
  -1.293934e+06   1.004557e+06
  -1.586875e+06   3.320897e+05
  -7.810495e+05  -3.147315e+05
   1.774535e+05  -4.555784e+05
   4.241910e+05  -8.388355e+04
  -9.346803e+02   3.034246e+05
  -4.265113e+05   2.122058e+05
  -4.171434e+05  -3.004229e+05
  -1.472762e+05  -6.604441e+05
  -1.095818e+04  -4.274227e+05
  -1.324958e+05   1.433120e+05
  -3.120869e+05   3.324807e+05
  -2.636154e+05  -1.942986e+05
   1.573918e+05  -9.047968e+05
   7.824698e+05  -9.406105e+05
   1.107621e+06  -1.179299e+05
   6.682608e+05   8.031249e+05
  -3.543850e+05   9.382411e+05
  -1.054685e+06   2.342243e+05
  -6.437876e+05  -5.282772e+05
   5.966330e+05  -6.015797e+05
   1.452817e+06   2.317048e+04
   1.015846e+06   7.397488e+05
  -3.417561e+05   9.578616e+05
  -1.356818e+06   5.584509e+05
  -1.178242e+06  -9.862520e+04
  -1.671512e+05  -4.782560e+05
   5.680139e+05  -2.868334e+05
   3.203256e+05   2.314120e+05
  -5.528515e+05   4.305112e+05
  -1.045541e+06  -1.208501e+05
  -5.353718e+05  -1.075519e+06
   5.958475e+05  -1.490697e+06
   1.356761e+06  -7.475814e+05
   1.124117e+06   6.977885e+05
   1.835678e+05   1.621491e+06
  -6.570861e+05   1.208648e+06
  -8.487470e+05  -1.022698e+05
  -4.489834e+05  -1.061954e+06
   1.256598e+05  -9.123037e+05
   4.858535e+05  -1.090502e+05
   4.686822e+05   3.485814e+05
   1.995661e+05   1.415764e+05
   2.362333e+04  -1.033417e+05
   1.805978e+05   2.231836e+05
   4.383707e+05   8.468163e+05
   2.427358e+05   9.822917e+05
  -5.673393e+05   3.759389e+05
  -1.339512e+06  -4.083148e+05
  -1.216146e+06  -7.444306e+05
  -1.797626e+05  -6.139663e+05
   8.138988e+05  -3.748629e+05
   9.029292e+05  -1.899661e+05
   2.833416e+05   1.233013e+04
  -1.485445e+05   1.973297e+05
   2.708360e+04   2.172100e+05
   2.994609e+05   1.202718e+05
   2.163239e+04   1.217834e+05
  -6.579126e+05   1.879933e+05
  -9.297786e+05  -2.377853e+04
  -3.008957e+05  -6.036087e+05
   8.060135e+05  -1.019140e+06
   1.476481e+06  -6.418215e+05
   1.189026e+06   4.117577e+05
   2.273030e+05   1.268447e+06
  -6.649947e+05   1.216254e+06
  -9.350846e+05   4.453246e+05
  -5.950899e+05  -2.396280e+05
  -9.550579e+04  -3.182831e+05
   1.123756e+05  -2.201956e+04
  -5.563820e+04   5.648417e+04
  -2.990942e+05  -3.120030e+05
  -2.481141e+05  -7.242765e+05
   1.694595e+05  -5.960343e+05
   6.199744e+05   1.454917e+05
   6.291477e+05   8.859186e+05
   4.515049e+04   9.139961e+05
  -7.043283e+05   1.692129e+05
  -9.085453e+05  -6.907073e+05
  -2.796710e+05  -9.697628e+05
   6.432167e+05  -5.681749e+05
   9.741709e+05   7.774558e+04
   4.489060e+05   5.081909e+05
  -2.485800e+05   5.591701e+05
  -2.937183e+05   3.213446e+05
   2.689589e+05   2.884626e+04
   5.938934e+05  -2.854842e+04
   1.159177e+05   2.650717e+05
  -7.376034e+05   6.171137e+05
  -1.086704e+06   5.261830e+05
  -6.369821e+05  -1.159749e+05
   8.702481e+04  -7.592281e+05
   4.487355e+05  -7.507486e+05
   3.308403e+05  -1.140186e+05
   2.298100e+04   4.472549e+05
  -2.205934e+05   3.640499e+05
  -3.160419e+05  -1.733941e+05
  -2.222126e+05  -5.175088e+05
   5.543259e+04  -3.430901e+05
   3.472966e+05   5.754695e+04
   4.132465e+05   2.194559e+05
   2.183632e+05   5.903802e+04
  -1.146365e+04  -9.973500e+04
  -7.728853e+04   3.057774e+04
  -4.897655e+04   3.405623e+05
  -1.244628e+05   4.413236e+05
  -3.075343e+05   1.174581e+05
  -3.519944e+05  -3.857943e+05
  -6.632400e+04  -5.820285e+05
   3.851125e+05  -2.603817e+05
   5.655981e+05   2.752117e+05
   2.059138e+05   5.286676e+05
  -4.404680e+05   3.228104e+05
  -7.641979e+05  -8.324257e+04
  -4.170679e+05  -3.373996e+05
   2.603746e+05  -3.273716e+05
   5.581023e+05  -1.674565e+05
   1.908612e+05  -1.205482e+04
  -3.539134e+05   2.556617e+04
  -3.804698e+05  -1.040178e+05
   1.890438e+05  -2.869165e+05
   7.264268e+05  -2.394354e+05
