
 $NMID
 id='ANONYMOUS ', fmtdat='(2E16.6)'
 volume=1.0
 tramp=1.0
 $END
  -2.029354e+07   6.699067e+05
  -1.412702e+07  -8.413261e+06
  -9.734146e+05  -1.262979e+07
   8.176311e+06  -9.538259e+06
   7.617356e+06  -1.881212e+06
   9.688370e+05   3.686249e+06
  -4.155043e+06   2.518685e+06
  -3.716158e+06  -3.056115e+06
   4.192532e+05  -6.146737e+06
   3.778191e+06  -3.072198e+06
   3.603733e+06   2.606623e+06
   6.297056e+05   4.550762e+06
  -2.080800e+06   9.563466e+05
  -1.900665e+06  -3.857876e+06
   9.659904e+05  -4.655944e+06
   3.537328e+06  -7.347713e+05
   2.926305e+06   3.988166e+06
  -6.198089e+05   5.320548e+06
  -3.880783e+06   2.639830e+06
  -4.049148e+06  -1.152529e+06
  -1.622814e+06  -2.872132e+06
   3.771358e+05  -2.073582e+06
  -1.411356e+05  -9.643054e+05
  -2.065183e+06  -1.556228e+06
  -2.357184e+06  -3.328910e+06
   5.175581e+05  -3.994839e+06
   4.593654e+06  -2.253991e+06
   6.079393e+06   7.679584e+05
   3.271143e+06   2.769103e+06
  -1.352382e+06   2.424056e+06
  -3.441592e+06   2.830327e+05
  -1.305375e+06  -1.822944e+06
   2.383006e+06  -2.057164e+06
   3.713653e+06   1.771816e+04
   1.787314e+06   2.721544e+06
  -8.450908e+05   3.447332e+06
  -1.568339e+06   1.360453e+06
  -4.327310e+05  -1.312703e+06
   6.660568e+05  -1.555360e+06
   4.773934e+05   8.434417e+05
  -6.434347e+05   2.883390e+06
  -1.617708e+06   1.954348e+06
  -1.608302e+06  -9.605793e+05
  -4.012340e+05  -2.496703e+06
   1.266094e+06  -9.361588e+05
   1.786537e+06   1.914248e+06
   5.632674e+04   2.957153e+06
  -2.848692e+06   1.149085e+06
  -4.132623e+06  -1.750874e+06
  -2.131761e+06  -3.242022e+06
   1.596418e+06  -2.363151e+06
   3.691489e+06  -1.700387e+05
   2.472009e+06   1.472113e+06
  -4.700561e+05   1.464239e+06
  -2.175215e+06   2.241717e+05
  -1.366461e+06  -8.525083e+05
   5.793514e+05  -7.306448e+05
   1.385272e+06   3.305402e+05
   2.934566e+05   1.129942e+06
  -1.258609e+06   7.781636e+05
  -1.286982e+06  -4.149048e+05
   4.673732e+05  -1.229380e+06
   2.093425e+06  -6.585174e+05
   1.537290e+06   1.121823e+06
  -1.064066e+06   2.731859e+06
  -3.453056e+06   2.638415e+06
  -3.678577e+06   5.451123e+05
  -2.017718e+06  -2.160105e+06
  -2.742133e+05  -3.578326e+06
   3.819714e+05  -3.091105e+06
   3.703342e+05  -1.820312e+06
   6.989317e+05  -1.154591e+06
   1.622418e+06  -1.095367e+06
   2.460331e+06  -4.983178e+05
   2.369003e+06   1.106075e+06
   1.089685e+06   2.528899e+06
  -7.812058e+05   2.169018e+06
  -2.036384e+06   4.966723e+03
  -1.656578e+06  -2.140888e+06
   2.180867e+05  -2.418495e+06
   2.146350e+06  -7.483698e+05
   2.579472e+06   1.309266e+06
   1.346284e+06   2.226421e+06
  -2.389990e+05   1.815700e+06
  -8.707656e+05   1.016210e+06
  -6.646747e+05   7.156154e+05
  -8.360367e+05   9.059119e+05
  -2.016739e+06   8.415645e+05
  -3.220972e+06  -1.248730e+05
  -2.783448e+06  -1.812890e+06
  -3.240446e+05  -3.192793e+06
   2.500368e+06  -3.144653e+06
   3.466881e+06  -1.462076e+06
   2.000921e+06   7.695925e+05
  -2.730865e+05   1.939034e+06
  -1.245804e+06   1.319351e+06
  -3.939529e+05  -2.031707e+05
   9.805939e+05  -9.766998e+05
   1.353111e+06  -2.993793e+05
   4.972842e+05   8.356988e+05
  -5.490552e+05   9.200470e+05
  -6.789183e+05  -2.169637e+05
   2.716721e+05  -1.084393e+06
   1.441854e+06  -2.512315e+05
   1.639867e+06   1.848168e+06
   3.077168e+05   3.197854e+06
  -1.860566e+06   2.319618e+06
  -3.272861e+06  -1.666556e+05
  -2.757226e+06  -2.229358e+06
  -7.301520e+05  -2.467621e+06
   1.097967e+06  -1.275910e+06
   1.372048e+06  -1.208637e+05
   3.987315e+05   2.134723e+04
  -3.272474e+05  -5.741767e+05
   1.564097e+05  -9.416571e+05
   1.241183e+06  -5.049569e+05
   1.522484e+06   3.984099e+05
   4.787225e+05   9.236778e+05
  -8.423228e+05   5.756613e+05
  -9.250759e+05  -2.908254e+05
   4.990150e+05  -7.723577e+05
   2.020720e+06  -2.510351e+05
   1.961037e+06   9.855160e+05
   1.539470e+05   1.922372e+06
  -1.829547e+06   1.694929e+06
  -2.271382e+06   4.157841e+05
  -9.947962e+05  -8.485105e+05
   5.961633e+05  -1.040528e+06
   1.015264e+06  -1.538493e+05
   7.445251e+04   7.379928e+05
  -1.139130e+06   6.008870e+05
  -1.423348e+06  -4.456272e+05
  -5.439990e+05  -1.276253e+06
   6.524079e+05  -1.032098e+06
   1.073275e+06  -6.275300e+04
   4.174686e+05   5.218635e+05
  -5.079677e+05   1.113383e+05
  -5.734009e+05  -7.810228e+05
   4.651353e+05  -1.124793e+06
   1.611720e+06  -4.331041e+05
   1.631237e+06   8.065564e+05
   3.820389e+05   1.613159e+06
  -1.010263e+06   1.366413e+06
  -1.339096e+06   3.192329e+05
  -5.238668e+05  -6.267676e+05
   4.454880e+05  -7.267021e+05
   6.273020e+05  -8.132297e+04
   3.142191e+04   5.056574e+05
  -5.505700e+05   4.194979e+05
  -4.555726e+05  -9.129572e+04
   1.696024e+05  -2.528430e+05
   5.398659e+05   2.679755e+05
   5.747837e+04   9.132663e+05
  -1.008094e+06   8.235585e+05
  -1.689420e+06  -2.155432e+05
  -1.243761e+06  -1.494599e+06
   8.279564e+04  -2.013711e+06
   1.274065e+06  -1.371612e+06
   1.533797e+06  -9.871355e+04
   9.859956e+05   8.338251e+05
   3.781323e+05   8.861424e+05
   2.108731e+05   3.987630e+05
   2.821756e+05   1.526852e+05
   6.353904e+04   4.630066e+05
  -5.953711e+05   8.053696e+05
  -1.202310e+06   4.520879e+05
  -1.057988e+06  -5.789161e+05
   2.050762e+04  -1.388029e+06
   1.370471e+06  -1.085193e+06
   1.924987e+06   2.578194e+05
   1.120492e+06   1.615299e+06
  -5.438238e+05   1.939328e+06
  -1.879719e+06   1.064534e+06
  -2.019132e+06  -2.391712e+05
  -1.105278e+06  -1.027689e+06
  -3.002959e+04  -1.004674e+06
   4.522088e+05  -6.539648e+05
   3.380868e+05  -6.012640e+05
   1.912127e+05  -8.851921e+05
   4.497186e+05  -9.289621e+05
   9.448016e+05  -2.572414e+05
   1.082952e+06   8.499985e+05
   4.983455e+05   1.533654e+06
  -4.805821e+05   1.193713e+06
  -1.064203e+06   8.642319e+04
  -7.591352e+05  -9.209161e+05
   1.190849e+05  -1.128814e+06
   7.532273e+05  -5.403419e+05
   6.539824e+05   2.702710e+05
   1.188908e+05   7.219983e+05
  -1.719627e+05   6.785713e+05
   4.557166e+04   4.320235e+05
   3.233833e+05   3.107881e+05
   3.506592e+04   3.323606e+05
  -8.436418e+05   2.410023e+05
  -1.574027e+06  -1.494057e+05
  -1.348559e+06  -7.020474e+05
  -1.614536e+05  -1.052924e+06
   1.082575e+06  -9.308644e+05
   1.413593e+06  -3.970921e+05
   7.419229e+05   1.763643e+05
  -1.185158e+05   3.794513e+05
  -3.601041e+05   1.229240e+05
   2.351733e+04  -2.290469e+05
   4.150563e+05  -1.939262e+05
   3.810616e+05   2.669151e+05
   9.079755e+04   6.268861e+05
  -3.821034e+04   4.021986e+05
   1.208593e+05  -1.806045e+05
   3.217357e+05  -3.740038e+05
   2.593628e+05   1.626357e+05
  -1.490566e+05   8.605688e+05
  -6.902528e+05   8.729954e+05
  -9.420352e+05   8.874404e+04
  -5.600553e+05  -7.288851e+05
   3.056481e+05  -8.107489e+05
   9.244613e+05  -1.770924e+05
   5.976178e+05   4.899005e+05
  -5.133357e+05   5.814302e+05
  -1.362199e+06   5.956828e+04
  -1.041006e+06  -6.259666e+05
   2.178498e+05  -9.396677e+05
   1.241963e+06  -6.470483e+05
   1.142519e+06   2.919443e+03
   2.030838e+05   4.480748e+05
  -5.040752e+05   3.111658e+05
  -2.783055e+05  -1.853761e+05
   5.311490e+05  -3.819997e+05
   9.640335e+05   1.337787e+05
   4.631519e+05   1.007938e+06
  -5.846641e+05   1.369818e+06
  -1.270718e+06   6.809465e+05
  -1.053637e+06  -6.423206e+05
  -2.015599e+05  -1.510426e+06
   5.756594e+05  -1.169548e+06
   7.966903e+05   3.086108e+04
   4.856520e+05   9.619902e+05
  -3.512539e+04   8.744268e+05
  -4.284947e+05   1.355752e+05
  -4.840639e+05  -3.166791e+05
  -2.342665e+05  -1.364767e+05
  -8.431257e+02   1.087541e+05
  -1.061031e+05  -1.769162e+05
  -4.021126e+05  -7.620058e+05
  -3.048264e+05  -9.091712e+05
   4.531186e+05  -3.672681e+05
   1.260562e+06   3.456404e+05
   1.196732e+06   6.547711e+05
   1.871982e+05   5.528786e+05
  -7.901269e+05   3.657025e+05
  -8.472298e+05   2.166339e+05
  -2.225753e+05   1.899361e+04
   1.509323e+05  -1.829796e+05
  -8.547028e+04  -2.224510e+05
  -3.391012e+05  -1.303277e+05
  -7.279238e+02  -1.177556e+05
   6.676700e+05  -1.710285e+05
   8.547959e+05   2.213220e+04
   2.055242e+05   5.507818e+05
  -7.836432e+05   9.279548e+05
  -1.319129e+06   5.746433e+05
  -1.039485e+06  -3.984855e+05
  -2.107608e+05  -1.180733e+06
   5.803467e+05  -1.115599e+06
   8.592323e+05  -3.890454e+05
   5.652611e+05   2.422033e+05
   6.916814e+04   2.939345e+05
  -1.552811e+05  -6.374786e+03
   2.872707e+04  -8.949860e+04
   3.063394e+05   2.638068e+05
   2.640987e+05   6.627308e+05
  -1.594717e+05   5.426394e+05
  -5.898038e+05  -1.613167e+05
  -5.655509e+05  -8.491569e+05
   5.930621e+03  -8.438563e+05
   6.865205e+05  -1.174364e+05
   8.367786e+05   6.758768e+05
   2.365810e+05   8.927540e+05
  -5.990248e+05   4.951798e+05
  -8.762348e+05  -7.624088e+04
  -3.877627e+05  -4.295980e+05
   2.228892e+05  -4.710410e+05
   2.239745e+05  -2.851913e+05
  -2.991333e+05  -3.682148e+04
  -5.619843e+05   2.811524e+04
  -9.312071e+04  -2.355670e+05
   6.720438e+05  -5.876064e+05
   9.514431e+05  -5.343756e+05
   5.380566e+05   6.463160e+04
  -7.602787e+04   6.838146e+05
  -3.636132e+05   6.758522e+05
  -2.592023e+05   6.992120e+04
  -3.476454e+03  -4.356040e+05
   2.108713e+05  -3.138520e+05
   3.014157e+05   1.991236e+05
   2.052817e+05   4.777055e+05
  -6.262066e+04   2.790749e+05
  -3.216616e+05  -6.814573e+04
  -3.662573e+05  -1.685571e+05
  -1.993153e+05  -2.447698e+04
  -1.369390e+04   5.996346e+04
   6.312977e+04  -1.001327e+05
   9.897742e+04  -3.496357e+05
   2.008498e+05  -3.699475e+05
   3.186008e+05  -3.502076e+04
   2.768397e+05   4.105471e+05
  -9.169848e+03   5.519684e+05
  -3.775019e+05   2.254918e+05
  -4.993022e+05  -2.802673e+05
  -1.753703e+05  -5.063197e+05
   3.907850e+05  -2.953208e+05
   6.828506e+05   9.102751e+04
   3.760226e+05   3.096031e+05
  -2.404199e+05   2.721619e+05
  -5.061072e+05   1.188677e+05
  -1.422599e+05   2.538570e+03
   3.790124e+05   3.248051e+03
   3.768921e+05   1.396041e+05
  -2.083662e+05   3.008323e+05
  -7.342791e+05   2.338628e+05
