
 $NMID
 id='ANONYMOUS ', fmtdat='(2E16.6)'
 volume=1.0
 tramp=1.0
 $END
   2.596544e+07  -9.373617e+05
   1.774652e+07   1.231350e+07
   8.543301e+04   1.684191e+07
  -1.131681e+07   1.075973e+07
  -9.368782e+06   6.426834e+05
  -4.104718e+05  -4.731057e+06
   5.251309e+06  -2.059135e+06
   3.751738e+06   4.237724e+06
  -1.371800e+06   6.890521e+06
  -4.836888e+06   3.026285e+06
  -4.185927e+06  -3.204542e+06
  -6.343223e+05  -5.249223e+06
   2.383682e+06  -1.219315e+06
   1.966872e+06   4.213410e+06
  -1.488632e+06   5.078381e+06
  -4.320727e+06   4.594331e+05
  -3.253239e+06  -5.022316e+06
   1.079132e+06  -6.436380e+06
   4.854172e+06  -3.215251e+06
   5.097021e+06   1.248893e+06
   2.413450e+06   3.510884e+06
  -1.142973e+05   3.022423e+06
  -1.836997e+05   1.807560e+06
   1.528060e+06   1.930310e+06
   2.088932e+06   3.344220e+06
  -5.414065e+05   4.070488e+06
  -4.824143e+06   2.486575e+06
  -6.669124e+06  -6.990649e+05
  -3.834939e+06  -3.026754e+06
   1.156855e+06  -2.769463e+06
   3.503954e+06  -5.152865e+05
   1.392735e+06   1.608863e+06
  -2.278172e+06   1.815607e+06
  -3.574837e+06  -1.049082e+05
  -1.760848e+06  -2.642263e+06
   7.409457e+05  -3.521931e+06
   1.610551e+06  -1.704035e+06
   7.678867e+05   1.104033e+06
  -3.313515e+05   1.800999e+06
  -4.260356e+05  -4.711943e+05
   6.207847e+05  -2.837893e+06
   1.827772e+06  -2.019497e+06
   1.796027e+06   1.331894e+06
   2.468503e+04   3.167788e+06
  -2.139220e+06   1.086919e+06
  -2.384300e+06  -2.641772e+06
   1.642281e+05  -3.881002e+06
   3.571695e+06  -1.393603e+06
   4.649454e+06   2.232518e+06
   2.111700e+06   3.792777e+06
  -1.969790e+06   2.467216e+06
  -4.053196e+06  -1.461742e+05
  -2.528805e+06  -1.877011e+06
   7.886568e+05  -1.641811e+06
   2.602074e+06  -5.892790e+04
   1.505072e+06   1.168991e+06
  -7.625771e+05   8.522782e+05
  -1.476294e+06  -4.736893e+05
  -2.473906e+04  -1.180425e+06
   1.558821e+06  -4.251871e+05
   1.114324e+06   9.546196e+05
  -1.096104e+06   1.455801e+06
  -2.678871e+06   4.064395e+05
  -1.727630e+06  -1.584683e+06
   1.211209e+06  -3.142927e+06
   3.777219e+06  -2.945993e+06
   4.106293e+06  -6.815316e+05
   2.389453e+06   2.345254e+06
   3.333178e+05   4.021715e+06
  -6.566014e+05   3.431168e+06
  -6.547374e+05   1.802023e+06
  -7.143924e+05   9.405029e+05
  -1.460078e+06   1.005016e+06
  -2.373045e+06   5.926121e+05
  -2.414196e+06  -1.001272e+06
  -1.151868e+06  -2.510068e+06
   7.538316e+05  -2.168379e+06
   2.009134e+06   4.523366e+04
   1.627600e+06   2.234497e+06
  -2.548580e+05   2.536005e+06
  -2.284044e+06   8.444223e+05
  -2.865517e+06  -1.352228e+06
  -1.618209e+06  -2.488561e+06
   2.060107e+05  -2.190785e+06
   1.077590e+06  -1.295765e+06
   9.165979e+05  -8.155372e+05
   1.034534e+06  -8.959294e+05
   2.234670e+06  -7.700209e+05
   3.472879e+06   2.917816e+05
   2.918235e+06   2.063199e+06
   2.267162e+05   3.418912e+06
  -2.741492e+06   3.267077e+06
  -3.679254e+06   1.499736e+06
  -2.108349e+06  -7.834177e+05
   2.541542e+05  -2.003369e+06
   1.279545e+06  -1.395133e+06
   4.168419e+05   1.919626e+05
  -1.041772e+06   1.019767e+06
  -1.473003e+06   2.926857e+05
  -5.542601e+05  -9.136244e+05
   5.823178e+05  -9.515476e+05
   6.568328e+05   2.767396e+05
  -4.402649e+05   1.067862e+06
  -1.588667e+06  -1.748984e+03
  -1.520273e+06  -2.211749e+06
   5.986725e+04  -3.367970e+06
   2.200486e+06  -2.173886e+06
   3.385299e+06   4.624660e+05
   2.693628e+06   2.462536e+06
   6.305913e+05   2.577864e+06
  -1.180615e+06   1.301720e+06
  -1.435280e+06   1.005851e+05
  -4.218743e+05  -3.580811e+04
   3.261145e+05   6.238345e+05
  -2.171642e+05   1.025375e+06
  -1.383349e+06   5.066715e+05
  -1.635328e+06  -5.151784e+05
  -4.602745e+05  -1.037187e+06
   9.303277e+05  -5.710129e+05
   9.373350e+05   3.533957e+05
  -5.948481e+05   7.474237e+05
  -2.116573e+06   1.113638e+05
  -1.953587e+06  -1.133734e+06
  -3.663342e+04  -1.991318e+06
   1.999873e+06  -1.682837e+06
   2.416863e+06  -3.448184e+05
   1.035520e+06   9.565442e+05
  -6.788606e+05   1.123594e+06
  -1.124259e+06   1.453941e+05
  -8.098345e+04  -8.053344e+05
   1.237913e+06  -6.092870e+05
   1.496121e+06   5.441738e+05
   4.950606e+05   1.386318e+06
  -7.690181e+05   1.039528e+06
  -1.139175e+06  -2.178567e+04
  -3.920801e+05  -5.920683e+05
   5.686511e+05  -9.780333e+04
   5.943412e+05   8.538151e+05
  -5.199388e+05   1.184312e+06
  -1.719427e+06   4.192930e+05
  -1.710972e+06  -9.028238e+05
  -3.523522e+05  -1.732430e+06
   1.134796e+06  -1.419457e+06
   1.442129e+06  -2.777366e+05
   5.193389e+05   6.958283e+05
  -5.096592e+05   7.470624e+05
  -6.459363e+05   6.211237e+04
   1.093060e+04  -5.013770e+05
   5.743386e+05  -3.782152e+05
   4.126062e+05   1.140004e+05
  -2.330143e+05   2.119435e+05
  -5.520763e+05  -3.528619e+05
   2.438951e+03  -9.850090e+05
   1.112199e+06  -8.316434e+05
   1.786318e+06   2.936413e+05
   1.270536e+06   1.630515e+06
  -1.583302e+05   2.122728e+06
  -1.398310e+06   1.377926e+06
  -1.602400e+06   2.167019e+04
  -9.638348e+05  -8.984334e+05
  -3.416729e+05  -8.853903e+05
  -2.373821e+05  -3.798326e+05
  -3.402963e+05  -1.791400e+05
  -6.303181e+04  -5.199850e+05
   6.745214e+05  -8.270239e+05
   1.285131e+06  -4.115032e+05
   1.066231e+06   6.482026e+05
  -9.852001e+04   1.436601e+06
  -1.490366e+06   1.074037e+06
  -2.016124e+06  -3.506857e+05
  -1.110136e+06  -1.761602e+06
   6.770096e+05  -2.044467e+06
   2.058602e+06  -1.042522e+06
   2.120307e+06   3.640601e+05
   1.083843e+06   1.138776e+06
  -3.943959e+04   1.026854e+06
  -4.786448e+05   6.306444e+05
  -3.216482e+05   6.192125e+05
  -1.985619e+05   9.602843e+05
  -5.128441e+05   9.964947e+05
  -1.025671e+06   2.521445e+05
  -1.125548e+06  -9.317944e+05
  -4.796247e+05  -1.637755e+06
   5.444170e+05  -1.246511e+06
   1.127570e+06  -4.705030e+04
   7.655039e+05   1.019917e+06
  -1.915767e+05   1.199334e+06
  -8.540346e+05   5.200968e+05
  -6.967444e+05  -3.575851e+05
  -7.214056e+04  -8.031297e+05
   2.500169e+05  -7.151533e+05
  -1.223071e+04  -4.448889e+05
  -3.379923e+05  -3.287191e+05
  -3.039314e+04  -3.479068e+05
   9.177300e+05  -2.235933e+05
   1.684562e+06   2.167679e+05
   1.407306e+06   8.044069e+05
   1.122997e+05   1.146187e+06
  -1.207956e+06   9.641271e+05
  -1.525753e+06   3.546569e+05
  -7.766525e+05  -2.500659e+05
   1.494110e+05  -4.173449e+05
   3.979839e+05  -1.050412e+05
  -1.736552e+04   2.609414e+05
  -4.328806e+05   1.954225e+05
  -3.985606e+05  -2.936065e+05
  -1.003973e+05  -6.534319e+05
   2.911495e+04  -4.175655e+05
  -1.345208e+05   1.680070e+05
  -3.369314e+05   3.581304e+05
  -2.644790e+05  -1.846712e+05
   1.749661e+05  -8.938234e+05
   7.597626e+05  -9.063180e+05
   1.027696e+06  -8.688596e+04
   5.998128e+05   7.824690e+05
  -3.450979e+05   8.729553e+05
  -9.969681e+05   1.864710e+05
  -6.186055e+05  -5.284820e+05
   5.705930e+05  -5.938199e+05
   1.433862e+06   3.907514e+02
   1.045329e+06   7.113792e+05
  -2.929969e+05   9.690578e+05
  -1.335264e+06   6.026147e+05
  -1.187264e+06  -6.654014e+04
  -1.842627e+05  -4.768807e+05
   5.492303e+05  -2.996180e+05
   2.985239e+05   2.120871e+05
  -5.587344e+05   3.970998e+05
  -1.013312e+06  -1.519461e+05
  -4.795225e+05  -1.064844e+06
   6.306210e+05  -1.433322e+06
   1.346492e+06  -6.944597e+05
   1.091422e+06   7.011969e+05
   1.669524e+05   1.593557e+06
  -6.474738e+05   1.201021e+06
  -8.377994e+05  -7.626812e+04
  -4.637102e+05  -1.036438e+06
   9.062529e+04  -9.128113e+05
   4.650604e+05  -1.207485e+05
   4.829735e+05   3.491385e+05
   2.232098e+05   1.492751e+05
   1.261968e+04  -1.103390e+05
   1.349970e+05   1.974772e+05
   4.104042e+05   8.202022e+05
   2.689219e+05   9.689383e+05
  -5.160362e+05   3.735230e+05
  -1.314213e+06  -4.052487e+05
  -1.219738e+06  -7.332661e+05
  -1.778784e+05  -5.940170e+05
   8.260761e+05  -3.588830e+05
   8.948105e+05  -1.929257e+05
   2.530276e+05  -4.996520e+03
  -1.573690e+05   1.887299e+05
   5.919053e+04   2.307233e+05
   3.279123e+05   1.400583e+05
   6.014952e+03   1.209174e+05
  -6.826614e+05   1.641073e+05
  -9.026218e+05  -4.091202e+04
  -2.355896e+05  -5.838425e+05
   8.288404e+05  -9.655193e+05
   1.420579e+06  -5.884312e+05
   1.111159e+06   4.311378e+05
   1.967006e+05   1.245807e+06
  -6.489176e+05   1.169451e+06
  -9.148175e+05   4.017939e+05
  -5.834028e+05  -2.594504e+05
  -7.471119e+04  -3.103603e+05
   1.407792e+05   1.796637e+03
  -4.365250e+04   7.959737e+04
  -3.064571e+05  -2.963912e+05
  -2.505485e+05  -7.089801e+05
   1.778572e+05  -5.720373e+05
   6.100036e+05   1.722567e+05
   5.833612e+05   8.936648e+05
  -4.167602e+03   8.872469e+05
  -7.093536e+05   1.235406e+05
  -8.671395e+05  -7.144311e+05
  -2.399727e+05  -9.464066e+05
   6.383507e+05  -5.216442e+05
   9.319437e+05   9.555866e+04
   4.133161e+05   4.761007e+05
  -2.450998e+05   5.112819e+05
  -2.611016e+05   3.035704e+05
   2.930872e+05   4.374851e+04
   5.877504e+05  -1.641433e+04
   9.956742e+04   2.534090e+05
  -7.258260e+05   5.988261e+05
  -1.038920e+06   5.265336e+05
  -5.892813e+05  -9.418344e+04
   9.531120e+04  -7.270013e+05
   4.176672e+05  -7.152577e+05
   2.920099e+05  -8.558547e+04
   6.294358e+02   4.491142e+05
  -2.247227e+05   3.354317e+05
  -3.075495e+05  -2.006887e+05
  -2.064851e+05  -5.081798e+05
   6.501214e+04  -3.080069e+05
   3.365752e+05   7.243703e+04
   3.910318e+05   1.986921e+05
   2.123510e+05   4.229906e+04
   3.819239e+03  -7.489897e+04
  -7.614552e+04   7.496369e+04
  -9.141454e+04   3.490809e+05
  -1.818524e+05   3.966867e+05
  -3.182622e+05   5.873919e+04
  -3.002850e+05  -4.135636e+05
  -7.136532e+03  -5.719551e+05
   3.929362e+05  -2.348782e+05
   5.287727e+05   2.938978e+05
   1.794686e+05   5.293049e+05
  -4.247643e+05   3.053380e+05
  -7.269248e+05  -1.031232e+05
  -3.939849e+05  -3.346862e+05
   2.575622e+05  -2.944994e+05
   5.380781e+05  -1.301139e+05
   1.636790e+05  -5.168953e+03
  -3.765316e+05  -3.169409e+03
  -3.815329e+05  -1.385253e+05
   2.140745e+05  -2.961501e+05
   7.537308e+05  -2.224178e+05
