
 $NMID
 id='ANONYMOUS ', fmtdat='(2E16.6)'
 volume=1.0
 tramp=1.0
 $END
  -5.418082e+07  -9.570624e+05
  -3.184617e+07  -3.364857e+07
   7.591812e+06  -3.617497e+07
   2.632566e+07  -1.387941e+07
   1.555900e+07   6.488371e+06
  -3.119177e+06   8.786749e+06
  -9.271136e+06  -1.017346e+06
  -2.727926e+06  -9.199416e+06
   5.743289e+06  -9.009897e+06
   9.172788e+06  -2.002046e+06
   6.757038e+06   6.047807e+06
   7.781496e+05   8.411796e+06
  -3.957601e+06   2.618455e+06
  -2.678184e+06  -5.395542e+06
   3.525711e+06  -6.429595e+06
   7.529127e+06   1.255943e+06
   4.247529e+06   9.832219e+06
  -3.696374e+06   1.133633e+07
  -9.817047e+06   5.575511e+06
  -1.041862e+07  -2.193797e+06
  -6.185922e+06  -7.402168e+06
  -3.746245e+05  -8.289777e+06
   2.890887e+06  -5.569720e+06
   1.524449e+06  -2.406386e+06
  -1.416839e+06  -2.190039e+06
  -3.094943e+05  -4.314204e+06
   5.482924e+06  -4.412496e+06
   9.639913e+06  -4.233002e+05
   6.885643e+06   4.165333e+06
   6.236629e+04   5.052190e+06
  -3.881671e+06   2.516255e+06
  -2.568417e+06  -1.743056e+05
   6.770998e+05  -1.233119e+06
   2.503899e+06  -6.422295e+05
   2.361838e+06   1.555405e+06
   6.531601e+05   4.083905e+06
  -1.894065e+06   3.750213e+06
  -3.139354e+06  -3.380612e+05
  -1.478529e+06  -3.655298e+06
   9.199629e+05  -1.704114e+06
   3.688936e+05   2.630702e+06
  -2.393958e+06   2.345394e+06
  -2.358635e+06  -3.043617e+06
   2.295931e+06  -5.792897e+06
   6.540964e+06  -8.158261e+05
   4.755786e+06   6.705691e+06
  -1.925624e+06   8.107582e+06
  -7.189211e+06   2.238132e+06
  -6.789489e+06  -4.297357e+06
  -1.899878e+06  -5.836896e+06
   3.325271e+06  -2.715990e+06
   5.165126e+06   1.354663e+06
   2.450980e+06   3.303249e+06
  -2.275458e+06   2.110470e+06
  -4.356511e+06  -8.725896e+05
  -1.886710e+06  -2.591976e+06
   1.657032e+06  -1.310272e+06
   1.731915e+06   9.589641e+05
  -1.150643e+06   8.846740e+05
  -2.285247e+06  -1.560591e+06
   5.614842e+05  -3.103349e+06
   4.324346e+06  -1.715096e+06
   5.012096e+06   1.267022e+06
   2.209634e+06   3.784270e+06
  -1.807704e+06   5.155585e+06
  -5.009112e+06   4.794405e+06
  -6.151292e+06   1.676282e+06
  -4.474828e+06  -3.198513e+06
  -8.983570e+05  -6.107056e+06
   1.744213e+06  -4.682472e+06
   1.589511e+06  -1.267189e+06
   1.250466e+05   6.969970e+04
   9.996767e+04  -1.146457e+06
   1.782682e+06  -1.828820e+06
   2.951356e+06  -1.650962e+05
   2.103973e+06   2.061028e+06
   1.395331e+04   2.278880e+06
  -1.663196e+06   2.785556e+05
  -1.801859e+06  -2.099377e+06
  -3.386268e+04  -2.994182e+06
   2.808100e+06  -1.654632e+06
   4.464465e+06   1.243243e+06
   3.131287e+06   3.760651e+06
  -1.094075e+05   4.128691e+06
  -2.247696e+06   2.592868e+06
  -2.139382e+06   1.080748e+06
  -1.752835e+06   7.083551e+05
  -2.903025e+06   5.513103e+05
  -4.353539e+06  -6.759098e+05
  -3.542511e+06  -2.710899e+06
  -2.070061e+05  -4.154552e+06
   3.184758e+06  -4.000410e+06
   4.231304e+06  -2.200541e+06
   2.722031e+06   4.384902e+05
   2.772532e+05   2.315981e+06
  -1.140299e+06   1.985269e+06
  -5.806790e+05  -4.915209e+04
   1.101395e+06  -1.347737e+06
   1.915931e+06  -4.182225e+05
   9.214393e+05   1.216390e+06
  -5.201595e+05   1.152550e+06
  -4.655145e+05  -3.554424e+05
   9.785457e+05  -7.292015e+05
   1.802749e+06   1.163311e+06
   7.392057e+05   3.356039e+06
  -1.383918e+06   3.408075e+06
  -3.002328e+06   1.256429e+06
  -3.360232e+06  -1.281038e+06
  -2.434495e+06  -2.700693e+06
  -5.590440e+05  -2.650217e+06
   1.241122e+06  -1.522597e+06
   1.614895e+06  -2.573169e+05
   5.010752e+05   3.806672e+04
  -3.763784e+05  -7.550499e+05
   3.977947e+05  -1.346567e+06
   1.906840e+06  -5.972631e+05
   2.050181e+06   8.582929e+05
   4.090918e+05   1.407449e+06
  -1.169310e+06   5.997540e+05
  -9.225622e+05  -4.299809e+05
   8.164580e+05  -5.548240e+05
   2.206474e+06   2.366444e+05
   1.829008e+06   1.306557e+06
  -1.734876e+05   2.008559e+06
  -2.297634e+06   1.741885e+06
  -2.809151e+06   3.351311e+05
  -1.245954e+06  -1.258383e+06
   9.174927e+05  -1.520157e+06
   1.569285e+06  -1.972134e+05
   2.039567e+05   1.095697e+06
  -1.529164e+06   7.670937e+05
  -1.751342e+06  -7.570103e+05
  -3.812391e+05  -1.655233e+06
   1.065639e+06  -1.009812e+06
   1.266017e+06   2.754797e+05
   2.672433e+05   7.697995e+05
  -7.979840e+05   6.131085e+04
  -7.604422e+05  -1.061077e+06
   5.681414e+05  -1.460188e+06
   2.039996e+06  -5.828876e+05
   2.088548e+06   1.039175e+06
   4.219519e+05   2.101548e+06
  -1.432613e+06   1.687656e+06
  -1.743116e+06   2.440806e+05
  -5.260259e+05  -8.655520e+05
   6.493911e+05  -8.270932e+05
   6.508436e+05  -9.734185e+04
  -9.125106e+04   3.728953e+05
  -4.880954e+05   2.473459e+05
  -1.509105e+05  -3.942863e+04
   4.216041e+05   6.767985e+04
   5.233973e+05   6.515342e+05
  -1.836668e+05   1.193158e+06
  -1.382502e+06   9.308103e+05
  -2.120671e+06  -3.840002e+05
  -1.521156e+06  -1.951544e+06
   1.747162e+05  -2.468828e+06
   1.606281e+06  -1.475640e+06
   1.718962e+06   7.866100e+04
   9.134881e+05   8.848246e+05
   3.686258e+05   6.716920e+05
   4.968917e+05   2.434262e+05
   6.228269e+05   3.217957e+05
   9.133427e+04   7.695943e+05
  -8.675623e+05   9.271044e+05
  -1.458683e+06   3.658329e+05
  -1.092357e+06  -7.040242e+05
   2.066841e+05  -1.489439e+06
   1.721423e+06  -1.129899e+06
   2.295254e+06   4.433716e+05
   1.192486e+06   2.104145e+06
  -9.771966e+05   2.407909e+06
  -2.549705e+06   1.088773e+06
  -2.390718e+06  -6.117818e+05
  -1.008814e+06  -1.321706e+06
   1.661719e+05  -9.651413e+05
   3.776561e+05  -5.504338e+05
   8.400987e+04  -7.908430e+05
   1.048022e+05  -1.333736e+06
   6.678050e+05  -1.311076e+06
   1.309116e+06  -3.371275e+05
   1.379713e+06   1.079492e+06
   6.006038e+05   1.919984e+06
  -6.078953e+05   1.475778e+06
  -1.305633e+06   2.434003e+04
  -8.444002e+05  -1.282272e+06
   3.665395e+05  -1.414286e+06
   1.152954e+06  -4.275838e+05
   8.144760e+05   6.837390e+05
  -1.095835e+05   1.073881e+06
  -5.180762e+05   7.874309e+05
  -6.690046e+04   4.212470e+05
   4.493613e+05   3.394858e+05
   6.856780e+04   3.921507e+05
  -1.158503e+06   2.291549e+05
  -2.095756e+06  -3.077558e+05
  -1.657318e+06  -1.021901e+06
   1.532565e+04  -1.443976e+06
   1.592881e+06  -1.173371e+06
   1.847051e+06  -3.150544e+05
   8.434366e+05   4.753138e+05
  -2.594662e+05   5.737105e+05
  -5.113555e+05   4.253360e+04
  -2.736583e+04  -4.283741e+05
   4.508860e+05  -2.754157e+05
   4.963340e+05   3.408303e+05
   2.709450e+05   7.440761e+05
   1.038069e+05   4.972814e+05
   1.303119e+05  -1.032998e+05
   2.717981e+05  -3.155425e+05
   2.841365e+05   2.284944e+05
  -1.226604e+05   1.013901e+06
  -8.966907e+05   1.101391e+06
  -1.386868e+06   1.890583e+05
  -8.823188e+05  -9.281534e+05
   4.111193e+05  -1.165487e+06
   1.283444e+06  -3.581058e+05
   7.621632e+05   5.714007e+05
  -6.993206e+05   6.711360e+05
  -1.613080e+06  -6.086822e+04
  -1.039688e+06  -8.433871e+05
   4.625404e+05  -1.005858e+06
   1.500342e+06  -5.211072e+05
   1.251310e+06   1.591869e+05
   1.498150e+05   5.150100e+05
  -6.505717e+05   2.855617e+05
  -3.936754e+05  -2.958459e+05
   5.908075e+05  -5.507556e+05
   1.217117e+06   5.706158e+04
   7.168471e+05   1.199940e+06
  -5.656342e+05   1.763847e+06
  -1.500667e+06   9.452738e+05
  -1.303588e+06  -7.437918e+05
  -2.506410e+05  -1.824555e+06
   7.200571e+05  -1.335476e+06
   9.396329e+05   1.599961e+05
   4.622137e+05   1.198956e+06
  -2.012147e+05   9.809262e+05
  -5.686281e+05   9.319325e+04
  -4.821465e+05  -3.665587e+05
  -1.684463e+05  -1.270219e+05
  -4.654969e+04   9.385502e+04
  -2.927717e+05  -3.098972e+05
  -5.419978e+05  -9.802671e+05
  -2.153629e+05  -1.085060e+06
   7.250499e+05  -4.065892e+05
   1.515121e+06   4.387180e+05
   1.319520e+06   8.149656e+05
   2.021151e+05   7.088215e+05
  -8.560548e+05   4.572427e+05
  -9.947730e+05   2.099082e+05
  -3.699525e+05  -5.659195e+04
   1.414326e+05  -2.379211e+05
   3.479631e+04  -1.962577e+05
  -2.694360e+05  -7.437131e+04
  -5.949137e+04  -1.383334e+05
   6.637250e+05  -2.733014e+05
   1.074851e+06  -1.724042e+04
   4.740517e+05   7.137722e+05
  -8.257627e+05   1.243062e+06
  -1.733292e+06   8.195201e+05
  -1.474748e+06  -4.100260e+05
  -3.257003e+05  -1.432952e+06
   7.541848e+05  -1.428748e+06
   1.066468e+06  -5.870516e+05
   6.809931e+05   2.113464e+05
   1.518719e+05   3.677637e+05
  -6.564508e+04   8.642314e+04
   7.950285e+04  -7.422345e+03
   3.082217e+05   3.670292e+05
   2.696265e+05   8.160234e+05
  -1.639820e+05   7.050112e+05
  -7.048946e+05  -9.289711e+04
  -7.990521e+05  -9.490773e+05
  -1.633099e+05  -1.065158e+06
   7.643537e+05  -2.961742e+05
   1.094596e+06   6.966086e+05
   3.983493e+05   1.112162e+06
  -7.146342e+05   7.274945e+05
  -1.157406e+06  -4.358267e+04
  -5.639973e+05  -6.268558e+05
   2.836478e+05  -7.156043e+05
   3.917892e+05  -3.828911e+05
  -2.432745e+05   1.242317e+04
  -6.614981e+05   6.436254e+04
  -1.623951e+05  -3.167383e+05
   8.235663e+05  -7.173720e+05
   1.278227e+06  -5.718200e+05
   7.925593e+05   1.790925e+05
  -7.484313e+04   8.992766e+05
  -5.558059e+05   8.909746e+05
  -4.518494e+05   1.801691e+05
  -8.124067e+04  -4.875962e+05
   2.335487e+05  -4.629112e+05
   3.722407e+05   1.258301e+05
   2.806074e+05   5.839626e+05
  -4.431503e+04   4.537525e+05
  -4.059042e+05  -2.774048e+04
  -4.949255e+05  -2.849138e+05
  -2.463823e+05  -9.987691e+04
   4.051579e+04   1.675558e+05
   7.319123e+04   6.439589e+04
  -4.806162e+04  -3.638043e+05
   1.471654e+04  -5.963449e+05
   3.254409e+05  -2.650089e+05
   5.101196e+05   3.673528e+05
   2.083402e+05   6.703886e+05
  -4.045163e+05   3.468184e+05
  -7.048746e+05  -2.601560e+05
  -2.896862e+05  -5.773207e+05
   5.135506e+05  -3.907693e+05
   9.191456e+05   4.645365e+04
   5.078534e+05   3.731703e+05
  -2.938396e+05   4.310624e+05
  -6.587286e+05   2.665389e+05
  -2.692682e+05   2.315919e+04
   3.420488e+05  -1.028954e+05
   4.221250e+05   3.085006e+04
  -1.431027e+05   3.008981e+05
  -7.297336e+05   3.156677e+05
