
 $NMID
 id='ANONYMOUS ', fmtdat='(2E16.6)'
 volume=1.0
 tramp=1.0
 $END
  -6.264087e+05   2.107751e+06
  -1.238474e+06   9.773811e+03
  -5.504985e+05  -9.136791e+05
   4.778052e+04  -2.073449e+05
  -4.111703e+04   4.344539e+05
  -1.813327e+05   9.415715e+04
   5.658802e+04  -3.355270e+05
   2.536249e+05  -5.251100e+04
   8.123637e+04   3.675075e+05
  -9.921775e+04   1.584306e+05
   6.303963e+04  -3.317894e+05
   3.023717e+05  -3.096366e+05
   2.312964e+05   2.021824e+05
  -4.429558e+04   5.226846e+05
  -1.691741e+05   3.406540e+05
  -5.201684e+04  -2.389215e+04
   1.529142e+05  -1.699049e+05
   2.885635e+05   1.445361e+04
   2.038699e+05   3.669293e+05
  -1.741253e+05   5.295269e+05
  -5.695999e+05   2.180395e+05
  -4.927088e+05  -3.300809e+05
   9.390170e+04  -4.526083e+05
   5.507657e+05   9.258901e+04
   3.140676e+05   6.730069e+05
  -3.687596e+05   5.478628e+05
  -7.650055e+05  -1.587640e+05
  -5.212213e+05  -6.721026e+05
   8.491835e+04  -5.623190e+05
   5.586154e+05  -7.885195e+04
   5.558398e+05   3.642488e+05
   4.054371e+04   5.439641e+05
  -5.853772e+05   3.365016e+05
  -6.878933e+05  -2.051053e+05
  -1.101508e+05  -6.332232e+05
   4.800855e+05  -4.596682e+05
   3.661341e+05   1.409860e+05
  -2.363151e+05   4.275574e+05
  -4.775854e+05   6.578949e+04
  -8.490097e+04  -4.267043e+05
   3.289857e+05  -4.514673e+05
   2.659703e+05  -1.277762e+05
   2.577135e+04   3.476295e+04
   8.530142e+04  -7.063405e+04
   3.256769e+05  -1.272469e+05
   3.376910e+05   1.755849e+04
   1.368630e+05   1.908413e+05
   5.713645e+04   2.640623e+05
   1.285293e+05   2.959320e+05
   6.633357e+04   2.927747e+05
  -1.818567e+05   1.592166e+05
  -3.288077e+05  -5.691997e+04
  -2.160635e+05  -1.498049e+05
  -2.169390e+04  -5.884312e+04
   5.986414e+04   4.473941e+04
   3.815245e+04   3.610852e+04
  -2.953778e+04  -2.002818e+04
  -1.267297e+05  -6.489972e+04
  -1.497637e+05  -1.501093e+05
   2.212085e+04  -2.549779e+05
   2.547738e+05  -2.296977e+05
   2.557212e+05  -5.136824e+04
   4.609736e+04   7.161840e+04
   1.275941e+04   1.031328e+04
   3.145066e+05  -5.657116e+04
   5.587951e+05   8.279322e+04
   3.473491e+05   3.254349e+05
  -1.145996e+05   4.060245e+05
  -3.067914e+05   2.959260e+05
  -1.349961e+05   2.099783e+05
  -9.273207e+02   2.519691e+05
  -1.727507e+05   2.773176e+05
  -4.471459e+05   1.289032e+05
  -4.987489e+05  -1.610535e+05
  -2.759297e+05  -4.290768e+05
   5.101244e+04  -5.068052e+05
   3.032928e+05  -2.982044e+05
   3.448217e+05   1.084084e+05
   1.240201e+05   3.993346e+05
  -1.979415e+05   2.909781e+05
  -3.155230e+05  -1.165677e+05
  -1.157235e+05  -4.005649e+05
   1.644547e+05  -3.038558e+05
   2.346646e+05  -1.636835e+04
   9.998668e+04   1.183974e+05
  -5.392418e+03   3.109133e+04
   6.178714e+04  -7.018649e+04
   2.262525e+05  -1.462921e+04
   3.150212e+05   1.670382e+05
   1.943416e+05   3.369377e+05
  -1.377260e+05   3.703573e+05
  -4.783206e+05   2.111691e+05
  -5.229463e+05  -6.846677e+04
  -1.913215e+05  -2.723258e+05
   2.057078e+05  -2.499864e+05
   2.838358e+05  -6.728559e+04
   3.702567e+04   7.001749e+04
  -1.898631e+05   5.123110e+04
  -1.575417e+05  -5.479792e+04
   2.570316e+04  -1.228324e+05
   1.354533e+05  -8.765132e+04
   1.060218e+05   3.732415e+04
  -3.799153e+02   1.518986e+05
  -1.220786e+05   1.012671e+05
  -1.770794e+05  -1.518208e+05
  -5.506843e+04  -3.857853e+05
   2.196772e+05  -3.064901e+05
   4.089743e+05   7.505704e+04
   3.020551e+05   3.969453e+05
  -6.391755e+03   3.658459e+05
  -2.176003e+05   9.760625e+04
  -1.857962e+05  -7.474873e+04
  -4.598198e+04  -2.585081e+04
   7.520496e+03   8.094715e+04
  -5.794729e+04   7.607127e+04
  -1.372405e+05  -2.275295e+04
  -1.284389e+05  -1.031800e+05
  -1.555707e+04  -1.034051e+05
   1.134306e+05  -2.924570e+04
   1.142305e+05   6.818347e+04
  -6.420782e+04   9.396546e+04
  -2.605884e+05  -1.948768e+04
  -2.335805e+05  -1.977462e+05
   4.083975e+04  -2.610355e+05
   2.994535e+05  -1.303576e+05
   2.894959e+05   6.498748e+04
   6.061763e+04   1.395059e+05
  -1.225770e+05   5.947553e+04
  -9.945089e+04  -5.326421e+04
   5.132797e+04  -7.819179e+04
   1.588266e+05   9.351673e+02
   1.374545e+05   1.137052e+05
   1.936682e+04   1.650883e+05
  -9.955949e+04   1.047109e+05
  -1.252004e+05  -1.339590e+04
  -4.370032e+04  -6.265302e+04
   4.259428e+04   1.375903e+04
   1.182863e+04   1.155128e+05
  -1.238487e+05   9.686442e+04
  -2.125400e+05  -5.102815e+04
  -1.369747e+05  -1.904133e+05
   4.819059e+04  -2.017464e+05
   1.820283e+05  -9.730117e+04
   1.654508e+05   2.764379e+04
   3.774384e+04   9.180018e+04
  -8.090815e+04   6.628095e+04
  -9.349916e+04  -1.882497e+04
  -9.981133e+02  -8.133973e+04
   9.634676e+04  -5.426744e+04
   9.413899e+04   2.608394e+04
   4.250914e+03   4.871881e+04
  -4.779680e+04  -2.486123e+04
   2.469122e+04  -9.340498e+04
   1.507543e+05  -4.025246e+04
   1.792640e+05   1.151729e+05
   5.644534e+04   2.401576e+05
  -1.209655e+05   2.351488e+05
  -2.213745e+05   1.112251e+05
  -2.003605e+05  -5.056087e+04
  -1.078075e+05  -1.623352e+05
  -2.126006e+04  -1.710669e+05
   1.369606e+04  -9.798611e+04
   1.192831e+04  -3.311241e+04
   3.208744e+04  -3.824847e+04
   1.035271e+05  -6.042384e+04
   1.642659e+05  -1.351474e+03
   1.128416e+05   1.253868e+05
  -5.764821e+04   1.795237e+05
  -2.157008e+05   6.730185e+04
  -2.168828e+05  -1.288035e+05
  -5.364502e+04  -2.385831e+05
   1.469217e+05  -1.841886e+05
   2.529907e+05  -3.045398e+04
   2.250246e+05   1.093310e+05
   1.080446e+05   1.672472e+05
  -2.176452e+04   1.428623e+05
  -1.012066e+05   8.696411e+04
  -1.143431e+05   6.136650e+04
  -1.002587e+05   7.478600e+04
  -1.041033e+05   6.221621e+04
  -1.138272e+05  -3.349312e+04
  -7.334926e+04  -1.644450e+05
   3.057119e+04  -2.094498e+05
   1.263889e+05  -1.137686e+05
   1.295190e+05   4.278757e+04
   3.992948e+04   1.348156e+05
  -5.806791e+04   1.159743e+05
  -8.694148e+04   3.623914e+04
  -4.544220e+04  -3.320628e+04
   8.904759e+03  -6.180127e+04
   2.480607e+04  -6.253329e+04
   1.424195e+03  -6.149317e+04
  -1.618564e+04  -6.429320e+04
   1.841831e+04  -4.510659e+04
   9.947927e+04   2.008321e+04
   1.563996e+05   1.058176e+05
   1.129878e+05   1.467020e+05
  -2.579973e+04   1.093136e+05
  -1.573525e+05   3.257485e+04
  -1.738241e+05  -2.138105e+04
  -7.484703e+04  -3.316491e+04
   2.931516e+04  -2.147717e+04
   3.808513e+04  -1.931903e+03
  -3.031118e+04   1.298748e+04
  -7.090944e+04  -2.821715e+03
  -2.656052e+04  -5.543788e+04
   4.322516e+04  -9.181396e+04
   4.538088e+04  -5.310224e+04
  -2.214634e+04   2.801903e+04
  -6.742823e+04   4.679636e+04
  -2.242069e+04  -3.035397e+04
   7.496394e+04  -1.013436e+05
   1.305415e+05  -5.725589e+04
   9.578578e+04   6.547727e+04
   3.824323e+02   1.262767e+05
  -8.900480e+04   5.856689e+04
  -1.120780e+05  -5.654349e+04
  -4.114634e+04  -9.963134e+04
   8.722288e+04  -4.117703e+04
   1.685674e+05   5.659108e+04
   1.110920e+05   1.184363e+05
  -5.417570e+04   1.076880e+05
  -1.784412e+05   3.539205e+04
  -1.470045e+05  -4.401769e+04
  -1.058701e+04  -6.533931e+04
   7.097781e+04  -1.712488e+04
   1.362299e+04   3.317914e+04
  -9.692584e+04   8.086324e+03
  -1.092683e+05  -8.663996e+04
   1.875086e+04  -1.600309e+05
   1.728055e+05  -1.286405e+05
   2.059145e+05   2.710417e+03
   9.018081e+04   1.459491e+05
  -6.462042e+04   1.980796e+05
  -1.330132e+05   1.174728e+05
  -9.271728e+04  -3.574460e+04
  -1.538682e+04  -1.363933e+05
   3.389819e+04  -1.059048e+05
   5.103665e+04   3.021189e+03
   5.295513e+04   6.388006e+04
   3.546128e+04   2.895711e+04
  -4.094584e+02  -1.558294e+04
  -2.033047e+04   2.477549e+04
  -4.089090e+03   1.130180e+05
   2.355827e+03   1.238881e+05
  -5.543128e+04   1.451947e+04
  -1.347142e+05  -1.135087e+05
  -1.217676e+05  -1.419573e+05
   8.862823e+03  -7.317715e+04
   1.304903e+05  -1.498856e+03
   1.175497e+05   1.590596e+04
   1.329968e+04   6.691649e+03
  -3.467964e+04   1.397189e+04
   1.620090e+04   3.415457e+04
   5.334955e+04   3.838731e+04
  -1.335430e+04   1.730993e+04
  -1.110488e+05  -1.899282e+04
  -1.008448e+05  -5.957035e+04
   3.463859e+04  -8.488306e+04
   1.699151e+05  -6.029436e+04
   1.860397e+05   2.726656e+04
   8.320633e+04   1.283882e+05
  -5.168296e+04   1.600992e+05
  -1.345750e+05   9.117071e+04
  -1.304364e+05  -1.729064e+04
  -5.897343e+04  -7.174757e+04
   1.705034e+04  -4.162574e+04
   3.673067e+04   1.476673e+04
   1.061049e+03   1.842128e+04
  -2.672199e+04  -4.183644e+04
   1.386295e+03  -9.248309e+04
   5.653407e+04  -5.309745e+04
   6.854199e+04   6.510422e+04
   1.062438e+04   1.513060e+05
  -7.122873e+04   1.063942e+05
  -1.059328e+05  -3.983847e+04
  -5.968783e+04  -1.495267e+05
   3.748929e+04  -1.252024e+05
   1.098350e+05  -1.158734e+04
   9.425526e+04   7.090619e+04
   6.423368e+03   6.772337e+04
  -6.022429e+04   2.736593e+04
  -3.206858e+04   1.178246e+04
   5.080824e+04   2.301147e+04
   7.405466e+04   3.222118e+04
  -9.604379e+03   3.321485e+04
  -1.160427e+05   3.150815e+04
  -1.302106e+05   1.219024e+04
  -4.156090e+04  -3.489997e+04
   5.474294e+04  -7.227004e+04
   7.474954e+04  -4.784923e+04
   2.493215e+04   2.407586e+04
  -3.198084e+04   6.182440e+04
  -5.076067e+04   1.773224e+04
  -2.994478e+04  -5.551821e+04
   6.785011e+03  -7.152768e+04
   3.315361e+04  -1.899802e+04
   3.623340e+04   3.413456e+04
   2.542639e+04   3.549216e+04
   1.911373e+04   7.090113e+03
   1.613350e+04   1.480805e+03
  -5.129653e+03   2.962812e+04
  -4.867139e+04   5.177950e+04
  -7.913121e+04   2.782852e+04
  -5.860366e+04  -3.654547e+04
   3.598038e+03  -8.958028e+04
   5.835592e+04  -7.741431e+04
   6.898651e+04   3.620086e+02
   3.718211e+04   7.742642e+04
  -1.530685e+04   8.003120e+04
  -6.226696e+04   7.517280e+03
  -7.096082e+04  -6.282289e+04
  -2.210920e+04  -6.269296e+04
   4.994105e+04  -7.767562e+03
   6.977818e+04   3.101048e+04
   7.780088e+03   1.496755e+04
  -6.449311e+04  -2.889940e+04
  -4.858983e+04  -5.304277e+04
   5.234701e+04  -3.707511e+04
   1.232408e+05   1.035226e+04
