
 $NMID
 id='ANONYMOUS ', fmtdat='(2E16.6)'
 volume=1.0
 tramp=1.0
 $END
  -3.479949e+07  -1.745963e+06
  -2.081850e+07  -1.984663e+07
   3.507836e+06  -2.235891e+07
   1.622970e+07  -1.098301e+07
   1.098459e+07   1.753097e+06
  -8.464081e+05   5.804624e+06
  -6.380661e+06   1.010854e+06
  -3.277314e+06  -5.731227e+06
   2.806299e+06  -7.481142e+06
   6.189561e+06  -2.560677e+06
   4.872020e+06   4.346072e+06
   4.510227e+05   6.387739e+06
  -3.042084e+06   1.534738e+06
  -2.159200e+06  -4.808931e+06
   2.233235e+06  -5.545542e+06
   5.282004e+06   2.376955e+05
   3.309636e+06   6.667313e+06
  -2.233916e+06   7.891650e+06
  -6.635977e+06   3.628652e+06
  -6.724898e+06  -1.987775e+06
  -3.253650e+06  -5.038955e+06
   3.969014e+05  -4.641555e+06
   1.218084e+06  -2.712925e+06
  -7.377767e+05  -1.929701e+06
  -2.092886e+06  -3.157071e+06
   3.678767e+05  -4.408411e+06
   5.403035e+06  -3.072905e+06
   7.899408e+06   6.746454e+05
   4.763338e+06   3.732838e+06
  -1.066912e+06   3.619720e+06
  -3.939562e+06   1.045891e+06
  -1.887694e+06  -1.395758e+06
   1.921415e+06  -1.866707e+06
   3.524375e+06  -1.643212e+05
   2.089722e+06   2.533520e+06
  -4.532248e+05   3.958869e+06
  -1.930252e+06   2.319958e+06
  -1.505293e+06  -1.135695e+06
   3.881861e+03  -2.532732e+06
   7.461696e+05  -5.539370e+04
  -3.761066e+05   3.000859e+06
  -2.104983e+06   2.163291e+06
  -1.906570e+06  -1.911565e+06
   8.112399e+05  -3.864689e+06
   3.423812e+06  -7.281625e+05
   2.832498e+06   4.065292e+06
  -9.821765e+05   5.090505e+06
  -4.802943e+06   1.408825e+06
  -5.304321e+06  -3.081712e+06
  -1.996727e+06  -4.530411e+06
   2.463463e+06  -2.552545e+06
   4.469673e+06   5.765489e+05
   2.523646e+06   2.360391e+06
  -1.271979e+06   1.737567e+06
  -3.139972e+06  -3.309938e+05
  -1.574103e+06  -1.647518e+06
   1.081152e+06  -9.498924e+05
   1.582965e+06   6.528213e+05
  -2.730841e+05   1.071271e+06
  -1.685364e+06  -1.505979e+05
  -5.510808e+05  -1.461065e+06
   2.050644e+06  -1.351814e+06
   3.321946e+06   2.110405e+05
   1.774990e+06   2.303188e+06
  -1.596517e+06   3.800672e+06
  -4.453114e+06   3.493961e+06
  -4.948367e+06   8.193691e+05
  -3.005754e+06  -2.861774e+06
  -3.340292e+05  -4.836734e+06
   1.089343e+06  -3.861419e+06
   9.056039e+05  -1.676461e+06
   5.168180e+05  -7.579377e+05
   1.179731e+06  -1.194572e+06
   2.430351e+06  -9.966581e+05
   2.769618e+06   7.837876e+05
   1.496450e+06   2.592522e+06
  -5.985262e+05   2.365885e+06
  -2.042842e+06   6.124114e+04
  -1.762581e+06  -2.329903e+06
   2.312710e+05  -2.811381e+06
   2.606995e+06  -1.061276e+06
   3.450313e+06   1.521330e+06
   2.007639e+06   3.080285e+06
  -3.437985e+05   2.834960e+06
  -1.552103e+06   1.621648e+06
  -1.317264e+06   8.336067e+05
  -1.270252e+06   8.335368e+05
  -2.515618e+06   6.933752e+05
  -3.859374e+06  -4.870838e+05
  -3.182088e+06  -2.399661e+06
  -1.679160e+05  -3.792475e+06
   3.066527e+06  -3.592131e+06
   4.074653e+06  -1.714688e+06
   2.406846e+06   7.823904e+05
  -1.522734e+05   2.230505e+06
  -1.355989e+06   1.633741e+06
  -4.929620e+05  -1.766728e+05
   1.138963e+06  -1.153580e+06
   1.678811e+06  -3.040673e+05
   6.566743e+05   1.071898e+06
  -6.131202e+05   1.057954e+06
  -6.319028e+05  -2.993974e+05
   5.856997e+05  -9.886156e+05
   1.639557e+06   3.371087e+05
   1.293471e+06   2.579635e+06
  -4.336807e+05   3.450325e+06
  -2.466335e+06   1.969722e+06
  -3.488327e+06  -7.150078e+05
  -2.736732e+06  -2.640581e+06
  -6.311815e+05  -2.725726e+06
   1.277750e+06  -1.420522e+06
   1.569676e+06  -1.307364e+05
   4.646798e+05   4.540158e+04
  -3.447951e+05  -6.960337e+05
   3.044104e+05  -1.150597e+06
   1.604299e+06  -5.136401e+05
   1.804009e+06   6.704632e+05
   4.390375e+05   1.187960e+06
  -1.046432e+06   5.873853e+05
  -9.745710e+05  -3.935972e+05
   6.726717e+05  -7.150574e+05
   2.223128e+06  -1.032071e+04
   2.003730e+06   1.234307e+06
  -2.500352e+04   2.082075e+06
  -2.191939e+06   1.757068e+06
  -2.647133e+06   3.235885e+05
  -1.120066e+06  -1.106097e+06
   8.114730e+05  -1.268637e+06
   1.306770e+06  -1.300149e+05
   9.421021e+04   9.348476e+05
  -1.393872e+06   6.578013e+05
  -1.624263e+06  -6.531143e+05
  -4.654286e+05  -1.522833e+06
   8.892661e+05  -1.060093e+06
   1.212511e+06   1.043171e+05
   3.632319e+05   6.620782e+05
  -6.573976e+05   7.394906e+04
  -6.517457e+05  -9.679353e+05
   5.837789e+05  -1.314682e+06
   1.907936e+06  -4.561357e+05
   1.888154e+06   1.019300e+06
   3.565652e+05   1.927423e+06
  -1.297804e+06   1.539156e+06
  -1.595729e+06   2.561066e+05
  -5.329869e+05  -7.793400e+05
   5.816959e+05  -7.950233e+05
   6.831969e+05  -7.276315e+04
  -2.479271e+04   4.860896e+05
  -5.714133e+05   3.671742e+05
  -3.682015e+05  -8.078535e+04
   2.753141e+05  -1.320406e+05
   5.488964e+05   4.511477e+05
  -7.013516e+04   1.078055e+06
  -1.252168e+06   8.775824e+05
  -1.960759e+06  -3.633590e+05
  -1.374764e+06  -1.823474e+06
   2.028532e+05  -2.323577e+06
   1.537373e+06  -1.455448e+06
   1.708478e+06   1.751929e+04
   9.982262e+05   9.394745e+05
   3.804211e+05   8.757886e+05
   3.292536e+05   3.827225e+05
   4.229466e+05   2.493980e+05
   5.353878e+04   6.165842e+05
  -7.711938e+05   8.800174e+05
  -1.395596e+06   4.035862e+05
  -1.121960e+06  -7.013407e+05
   1.406991e+05  -1.516004e+06
   1.636411e+06  -1.122647e+06
   2.187044e+06   4.203560e+05
   1.158564e+06   1.953862e+06
  -8.261207e+05   2.223015e+06
  -2.303403e+06   1.065603e+06
  -2.282354e+06  -4.760361e+05
  -1.102083e+06  -1.243822e+06
   7.381205e+04  -1.052967e+06
   4.713495e+05  -6.476406e+05
   2.884376e+05  -7.146938e+05
   2.143118e+05  -1.117290e+06
   6.077020e+05  -1.119623e+06
   1.162156e+06  -2.637860e+05
   1.238361e+06   1.041881e+06
   5.111487e+05   1.808605e+06
  -6.102619e+05   1.366212e+06
  -1.231971e+06   2.676305e+04
  -8.034119e+05  -1.151284e+06
   2.683449e+05  -1.305178e+06
   9.731064e+05  -4.966379e+05
   7.385425e+05   4.750935e+05
   3.842392e+03   9.039816e+05
  -3.428580e+05   7.502867e+05
  -7.959089e+03   4.552733e+05
   3.837962e+05   3.578523e+05
   3.800483e+04   3.807060e+05
  -1.030998e+06   2.157854e+05
  -1.874771e+06  -2.883045e+05
  -1.528444e+06  -9.273109e+05
  -5.775237e+04  -1.276164e+06
   1.392625e+06  -1.037696e+06
   1.688889e+06  -3.335840e+05
   8.167089e+05   3.310515e+05
  -1.999028e+05   4.723151e+05
  -4.446063e+05   8.379421e+04
   1.957911e+04  -3.230424e+05
   4.665438e+05  -2.245957e+05
   4.410983e+05   3.299441e+05
   1.431249e+05   7.247246e+05
  -1.761887e+03   4.706063e+05
   1.357847e+05  -1.590433e+05
   3.342401e+05  -3.690055e+05
   2.795254e+05   2.082033e+05
  -1.812640e+05   9.756691e+05
  -8.530404e+05   9.931628e+05
  -1.185680e+06   8.894347e+04
  -6.939249e+05  -8.851346e+05
   4.052582e+05  -9.909996e+05
   1.139235e+06  -2.180739e+05
   6.845285e+05   5.797528e+05
  -6.421613e+05   6.338738e+05
  -1.551263e+06  -3.423908e+04
  -1.085408e+06  -7.859192e+05
   3.593108e+05  -1.014976e+06
   1.443772e+06  -5.952916e+05
   1.258198e+06   1.030684e+05
   1.802020e+05   5.095013e+05
  -6.045440e+05   3.019844e+05
  -3.326573e+05  -2.536852e+05
   6.088000e+05  -4.551591e+05
   1.127271e+06   1.522197e+05
   5.552917e+05   1.175343e+06
  -6.742781e+05   1.599593e+06
  -1.478183e+06   7.826971e+05
  -1.199725e+06  -7.677017e+05
  -1.763760e+05  -1.744595e+06
   7.137218e+05  -1.291735e+06
   9.017271e+05   1.128343e+05
   4.719377e+05   1.134676e+06
  -1.328349e+05   9.693587e+05
  -5.151657e+05   1.103470e+05
  -5.052385e+05  -3.729542e+05
  -2.211039e+05  -1.473071e+05
  -2.149570e+04   1.089053e+05
  -1.755795e+05  -2.504340e+05
  -4.527250e+05  -9.166986e+05
  -2.567777e+05  -1.046664e+06
   6.026130e+05  -3.843284e+05
   1.432352e+06   4.538520e+05
   1.301094e+06   8.037863e+05
   1.832420e+05   6.578700e+05
  -8.849541e+05   3.994551e+05
  -9.695352e+05   1.974313e+05
  -2.929937e+05  -2.101405e+04
   1.653570e+05  -2.125260e+05
  -3.877031e+04  -2.261969e+05
  -3.334968e+05  -1.258422e+05
  -1.916780e+04  -1.359207e+05
   7.212495e+05  -2.017439e+05
   9.998492e+05   4.275423e+04
   3.008359e+05   6.677476e+05
  -8.941554e+05   1.088231e+06
  -1.597244e+06   6.536172e+05
  -1.267072e+06  -4.781359e+05
  -2.241856e+05  -1.370681e+06
   7.335254e+05  -1.289883e+06
   1.017947e+06  -4.586067e+05
   6.427109e+05   2.686800e+05
   9.425417e+04   3.478890e+05
  -1.343467e+05   2.737065e+04
   5.031428e+04  -6.126912e+04
   3.164676e+05   3.316580e+05
   2.585242e+05   7.764166e+05
  -1.948486e+05   6.379591e+05
  -6.725543e+05  -1.684145e+05
  -6.651100e+05  -9.724287e+05
  -2.510588e+04  -9.936537e+05
   7.740711e+05  -1.705871e+05
   9.726652e+05   7.658145e+05
   2.800549e+05   1.052501e+06
  -7.087808e+05   5.966489e+05
  -1.044484e+06  -1.060071e+05
  -4.625757e+05  -5.539115e+05
   2.850178e+05  -5.892545e+05
   3.167348e+05  -3.299673e+05
  -2.987656e+05  -2.774563e+04
  -6.415370e+05   2.307788e+04
  -1.161987e+05  -2.886003e+05
   8.001026e+05  -6.522600e+05
   1.161824e+06  -5.447994e+05
   6.678324e+05   1.390605e+05
  -1.096915e+05   8.122313e+05
  -4.917706e+05   7.878832e+05
  -3.577140e+05   1.026506e+05
  -1.838883e+04  -4.886902e+05
   2.492235e+05  -3.858925e+05
   3.460071e+05   1.964233e+05
   2.300322e+05   5.609380e+05
  -7.465132e+04   3.646838e+05
  -3.758165e+05  -7.020584e+04
  -4.321207e+05  -2.411822e+05
  -2.279512e+05  -6.322192e+04
   7.417401e+02   1.072120e+05
   6.882471e+04  -4.106294e+04
   6.034380e+04  -3.813369e+05
   1.621351e+05  -4.833649e+05
   3.523807e+05  -1.162574e+05
   3.749578e+05   4.390048e+05
   5.301605e+04   6.432747e+05
  -4.253499e+05   2.753237e+05
  -6.053734e+05  -3.146215e+05
  -2.134731e+05  -5.782996e+05
   4.778963e+05  -3.362424e+05
   8.202935e+05   1.096132e+05
   4.412064e+05   3.719737e+05
  -2.917679e+05   3.431468e+05
  -6.090718e+05   1.631350e+05
  -2.020606e+05   1.831718e+03
   3.945464e+05  -2.704408e+04
   4.199138e+05   1.205418e+05
  -2.069504e+05   3.174483e+05
  -7.935266e+05   2.589189e+05
