
 $NMID
 id='ANONYMOUS ', fmtdat='(2E16.6)'
 volume=1.0
 tramp=1.0
 $END
   1.344444e+07  -1.344454e+06
   1.030862e+07   4.524566e+06
   1.787982e+06   8.427511e+06
  -5.110146e+06   7.403445e+06
  -5.557687e+06   2.071525e+06
  -1.046695e+06  -2.607677e+06
   3.009586e+06  -2.194273e+06
   3.010233e+06   2.054145e+06
  -2.726129e+04   4.653329e+06
  -2.627550e+06   2.492343e+06
  -2.587920e+06  -1.740167e+06
  -4.902124e+05  -3.214891e+06
   1.435620e+06  -6.179999e+05
   1.370663e+06   2.872816e+06
  -6.060614e+05   3.505681e+06
  -2.518125e+06   7.524595e+05
  -2.269058e+06  -2.668129e+06
   1.546223e+05  -3.750327e+06
   2.505911e+06  -1.952426e+06
   2.683342e+06   6.634875e+05
   1.043192e+06   1.775164e+06
  -1.753902e+05   1.153564e+06
   4.246375e+05   5.281167e+05
   1.812091e+06   1.254237e+06
   1.789634e+06   2.663566e+06
  -4.875893e+05   3.001345e+06
  -3.423787e+06   1.551324e+06
  -4.374289e+06  -6.514670e+05
  -2.256981e+06  -1.981439e+06
   1.106188e+06  -1.624065e+06
   2.556860e+06  -2.177610e+04
   8.432610e+05   1.490731e+06
  -1.983655e+06   1.537564e+06
  -2.884273e+06  -1.421649e+05
  -1.242978e+06  -2.139514e+06
   7.702119e+05  -2.506667e+06
   1.110611e+06  -8.594699e+05
   9.493827e+04   9.896945e+05
  -6.120293e+05   9.802760e+05
  -2.504322e+05  -7.950650e+05
   6.009946e+05  -2.175922e+06
   1.194954e+06  -1.468351e+06
   1.218677e+06   6.052959e+05
   5.280401e+05   1.791252e+06
  -6.619632e+05   8.616686e+05
  -1.300927e+06  -1.109628e+06
  -2.806852e+05  -2.010699e+06
   1.892698e+06  -9.061595e+05
   3.047785e+06   1.157040e+06
   1.674380e+06   2.348833e+06
  -1.138140e+06   1.803098e+06
  -2.769983e+06   2.092871e+05
  -1.902720e+06  -1.040856e+06
   2.672536e+05  -1.107715e+06
   1.558404e+06  -2.564299e+05
   1.029337e+06   5.507991e+05
  -3.822875e+05   5.376700e+05
  -1.041546e+06  -2.295704e+05
  -2.753223e+05  -9.202954e+05
   9.769991e+05  -7.390814e+05
   1.157384e+06   2.329099e+05
  -1.274496e+05   1.018908e+06
  -1.478447e+06   6.804754e+05
  -1.194363e+06  -6.878006e+05
   7.171073e+05  -1.936605e+06
   2.490512e+06  -1.878690e+06
   2.615927e+06  -3.754494e+05
   1.385628e+06   1.529013e+06
   1.949523e+05   2.547358e+06
  -2.012167e+05   2.280964e+06
  -2.378009e+05   1.441919e+06
  -6.040519e+05   9.280419e+05
  -1.336114e+06   7.743269e+05
  -1.890207e+06   2.539979e+05
  -1.725255e+06  -9.367933e+05
  -7.177706e+05  -1.948028e+06
   6.809193e+05  -1.613324e+06
   1.573307e+06   6.051041e+04
   1.219531e+06   1.661557e+06
  -2.051466e+05   1.797704e+06
  -1.580810e+06   4.999795e+05
  -1.826266e+06  -9.813840e+05
  -9.280356e+05  -1.560694e+06
   1.428860e+05  -1.226911e+06
   5.366469e+05  -7.047683e+05
   4.056026e+05  -5.605986e+05
   5.950673e+05  -7.229350e+05
   1.503747e+06  -6.644525e+05
   2.402801e+06   6.336888e+04
   2.079584e+06   1.336684e+06
   2.421629e+05   2.384351e+06
  -1.878459e+06   2.336055e+06
  -2.591913e+06   1.045163e+06
  -1.458873e+06  -6.178325e+05
   2.608665e+05  -1.436697e+06
   9.581094e+05  -9.376880e+05
   2.802222e+05   1.732524e+05
  -7.492358e+05   7.124299e+05
  -1.002018e+06   2.112563e+05
  -3.478121e+05  -6.130475e+05
   4.366382e+05  -6.737373e+05
   5.358795e+05   1.828876e+05
  -1.967554e+05   8.723481e+05
  -1.134102e+06   2.696909e+05
  -1.330458e+06  -1.367703e+06
  -2.998792e+05  -2.481611e+06
   1.412559e+06  -1.845249e+06
   2.518147e+06   9.669620e+04
   2.102893e+06   1.715144e+06
   5.397665e+05   1.884357e+06
  -8.349283e+05   9.459625e+05
  -1.025176e+06   7.027735e+04
  -2.954193e+05  -1.798327e+04
   2.444257e+05   4.331515e+05
  -1.083911e+05   7.022499e+05
  -9.148855e+05   3.810315e+05
  -1.138447e+06  -2.881667e+05
  -3.649739e+05  -6.909264e+05
   6.401805e+05  -4.361557e+05
   7.128264e+05   2.339266e+05
  -3.796486e+05   6.154570e+05
  -1.554496e+06   2.051623e+05
  -1.505163e+06  -7.634231e+05
  -1.147013e+05  -1.476371e+06
   1.389351e+06  -1.280324e+06
   1.706374e+06  -3.054027e+05
   7.401974e+05   6.297725e+05
  -4.384775e+05   7.639603e+05
  -7.414309e+05   1.128784e+05
  -4.600955e+04  -5.415468e+05
   8.523057e+05  -4.436828e+05
   1.069624e+06   3.340991e+05
   4.148916e+05   9.654283e+05
  -4.931634e+05   7.905470e+05
  -8.209641e+05   5.327547e+04
  -3.245302e+05  -4.009352e+05
   3.814011e+05  -9.374714e+04
   4.322306e+05   5.835332e+05
  -3.501772e+05   8.412987e+05
  -1.206065e+06   3.182093e+05
  -1.214857e+06  -6.074827e+05
  -2.821354e+05  -1.204913e+06
   7.543467e+05  -1.020192e+06
   1.001641e+06  -2.377180e+05
   3.927946e+05   4.747691e+05
  -3.406341e+05   5.480630e+05
  -4.811856e+05   4.729785e+04
  -1.903366e+04  -4.061559e+05
   4.400970e+05  -3.257348e+05
   3.687936e+05   9.058278e+04
  -1.256498e+05   2.247407e+05
  -4.246771e+05  -1.832861e+05
  -6.090641e+04  -6.875718e+05
   7.502637e+05  -6.235458e+05
   1.265211e+06   1.592780e+05
   9.279994e+05   1.117397e+06
  -6.973628e+04   1.507496e+06
  -9.667416e+05   1.030466e+06
  -1.163203e+06   6.972799e+04
  -7.414753e+05  -6.476238e+05
  -2.646463e+05  -6.912546e+05
  -1.306744e+05  -3.025935e+05
  -1.998127e+05  -9.344587e+04
  -5.581082e+04  -3.302875e+05
   4.379531e+05  -6.083003e+05
   9.061105e+05  -3.480831e+05
   8.018017e+05   4.406729e+05
  -1.519658e+04   1.056952e+06
  -1.033098e+06   8.217889e+05
  -1.448051e+06  -1.953790e+05
  -8.467784e+05  -1.215281e+06
   3.978525e+05  -1.460546e+06
   1.407193e+06  -8.087803e+05
   1.526976e+06   1.762732e+05
   8.431289e+05   7.867888e+05
   1.734669e+04   7.764921e+05
  -3.629651e+05   4.944011e+05
  -2.742890e+05   4.302733e+05
  -1.463205e+05   6.393615e+05
  -3.279626e+05   6.855640e+05
  -6.980901e+05   1.914539e+05
  -8.032641e+05  -6.379643e+05
  -3.655825e+05  -1.148610e+06
   3.659339e+05  -8.901731e+05
   8.012782e+05  -6.262808e+04
   5.749055e+05   6.885035e+05
  -8.121976e+04   8.516381e+05
  -5.635618e+05   4.243597e+05
  -5.031313e+05  -1.834979e+05
  -1.092327e+05  -5.408495e+05
   1.161032e+05  -5.240440e+05
  -3.303402e+04  -3.353898e+05
  -2.343403e+05  -2.322020e+05
  -2.320254e+04  -2.467082e+05
   6.258032e+05  -1.864079e+05
   1.171077e+06   1.026468e+05
   1.012297e+06   5.220129e+05
   1.353706e+05   7.906491e+05
  -7.974375e+05   7.012981e+05
  -1.060818e+06   3.034216e+05
  -5.702429e+05  -1.246556e+05
   7.807445e+04  -2.816849e+05
   2.702397e+05  -1.002314e+05
  -1.442671e+04   1.570520e+05
  -3.108460e+05   1.356265e+05
  -2.803973e+05  -1.984793e+05
  -5.298100e+04  -4.605335e+05
   4.020934e+04  -2.919130e+05
  -9.690270e+04   1.407587e+05
  -2.565591e+05   2.822718e+05
  -1.986055e+05  -1.198896e+05
   1.183272e+05  -6.410801e+05
   5.140869e+05  -6.517305e+05
   6.867182e+05  -7.087952e+04
   4.054745e+05   5.347137e+05
  -2.210185e+05   5.958563e+05
  -6.743603e+05   1.267497e+05
  -4.397220e+05  -3.688665e+05
   3.839411e+05  -4.366709e+05
   1.026569e+06  -4.209157e+04
   7.917263e+05   4.796390e+05
  -1.625948e+05   7.184093e+05
  -9.455327e+05   4.917882e+05
  -8.703750e+05  -6.313536e+03
  -1.534302e+05  -3.430328e+05
   3.820893e+05  -2.370652e+05
   2.079981e+05   1.340422e+05
  -3.986476e+05   2.752355e+05
  -7.124936e+05  -1.099116e+05
  -3.295063e+05  -7.501321e+05
   4.493706e+05  -1.006258e+06
   9.500073e+05  -4.908040e+05
   7.791247e+05   4.875730e+05
   1.399067e+05   1.129566e+06
  -4.404687e+05   8.763634e+05
  -6.034261e+05  -2.174562e+04
  -3.669133e+05  -7.270435e+05
   2.616645e+04  -6.677702e+05
   3.225960e+05  -1.065263e+05
   3.660882e+05   2.465566e+05
   1.797032e+05   1.126510e+05
   9.825498e+02  -8.571510e+04
   7.368520e+04   1.185518e+05
   2.952512e+05   5.663834e+05
   2.297609e+05   6.913751e+05
  -3.328795e+05   2.832984e+05
  -9.416059e+05  -2.663272e+05
  -8.991832e+05  -5.028157e+05
  -1.403264e+05  -4.130220e+05
   5.978486e+05  -2.617260e+05
   6.393235e+05  -1.580819e+05
   1.645957e+05  -2.329449e+04
  -1.160588e+05   1.321031e+05
   6.678494e+04   1.780857e+05
   2.574785e+05   1.119620e+05
  -3.055575e+03   8.547738e+04
  -5.053531e+05   1.122994e+05
  -6.346408e+05  -2.239891e+04
  -1.391502e+05  -3.981467e+05
   5.931066e+05  -6.746186e+05
   9.749038e+05  -4.207443e+05
   7.571601e+05   2.970582e+05
   1.459600e+05   8.796671e+05
  -4.331066e+05   8.286322e+05
  -6.368812e+05   2.805519e+05
  -4.175319e+05  -1.894715e+05
  -4.702543e+04  -2.161810e+05
   1.183462e+05   1.773893e+04
  -2.474612e+04   7.541312e+04
  -2.341208e+05  -1.997427e+05
  -1.972458e+05  -4.997985e+05
   1.224085e+05  -4.008690e+05
   4.356908e+05   1.313344e+05
   4.061580e+05   6.377871e+05
  -1.837254e+04   6.191049e+05
  -5.098096e+05   6.997928e+04
  -6.092750e+05  -5.138109e+05
  -1.659022e+05  -6.607066e+05
   4.444086e+05  -3.579461e+05
   6.461045e+05   5.999490e+04
   2.878117e+05   3.119725e+05
  -1.605214e+05   3.432545e+05
  -1.603301e+05   2.167609e+05
   2.267911e+05   3.952587e+04
   4.195440e+05  -1.484899e+04
   6.687527e+04   1.717922e+05
  -5.053456e+05   4.349677e+05
  -7.113165e+05   4.046413e+05
  -3.986418e+05  -3.803451e+04
   5.865134e+04  -5.053034e+05
   2.651678e+05  -5.046869e+05
   1.803581e+05  -5.251322e+04
  -7.104192e+03   3.235815e+05
  -1.561597e+05   2.269740e+05
  -2.170370e+05  -1.572493e+05
  -1.487360e+05  -3.562242e+05
   4.409721e+04  -1.994022e+05
   2.359984e+05   5.557907e+04
   2.739637e+05   1.207964e+05
   1.522523e+05   1.503722e+04
   8.764224e+03  -3.595963e+04
  -5.829929e+04   8.548311e+04
  -8.981160e+04   2.550847e+05
  -1.583066e+05   2.535105e+05
  -2.296823e+05   7.089326e+03
  -1.863163e+05  -3.069005e+05
   2.365942e+04  -4.001493e+05
   2.826171e+05  -1.587330e+05
   3.609361e+05   2.118040e+05
   1.213330e+05   3.774237e+05
  -2.896219e+05   2.185709e+05
  -5.007931e+05  -7.115745e+04
  -2.757995e+05  -2.311533e+05
   1.758960e+05  -1.958340e+05
   3.696067e+05  -8.036001e+04
   9.907075e+04  -4.913486e+03
  -2.848359e+05  -1.806399e+04
  -2.752404e+05  -1.174698e+05
   1.681521e+05  -2.213934e+05
   5.584501e+05  -1.590323e+05
