
 $NMID
 id='ANONYMOUS ', fmtdat='(2E16.6)'
 volume=1.0
 tramp=1.0
 $END
   4.541060e+07  -1.551815e+06
   2.894654e+07   2.591699e+07
  -3.774274e+06   3.063603e+07
  -2.142581e+07   1.402430e+07
  -1.420530e+07  -3.766658e+06
   1.693879e+06  -7.797764e+06
   8.280486e+06  -2.770822e+05
   3.452646e+06   7.745011e+06
  -4.235235e+06   8.729954e+06
  -7.925728e+06   2.661050e+06
  -6.154358e+06  -5.008149e+06
  -9.244935e+05  -7.444289e+06
   3.382757e+06  -2.272238e+06
   2.520303e+06   5.031775e+06
  -2.826104e+06   6.195271e+06
  -6.668868e+06  -4.875683e+05
  -4.276256e+06  -8.278979e+06
   2.549540e+06  -9.999586e+06
   8.108656e+06  -5.165800e+06
   8.796905e+06   1.553089e+06
   5.235663e+06   5.911183e+06
   5.795866e+05   6.561531e+06
  -1.738003e+06   4.562224e+06
  -4.870684e+05   2.524902e+06
   1.540753e+06   2.687313e+06
  -2.089185e+03   4.217764e+06
  -5.210619e+06   3.812493e+06
  -8.661963e+06   2.015089e+05
  -5.992483e+06  -3.641123e+06
   2.075524e+05  -4.237658e+06
   3.658796e+06  -1.860777e+06
   2.076270e+06   5.916815e+05
  -1.297413e+06   1.303640e+06
  -2.846660e+06   2.751018e+05
  -2.076240e+06  -1.924059e+06
  -1.873680e+05  -3.835197e+06
   1.687928e+06  -3.104947e+06
   2.301793e+06   4.343714e+05
   1.001698e+06   2.930238e+06
  -5.925443e+05   1.015875e+06
   1.092999e+04  -2.655260e+06
   2.229650e+06  -2.288500e+06
   2.315196e+06   2.476262e+06
  -1.365270e+06   5.150528e+06
  -5.154640e+06   1.232935e+06
  -4.290653e+06  -5.248863e+06
   1.066746e+06  -6.901878e+06
   5.997725e+06  -2.216982e+06
   6.282028e+06   3.534320e+06
   2.113352e+06   5.254796e+06
  -2.914112e+06   2.751025e+06
  -4.946067e+06  -9.175604e+05
  -2.600457e+06  -2.895007e+06
   1.779561e+06  -2.086891e+06
   3.888656e+06   4.585229e+05
   1.879663e+06   2.128937e+06
  -1.347337e+06   1.233434e+06
  -1.701216e+06  -8.024330e+05
   7.983647e+05  -1.089669e+06
   2.224790e+06   8.623639e+05
   1.601510e+05   2.550201e+06
  -3.272864e+06   1.884482e+06
  -4.413418e+06  -5.626760e+05
  -2.224858e+06  -3.064702e+06
   1.509716e+06  -4.567843e+06
   4.547197e+06  -4.278047e+06
   5.466156e+06  -1.468838e+06
   3.860829e+06   2.817300e+06
   8.320436e+05   5.437458e+06
  -1.338402e+06   4.394360e+06
  -1.353179e+06   1.531364e+06
  -4.169178e+05   2.208592e+05
  -5.664332e+05   9.926223e+05
  -1.919574e+06   1.359865e+06
  -2.707274e+06  -2.159839e+05
  -1.746294e+06  -2.182212e+06
   2.627010e+05  -2.206389e+06
   1.779527e+06  -1.248461e+05
   1.733626e+06   2.178094e+06
  -5.624070e+04   2.854040e+06
  -2.614482e+06   1.415781e+06
  -3.955158e+06  -1.206688e+06
  -2.725545e+06  -3.279097e+06
   2.077144e+04  -3.511907e+06
   1.793492e+06  -2.260772e+06
   1.738687e+06  -1.086818e+06
   1.554447e+06  -8.251007e+05
   2.737806e+06  -6.603001e+05
   4.136210e+06   5.239978e+05
   3.403346e+06   2.509769e+06
   2.359690e+05   3.962575e+06
  -3.054980e+06   3.807328e+06
  -4.062444e+06   1.992863e+06
  -2.514839e+06  -5.381739e+05
  -1.019020e+05  -2.197396e+06
   1.173901e+06  -1.786752e+06
   5.206128e+05   9.016265e+04
  -1.081301e+06   1.247839e+06
  -1.784400e+06   3.999866e+05
  -8.224800e+05  -1.107369e+06
   5.431465e+05  -1.089932e+06
   5.412181e+05   3.537521e+05
  -8.435362e+05   8.917515e+05
  -1.841629e+06  -7.808665e+05
  -1.080061e+06  -3.084943e+06
   9.821241e+05  -3.540921e+06
   2.861431e+06  -1.625036e+06
   3.471626e+06   1.056943e+06
   2.547892e+06   2.704923e+06
   5.688645e+05   2.673579e+06
  -1.234699e+06   1.459281e+06
  -1.564911e+06   2.052207e+05
  -4.807655e+05  -3.654086e+04
   3.679563e+05   7.197302e+05
  -3.271507e+05   1.266367e+06
  -1.751742e+06   6.001288e+05
  -1.957316e+06  -7.375901e+05
  -4.505976e+05  -1.308715e+06
   1.106426e+06  -6.074786e+05
   9.425502e+05   4.193806e+05
  -7.730688e+05   6.382268e+05
  -2.232178e+06  -1.361525e+05
  -1.897194e+06  -1.294826e+06
   1.235315e+05  -2.045916e+06
   2.240057e+06  -1.746597e+06
   2.717587e+06  -3.470857e+05
   1.204048e+06   1.167400e+06
  -8.299038e+05   1.416450e+06
  -1.436260e+06   2.044314e+05
  -1.787953e+05  -1.002742e+06
   1.444388e+06  -7.329432e+05
   1.698442e+06   6.905443e+05
   4.316815e+05   1.599769e+06
  -9.916041e+05   1.048853e+06
  -1.259329e+06  -1.940272e+05
  -3.219523e+05  -7.328815e+05
   7.330220e+05  -8.672181e+04
   7.202353e+05   9.970113e+05
  -5.504064e+05   1.382709e+06
  -1.949065e+06   5.405752e+05
  -1.987892e+06  -9.958865e+05
  -4.134887e+05  -2.001990e+06
   1.344838e+06  -1.629436e+06
   1.669783e+06  -2.665931e+05
   5.372247e+05   8.244687e+05
  -6.117602e+05   8.168226e+05
  -6.563446e+05   8.089450e+04
   7.911756e+04  -4.275126e+05
   5.373443e+05  -2.830528e+05
   2.355137e+05   8.908082e+04
  -3.856583e+05   3.837289e+04
  -5.584124e+05  -5.661357e+05
   1.192033e+05  -1.151133e+06
   1.309772e+06  -9.174574e+05
   2.038053e+06   3.520974e+05
   1.462436e+06   1.862414e+06
  -1.681057e+05   2.383298e+06
  -1.564322e+06   1.463200e+06
  -1.710474e+06  -5.374448e+04
  -9.327405e+05  -9.162321e+05
  -3.387036e+05  -7.564219e+05
  -3.999030e+05  -2.768396e+05
  -5.426217e+05  -2.595846e+05
  -9.545885e+04  -6.926885e+05
   8.147568e+05  -9.120518e+05
   1.426443e+06  -3.850033e+05
   1.094724e+06   7.042034e+05
  -1.842177e+05   1.498227e+06
  -1.672587e+06   1.126949e+06
  -2.233496e+06  -4.182086e+05
  -1.187465e+06  -2.020494e+06
   8.814787e+05  -2.331105e+06
   2.423215e+06  -1.102943e+06
   2.345411e+06   5.370602e+05
   1.050321e+06   1.294119e+06
  -1.403477e+05   1.008769e+06
  -4.303495e+05   5.728642e+05
  -1.606477e+05   7.213729e+05
  -1.206924e+05   1.214511e+06
  -6.106537e+05   1.227142e+06
  -1.225873e+06   3.229575e+05
  -1.312435e+06  -1.036319e+06
  -5.711338e+05  -1.845218e+06
   5.903004e+05  -1.416240e+06
   1.264464e+06  -3.411456e+04
   8.377760e+05   1.211624e+06
  -3.078514e+05   1.370824e+06
  -1.078233e+06   4.787667e+05
  -8.056965e+05  -5.792975e+05
   3.670246e+04  -1.009691e+06
   4.348657e+05  -7.907635e+05
   4.695972e+04  -4.413862e+05
  -4.143037e+05  -3.359183e+05
  -5.570559e+04  -3.797774e+05
   1.093433e+06  -2.384036e+05
   1.987170e+06   2.679718e+05
   1.601633e+06   9.571678e+05
   3.877864e+04   1.371767e+06
  -1.476557e+06   1.133394e+06
  -1.768569e+06   3.410983e+05
  -8.463576e+05  -4.072895e+05
   2.178816e+05  -5.342917e+05
   4.850852e+05  -6.884850e+04
   2.173190e+04   3.730983e+05
  -4.473843e+05   2.482917e+05
  -4.699175e+05  -3.264411e+05
  -2.154789e+05  -7.116610e+05
  -6.083440e+04  -4.665536e+05
  -1.402494e+05   1.251778e+05
  -3.048357e+05   3.260166e+05
  -2.821148e+05  -2.178423e+05
   1.432597e+05  -9.804288e+05
   8.567634e+05  -1.051087e+06
   1.275034e+06  -1.721033e+05
   7.993763e+05   8.759909e+05
  -3.815150e+05   1.081776e+06
  -1.191552e+06   3.144198e+05
  -7.207569e+05  -5.605186e+05
   6.652547e+05  -6.573068e+05
   1.578239e+06   4.282158e+04
   1.058330e+06   8.211507e+05
  -4.181044e+05   1.016642e+06
  -1.476711e+06   5.545772e+05
  -1.252756e+06  -1.372162e+05
  -1.616082e+05  -5.135195e+05
   6.287694e+05  -2.962300e+05
   3.703028e+05   2.669515e+05
  -5.806016e+05   5.017793e+05
  -1.154927e+06  -8.612419e+04
  -6.436266e+05  -1.157388e+06
   5.866264e+05  -1.662792e+06
   1.457176e+06  -8.690027e+05
   1.244280e+06   7.353594e+05
   2.254531e+05   1.765861e+06
  -7.078040e+05   1.306208e+06
  -9.229314e+05  -1.345942e+05
  -4.702842e+05  -1.164460e+06
   1.702583e+05  -9.782352e+05
   5.439302e+05  -1.067986e+05
   4.867427e+05   3.707221e+05
   1.865578e+05   1.428119e+05
   3.785635e+04  -1.033198e+05
   2.485401e+05   2.650220e+05
   5.073558e+05   9.331781e+05
   2.354071e+05   1.066936e+06
  -6.643685e+05   4.109498e+05
  -1.465116e+06  -4.322576e+05
  -1.301827e+06  -8.036198e+05
  -1.987321e+05  -6.791075e+05
   8.542413e+05  -4.230924e+05
   9.749031e+05  -2.049226e+05
   3.392744e+05   3.011396e+04
  -1.472971e+05   2.214779e+05
  -7.814564e+03   2.185821e+05
   2.870093e+05   1.058718e+05
   4.180700e+04   1.302180e+05
  -6.731613e+05   2.306986e+05
  -1.025522e+06   6.534800e+02
  -4.016520e+05  -6.636098e+05
   8.280129e+05  -1.155527e+06
   1.638487e+06  -7.592508e+05
   1.363498e+06   4.079110e+05
   2.863126e+05   1.380812e+06
  -7.214573e+05   1.359919e+06
  -1.019365e+06   5.326922e+05
  -6.503740e+05  -2.298205e+05
  -1.282753e+05  -3.480203e+05
   8.597141e+04  -5.003002e+04
  -7.438530e+04   3.467889e+04
  -3.140134e+05  -3.507797e+05
  -2.673226e+05  -7.915592e+05
   1.671432e+05  -6.659836e+05
   6.742126e+05   1.209563e+05
   7.303789e+05   9.333185e+05
   1.115296e+05   1.006121e+06
  -7.445895e+05   2.372305e+05
  -1.022430e+06  -7.048613e+05
  -3.514120e+05  -1.061224e+06
   6.885326e+05  -6.653521e+05
   1.090711e+06   5.532456e+04
   5.258535e+05   5.766067e+05
  -2.645030e+05   6.551120e+05
  -3.492710e+05   3.677288e+05
   2.593710e+05   1.368526e+04
   6.418573e+05  -4.788820e+04
   1.449108e+05   2.956735e+05
  -7.988315e+05   6.860163e+05
  -1.215531e+06   5.709686e+05
  -7.386319e+05  -1.433842e+05
   7.787647e+04  -8.497847e+05
   5.103327e+05  -8.484873e+05
   3.967681e+05  -1.586754e+05
   5.257089e+04   4.751820e+05
  -2.278951e+05   4.235428e+05
  -3.474205e+05  -1.519935e+05
  -2.591338e+05  -5.626220e+05
   4.456969e+04  -4.074522e+05
   3.835487e+05   4.200528e+04
   4.702186e+05   2.554906e+05
   2.418844e+05   8.108154e+04
  -3.181117e+04  -1.344932e+05
  -8.634234e+04  -1.807089e+04
  -2.123587e+03   3.525441e+05
  -6.219406e+04   5.213424e+05
  -3.129122e+05   1.945097e+05
  -4.368844e+05  -3.761680e+05
  -1.428587e+05  -6.309322e+05
   4.003898e+05  -3.096413e+05
   6.481989e+05   2.680458e+05
   2.535557e+05   5.625265e+05
  -4.869137e+05   3.687550e+05
  -8.602166e+05  -6.015425e+04
  -4.748979e+05  -3.608040e+05
   2.783957e+05  -3.898356e+05
   6.175179e+05  -2.263456e+05
   2.352626e+05  -2.332668e+04
  -3.509121e+05   6.116537e+04
  -4.046239e+05  -6.954598e+04
   1.724174e+05  -2.960088e+05
   7.437457e+05  -2.781499e+05
