
 $NMID
 id='ANONYMOUS ', fmtdat='(2E16.6)'
 volume=1.0
 tramp=1.0
 $END
  -5.560350e+07   2.215808e+05
  -3.360107e+07  -3.424963e+07
   7.153800e+06  -3.764334e+07
   2.715568e+07  -1.462565e+07
   1.631965e+07   6.794175e+06
  -3.199423e+06   9.228349e+06
  -9.717763e+06  -1.124864e+06
  -2.820980e+06  -9.627091e+06
   6.057568e+06  -9.284438e+06
   9.522902e+06  -2.043627e+06
   6.943970e+06   6.099147e+06
   8.451622e+05   8.508831e+06
  -3.938406e+06   2.725007e+06
  -2.633647e+06  -5.387382e+06
   3.686162e+06  -6.511611e+06
   7.787168e+06   1.271570e+06
   4.445149e+06   1.006108e+07
  -3.674951e+06   1.167575e+07
  -9.953282e+06   5.879684e+06
  -1.068114e+07  -1.984168e+06
  -6.560880e+06  -7.364295e+06
  -7.152431e+05  -8.521924e+06
   2.831748e+06  -5.975069e+06
   1.782617e+06  -2.678647e+06
  -1.128753e+06  -2.160410e+06
  -2.625926e+05  -4.155900e+06
   5.350799e+06  -4.374831e+06
   9.574057e+06  -5.223853e+05
   6.986195e+06   4.061956e+06
   2.523031e+05   5.006556e+06
  -3.690750e+06   2.548965e+06
  -2.450581e+06  -5.145520e+02
   6.265553e+05  -9.573563e+05
   2.293772e+06  -4.939410e+05
   2.191592e+06   1.437206e+06
   6.882793e+05   3.910168e+06
  -1.774672e+06   3.813845e+06
  -3.180793e+06  -1.064834e+05
  -1.686926e+06  -3.585105e+06
   7.597735e+05  -1.879566e+06
   3.383051e+05   2.457490e+06
  -2.430601e+06   2.305245e+06
  -2.443065e+06  -3.140016e+06
   2.348262e+06  -6.071296e+06
   6.834460e+06  -1.042632e+06
   5.082311e+06   6.805224e+06
  -1.837655e+06   8.424572e+06
  -7.324137e+06   2.423269e+06
  -6.910037e+06  -4.368320e+06
  -1.872368e+06  -5.969664e+06
   3.430384e+06  -2.716886e+06
   5.234665e+06   1.476413e+06
   2.437822e+06   3.442130e+06
  -2.371634e+06   2.192683e+06
  -4.485478e+06  -8.842355e+05
  -1.949034e+06  -2.677738e+06
   1.690496e+06  -1.364754e+06
   1.737313e+06   1.008315e+06
  -1.288566e+06   9.303151e+05
  -2.463998e+06  -1.693685e+06
   5.608355e+05  -3.386354e+06
   4.536435e+06  -1.911802e+06
   5.245223e+06   1.292464e+06
   2.319647e+06   3.910575e+06
  -1.767043e+06   5.221987e+06
  -4.958435e+06   4.819702e+06
  -6.137656e+06   1.748708e+06
  -4.545515e+06  -3.118950e+06
  -9.566034e+05  -6.119596e+06
   1.815699e+06  -4.748988e+06
   1.735318e+06  -1.242791e+06
   1.792815e+05   2.247514e+05
   1.190508e+03  -9.809264e+05
   1.615702e+06  -1.772778e+06
   2.809810e+06  -2.255124e+05
   2.023423e+06   1.940224e+06
   1.824557e+04   2.153919e+06
  -1.569510e+06   2.083575e+05
  -1.693442e+06  -2.080395e+06
  -1.072230e+04  -2.936636e+06
   2.756227e+06  -1.653971e+06
   4.451425e+06   1.176518e+06
   3.209688e+06   3.723840e+06
  -2.102066e+04   4.191039e+06
  -2.241907e+06   2.702699e+06
  -2.204281e+06   1.143810e+06
  -1.819878e+06   6.976601e+05
  -2.938295e+06   4.984065e+05
  -4.352948e+06  -7.398704e+05
  -3.500176e+06  -2.753943e+06
  -1.456576e+05  -4.134673e+06
   3.202404e+06  -3.919483e+06
   4.179855e+06  -2.134774e+06
   2.662542e+06   4.202605e+05
   2.759996e+05   2.242281e+06
  -1.102828e+06   1.939822e+06
  -5.647170e+05  -3.662291e+04
   1.090030e+06  -1.316761e+06
   1.911577e+06  -4.057907e+05
   9.262835e+05   1.205423e+06
  -5.187163e+05   1.120502e+06
  -4.354609e+05  -3.905053e+05
   1.064453e+06  -7.104250e+05
   1.870363e+06   1.273868e+06
   6.704635e+05   3.490362e+06
  -1.575134e+06   3.435243e+06
  -3.146546e+06   1.138280e+06
  -3.330787e+06  -1.436099e+06
  -2.295456e+06  -2.768892e+06
  -4.617550e+05  -2.623356e+06
   1.244142e+06  -1.473926e+06
   1.585668e+06  -2.321906e+05
   4.957764e+05   4.508832e+04
  -3.620727e+05  -7.563797e+05
   4.134033e+05  -1.351244e+06
   1.919382e+06  -5.869085e+05
   2.050053e+06   8.904636e+05
   3.901051e+05   1.427193e+06
  -1.180417e+06   5.768605e+05
  -8.950075e+05  -4.587725e+05
   8.567174e+05  -5.232784e+05
   2.195382e+06   3.238263e+05
   1.753565e+06   1.365739e+06
  -2.515712e+05   1.982516e+06
  -2.322587e+06   1.665723e+06
  -2.792520e+06   2.780892e+05
  -1.228423e+06  -1.274154e+06
   9.239427e+05  -1.516909e+06
   1.573725e+06  -1.948473e+05
   2.061509e+05   1.089682e+06
  -1.528100e+06   7.456863e+05
  -1.733029e+06  -7.878277e+05
  -3.382367e+05  -1.666562e+06
   1.103865e+06  -9.823588e+05
   1.267559e+06   3.188456e+05
   2.447348e+05   7.904680e+05
  -8.061253e+05   5.583551e+04
  -7.459874e+05  -1.062041e+06
   5.770777e+05  -1.438321e+06
   2.023424e+06  -5.526475e+05
   2.055772e+06   1.054625e+06
   3.904293e+05   2.092868e+06
  -1.452227e+06   1.659158e+06
  -1.742015e+06   2.117741e+05
  -5.051879e+05  -8.774193e+05
   6.652740e+05  -8.096838e+05
   6.360384e+05  -7.752749e+04
  -1.224543e+05   3.591913e+05
  -4.920838e+05   2.050425e+05
  -1.152900e+05  -6.564423e+04
   4.570275e+05   8.362082e+04
   5.206556e+05   6.832059e+05
  -2.114823e+05   1.198476e+06
  -1.394657e+06   9.031347e+05
  -2.099757e+06  -4.158693e+05
  -1.480461e+06  -1.958073e+06
   2.148953e+05  -2.439879e+06
   1.625941e+06  -1.421524e+06
   1.699110e+06   1.289702e+05
   8.583155e+05   8.991815e+05
   3.174067e+05   6.471365e+05
   4.855056e+05   2.138915e+05
   6.386413e+05   3.164065e+05
   9.398761e+04   7.740146e+05
  -8.842740e+05   9.079336e+05
  -1.458136e+06   3.250895e+05
  -1.053359e+06  -7.259324e+05
   2.543010e+05  -1.465852e+06
   1.733823e+06  -1.078642e+06
   2.263945e+06   4.858617e+05
   1.141856e+06   2.116843e+06
  -1.020272e+06   2.386733e+06
  -2.565953e+06   1.039048e+06
  -2.367998e+06  -6.680845e+05
  -9.566298e+05  -1.349235e+06
   2.117533e+05  -9.466486e+05
   3.871652e+05  -5.077558e+05
   6.843987e+04  -7.593432e+05
   9.691095e+04  -1.322761e+06
   6.747027e+05  -1.304350e+06
   1.306235e+06  -3.253191e+05
   1.351960e+06   1.085412e+06
   5.659723e+05   1.907997e+06
  -6.228841e+05   1.449873e+06
  -1.295240e+06  -1.287669e+03
  -8.192875e+05  -1.295376e+06
   3.961964e+05  -1.408597e+06
   1.177308e+06  -4.050827e+05
   8.199374e+05   7.105502e+05
  -1.283523e+05   1.089790e+06
  -5.476269e+05   7.885799e+05
  -8.863554e+04   4.162543e+05
   4.391190e+05   3.352986e+05
   6.241086e+04   3.852943e+05
  -1.160448e+06   2.130850e+05
  -2.084651e+06  -3.321529e+05
  -1.632524e+06  -1.044703e+06
   4.060595e+04  -1.451118e+06
   1.606177e+06  -1.155550e+06
   1.848369e+06  -2.794774e+05
   8.395603e+05   5.045209e+05
  -2.648475e+05   5.780948e+05
  -5.180354e+05   3.186872e+04
  -3.501329e+04  -4.293762e+05
   4.425983e+05  -2.634856e+05
   4.878056e+05   3.428108e+05
   2.653930e+05   7.254976e+05
   1.055697e+05   4.819357e+05
   1.374907e+05  -9.064065e+04
   2.750114e+05  -2.887748e+05
   2.768434e+05   2.343233e+05
  -1.352944e+05   9.919647e+05
  -9.031491e+05   1.079501e+06
  -1.382133e+06   1.878180e+05
  -8.728747e+05  -9.179440e+05
   4.136709e+05  -1.158733e+06
   1.272594e+06  -3.545494e+05
   7.436848e+05   5.715122e+05
  -7.083332e+05   6.541467e+05
  -1.597268e+06  -9.778562e+04
  -1.002890e+06  -8.705794e+05
   4.957636e+05  -9.900544e+05
   1.507115e+06  -4.714770e+05
   1.233869e+06   1.975194e+05
   1.308343e+05   5.154808e+05
  -6.557155e+05   2.678225e+05
  -3.926839e+05  -2.989542e+05
   5.815363e+05  -5.360620e+05
   1.195407e+06   6.491523e+04
   6.971355e+05   1.182280e+06
  -5.686832e+05   1.727631e+06
  -1.483923e+06   9.139066e+05
  -1.273321e+06  -7.501747e+05
  -2.180892e+05  -1.802901e+06
   7.391366e+05  -1.301786e+06
   9.314485e+05   1.832229e+05
   4.304252e+05   1.201559e+06
  -2.309022e+05   9.704788e+05
  -5.709992e+05   8.149732e+04
  -4.612415e+05  -3.757073e+05
  -1.533264e+05  -1.337402e+05
  -5.333362e+04   9.251793e+04
  -3.021732e+05  -3.050349e+05
  -5.268879e+05  -9.755698e+05
  -1.831911e+05  -1.083814e+06
   7.366966e+05  -3.996139e+05
   1.488100e+06   4.592634e+05
   1.281067e+06   8.359953e+05
   1.891523e+05   7.069177e+05
  -8.436752e+05   4.309366e+05
  -9.862322e+05   1.851811e+05
  -3.767681e+05  -5.995720e+04
   1.392582e+05  -2.305258e+05
   5.238650e+04  -1.980271e+05
  -2.486958e+05  -8.218489e+04
  -6.021380e+04  -1.328423e+05
   6.441948e+05  -2.529699e+05
   1.060018e+06  -5.709968e+03
   4.751677e+05   6.984832e+05
  -8.171977e+05   1.212165e+06
  -1.723216e+06   7.990209e+05
  -1.457760e+06  -4.073191e+05
  -3.033940e+05  -1.413719e+06
   7.647175e+05  -1.406315e+06
   1.054703e+06  -5.718758e+05
   6.621045e+05   2.139646e+05
   1.494852e+05   3.610473e+05
  -5.078852e+04   8.180425e+04
   8.899731e+04  -2.301177e+03
   2.972449e+05   3.748435e+05
   2.503555e+05   8.138156e+05
  -1.675494e+05   6.939630e+05
  -6.856780e+05  -9.651642e+04
  -7.750760e+05  -9.351367e+05
  -1.589771e+05  -1.043828e+06
   7.428117e+05  -2.856729e+05
   1.065254e+06   6.902877e+05
   3.851038e+05   1.097390e+06
  -7.064954e+05   7.141988e+05
  -1.144057e+06  -5.115383e+04
  -5.605731e+05  -6.278756e+05
   2.816364e+05  -7.123731e+05
   3.982230e+05  -3.827715e+05
  -2.277478e+05   3.643671e+03
  -6.499825e+05   5.359193e+04
  -1.608389e+05  -3.135918e+05
   8.240948e+05  -6.954917e+05
   1.284200e+06  -5.474812e+05
   7.960067e+05   1.860832e+05
  -8.186286e+04   8.894959e+05
  -5.652430e+05   8.833577e+05
  -4.511918e+05   1.871449e+05
  -7.475035e+04  -4.738686e+05
   2.302386e+05  -4.570135e+05
   3.572480e+05   1.215565e+05
   2.700357e+05   5.785475e+05
  -4.036373e+04   4.525923e+05
  -3.970680e+05  -2.887841e+04
  -4.930588e+05  -2.908268e+05
  -2.468867e+05  -1.069729e+05
   4.815430e+04   1.683479e+05
   8.446194e+04   7.780968e+04
  -4.887860e+04  -3.432433e+05
  -2.583290e+03  -5.816182e+05
   3.048434e+05  -2.672203e+05
   4.999455e+05   3.487756e+05
   2.101164e+05   6.487351e+05
  -3.955376e+05   3.368844e+05
  -6.922721e+05  -2.551127e+05
  -2.792313e+05  -5.659773e+05
   5.131989e+05  -3.824424e+05
   9.076195e+05   4.941759e+04
   4.984572e+05   3.722805e+05
  -2.895390e+05   4.277073e+05
  -6.482668e+05   2.641844e+05
  -2.712322e+05   2.698795e+04
   3.231369e+05  -9.489509e+04
   4.034220e+05   3.010908e+04
  -1.430200e+05   2.821398e+05
  -7.114153e+05   2.902908e+05
