
 $NMID
 id='ANONYMOUS ', fmtdat='(2E16.6)'
 volume=1.0
 tramp=1.0
 $END
  -4.456682e+06   2.322782e+06
  -4.242343e+06  -1.492839e+06
  -9.128542e+05  -3.508099e+06
   1.872457e+06  -2.302407e+06
   1.794914e+06   1.202131e+05
   1.366894e+04   1.148429e+06
  -1.085209e+06   3.487542e+05
  -7.185642e+05  -8.542126e+05
   2.454491e+05  -1.191124e+06
   8.634950e+05  -5.565372e+05
   8.374221e+05   3.675165e+05
   2.897262e+05   7.931662e+05
  -3.454040e+05   3.791269e+05
  -4.621209e+05  -4.259772e+05
   9.828928e+04  -7.323399e+05
   7.185426e+05  -1.732883e+05
   6.920687e+05   6.735191e+05
   5.378481e+04   1.019389e+06
  -5.986295e+05   7.198294e+05
  -8.617404e+05   1.629421e+05
  -7.438780e+05  -3.331202e+05
  -3.840816e+05  -6.402363e+05
   1.421536e+04  -6.330378e+05
   1.502342e+05  -3.388180e+05
  -3.795044e+04  -1.162523e+05
  -1.346816e+05  -2.571772e+05
   2.310491e+05  -5.061123e+05
   7.450375e+05  -3.777026e+05
   7.603759e+05   1.164803e+05
   2.286975e+05   4.694453e+05
  -2.278963e+05   3.904743e+05
  -2.038075e+05   1.130353e+05
   4.051469e+04  -4.136627e+04
   1.316927e+05  -2.235570e+04
   8.697093e+04   9.685241e+04
   4.535571e+04   2.571932e+05
  -5.783440e+04   3.009765e+05
  -2.433702e+05   7.616669e+04
  -2.801922e+05  -2.241632e+05
  -6.958028e+04  -1.958597e+05
   6.700788e+04   1.376666e+05
  -1.298549e+05   2.219377e+05
  -3.365034e+05  -2.209828e+05
  -6.425869e+04  -6.589886e+05
   5.321749e+05  -4.282822e+05
   7.475130e+05   3.116373e+05
   2.543208e+05   7.616275e+05
  -4.632493e+05   5.054952e+05
  -7.144528e+05  -8.476311e+04
  -3.450476e+05  -4.354397e+05
   2.346796e+05  -3.593022e+05
   5.211561e+05  -2.207422e+04
   3.081190e+05   3.070979e+05
  -1.870502e+05   3.699206e+05
  -4.835780e+05   9.120987e+04
  -2.942282e+05  -2.435045e+05
   1.143716e+05  -2.414754e+05
   2.099011e+05   6.502812e+04
  -1.094427e+05   2.109560e+05
  -3.645405e+05  -5.471993e+04
  -1.560188e+05  -4.050478e+05
   3.006193e+05  -4.051785e+05
   5.095650e+05  -7.714645e+04
   3.332690e+05   2.490594e+05
   2.323939e+04   4.124573e+05
  -2.181204e+05   4.441617e+05
  -3.792666e+05   2.961269e+05
  -4.175019e+05  -7.955770e+04
  -2.386634e+05  -4.467936e+05
   5.758895e+04  -4.537341e+05
   1.933135e+05  -1.268414e+05
   7.502484e+04   1.154693e+05
  -6.747526e+04   2.810717e+04
  -1.281000e+04  -1.588676e+05
   1.542331e+05  -1.298226e+05
   1.984666e+05   7.136258e+04
   5.478435e+04   1.691713e+05
  -1.320767e+05   5.589295e+04
  -1.963705e+05  -1.339443e+05
  -7.671076e+04  -2.436205e+05
   1.663492e+05  -2.127530e+05
   3.641930e+05  -4.520274e+04
   3.471824e+05   1.816038e+05
   1.294446e+05   3.147098e+05
  -8.069716e+04   2.686748e+05
  -1.347595e+05   1.451681e+05
  -1.236491e+05   9.880308e+04
  -2.035539e+05   1.191208e+05
  -3.323199e+05   6.369491e+04
  -3.238439e+05  -1.166810e+05
  -1.217885e+05  -3.048313e+05
   1.247484e+05  -3.630565e+05
   2.502246e+05  -2.547894e+05
   2.177963e+05  -3.890149e+04
   8.555832e+04   1.562522e+05
  -4.982153e+04   1.812532e+05
  -7.610922e+04   1.418787e+04
   4.033590e+04  -1.516885e+05
   1.663004e+05  -1.080008e+05
   1.316367e+05   7.905009e+04
  -2.679172e+04   1.390786e+05
  -8.446270e+04  -1.064787e+04
   5.769500e+04  -1.264107e+05
   2.163222e+05   1.230897e+04
   1.694560e+05   2.756507e+05
  -5.725040e+04   3.584344e+05
  -2.570054e+05   1.779353e+05
  -3.031858e+05  -7.065586e+04
  -2.222683e+05  -1.983904e+05
  -7.940389e+04  -1.930763e+05
   6.470349e+04  -1.236739e+05
   1.201691e+05  -4.030464e+04
   4.164035e+04   1.421795e+03
  -6.168733e+04  -4.642780e+04
  -2.520437e+04  -1.319210e+05
   1.368806e+05  -1.265111e+05
   2.213537e+05   3.028747e+03
   1.075354e+05   1.284122e+05
  -7.284317e+04   1.215858e+05
  -1.102561e+05   1.306671e+04
   2.171077e+04  -6.672600e+04
   1.626106e+05  -4.366993e+04
   1.669019e+05   5.625618e+04
   3.163192e+04   1.603317e+05
  -1.381802e+05   1.870099e+05
  -2.173630e+05   8.711977e+04
  -1.409266e+05  -8.089269e+04
   3.010785e+04  -1.614606e+05
   1.344225e+05  -6.829600e+04
   6.618129e+04   8.742717e+04
  -9.668667e+04   1.170871e+05
  -1.726490e+05  -1.139125e+04
  -8.287879e+04  -1.422669e+05
   7.200835e+04  -1.354938e+05
   1.405095e+05  -2.036042e+04
   7.579716e+04   7.296240e+04
  -4.222988e+04   6.463489e+04
  -9.459587e+04  -2.257695e+04
  -2.418558e+04  -1.051810e+05
   1.104432e+05  -9.916125e+04
   1.742269e+05   1.427258e+04
   8.774208e+04   1.475716e+05
  -7.294065e+04   1.715798e+05
  -1.497702e+05   5.780601e+04
  -8.300254e+04  -7.782358e+04
   2.986993e+04  -1.078666e+05
   6.836835e+04  -3.550178e+04
   2.606338e+04   3.574536e+04
  -1.777599e+04   4.075651e+04
  -1.303592e+04   8.832727e+03
   2.166703e+04  -1.230522e+03
   4.163911e+04   3.041241e+04
   1.293216e+04   7.783634e+04
  -6.858568e+04   9.011215e+04
  -1.519463e+05   2.451686e+04
  -1.501416e+05  -9.962757e+04
  -3.537722e+04  -1.858960e+05
   1.016863e+05  -1.481935e+05
   1.421878e+05  -1.886119e+04
   7.974329e+04   7.695198e+04
   1.511812e+04   6.710405e+04
   1.400049e+04   7.435552e+03
   3.488849e+04  -8.191312e+03
   1.346068e+04   3.275125e+04
  -4.352655e+04   6.578234e+04
  -8.151521e+04   4.005611e+04
  -6.801987e+04  -3.315991e+04
  -4.092497e+03  -1.012452e+05
   9.115553e+04  -1.055749e+05
   1.652610e+05  -1.738335e+04
   1.411030e+05   1.207968e+05
   2.313404e+02   2.023806e+05
  -1.591434e+05   1.513383e+05
  -2.056699e+05   1.243427e+04
  -1.188672e+05  -9.045216e+04
  -5.334086e+03  -9.230146e+04
   3.264120e+04  -4.776810e+04
   1.575774e+03  -4.336193e+04
  -2.065033e+04  -8.634684e+04
   1.401069e+04  -1.081139e+05
   8.215059e+04  -5.620770e+04
   1.217408e+05   4.632003e+04
   8.663852e+04   1.259829e+05
  -1.138842e+04   1.231048e+05
  -9.892546e+04   3.772027e+04
  -9.959538e+04  -6.854081e+04
  -1.473190e+04  -1.171819e+05
   7.128745e+04  -7.652557e+04
   8.310871e+04   1.240320e+04
   3.444325e+04   7.739872e+04
  -3.193531e+03   8.151585e+04
   5.686520e+03   4.648232e+04
   2.549063e+04   1.889068e+04
   2.644029e+03   2.243521e+04
  -6.944496e+04   3.891299e+04
  -1.395697e+05   2.821129e+04
  -1.410476e+05  -2.861986e+04
  -5.240202e+04  -9.966569e+04
   6.985772e+04  -1.239940e+05
   1.303924e+05  -7.523889e+04
   8.813997e+04   3.111334e+03
   2.727808e+03   4.130032e+04
  -3.383391e+04   1.945829e+04
  -2.020406e+03  -1.633243e+04
   3.807237e+04  -1.494927e+04
   3.715143e+04   2.101158e+04
   1.240310e+04   4.613714e+04
   3.326439e+03   2.944056e+04
   1.315881e+04  -1.130214e+04
   1.967994e+04  -2.927975e+04
   1.416720e+04   2.610347e+03
  -8.194639e+02   6.002003e+04
  -2.919253e+04   8.454652e+04
  -6.232171e+04   4.184489e+04
  -6.116539e+04  -3.547395e+04
  -1.812161e+03  -7.452841e+04
   6.641937e+04  -3.865290e+04
   5.786536e+04   3.185706e+04
  -3.875882e+04   6.317969e+04
  -1.261159e+05   2.404181e+04
  -1.041169e+05  -4.934207e+04
   1.226487e+04  -9.454323e+04
   1.108617e+05  -7.754038e+04
   1.073221e+05  -1.507519e+04
   2.564644e+04   4.075069e+04
  -4.257530e+04   4.358173e+04
  -3.499987e+04  -3.253294e+03
   2.983427e+04  -4.133201e+04
   7.979136e+04  -1.287380e+04
   5.885967e+04   6.966174e+04
  -2.191627e+04   1.234041e+05
  -9.564787e+04   7.896178e+04
  -1.025251e+05  -3.951715e+04
  -4.215684e+04  -1.304996e+05
   3.473862e+04  -1.144501e+05
   7.619018e+04  -1.208147e+04
   6.425777e+04   7.941614e+04
   1.545018e+04   8.574706e+04
  -3.400760e+04   2.577462e+04
  -4.893441e+04  -2.126642e+04
  -2.500031e+04  -1.223048e+04
  -6.568468e+02   1.442265e+04
  -1.628388e+04  -1.388190e+03
  -5.432569e+04  -5.597796e+04
  -4.755420e+04  -8.578900e+04
   3.272291e+04  -5.290479e+04
   1.202105e+05   8.324325e+03
   1.204261e+05   4.338679e+04
   2.727255e+04   4.456307e+04
  -6.469319e+04   3.881416e+04
  -7.341391e+04   3.312684e+04
  -2.085497e+04   1.207136e+04
   1.147827e+04  -1.826082e+04
  -7.076124e+03  -2.765205e+04
  -2.806136e+04  -1.138860e+04
  -2.076235e+03  -2.997998e+03
   5.169175e+04  -1.757379e+04
   7.127183e+04  -1.763485e+04
   2.736985e+04   3.033467e+04
  -4.740057e+04   8.828678e+04
  -9.666949e+04   8.042342e+04
  -8.998077e+04  -6.361633e+03
  -3.777241e+04  -9.536124e+04
   2.393242e+04  -1.075043e+05
   5.762427e+04  -4.867831e+04
   4.756594e+04   9.420116e+03
   1.238789e+04   1.737115e+04
  -9.056647e+03  -6.379659e+03
   5.144479e+03  -1.228495e+04
   3.547650e+04   1.833384e+04
   4.010762e+04   5.416766e+04
   1.495142e+03   4.997485e+04
  -4.972662e+04  -2.068155e+03
  -6.196206e+04  -5.841605e+04
  -1.552561e+04  -6.591427e+04
   5.231557e+04  -1.728990e+04
   7.861218e+04   4.287915e+04
   3.604000e+04   6.770687e+04
  -3.671563e+04   5.041820e+04
  -7.227419e+04   1.405958e+04
  -4.560771e+04  -2.070551e+04
   9.111538e+01  -4.160137e+04
   6.871738e+03  -3.660021e+04
  -2.682001e+04  -8.249544e+03
  -4.618386e+04   1.001755e+04
  -1.209270e+04  -1.541547e+04
   4.818176e+04  -6.479579e+04
   7.595740e+04  -7.361596e+04
   5.165974e+04  -1.355078e+04
   9.145938e+03   6.020695e+04
  -1.366886e+04   7.093160e+04
  -1.291825e+04   1.554480e+04
  -3.466934e+03  -3.494434e+04
   8.944735e+03  -2.742352e+04
   2.307816e+04   1.488137e+04
   2.599605e+04   3.629645e+04
   5.154980e+03   2.129463e+04
  -2.670455e+04  -2.561922e+02
  -3.936178e+04  -3.735780e+03
  -2.175849e+04   2.642944e+03
   4.453091e+03  -8.890367e+01
   1.421862e+04  -1.384627e+04
   9.063698e+03  -2.487503e+04
   8.017776e+03  -2.083612e+04
   1.717041e+04  -5.535369e+02
   2.098901e+04   2.492959e+04
   4.037117e+03   3.668123e+04
  -2.616844e+04   2.160280e+04
  -4.162616e+04  -1.185465e+04
  -2.055475e+04  -3.703327e+04
   2.574545e+04  -3.402233e+04
   5.578035e+04  -8.451916e+03
   3.781869e+04   1.739917e+04
  -1.058111e+04   2.707611e+04
  -3.580923e+04   2.003048e+04
  -1.022554e+04   6.622423e+03
   3.084863e+04   5.498810e+02
   3.045121e+04   1.020675e+04
  -1.829916e+04   2.690234e+04
  -6.287177e+04   2.532393e+04
