
 $NMID
 id='ANONYMOUS ', fmtdat='(2E16.6)'
 volume=1.0
 tramp=1.0
 $END
   2.645589e+07  -1.487639e+05
   1.765801e+07   1.311935e+07
  -4.708670e+05   1.715098e+07
  -1.186178e+07   1.055622e+07
  -9.531557e+06   3.220892e+05
  -2.499714e+05  -4.821676e+06
   5.397724e+06  -1.904268e+06
   3.659247e+06   4.429698e+06
  -1.623217e+06   6.939514e+06
  -5.009707e+06   2.907259e+06
  -4.151165e+06  -3.385035e+06
  -4.826664e+05  -5.346684e+06
   2.457120e+06  -1.168989e+06
   1.865197e+06   4.327816e+06
  -1.672101e+06   5.098526e+06
  -4.402743e+06   3.230157e+05
  -3.143274e+06  -5.206635e+06
   1.302559e+06  -6.505461e+06
   5.036223e+06  -3.118105e+06
   5.148297e+06   1.423382e+06
   2.356672e+06   3.646900e+06
  -2.042243e+05   3.084572e+06
  -2.568314e+05   1.845154e+06
   1.468034e+06   2.001567e+06
   2.006427e+06   3.438377e+06
  -6.661906e+05   4.101100e+06
  -4.957799e+06   2.379388e+06
  -6.740636e+06  -9.028664e+05
  -3.804452e+06  -3.184179e+06
   1.246634e+06  -2.779176e+06
   3.561229e+06  -4.266074e+05
   1.366460e+06   1.660589e+06
  -2.349421e+06   1.763037e+06
  -3.605260e+06  -2.105057e+05
  -1.703619e+06  -2.718964e+06
   8.481568e+05  -3.542174e+06
   1.682105e+06  -1.686420e+06
   7.571220e+05   1.135080e+06
  -3.788398e+05   1.822217e+06
  -4.192627e+05  -4.762837e+05
   7.081849e+05  -2.849529e+06
   1.913136e+06  -1.988529e+06
   1.779200e+06   1.411847e+06
  -8.519748e+04   3.220212e+06
  -2.222904e+06   1.032816e+06
  -2.345404e+06  -2.768287e+06
   2.943561e+05  -3.945246e+06
   3.675932e+06  -1.306003e+06
   4.646830e+06   2.411320e+06
   2.018886e+06   3.911985e+06
  -2.075204e+06   2.436611e+06
  -4.101120e+06  -2.783941e+05
  -2.499688e+06  -1.983761e+06
   8.565263e+05  -1.639286e+06
   2.643846e+06   2.510152e+04
   1.488820e+06   1.236594e+06
  -8.024976e+05   8.415470e+05
  -1.480070e+06  -5.268993e+05
   1.807051e+04  -1.192833e+06
   1.593898e+06  -3.705885e+05
   1.087906e+06   1.012454e+06
  -1.172165e+06   1.440690e+06
  -2.735539e+06   3.195672e+05
  -1.701883e+06  -1.668280e+06
   1.323890e+06  -3.153467e+06
   3.916532e+06  -2.875268e+06
   4.185341e+06  -5.703403e+05
   2.357507e+06   2.449274e+06
   2.181901e+05   4.089541e+06
  -7.749261e+05   3.457335e+06
  -7.226732e+05   1.799116e+06
  -7.475635e+05   9.230812e+05
  -1.498784e+06   9.725553e+05
  -2.414010e+06   5.344782e+05
  -2.413971e+06  -1.078873e+06
  -1.094130e+06  -2.570538e+06
   8.236693e+05  -2.170430e+06
   2.028255e+06   1.049587e+05
   1.578938e+06   2.308334e+06
  -3.331412e+05   2.559500e+06
  -2.338510e+06   7.893190e+05
  -2.866160e+06  -1.453852e+06
  -1.569831e+06  -2.573301e+06
   2.742814e+05  -2.220765e+06
   1.136065e+06  -1.285395e+06
   9.590367e+05  -7.984638e+05
   1.077743e+06  -8.734201e+05
   2.287221e+06  -7.094025e+05
   3.508302e+06   4.029792e+05
   2.892002e+06   2.179023e+06
   1.251562e+05   3.468630e+06
  -2.874296e+06   3.224771e+06
  -3.769476e+06   1.408852e+06
  -2.111869e+06  -8.542698e+05
   3.147503e+05  -2.019985e+06
   1.335527e+06  -1.375406e+06
   4.167006e+05   2.059500e+05
  -1.084847e+06   1.001528e+06
  -1.501161e+06   2.519465e+05
  -5.349372e+05  -9.425813e+05
   6.174697e+05  -9.457629e+05
   6.546994e+05   3.003275e+05
  -4.809692e+05   1.064511e+06
  -1.607871e+06  -5.705048e+04
  -1.465437e+06  -2.289812e+06
   1.710312e+05  -3.404344e+06
   2.296276e+06  -2.125867e+06
   3.409137e+06   5.756519e+05
   2.647358e+06   2.573650e+06
   5.587769e+05   2.626443e+06
  -1.233839e+06   1.281718e+06
  -1.455532e+06   5.896659e+04
  -4.259976e+05  -4.907154e+04
   3.111225e+05   6.415559e+05
  -2.518557e+05   1.032256e+06
  -1.417468e+06   4.708761e+05
  -1.640587e+06  -5.727726e+05
  -4.336310e+05  -1.065126e+06
   9.596077e+05  -5.493617e+05
   9.370752e+05   3.863323e+05
  -6.255793e+05   7.365941e+05
  -2.144285e+06   4.614547e+04
  -1.940294e+06  -1.206955e+06
   2.481095e+04  -2.014919e+06
   2.075335e+06  -1.641255e+06
   2.456872e+06  -2.750980e+05
   1.019335e+06   1.000627e+06
  -7.220989e+05   1.117980e+06
  -1.144013e+06   1.131570e+05
  -5.816333e+04  -8.186058e+05
   1.272109e+06  -5.794512e+05
   1.497939e+06   5.970824e+05
   4.577732e+05   1.418612e+06
  -8.111029e+05   1.027674e+06
  -1.152133e+06  -5.821415e+04
  -3.777632e+05  -6.117645e+05
   5.793918e+05  -8.144783e+04
   5.760768e+05   8.826853e+05
  -5.620450e+05   1.183445e+06
  -1.753384e+06   3.727019e+05
  -1.704990e+06  -9.658078e+05
  -3.040369e+05  -1.764825e+06
   1.192521e+06  -1.402504e+06
   1.468615e+06  -2.367722e+05
   5.040632e+05   7.205065e+05
  -5.389659e+05   7.404691e+05
  -6.551433e+05   4.337235e+04
   2.676897e+04  -5.059281e+05
   5.917759e+05  -3.642195e+05
   4.122054e+05   1.273891e+05
  -2.432066e+05   2.055663e+05
  -5.473682e+05  -3.754021e+05
   3.350998e+04  -9.972347e+05
   1.151592e+06  -8.077408e+05
   1.799439e+06   3.518096e+05
   1.236704e+06   1.689387e+06
  -2.247928e+05   2.143822e+06
  -1.457207e+06   1.351444e+06
  -1.621769e+06  -2.746509e+04
  -9.469951e+05  -9.378077e+05
  -3.186770e+05  -9.044672e+05
  -2.300062e+05  -3.904812e+05
  -3.403528e+05  -1.923199e+05
  -4.809467e+04  -5.292061e+05
   7.084048e+05  -8.163682e+05
   1.313096e+06  -3.767384e+05
   1.058604e+06   6.882530e+05
  -1.439967e+05   1.450036e+06
  -1.541148e+06   1.041080e+06
  -2.029756e+06  -4.165111e+05
  -1.069519e+06  -1.817210e+06
   7.485871e+05  -2.049031e+06
   2.116388e+06  -9.919069e+05
   2.134694e+06   4.341434e+05
   1.060932e+06   1.185671e+06
  -7.190331e+04   1.036841e+06
  -5.026280e+05   6.226684e+05
  -3.426790e+05   6.173725e+05
  -2.294302e+05   9.672441e+05
  -5.498333e+05   9.939717e+05
  -1.046551e+06   2.242932e+05
  -1.111361e+06  -9.773786e+05
  -4.359137e+05  -1.672428e+06
   5.888321e+05  -1.245323e+06
   1.142741e+06  -1.314608e+04
   7.435641e+05   1.056230e+06
  -2.312524e+05   1.208281e+06
  -8.812516e+05   4.994338e+05
  -6.944264e+05  -3.847320e+05
  -4.745880e+04  -8.159787e+05
   2.761742e+05  -7.160443e+05
   1.649679e+03  -4.501367e+05
  -3.324335e+05  -3.427531e+05
  -2.036758e+04  -3.529912e+05
   9.362686e+05  -1.982227e+05
   1.699330e+06   2.709747e+05
   1.400141e+06   8.575435e+05
   7.796035e+04   1.164269e+06
  -1.253133e+06   9.394811e+05
  -1.555615e+06   3.120016e+05
  -7.782003e+05  -2.778457e+05
   1.644275e+05  -4.184234e+05
   4.063308e+05  -9.374806e+04
  -2.523052e+04   2.643230e+05
  -4.437994e+05   1.849014e+05
  -3.946788e+05  -3.093160e+05
  -8.263949e+04  -6.643473e+05
   4.136443e+04  -4.218285e+05
  -1.411286e+05   1.654108e+05
  -3.512322e+05   3.516393e+05
  -2.619390e+05  -1.950394e+05
   2.038196e+05  -8.992276e+05
   7.966634e+05  -8.945389e+05
   1.043986e+06  -5.723067e+04
   5.844155e+05   8.103425e+05
  -3.759033e+05   8.739927e+05
  -1.015517e+06   1.592588e+05
  -6.103177e+05  -5.534951e+05
   5.958407e+05  -5.835920e+05
   1.451034e+06   4.439273e+04
   1.035400e+06   7.519847e+05
  -3.267949e+05   9.712652e+05
  -1.369607e+06   5.682718e+05
  -1.198975e+06  -1.039738e+05
  -1.716173e+05  -4.880823e+05
   5.651288e+05  -2.861998e+05
   2.960008e+05   2.240388e+05
  -5.772712e+05   3.854661e+05
  -1.021268e+06  -1.839163e+05
  -4.539104e+05  -1.092182e+06
   6.809295e+05  -1.432176e+06
   1.383656e+06  -6.627645e+05
   1.083598e+06   7.425413e+05
   1.208271e+05   1.617909e+06
  -6.917346e+05   1.195611e+06
  -8.455073e+05  -1.031136e+05
  -4.373819e+05  -1.063166e+06
   1.200728e+05  -9.207332e+05
   4.745755e+05  -1.078028e+05
   4.777738e+05   3.678690e+05
   2.208541e+05   1.576251e+05
   1.632517e+04  -1.111050e+05
   1.314466e+05   2.044464e+05
   3.908440e+05   8.428475e+05
   2.421464e+05   9.887182e+05
  -5.344382e+05   3.622362e+05
  -1.317842e+06  -4.499937e+05
  -1.211727e+06  -7.791200e+05
  -1.619482e+05  -6.067827e+05
   8.464576e+05  -3.383454e+05
   9.113328e+05  -1.679627e+05
   2.567192e+05   2.997718e+03
  -1.647884e+05   1.863492e+05
   5.227048e+04   2.349304e+05
   3.269825e+05   1.512354e+05
   2.720667e+03   1.225511e+05
  -6.952066e+05   1.458064e+05
  -9.125316e+05  -6.848722e+04
  -2.218815e+05  -5.983122e+05
   8.675061e+05  -9.527729e+05
   1.456280e+06  -5.531947e+05
   1.112660e+06   4.696476e+05
   1.617616e+05   1.266889e+06
  -6.924042e+05   1.164380e+06
  -9.382011e+05   3.795678e+05
  -5.826301e+05  -2.798317e+05
  -6.656576e+04  -3.164493e+05
   1.418525e+05   5.594970e+03
  -4.678663e+04   7.874428e+04
  -3.009000e+05  -3.094683e+05
  -2.319103e+05  -7.252085e+05
   1.971725e+05  -5.738386e+05
   6.121682e+05   1.922847e+05
   5.639901e+05   9.217751e+05
  -3.022157e+04   8.981240e+05
  -7.213952e+05   1.043529e+05
  -8.564729e+05  -7.487359e+05
  -2.148065e+05  -9.653098e+05
   6.618332e+05  -5.092922e+05
   9.408309e+05   1.246728e+05
   4.043743e+05   4.949015e+05
  -2.636188e+05   5.107734e+05
  -2.740348e+05   2.995216e+05
   2.947511e+05   5.284555e+04
   5.952852e+05   1.006383e+03
   9.334750e+04   2.596533e+05
  -7.527815e+05   5.841707e+05
  -1.068037e+06   5.011215e+05
  -5.942467e+05  -1.136569e+05
   1.183766e+05  -7.332859e+05
   4.449309e+05  -7.116354e+05
   2.988244e+05  -7.823283e+04
  -1.256141e+04   4.543994e+05
  -2.374979e+05   3.331099e+05
  -3.052664e+05  -2.118632e+05
  -1.937791e+05  -5.206173e+05
   7.498044e+04  -3.103439e+05
   3.385567e+05   8.322843e+04
   3.900025e+05   2.133256e+05
   2.136590e+05   4.957458e+04
   5.869024e+03  -7.616243e+04
  -7.928670e+04   7.267033e+04
  -1.022515e+05   3.502916e+05
  -1.949691e+05   3.967602e+05
  -3.236452e+05   5.091972e+04
  -2.922946e+05  -4.270597e+05
   9.005335e+03  -5.791555e+05
   4.045600e+05  -2.262133e+05
   5.267990e+05   3.130816e+05
   1.660237e+05   5.409886e+05
  -4.393476e+05   2.963520e+05
  -7.330810e+05  -1.260576e+05
  -3.888996e+05  -3.506574e+05
   2.696209e+05  -2.907766e+05
   5.487832e+05  -1.160106e+05
   1.662951e+05  -3.615337e+02
  -3.804552e+05  -1.405096e+04
  -3.818319e+05  -1.510641e+05
   2.250830e+05  -2.929828e+05
   7.688292e+05  -2.025138e+05
