
 $NMID
 id='ANONYMOUS ', fmtdat='(2E16.6)'
 volume=1.0
 tramp=1.0
 $END
  -4.164985e+07  -1.130949e+06
  -2.505835e+07  -2.464600e+07
   4.724671e+06  -2.744043e+07
   1.990157e+07  -1.217558e+07
   1.279498e+07   3.462770e+06
  -1.638802e+06   6.960096e+06
  -7.519678e+06   2.820786e+05
  -3.118101e+06  -7.056739e+06
   3.929824e+06  -8.086973e+06
   7.321052e+06  -2.371416e+06
   5.539919e+06   4.941064e+06
   5.526850e+05   7.084709e+06
  -3.335141e+06   1.914365e+06
  -2.279703e+06  -5.007191e+06
   2.750781e+06  -5.857740e+06
   6.120547e+06   5.973321e+05
   3.667500e+06   7.804248e+06
  -2.733108e+06   9.140650e+06
  -7.736448e+06   4.357711e+06
  -8.017613e+06  -1.992849e+06
  -4.337590e+06  -5.794598e+06
   1.734092e+04  -5.912471e+06
   1.738214e+06  -3.806998e+06
   1.124212e+05  -2.213993e+06
  -1.728025e+06  -2.849114e+06
   1.979804e+05  -4.306019e+06
   5.387386e+06  -3.455288e+06
   8.425225e+06   3.215685e+05
   5.469608e+06   3.850564e+06
  -6.389798e+05   4.051522e+06
  -3.840731e+06   1.508965e+06
  -2.043383e+06  -9.370623e+05
   1.513313e+06  -1.527544e+06
   3.105159e+06  -2.284812e+05
   2.084896e+06   2.180217e+06
  -1.062731e+05   3.918219e+06
  -1.876891e+06   2.796323e+06
  -2.039772e+06  -7.826740e+05
  -5.516884e+05  -2.859182e+06
   7.275302e+05  -6.580757e+05
  -1.696027e+05   2.802536e+06
  -2.227238e+06   2.192978e+06
  -2.081200e+06  -2.328533e+06
   1.329346e+06  -4.607107e+06
   4.559439e+06  -8.443820e+05
   3.577693e+06   4.970299e+06
  -1.269136e+06   6.197482e+06
  -5.636616e+06   1.734779e+06
  -5.821055e+06  -3.532361e+06
  -1.930526e+06  -5.022401e+06
   2.802378e+06  -2.593898e+06
   4.723965e+06   9.052976e+05
   2.483791e+06   2.740663e+06
  -1.646553e+06   1.889289e+06
  -3.588122e+06  -5.257750e+05
  -1.695171e+06  -1.997876e+06
   1.285989e+06  -1.085057e+06
   1.630683e+06   7.822698e+05
  -6.227096e+05   1.032654e+06
  -1.960334e+06  -6.705533e+05
  -1.900303e+05  -2.120010e+06
   2.882068e+06  -1.549488e+06
   3.970191e+06   5.768173e+05
   1.953828e+06   2.844769e+06
  -1.666230e+06   4.257319e+06
  -4.628487e+06   3.898609e+06
  -5.333049e+06   1.100165e+06
  -3.493379e+06  -2.950037e+06
  -5.152984e+05  -5.252443e+06
   1.352588e+06  -4.151017e+06
   1.201018e+06  -1.531297e+06
   4.219246e+05  -4.199388e+05
   7.972529e+05  -1.096582e+06
   2.153459e+06  -1.223157e+06
   2.759357e+06   4.689619e+05
   1.639544e+06   2.376996e+06
  -4.147004e+05   2.278544e+06
  -1.880246e+06   8.678128e+04
  -1.713447e+06  -2.258934e+06
   1.728714e+05  -2.843690e+06
   2.654494e+06  -1.236745e+06
   3.761575e+06   1.421259e+06
   2.386994e+06   3.292729e+06
  -2.433077e+05   3.276173e+06
  -1.780610e+06   1.975007e+06
  -1.614660e+06   9.353345e+05
  -1.460568e+06   7.825966e+05
  -2.661045e+06   6.106176e+05
  -4.016797e+06  -5.979728e+05
  -3.266738e+06  -2.537647e+06
  -1.316431e+05  -3.902305e+06
   3.133937e+06  -3.670765e+06
   4.112829e+06  -1.818230e+06
   2.477109e+06   6.778862e+05
  -2.817284e+04   2.224247e+06
  -1.279647e+06   1.718454e+06
  -5.128944e+05  -1.330169e+05
   1.128750e+06  -1.195765e+06
   1.755211e+06  -3.258954e+05
   7.380148e+05   1.117120e+06
  -5.890081e+05   1.070687e+06
  -5.638579e+05  -3.372108e+05
   7.565575e+05  -8.949905e+05
   1.722591e+06   6.606282e+05
   1.072287e+06   2.898371e+06
  -8.440985e+05   3.450011e+06
  -2.716708e+06   1.675987e+06
  -3.432761e+06  -9.867104e+05
  -2.563706e+06  -2.708244e+06
  -5.487634e+05  -2.694673e+06
   1.276083e+06  -1.424581e+06
   1.572357e+06  -1.510122e+05
   4.739123e+05   4.886554e+04
  -3.447410e+05  -7.178249e+05
   3.477762e+05  -1.214448e+06
   1.710447e+06  -5.272945e+05
   1.880172e+06   7.554000e+05
   4.146808e+05   1.270333e+06
  -1.094688e+06   5.755543e+05
  -9.438569e+05  -4.241121e+05
   7.415459e+05  -6.463324e+05
   2.214456e+06   1.207970e+05
   1.907915e+06   1.296579e+06
  -1.198234e+05   2.048037e+06
  -2.248321e+06   1.706388e+06
  -2.694750e+06   2.867744e+05
  -1.146939e+06  -1.168778e+06
   8.556288e+05  -1.343854e+06
   1.394124e+06  -1.434374e+05
   1.252640e+05   9.844787e+05
  -1.441041e+06   6.756934e+05
  -1.653971e+06  -7.097377e+05
  -4.108183e+05  -1.573959e+06
   9.696070e+05  -1.027394e+06
   1.230688e+06   1.855753e+05
   3.189570e+05   7.084883e+05
  -7.068484e+05   6.395812e+04
  -6.749620e+05  -1.002239e+06
   5.904154e+05  -1.348700e+06
   1.946144e+06  -4.725584e+05
   1.932680e+06   1.043693e+06
   3.526709e+05   1.982205e+06
  -1.359093e+06   1.567413e+06
  -1.644757e+06   2.288885e+05
  -5.173205e+05  -8.157932e+05
   6.153571e+05  -7.946495e+05
   6.669357e+05  -6.775441e+04
  -6.310200e+04   4.439334e+05
  -5.491634e+05   3.065503e+05
  -2.822902e+05  -8.188267e+04
   3.393141e+05  -5.968142e+04
   5.375235e+05   5.329731e+05
  -1.250455e+05   1.117632e+06
  -1.304970e+06   8.756155e+05
  -2.001485e+06  -3.955347e+05
  -1.393715e+06  -1.876033e+06
   2.252050e+05  -2.357034e+06
   1.577459e+06  -1.429563e+06
   1.703806e+06   6.959342e+04
   9.412720e+05   9.348664e+05
   3.483654e+05   8.021068e+05
   3.754848e+05   3.266588e+05
   4.929308e+05   2.723550e+05
   6.355870e+04   6.680921e+05
  -8.149540e+05   8.826202e+05
  -1.418650e+06   3.654240e+05
  -1.091460e+06  -7.189506e+05
   1.921218e+05  -1.496972e+06
   1.676514e+06  -1.093182e+06
   2.206337e+06   4.595004e+05
   1.136229e+06   2.015324e+06
  -9.067926e+05   2.269322e+06
  -2.396861e+06   1.038337e+06
  -2.305505e+06  -5.580573e+05
  -1.042288e+06  -1.288325e+06
   1.301580e+05  -1.016834e+06
   4.498079e+05  -5.947782e+05
   2.201580e+05  -7.232332e+05
   1.819020e+05  -1.180772e+06
   6.364900e+05  -1.175050e+06
   1.209895e+06  -2.756288e+05
   1.265807e+06   1.064033e+06
   5.142116e+05   1.842601e+06
  -6.242688e+05   1.386810e+06
  -1.251677e+06   7.487004e+03
  -7.992367e+05  -1.204271e+06
   3.205991e+05  -1.336846e+06
   1.045122e+06  -4.593783e+05
   7.633152e+05   5.583038e+05
  -4.581522e+04   9.662079e+05
  -4.166709e+05   7.614191e+05
  -3.929709e+04   4.424409e+05
   3.982629e+05   3.523796e+05
   4.285092e+04   3.816437e+05
  -1.074435e+06   2.072130e+05
  -1.939835e+06  -3.160949e+05
  -1.554142e+06  -9.769255e+05
  -1.595597e+04  -1.334213e+06
   1.469171e+06  -1.065953e+06
   1.742947e+06  -3.023476e+05
   8.222974e+05   3.952018e+05
  -2.240364e+05   5.059320e+05
  -4.697616e+05   6.338607e+04
   2.810622e+03  -3.571666e+05
   4.592607e+05  -2.328755e+05
   4.532766e+05   3.369469e+05
   1.774422e+05   7.235362e+05
   3.013597e+04   4.722857e+05
   1.383530e+05  -1.347959e+05
   3.181045e+05  -3.380049e+05
   2.766929e+05   2.190268e+05
  -1.738613e+05   9.773825e+05
  -8.758990e+05   1.013613e+06
  -1.248875e+06   1.139801e+05
  -7.452827e+05  -8.984394e+05
   4.139068e+05  -1.041980e+06
   1.182102e+06  -2.550681e+05
   6.980476e+05   5.812544e+05
  -6.684434e+05   6.348754e+05
  -1.564595e+06  -6.824833e+04
  -1.050351e+06  -8.233140e+05
   4.133653e+05  -1.003588e+06
   1.469256e+06  -5.412914e+05
   1.248314e+06   1.456115e+05
   1.590988e+05   5.128410e+05
  -6.236809e+05   2.854984e+05
  -3.505236e+05  -2.705189e+05
   6.016484e+05  -4.758264e+05
   1.145794e+06   1.317372e+05
   5.916597e+05   1.178806e+06
  -6.501948e+05   1.632604e+06
  -1.482856e+06   8.125096e+05
  -1.215490e+06  -7.700793e+05
  -1.756412e+05  -1.762244e+06
   7.320997e+05  -1.287138e+06
   9.100811e+05   1.435787e+05
   4.483301e+05   1.159758e+06
  -1.737211e+05   9.682269e+05
  -5.342771e+05   9.677539e+04
  -4.865442e+05  -3.781813e+05
  -1.966832e+05  -1.452897e+05
  -3.323376e+04   1.034676e+05
  -2.160600e+05  -2.682067e+05
  -4.695465e+05  -9.378655e+05
  -2.232065e+05  -1.060503e+06
   6.495289e+05  -3.852543e+05
   1.444784e+06   4.666255e+05
   1.285748e+06   8.247389e+05
   1.798329e+05   6.746871e+05
  -8.728100e+05   4.011497e+05
  -9.753980e+05   1.848424e+05
  -3.207807e+05  -3.547750e+04
   1.579956e+05  -2.164379e+05
  -5.974100e+03  -2.178902e+05
  -3.030233e+05  -1.149970e+05
  -3.162528e+04  -1.343292e+05
   6.954726e+05  -2.113246e+05
   1.017345e+06   3.441161e+04
   3.531424e+05   6.773726e+05
  -8.749028e+05   1.119152e+06
  -1.640563e+06   6.888336e+05
  -1.323657e+06  -4.623282e+05
  -2.389359e+05  -1.383787e+06
   7.524662e+05  -1.320698e+06
   1.031132e+06  -4.873214e+05
   6.451430e+05   2.552993e+05
   1.096920e+05   3.518488e+05
  -1.058018e+05   4.330054e+04
   6.440306e+04  -4.153042e+04
   3.072047e+05   3.485096e+05
   2.491280e+05   7.899801e+05
  -1.902456e+05   6.535989e+05
  -6.735019e+05  -1.497968e+05
  -6.918679e+05  -9.628016e+05
  -6.177437e+04  -1.007357e+06
   7.624385e+05  -2.016425e+05
   9.944377e+05   7.466357e+05
   3.061152e+05   1.066904e+06
  -7.105785e+05   6.287592e+05
  -1.074433e+06  -9.532987e+04
  -4.906601e+05  -5.804908e+05
   2.870007e+05  -6.268877e+05
   3.456211e+05  -3.453278e+05
  -2.739494e+05  -2.068799e+04
  -6.431389e+05   2.778021e+04
  -1.287225e+05  -2.969277e+05
   8.119239e+05  -6.590101e+05
   1.205470e+06  -5.362763e+05
   7.089122e+05   1.587233e+05
  -1.062965e+05   8.354139e+05
  -5.211335e+05   8.151300e+05
  -3.881787e+05   1.287479e+05
  -3.276018e+04  -4.824142e+05
   2.449420e+05  -4.066154e+05
   3.465738e+05   1.739710e+05
   2.383775e+05   5.674030e+05
  -6.515378e+04   3.923658e+05
  -3.811837e+05  -5.928621e+04
  -4.502892e+05  -2.603470e+05
  -2.338965e+05  -7.946086e+04
   1.639479e+04   1.268645e+05
   7.575780e+04  -9.173875e+02
   2.755969e+04  -3.661328e+05
   1.098600e+05  -5.119386e+05
   3.350831e+05  -1.628211e+05
   4.111560e+05   4.098764e+05
   9.986958e+04   6.425724e+05
  -4.163312e+05   2.913774e+05
  -6.299408e+05  -2.984116e+05
  -2.299215e+05  -5.742838e+05
   4.912430e+05  -3.474212e+05
   8.464210e+05   9.535950e+04
   4.563879e+05   3.745829e+05
  -2.924748e+05   3.682650e+05
  -6.213313e+05   1.918151e+05
  -2.245267e+05   9.331753e+03
   3.694690e+05  -4.535249e+04
   4.115699e+05   9.399888e+04
  -1.884596e+05   3.025698e+05
  -7.666882e+05   2.610921e+05
