
 $NMID
 id='ANONYMOUS ', fmtdat='(2E16.6)'
 volume=1.0
 tramp=1.0
 $END
  -4.035463e+07  -1.813378e+06
  -2.384151e+07  -2.431282e+07
   5.060796e+06  -2.649773e+07
   1.947621e+07  -1.144940e+07
   1.231591e+07   3.567191e+06
  -1.706717e+06   6.706213e+06
  -7.275960e+06   1.485663e+05
  -2.898833e+06  -6.877336e+06
   3.930603e+06  -7.761047e+06
   7.123219e+06  -2.175154e+06
   5.288653e+06   4.878967e+06
   4.233507e+05   6.876525e+06
  -3.267218e+06   1.803157e+06
  -2.137187e+06  -4.887393e+06
   2.752209e+06  -5.629131e+06
   5.915337e+06   6.799357e+05
   3.422906e+06   7.620450e+06
  -2.800561e+06   8.809285e+06
  -7.572291e+06   4.092366e+06
  -7.741232e+06  -2.069681e+06
  -4.106309e+06  -5.697854e+06
   1.258436e+05  -5.736109e+06
   1.759294e+06  -3.653079e+06
   1.438803e+05  -2.126106e+06
  -1.642829e+06  -2.778385e+06
   2.493042e+05  -4.174903e+06
   5.277617e+06  -3.274851e+06
   8.168921e+06   4.391670e+05
   5.245432e+06   3.822421e+06
  -6.848377e+05   3.927145e+06
  -3.753866e+06   1.411526e+06
  -1.977429e+06  -9.405575e+05
   1.481678e+06  -1.469303e+06
   3.015406e+06  -1.872917e+05
   1.998125e+06   2.143137e+06
  -1.573754e+05   3.804267e+06
  -1.868361e+06   2.684696e+06
  -1.972863e+06  -7.990749e+05
  -4.874342e+05  -2.790244e+06
   7.268874e+05  -6.269626e+05
  -1.992803e+05   2.719026e+06
  -2.189493e+06   2.092342e+06
  -1.976394e+06  -2.288680e+06
   1.366108e+06  -4.435234e+06
   4.431076e+06  -7.319551e+05
   3.379241e+06   4.880431e+06
  -1.337647e+06   5.981368e+06
  -5.492393e+06   1.585980e+06
  -5.583380e+06  -3.513714e+06
  -1.792123e+06  -4.892451e+06
   2.752342e+06  -2.468826e+06
   4.559424e+06   9.470749e+05
   2.362177e+06   2.689531e+06
  -1.624561e+06   1.801110e+06
  -3.466185e+06  -5.678057e+05
  -1.608415e+06  -1.962073e+06
   1.263887e+06  -1.029889e+06
   1.567342e+06   7.815206e+05
  -6.161865e+05   9.855674e+05
  -1.879805e+06  -6.814228e+05
  -1.424280e+05  -2.048806e+06
   2.817158e+06  -1.444678e+06
   3.831462e+06   6.265426e+05
   1.843007e+06   2.786987e+06
  -1.683290e+06   4.101133e+06
  -4.548393e+06   3.710426e+06
  -5.189609e+06   9.841347e+05
  -3.342585e+06  -2.917741e+06
  -4.179572e+05  -5.101458e+06
   1.373965e+06  -3.999091e+06
   1.181916e+06  -1.461864e+06
   4.081103e+05  -4.036508e+05
   7.865801e+05  -1.059908e+06
   2.109343e+06  -1.161298e+06
   2.674804e+06   4.928834e+05
   1.560874e+06   2.330125e+06
  -4.318373e+05   2.207194e+06
  -1.824811e+06   6.176327e+04
  -1.631617e+06  -2.212401e+06
   2.074531e+05  -2.755419e+06
   2.593759e+06  -1.160993e+06
   3.628100e+06   1.436244e+06
   2.263092e+06   3.232180e+06
  -2.905341e+05   3.173474e+06
  -1.760159e+06   1.884219e+06
  -1.579500e+06   8.778012e+05
  -1.425017e+06   7.345300e+05
  -2.585676e+06   5.523894e+05
  -3.882555e+06  -6.379750e+05
  -3.128450e+06  -2.506253e+06
  -7.169966e+04  -3.783391e+06
   3.089774e+06  -3.513390e+06
   4.013822e+06  -1.704797e+06
   2.393960e+06   6.928870e+05
  -5.800384e+04   2.158314e+06
  -1.266112e+06   1.649685e+06
  -4.964013e+05  -1.364583e+05
   1.111431e+06  -1.143821e+06
   1.706289e+06  -2.902699e+05
   6.990406e+05   1.094678e+06
  -5.860169e+05   1.030490e+06
  -5.414763e+05  -3.329591e+05
   7.431473e+05  -8.538982e+05
   1.653665e+06   6.648435e+05
   9.933852e+05   2.818819e+06
  -8.647232e+05   3.324086e+06
  -2.649740e+06   1.582653e+06
  -3.308339e+06  -1.002027e+06
  -2.446768e+06  -2.656819e+06
  -4.956558e+05  -2.617946e+06
   1.256699e+06  -1.363298e+06
   1.526711e+06  -1.245830e+05
   4.586444e+05   5.412324e+04
  -3.239080e+05  -7.004708e+05
   3.549431e+05  -1.171410e+06
   1.665282e+06  -4.854700e+05
   1.810331e+06   7.594032e+05
   3.830404e+05   1.236458e+06
  -1.068585e+06   5.420881e+05
  -9.086195e+05  -4.231708e+05
   7.258842e+05  -6.149739e+05
   2.142000e+06   1.469936e+05
   1.830461e+06   1.280818e+06
  -1.433367e+05   1.981640e+06
  -2.201632e+06   1.622078e+06
  -2.615233e+06   2.399910e+05
  -1.094392e+06  -1.149199e+06
   8.493484e+05  -1.289876e+06
   1.353521e+06  -1.180564e+05
   1.068792e+05   9.565894e+05
  -1.406388e+06   6.342186e+05
  -1.592312e+06  -7.111674e+05
  -3.757221e+05  -1.530150e+06
   9.531247e+05  -9.810931e+05
   1.188771e+06   1.968881e+05
   2.987585e+05   6.901275e+05
  -6.855738e+05   5.141472e+04
  -6.396937e+05  -9.809915e+05
   5.914366e+05  -1.298867e+06
   1.893076e+06  -4.304416e+05
   1.858382e+06   1.039106e+06
   3.134599e+05   1.926051e+06
  -1.339448e+06   1.499335e+06
  -1.596894e+06   1.982874e+05
  -4.896452e+05  -7.975580e+05
   6.072814e+05  -7.612518e+05
   6.474410e+05  -5.697599e+04
  -6.612499e+04   4.287119e+05
  -5.351859e+05   2.902686e+05
  -2.726817e+05  -8.133104e+04
   3.279452e+05  -5.192718e+04
   5.118822e+05   5.235649e+05
  -1.373376e+05   1.080272e+06
  -1.276776e+06   8.296009e+05
  -1.933793e+06  -4.117368e+05
  -1.323936e+06  -1.837916e+06
   2.514294e+05  -2.281099e+06
   1.548165e+06  -1.363258e+06
   1.649566e+06   9.071665e+04
   8.997967e+05   9.180887e+05
   3.282353e+05   7.819514e+05
   3.604473e+05   3.229946e+05
   4.732794e+05   2.721903e+05
   5.118540e+04   6.484770e+05
  -8.020890e+05   8.432712e+05
  -1.379221e+06   3.341670e+05
  -1.047653e+06  -7.112789e+05
   2.063723e+05  -1.447300e+06
   1.639369e+06  -1.035697e+06
   2.131388e+06   4.761095e+05
   1.072400e+06   1.968467e+06
  -9.109151e+05   2.185376e+06
  -2.336778e+06   9.716211e+05
  -2.225359e+06  -5.729177e+05
  -9.918786e+05  -1.261799e+06
   1.392225e+05  -9.828143e+05
   4.431821e+05  -5.709686e+05
   2.237962e+05  -6.994302e+05
   1.940562e+05  -1.142546e+06
   6.342490e+05  -1.129475e+06
   1.176690e+06  -2.494661e+05
   1.211782e+06   1.049353e+06
   4.723451e+05   1.793145e+06
  -6.246119e+05   1.335345e+06
  -1.212936e+06  -1.030215e+04
  -7.570520e+05  -1.178066e+06
   3.296612e+05  -1.290235e+06
   1.018355e+06  -4.295269e+05
   7.303635e+05   5.519095e+05
  -5.884972e+04   9.346660e+05
  -4.143246e+05   7.307362e+05
  -4.379492e+04   4.277493e+05
   3.812157e+05   3.474233e+05
   3.619074e+04   3.706246e+05
  -1.043996e+06   1.851173e+05
  -1.875121e+06  -3.344473e+05
  -1.491867e+06  -9.687412e+05
   3.951989e+03  -1.292398e+06
   1.439100e+06  -1.011297e+06
   1.692837e+06  -2.680559e+05
   7.902914e+05   3.942704e+05
  -2.247645e+05   4.866802e+05
  -4.556998e+05   5.450186e+04
   8.493305e+03  -3.463986e+05
   4.486583e+05  -2.194939e+05
   4.345345e+05   3.331443e+05
   1.618646e+05   7.045639e+05
   2.251621e+04   4.589077e+05
   1.354578e+05  -1.287742e+05
   3.123949e+05  -3.237010e+05
   2.648928e+05   2.160052e+05
  -1.821282e+05   9.451085e+05
  -8.633334e+05   9.698304e+05
  -1.212362e+06   9.179915e+04
  -7.095112e+05  -8.821969e+05
   4.166371e+05  -1.003909e+06
   1.149987e+06  -2.298486e+05
   6.685352e+05   5.733738e+05
  -6.566504e+05   6.056304e+05
  -1.514945e+06  -8.791411e+04
  -1.006145e+06  -8.116987e+05
   4.141026e+05  -9.660275e+05
   1.430458e+06  -5.041044e+05
   1.207187e+06   1.579862e+05
   1.471693e+05   4.988610e+05
  -6.080695e+05   2.678300e+05
  -3.356259e+05  -2.673447e+05
   5.902228e+05  -4.530004e+05
   1.109207e+06   1.439787e+05
   5.570293e+05   1.151598e+06
  -6.536192e+05   1.573974e+06
  -1.449267e+06   7.669098e+05
  -1.167504e+06  -7.636070e+05
  -1.455484e+05  -1.710595e+06
   7.272675e+05  -1.237225e+06
   8.795201e+05   1.517817e+05
   4.181594e+05   1.129786e+06
  -1.815314e+05   9.352902e+05
  -5.188428e+05   8.609792e+04
  -4.663877e+05  -3.728734e+05
  -1.888163e+05  -1.430306e+05
  -3.347769e+04   9.962674e+04
  -2.051753e+05  -2.637364e+05
  -4.417011e+05  -9.158699e+05
  -2.016085e+05  -1.030330e+06
   6.347473e+05  -3.634977e+05
   1.393761e+06   4.724808e+05
   1.234601e+06   8.168052e+05
   1.646572e+05   6.563451e+05
  -8.517102e+05   3.770505e+05
  -9.477719e+05   1.656446e+05
  -3.100220e+05  -3.934393e+04
   1.562670e+05  -2.077761e+05
  -3.099680e+03  -2.106506e+05
  -2.925107e+05  -1.150506e+05
  -2.877624e+04  -1.308985e+05
   6.773949e+05  -1.957424e+05
   9.857875e+05   4.780139e+04
   3.325226e+05   6.625517e+05
  -8.642937e+05   1.073055e+06
  -1.600356e+06   6.440007e+05
  -1.276788e+06  -4.677179e+05
  -2.121566e+05  -1.344941e+06
   7.482068e+05  -1.269286e+06
   1.006797e+06  -4.577322e+05
   6.221101e+05   2.564864e+05
   1.013199e+05   3.428733e+05
  -1.036220e+05   4.103855e+04
   6.251684e+04  -3.916128e+04
   2.926659e+05   3.417888e+05
   2.303600e+05   7.689410e+05
  -1.937732e+05   6.309766e+05
  -6.511869e+05  -1.545947e+05
  -6.574715e+05  -9.434597e+05
  -4.552005e+04  -9.780675e+05
   7.425831e+05  -1.850448e+05
   9.539736e+05   7.380472e+05
   2.815755e+05   1.038932e+06
  -6.981631e+05   5.994904e+05
  -1.040276e+06  -1.079287e+05
  -4.669117e+05  -5.699362e+05
   2.876399e+05  -6.034859e+05
   3.399695e+05  -3.292951e+05
  -2.655468e+05  -2.335803e+04
  -6.239061e+05   1.798582e+04
  -1.204372e+05  -2.898344e+05
   7.962367e+05  -6.273320e+05
   1.175556e+06  -5.023258e+05
   6.843934e+05   1.644255e+05
  -1.150808e+05   8.083205e+05
  -5.168610e+05   7.822119e+05
  -3.784701e+05   1.186683e+05
  -2.515526e+04  -4.684245e+05
   2.435145e+05  -3.907630e+05
   3.340260e+05   1.735514e+05
   2.230620e+05   5.534578e+05
  -6.920798e+04   3.795135e+05
  -3.688959e+05  -6.289748e+04
  -4.324110e+05  -2.588805e+05
  -2.252626e+05  -8.030678e+04
   1.365159e+04   1.234382e+05
   7.256682e+04   1.094365e+02
   3.160499e+04  -3.553049e+05
   1.144208e+05  -4.957112e+05
   3.281399e+05  -1.533490e+05
   3.933456e+05   4.039073e+05
   8.772473e+04   6.252637e+05
  -4.079845e+05   2.768137e+05
  -6.067436e+05  -2.985676e+05
  -2.149514e+05  -5.602296e+05
   4.811613e+05  -3.296555e+05
   8.193482e+05   1.047454e+05
   4.371083e+05   3.697167e+05
  -2.891271e+05   3.528136e+05
  -6.054994e+05   1.769670e+05
  -2.178345e+05   5.429716e+03
   3.592872e+05  -3.931443e+04
   3.982747e+05   9.674991e+04
  -1.866336e+05   2.911683e+05
  -7.469846e+05   2.430724e+05
