
 $NMID
 id='ANONYMOUS ', fmtdat='(2E16.6)'
 volume=1.0
 tramp=1.0
 $END
  -4.643984e+07  -1.710889e+06
  -2.741987e+07  -2.841710e+07
   6.125106e+06  -3.075008e+07
   2.259856e+07  -1.265576e+07
   1.393003e+07   4.737758e+06
  -2.289716e+06   7.661688e+06
  -8.288350e+06  -3.064700e+05
  -2.916075e+06  -7.993315e+06
   4.801936e+06  -8.481650e+06
   8.132848e+06  -2.149319e+06
   5.916526e+06   5.486464e+06
   4.774728e+05   7.619652e+06
  -3.606487e+06   2.081999e+06
  -2.298239e+06  -5.280443e+06
   3.206120e+06  -6.102625e+06
   6.699936e+06   9.312504e+05
   3.798810e+06   8.671929e+06
  -3.229812e+06   9.980571e+06
  -8.591606e+06   4.719847e+06
  -8.881742e+06  -2.188997e+06
  -4.926968e+06  -6.441025e+06
  -5.701680e+04  -6.760881e+06
   2.160904e+06  -4.440689e+06
   6.095098e+05  -2.369921e+06
  -1.562729e+06  -2.752577e+06
   1.586137e+05  -4.366722e+06
   5.581012e+06  -3.679158e+06
   8.928855e+06   2.837634e+05
   5.912107e+06   4.122228e+06
  -5.189500e+05   4.385909e+06
  -3.931060e+06   1.729156e+06
  -2.182614e+06  -7.566084e+05
   1.334345e+06  -1.378063e+06
   2.953689e+06  -2.523351e+05
   2.120130e+06   2.047387e+06
   4.163357e+04   3.983981e+06
  -1.935396e+06   3.095023e+06
  -2.373274e+06  -6.553898e+05
  -8.076746e+05  -3.135864e+06
   7.754772e+05  -9.953241e+05
  -8.611222e+04   2.770041e+06
  -2.373310e+06   2.230965e+06
  -2.166775e+06  -2.646346e+06
   1.752588e+06  -5.082241e+06
   5.314974e+06  -8.087257e+05
   3.962682e+06   5.682181e+06
  -1.598445e+06   6.935959e+06
  -6.276777e+06   1.843492e+06
  -6.182880e+06  -3.971180e+06
  -1.852029e+06  -5.435986e+06
   3.092820e+06  -2.617893e+06
   4.943968e+06   1.186547e+06
   2.453889e+06   3.034816e+06
  -1.932626e+06   1.956187e+06
  -3.895348e+06  -7.279623e+05
  -1.740083e+06  -2.261502e+06
   1.458508e+06  -1.145962e+06
   1.670122e+06   8.983196e+05
  -8.511894e+05   1.000797e+06
  -2.117743e+06  -1.021522e+06
   7.969086e+04  -2.518933e+06
   3.445118e+06  -1.614371e+06
   4.392615e+06   8.736014e+05
   2.036053e+06   3.241527e+06
  -1.809985e+06   4.588246e+06
  -4.892806e+06   4.155556e+06
  -5.696255e+06   1.202516e+06
  -3.805004e+06  -3.131785e+06
  -5.416575e+05  -5.614506e+06
   1.591356e+06  -4.368912e+06
   1.390458e+06  -1.452950e+06
   3.535150e+05  -2.500984e+05
   6.123809e+05  -1.090816e+06
   2.089060e+06  -1.370361e+06
   2.837277e+06   3.448157e+05
   1.734871e+06   2.348209e+06
  -3.558876e+05   2.286265e+06
  -1.839525e+06   7.865209e+04
  -1.696148e+06  -2.298200e+06
   1.883090e+05  -2.927405e+06
   2.768758e+06  -1.322073e+06
   4.007144e+06   1.462565e+06
   2.600405e+06   3.531538e+06
  -2.528584e+05   3.595056e+06
  -1.984559e+06   2.184563e+06
  -1.828028e+06   9.835673e+05
  -1.605973e+06   7.499344e+05
  -2.811356e+06   5.431147e+05
  -4.191683e+06  -7.267298e+05
  -3.356656e+06  -2.716693e+06
  -6.151840e+04  -4.058633e+06
   3.296395e+06  -3.764563e+06
   4.259637e+06  -1.866420e+06
   2.568822e+06   6.747331e+05
   8.210945e+03   2.280436e+06
  -1.294489e+06   1.787184e+06
  -5.319818e+05  -1.264239e+05
   1.173184e+06  -1.231513e+06
   1.844918e+06  -3.112637e+05
   7.777017e+05   1.184468e+06
  -6.104090e+05   1.088758e+06
  -5.324652e+05  -3.795531e+05
   8.839093e+05  -8.481224e+05
   1.793201e+06   8.855003e+05
   9.259310e+05   3.149004e+06
  -1.135548e+06   3.501051e+06
  -2.927050e+06   1.508817e+06
  -3.457269e+06  -1.195919e+06
  -2.491480e+06  -2.830197e+06
  -4.853649e+05  -2.744578e+06
   1.320876e+06  -1.445851e+06
   1.610974e+06  -1.457897e+05
   4.874546e+05   5.762060e+04
  -3.416206e+05  -7.544014e+05
   4.030567e+05  -1.274062e+06
   1.821192e+06  -5.170298e+05
   1.951490e+06   8.549795e+05
   3.826168e+05   1.353810e+06
  -1.163161e+06   5.622518e+05
  -9.450161e+05  -4.708487e+05
   8.075888e+05  -6.187671e+05
   2.262747e+06   2.217289e+05
   1.885606e+06   1.384255e+06
  -1.999174e+05   2.075681e+06
  -2.354271e+06   1.689175e+06
  -2.786456e+06   2.358342e+05
  -1.167657e+06  -1.247381e+06
   9.239623e+05  -1.401781e+06
   1.476901e+06  -1.282382e+05
   1.260181e+05   1.040269e+06
  -1.514652e+06   6.789485e+05
  -1.697636e+06  -7.840646e+05
  -3.636394e+05  -1.643343e+06
   1.052978e+06  -1.013967e+06
   1.263725e+06   2.579268e+05
   2.847845e+05   7.578245e+05
  -7.602271e+05   4.789262e+04
  -6.953262e+05  -1.061190e+06
   6.275578e+05  -1.399679e+06
   2.025301e+06  -4.706603e+05
   1.992700e+06   1.108963e+06
   3.313099e+05   2.065430e+06
  -1.447305e+06   1.599351e+06
  -1.710158e+06   1.932900e+05
  -5.029686e+05  -8.626119e+05
   6.640287e+05  -8.013514e+05
   6.751095e+05  -5.283045e+04
  -9.388452e+04   4.345852e+05
  -5.572412e+05   2.762006e+05
  -2.440649e+05  -8.773467e+04
   3.816402e+05  -1.973324e+04
   5.387808e+05   5.945735e+05
  -1.695868e+05   1.164917e+06
  -1.375736e+06   8.816437e+05
  -2.068729e+06  -4.469034e+05
  -1.415262e+06  -1.968008e+06
   2.724605e+05  -2.427703e+06
   1.653633e+06  -1.426521e+06
   1.736974e+06   1.213250e+05
   9.174198e+05   9.610755e+05
   3.296492e+05   7.786838e+05
   4.091878e+05   3.055701e+05
   5.434483e+05   2.976353e+05
   6.609472e+04   7.133993e+05
  -8.653764e+05   8.969112e+05
  -1.468130e+06   3.411192e+05
  -1.094852e+06  -7.535235e+05
   2.387886e+05  -1.519164e+06
   1.750474e+06  -1.085913e+06
   2.265229e+06   5.173908e+05
   1.125849e+06   2.113150e+06
  -1.004216e+06   2.339014e+06
  -2.520587e+06   1.015980e+06
  -2.364193e+06  -6.482612e+05
  -1.014239e+06  -1.356332e+06
   1.781087e+05  -1.017050e+06
   4.537771e+05  -5.730837e+05
   1.942879e+05  -7.435039e+05
   1.827498e+05  -1.242857e+06
   6.833737e+05  -1.225814e+06
   1.269581e+06  -2.732214e+05
   1.298095e+06   1.117965e+06
   5.046128e+05   1.912321e+06
  -6.652138e+05   1.423273e+06
  -1.293189e+06  -2.029022e+04
  -8.003697e+05  -1.274222e+06
   3.757942e+05  -1.382387e+06
   1.117819e+06  -4.346297e+05
   7.889687e+05   6.299009e+05
  -8.815693e+04   1.024995e+06
  -4.800172e+05   7.808765e+05
  -6.487854e+04   4.439168e+05
   4.123562e+05   3.602641e+05
   4.378311e+04   3.906961e+05
  -1.126727e+06   1.955945e+05
  -2.020361e+06  -3.611170e+05
  -1.594437e+06  -1.047810e+06
   2.517670e+04  -1.401541e+06
   1.562546e+06  -1.090271e+06
   1.819106e+06  -2.683999e+05
   8.395716e+05   4.536887e+05
  -2.492233e+05   5.351683e+05
  -4.961860e+05   4.760538e+04
  -4.558323e+03  -3.842480e+05
   4.656732e+05  -2.370939e+05
   4.659429e+05   3.527927e+05
   1.940633e+05   7.394647e+05
   4.438968e+04   4.834989e+05
   1.438071e+05  -1.223153e+05
   3.202914e+05  -3.248968e+05
   2.817863e+05   2.324243e+05
  -1.818875e+05   9.995833e+05
  -9.212166e+05   1.041725e+06
  -1.318419e+06   1.195865e+05
  -7.841933e+05  -9.350758e+05
   4.399082e+05  -1.092457e+06
   1.237047e+06  -2.705135e+05
   7.148889e+05   6.026195e+05
  -7.061812e+05   6.417023e+05
  -1.606284e+06  -1.082938e+05
  -1.043340e+06  -8.762630e+05
   4.663780e+05  -1.014460e+06
   1.524089e+06  -5.038892e+05
   1.269318e+06   1.893682e+05
   1.437340e+05   5.285851e+05
  -6.536716e+05   2.742757e+05
  -3.665631e+05  -2.918920e+05
   6.169630e+05  -4.925392e+05
   1.181772e+06   1.359147e+05
   6.131651e+05   1.214259e+06
  -6.690272e+05   1.680822e+06
  -1.527384e+06   8.308543e+05
  -1.242346e+06  -8.024870e+05
  -1.584360e+05  -1.813565e+06
   7.746676e+05  -1.304369e+06
   9.344159e+05   1.760787e+05
   4.308359e+05   1.207064e+06
  -2.145492e+05   9.886978e+05
  -5.602151e+05   8.506522e+04
  -4.820747e+05  -3.963839e+05
  -1.843920e+05  -1.507802e+05
  -4.270728e+04   1.018207e+05
  -2.431031e+05  -2.872649e+05
  -4.791551e+05  -9.774114e+05
  -1.942931e+05  -1.095984e+06
   6.977253e+05  -3.872397e+05
   1.478801e+06   5.020670e+05
   1.295194e+06   8.714554e+05
   1.744601e+05   7.020441e+05
  -8.889305e+05   4.004680e+05
  -1.003042e+06   1.698064e+05
  -3.449265e+05  -4.819166e+04
   1.595971e+05  -2.210563e+05
   1.669725e+04  -2.177388e+05
  -2.901194e+05  -1.151257e+05
  -3.898585e+04  -1.371428e+05
   6.975252e+05  -2.136259e+05
   1.050675e+06   4.191063e+04
   3.854793e+05   7.016736e+05
  -8.953500e+05   1.152029e+06
  -1.711150e+06   7.070037e+05
  -1.381975e+06  -4.771567e+05
  -2.373450e+05  -1.424911e+06
   7.956582e+05  -1.360955e+06
   1.067686e+06  -5.045736e+05
   6.584159e+05   2.603573e+05
   1.179282e+05   3.637244e+05
  -9.086406e+04   5.255839e+04
   7.543683e+04  -2.992723e+04
   3.048139e+05   3.707183e+05
   2.396312e+05   8.197930e+05
  -1.998351e+05   6.757540e+05
  -6.874182e+05  -1.501598e+05
  -7.118037e+05  -9.865502e+05
  -7.356519e+04  -1.038092e+06
   7.738705e+05  -2.155742e+05
   1.020277e+06   7.627674e+05
   3.165897e+05   1.102349e+06
  -7.340446e+05   6.542046e+05
  -1.115612e+06  -1.027762e+05
  -5.130639e+05  -6.152728e+05
   3.012263e+05  -6.613335e+05
   3.755768e+05  -3.593653e+05
  -2.636731e+05  -2.039007e+04
  -6.585622e+05   2.403114e+04
  -1.361370e+05  -3.097289e+05
   8.449618e+05  -6.682071e+05
   1.265841e+06  -5.292606e+05
   7.484435e+05   1.819808e+05
  -1.161726e+05   8.667184e+05
  -5.599121e+05   8.443979e+05
  -4.164522e+05   1.440225e+05
  -3.656708e+04  -4.890581e+05
   2.518627e+05  -4.255003e+05
   3.518939e+05   1.678372e+05
   2.422428e+05   5.865461e+05
  -6.469882e+04   4.171882e+05
  -3.919250e+05  -5.837591e+04
  -4.687252e+05  -2.830495e+05
  -2.420715e+05  -9.387066e+04
   2.541788e+04   1.418264e+05
   8.268558e+04   2.473654e+04
   1.265889e+04  -3.636807e+05
   8.535840e+04  -5.382925e+05
   3.324742e+05  -1.907568e+05
   4.369481e+05   4.048611e+05
   1.234709e+05   6.562953e+05
  -4.229321e+05   3.026440e+05
  -6.552158e+05  -3.017405e+05
  -2.384295e+05  -5.868591e+05
   5.142262e+05  -3.566328e+05
   8.799461e+05   9.809799e+04
   4.714437e+05   3.896516e+05
  -3.033209e+05   3.883863e+05
  -6.442103e+05   2.064183e+05
  -2.430373e+05   1.199839e+04
   3.623715e+05  -5.235034e+04
   4.135478e+05   8.504337e+04
  -1.854130e+05   2.972468e+05
  -7.701039e+05   2.581272e+05
