
 $NMID
 id='ANONYMOUS ', fmtdat='(2E16.6)'
 volume=1.0
 tramp=1.0
 $END
  -3.031591e+07   3.534318e+05
  -1.838862e+07  -1.884140e+07
   3.968725e+06  -2.068569e+07
   1.490035e+07  -7.810713e+06
   8.854740e+06   3.963864e+06
  -1.840870e+06   5.033071e+06
  -5.260768e+06  -7.944971e+05
  -1.378300e+06  -5.277785e+06
   3.407021e+06  -4.879058e+06
   5.167839e+06  -9.821944e+05
   3.736213e+06   3.252193e+06
   4.863356e+05   4.516164e+06
  -2.064643e+06   1.515878e+06
  -1.367336e+06  -2.763017e+06
   2.024957e+06  -3.383129e+06
   4.209467e+06   7.548451e+05
   2.373362e+06   5.456146e+06
  -2.013151e+06   6.324709e+06
  -5.394885e+06   3.231384e+06
  -5.834707e+06  -9.898957e+05
  -3.686513e+06  -3.963518e+06
  -5.016060e+05  -4.725059e+06
   1.589160e+06  -3.389651e+06
   1.177896e+06  -1.463897e+06
  -4.415801e+05  -9.994985e+05
  -1.821203e+05  -2.059691e+06
   2.689258e+06  -2.326472e+06
   4.992301e+06  -3.860903e+05
   3.756692e+06   2.068437e+06
   2.853558e+05   2.650795e+06
  -1.806482e+06   1.436162e+06
  -1.275313e+06   1.602051e+05
   1.810351e+05  -3.619490e+05
   1.017839e+06  -2.673954e+05
   1.112166e+06   6.089174e+05
   4.747803e+05   1.964518e+06
  -8.712997e+05   2.094181e+06
  -1.785848e+06   7.794494e+04
  -1.043703e+06  -1.907856e+06
   3.713674e+05  -1.147805e+06
   2.366622e+05   1.171379e+06
  -1.270139e+06   1.174960e+06
  -1.296224e+06  -1.716309e+06
   1.351139e+06  -3.306809e+06
   3.821845e+06  -5.691510e+05
   2.809924e+06   3.727016e+06
  -1.022911e+06   4.614416e+06
  -3.970324e+06   1.330106e+06
  -3.655190e+06  -2.354328e+06
  -9.235884e+05  -3.176255e+06
   1.838123e+06  -1.386038e+06
   2.724337e+06   8.496229e+05
   1.227241e+06   1.856877e+06
  -1.304815e+06   1.156589e+06
  -2.405381e+06  -5.007019e+05
  -1.031609e+06  -1.455286e+06
   9.106432e+05  -7.311603e+05
   8.925221e+05   5.452429e+05
  -7.591431e+05   4.537151e+05
  -1.332545e+06  -1.020744e+06
   3.976304e+05  -1.920260e+06
   2.561911e+06  -1.031347e+06
   2.865990e+06   7.682681e+05
   1.234872e+06   2.153289e+06
  -9.158412e+05   2.793672e+06
  -2.565401e+06   2.573280e+06
  -3.228875e+06   9.785594e+05
  -2.459326e+06  -1.602167e+06
  -5.496310e+05  -3.226916e+06
   9.968134e+05  -2.499056e+06
   9.742837e+05  -5.902040e+05
   6.798358e+04   2.184422e+05
  -1.172987e+05  -4.587565e+05
   7.241488e+05  -9.600059e+05
   1.408119e+06  -2.135866e+05
   1.063596e+06   9.031915e+05
   7.241296e+04   1.051193e+06
  -7.314351e+05   1.124776e+05
  -8.344648e+05  -1.021645e+06
  -2.720660e+04  -1.488333e+06
   1.402089e+06  -8.932343e+05
   2.349309e+06   5.571760e+05
   1.750414e+06   1.948192e+06
   2.728255e+04   2.264302e+06
  -1.207536e+06   1.486824e+06
  -1.215072e+06   6.156306e+05
  -9.854233e+05   3.362136e+05
  -1.533874e+06   2.214571e+05
  -2.251615e+06  -4.144429e+05
  -1.795642e+06  -1.438759e+06
  -5.915401e+04  -2.123261e+06
   1.642065e+06  -2.002181e+06
   2.122195e+06  -1.110923e+06
   1.363970e+06   1.748371e+05
   1.802268e+05   1.125819e+06
  -5.262867e+05   1.006849e+06
  -2.875003e+05   2.406138e+02
   5.440171e+05  -6.745255e+05
   9.841406e+05  -2.131300e+05
   4.939415e+05   6.182608e+05
  -2.473324e+05   5.663082e+05
  -1.909609e+05  -2.078360e+05
   5.943976e+05  -3.222840e+05
   9.686744e+05   7.550374e+05
   2.632923e+05   1.869910e+06
  -9.320969e+05   1.734323e+06
  -1.673999e+06   4.763216e+05
  -1.666459e+06  -8.164951e+05
  -1.102600e+06  -1.421369e+06
  -2.044926e+05  -1.314635e+06
   6.285294e+05  -7.463697e+05
   8.012419e+05  -1.257407e+05
   2.540300e+05   2.271500e+04
  -1.807886e+05  -3.876622e+05
   2.234507e+05  -6.998738e+05
   1.000794e+06  -2.988332e+05
   1.055564e+06   4.751771e+05
   1.878179e+05   7.416272e+05
  -6.075327e+05   2.818790e+05
  -4.348069e+05  -2.421161e+05
   4.598887e+05  -2.363929e+05
   1.105250e+06   2.133661e+05
   8.500231e+05   7.132081e+05
  -1.615613e+05   9.882139e+05
  -1.191627e+06   8.216380e+05
  -1.424326e+06   1.283118e+05
  -6.291731e+05  -6.613717e+05
   4.784907e+05  -7.889852e+05
   8.205197e+05  -1.044177e+05
   1.139935e+05   5.629047e+05
  -7.846193e+05   3.800014e+05
  -8.819556e+05  -4.156337e+05
  -1.523332e+05  -8.551290e+05
   5.809740e+05  -4.825357e+05
   6.416102e+05   1.870769e+05
   1.065170e+05   4.097995e+05
  -4.213633e+05   1.925166e+04
  -3.789278e+05  -5.499989e+05
   2.984277e+05  -7.351690e+05
   1.035514e+06  -2.802306e+05
   1.051077e+06   5.427120e+05
   1.946012e+05   1.074029e+06
  -7.525553e+05   8.461395e+05
  -8.939082e+05   9.973950e+04
  -2.496465e+05  -4.508797e+05
   3.444466e+05  -4.052907e+05
   3.113447e+05  -3.777465e+04
  -7.811129e+04   1.633538e+05
  -2.412806e+05   7.850704e+04
  -2.629191e+04  -3.573149e+04
   2.560266e+05   6.813893e+04
   2.599860e+05   3.761551e+05
  -1.278104e+05   6.207724e+05
  -7.249496e+05   4.544397e+05
  -1.074436e+06  -2.235819e+05
  -7.526426e+05  -1.008283e+06
   1.164246e+05  -1.243345e+06
   8.335136e+05  -7.087640e+05
   8.560871e+05   8.188440e+04
   4.159973e+05   4.508697e+05
   1.523537e+05   3.010100e+05
   2.631211e+05   9.016652e+04
   3.472081e+05   1.706309e+05
   5.011854e+04   4.119183e+05
  -4.643726e+05   4.612113e+05
  -7.482050e+05   1.498338e+05
  -5.234893e+05  -3.759444e+05
   1.478483e+05  -7.358655e+05
   8.925176e+05  -5.335546e+05
   1.150423e+06   2.612798e+05
   5.662878e+05   1.090551e+06
  -5.453538e+05   1.218706e+06
  -1.327367e+06   5.125630e+05
  -1.201469e+06  -3.658699e+05
  -4.612072e+05  -6.947383e+05
   1.258509e+05  -4.639803e+05
   1.871508e+05  -2.384597e+05
   1.080841e+04  -3.877974e+05
   3.824925e+04  -6.907253e+05
   3.512364e+05  -6.774522e+05
   6.762112e+05  -1.674861e+05
   6.915267e+05   5.561925e+05
   2.858948e+05   9.748297e+05
  -3.194950e+05   7.382923e+05
  -6.594950e+05  -8.218753e+03
  -4.102495e+05  -6.724726e+05
   2.192089e+05  -7.207937e+05
   6.186899e+05  -1.891973e+05
   4.205135e+05   3.892472e+05
  -8.429870e+04   5.710609e+05
  -3.032631e+05   3.995916e+05
  -5.499603e+04   2.043036e+05
   2.282466e+05   1.683561e+05
   3.357515e+04   1.962561e+05
  -6.024775e+05   1.037157e+05
  -1.076525e+06  -1.801867e+05
  -8.320748e+05  -5.463864e+05
   3.807257e+04  -7.516628e+05
   8.393830e+05  -5.908170e+05
   9.508529e+05  -1.287682e+05
   4.232969e+05   2.773905e+05
  -1.435465e+05   3.035313e+05
  -2.703715e+05   8.117098e+03
  -2.338458e+04  -2.309416e+05
   2.211618e+05  -1.381575e+05
   2.517243e+05   1.755080e+05
   1.477988e+05   3.678252e+05
   6.542534e+04   2.452679e+05
   7.006392e+04  -3.753308e+04
   1.329270e+05  -1.347972e+05
   1.389501e+05   1.242822e+05
  -6.654025e+04   5.038701e+05
  -4.668290e+05   5.518941e+05
  -7.230906e+05   1.005041e+05
  -4.592898e+05  -4.711669e+05
   2.142406e+05  -6.038645e+05
   6.603761e+05  -1.915429e+05
   3.813880e+05   2.894251e+05
  -3.669331e+05   3.307187e+05
  -8.109918e+05  -6.076693e+04
  -4.936007e+05  -4.516055e+05
   2.689599e+05  -4.949152e+05
   7.685343e+05  -2.187503e+05
   6.182722e+05   1.143336e+05
   5.854752e+04   2.606358e+05
  -3.369822e+05   1.284503e+05
  -2.035661e+05  -1.577053e+05
   2.920851e+05  -2.783575e+05
   6.112297e+05   2.592160e+04
   3.657404e+05   5.996677e+05
  -2.786338e+05   8.862851e+05
  -7.519405e+05   4.738543e+05
  -6.498599e+05  -3.792913e+05
  -1.108923e+05  -9.172704e+05
   3.789677e+05  -6.559573e+05
   4.724829e+05   1.036898e+05
   2.081882e+05   6.150287e+05
  -1.314849e+05   4.877762e+05
  -2.949617e+05   3.502372e+04
  -2.258035e+05  -1.908455e+05
  -6.821644e+04  -6.552266e+04
  -3.061753e+04   4.417479e+04
  -1.666225e+05  -1.624212e+05
  -2.718534e+05  -5.007381e+05
  -8.041712e+04  -5.503286e+05
   3.889183e+05  -2.003505e+05
   7.560063e+05   2.359246e+05
   6.412973e+05   4.282393e+05
   9.406867e+04   3.633417e+05
  -4.216338e+05   2.198893e+05
  -4.997612e+05   8.940028e+04
  -2.000616e+05  -3.674654e+04
   6.727938e+04  -1.183705e+05
   3.760526e+04  -9.564121e+04
  -1.148924e+05  -3.634356e+04
  -3.462783e+04  -6.738465e+04
   3.165725e+05  -1.328617e+05
   5.422188e+05  -5.541036e+03
   2.591964e+05   3.586889e+05
  -4.062369e+05   6.252320e+05
  -8.875613e+05   4.158224e+05
  -7.585893e+05  -2.016404e+05
  -1.592101e+05  -7.197434e+05
   3.941773e+05  -7.215747e+05
   5.391295e+05  -2.992863e+05
   3.360902e+05   1.033125e+05
   8.079442e+04   1.846676e+05
  -1.607189e+04   4.849141e+04
   4.925361e+04   6.753332e+03
   1.460161e+05   1.950675e+05
   1.224859e+05   4.153134e+05
  -8.333261e+04   3.561632e+05
  -3.473272e+05  -4.173349e+04
  -4.022209e+05  -4.693862e+05
  -9.401447e+04  -5.337857e+05
   3.720887e+05  -1.569816e+05
   5.477147e+05   3.417370e+05
   2.043957e+05   5.607694e+05
  -3.587626e+05   3.732124e+05
  -5.897205e+05  -2.272866e+04
  -2.924540e+05  -3.282875e+05
   1.448100e+05  -3.737854e+05
   2.124563e+05  -1.974008e+05
  -1.065026e+05   6.227523e+03
  -3.294151e+05   2.919599e+04
  -8.578703e+04  -1.621555e+05
   4.204071e+05  -3.539037e+05
   6.638833e+05  -2.722120e+05
   4.164426e+05   1.026407e+05
  -4.044101e+04   4.580891e+05
  -2.970512e+05   4.553212e+05
  -2.405303e+05   1.030163e+05
  -4.388244e+04  -2.378579e+05
   1.155308e+05  -2.390729e+05
   1.820941e+05   5.283930e+04
   1.396669e+05   2.949354e+05
  -1.795806e+04   2.394319e+05
  -2.031039e+05  -1.046777e+04
  -2.549932e+05  -1.544544e+05
  -1.262329e+05  -6.008663e+04
   2.912623e+04   9.306370e+04
   4.318363e+04   5.441716e+04
  -3.788772e+04  -1.694076e+05
  -1.968424e+04  -3.070994e+05
   1.497686e+05  -1.534492e+05
   2.678106e+05   1.668385e+05
   1.240926e+05   3.298002e+05
  -1.971209e+05   1.769765e+05
  -3.599600e+05  -1.236903e+05
  -1.477706e+05  -2.852051e+05
   2.645849e+05  -1.970623e+05
   4.689734e+05   2.039550e+04
   2.575520e+05   1.894001e+05
  -1.474037e+05   2.254842e+05
  -3.331422e+05   1.440362e+05
  -1.457199e+05   1.566892e+04
   1.546106e+05  -5.620558e+04
   2.019644e+05   4.475307e+03
  -6.431943e+04   1.379501e+05
  -3.491908e+05   1.494454e+05
