
 $NMID
 id='ANONYMOUS ', fmtdat='(2E16.6)'
 volume=1.0
 tramp=1.0
 $END
  -3.643438e+07   3.999318e+05
  -2.311304e+07  -2.049197e+07
   2.851627e+06  -2.425049e+07
   1.711241e+07  -1.173411e+07
   1.170746e+07   2.344748e+06
  -1.058062e+06   6.263542e+06
  -6.798940e+06   6.561868e+05
  -3.177679e+06  -6.209609e+06
   3.232845e+06  -7.515079e+06
   6.492981e+06  -2.461281e+06
   5.031897e+06   4.226291e+06
   6.288677e+05   6.275138e+06
  -2.875514e+06   1.707257e+06
  -2.062725e+06  -4.520514e+06
   2.356662e+06  -5.409939e+06
   5.504896e+06   2.730632e+05
   3.548095e+06   6.807626e+06
  -2.082214e+06   8.212908e+06
  -6.647124e+06   4.099737e+06
  -7.040893e+06  -1.500338e+06
  -3.904698e+06  -4.859589e+06
  -2.093035e+05  -5.019384e+06
   1.193046e+06  -3.357249e+06
  -1.774422e+05  -2.182182e+06
  -1.590701e+06  -2.793542e+06
   2.690583e+05  -3.935039e+06
   4.868174e+06  -3.047041e+06
   7.503635e+06   2.899653e+05
   4.841392e+06   3.343383e+06
  -6.096630e+05   3.477667e+06
  -3.429638e+06   1.205335e+06
  -1.702280e+06  -9.459940e+05
   1.583257e+06  -1.364015e+06
   2.928970e+06  -7.458966e+04
   1.817355e+06   2.075533e+06
  -1.897296e+05   3.495522e+06
  -1.603137e+06   2.430174e+06
  -1.637533e+06  -6.587266e+05
  -4.424586e+05  -2.394307e+06
   5.192395e+05  -4.526969e+05
  -2.678608e+05   2.562978e+06
  -2.013593e+06   2.031266e+06
  -1.958298e+06  -1.995408e+06
   9.347058e+05  -4.175697e+06
   3.892717e+06  -1.015925e+06
   3.314061e+06   4.179279e+06
  -8.471799e+05   5.502339e+06
  -4.905649e+06   1.705056e+06
  -5.322192e+06  -3.033253e+06
  -1.891669e+06  -4.517960e+06
   2.489512e+06  -2.436845e+06
   4.347285e+06   7.110272e+05
   2.366001e+06   2.430704e+06
  -1.390330e+06   1.763615e+06
  -3.220444e+06  -3.451684e+05
  -1.593118e+06  -1.714150e+06
   1.103505e+06  -9.960802e+05
   1.504757e+06   6.805644e+05
  -5.090272e+05   1.030875e+06
  -1.855845e+06  -4.374758e+05
  -4.055088e+05  -1.879849e+06
   2.409950e+06  -1.573017e+06
   3.579560e+06   2.898865e+05
   1.880132e+06   2.441900e+06
  -1.401977e+06   3.815819e+06
  -4.107220e+06   3.519950e+06
  -4.732680e+06   1.030194e+06
  -3.104500e+06  -2.568074e+06
  -5.209364e+05  -4.668575e+06
   1.112053e+06  -3.794686e+06
   1.061912e+06  -1.510835e+06
   4.879151e+05  -4.495684e+05
   8.532790e+05  -9.385576e+05
   1.997162e+06  -9.901991e+05
   2.454787e+06   5.239152e+05
   1.399239e+06   2.202903e+06
  -4.613911e+05   2.054690e+06
  -1.753539e+06   1.519171e+04
  -1.547127e+06  -2.109990e+06
   1.797687e+05  -2.579412e+06
   2.381060e+06  -1.090047e+06
   3.343062e+06   1.259790e+06
   2.144423e+06   2.876175e+06
  -1.399091e+05   2.872678e+06
  -1.490674e+06   1.785373e+06
  -1.385903e+06   9.116102e+05
  -1.312086e+06   7.776886e+05
  -2.435075e+06   6.085206e+05
  -3.680219e+06  -4.959551e+05
  -3.006364e+06  -2.285629e+06
  -1.416168e+05  -3.566096e+06
   2.855653e+06  -3.357546e+06
   3.743521e+06  -1.637831e+06
   2.221366e+06   6.398993e+05
  -6.897597e+04   2.007986e+06
  -1.173957e+06   1.524911e+06
  -4.467910e+05  -1.333183e+05
   1.035875e+06  -1.074876e+06
   1.584455e+06  -2.984322e+05
   6.582068e+05   9.953961e+05
  -5.492871e+05   9.599898e+05
  -5.361044e+05  -3.287595e+05
   6.904444e+05  -8.813581e+05
   1.646920e+06   5.242686e+05
   1.106067e+06   2.649704e+06
  -6.946628e+05   3.266015e+06
  -2.517812e+06   1.659614e+06
  -3.228333e+06  -8.658818e+05
  -2.398501e+06  -2.519687e+06
  -5.044477e+05  -2.502360e+06
   1.173190e+06  -1.301885e+06
   1.433607e+06  -1.293282e+05
   4.315792e+05   4.202082e+04
  -3.164770e+05  -6.569538e+05
   3.023024e+05  -1.108567e+06
   1.544781e+06  -4.959440e+05
   1.720774e+06   6.668573e+05
   3.928387e+05   1.153739e+06
  -1.004550e+06   5.308393e+05
  -8.770968e+05  -4.032647e+05
   6.928548e+05  -6.280344e+05
   2.074421e+06   9.364980e+04
   1.785307e+06   1.211933e+06
  -1.075007e+05   1.913125e+06
  -2.071350e+06   1.582003e+06
  -2.469766e+06   2.719721e+05
  -1.053540e+06  -1.053846e+06
   7.619576e+05  -1.219246e+06
   1.252578e+06  -1.420759e+05
   1.116712e+05   8.835295e+05
  -1.311208e+06   6.181673e+05
  -1.519610e+06  -6.401489e+05
  -3.915839e+05  -1.446550e+06
   8.858939e+05  -9.612702e+05
   1.141887e+06   1.578072e+05
   3.041996e+05   6.537433e+05
  -6.474055e+05   6.650640e+04
  -6.209126e+05  -9.161584e+05
   5.405056e+05  -1.234986e+06
   1.779657e+06  -4.332150e+05
   1.767245e+06   9.497030e+05
   3.298090e+05   1.808851e+06
  -1.231631e+06   1.439962e+06
  -1.501522e+06   2.205234e+05
  -4.780694e+05  -7.447333e+05
   5.637012e+05  -7.303429e+05
   6.149231e+05  -5.046097e+04
  -6.847461e+04   4.300396e+05
  -5.321822e+05   2.858919e+05
  -2.802116e+05  -1.033614e+05
   3.194535e+05  -9.136987e+04
   5.205695e+05   4.750226e+05
  -9.325059e+04   1.034242e+06
  -1.190379e+06   8.167061e+05
  -1.837228e+06  -3.516657e+05
  -1.283410e+06  -1.710456e+06
   2.006929e+05  -2.159245e+06
   1.449174e+06  -1.320036e+06
   1.575351e+06   5.948787e+04
   8.693387e+05   8.732472e+05
   3.038050e+05   7.568456e+05
   3.203487e+05   2.977955e+05
   4.464379e+05   2.270557e+05
   7.258531e+04   6.007778e+05
  -7.379157e+05   8.224482e+05
  -1.310104e+06   3.503807e+05
  -1.015163e+06  -6.652038e+05
   1.723707e+05  -1.393203e+06
   1.542317e+06  -1.018440e+06
   2.031495e+06   4.146678e+05
   1.056628e+06   1.848074e+06
  -8.128270e+05   2.092240e+06
  -2.191772e+06   9.739891e+05
  -2.129018e+06  -4.984014e+05
  -9.734472e+05  -1.192602e+06
   1.224971e+05  -9.540324e+05
   4.329544e+05  -5.481794e+05
   2.147627e+05  -6.417822e+05
   1.592191e+05  -1.060081e+06
   5.665616e+05  -1.071739e+06
   1.097769e+06  -2.591438e+05
   1.157510e+06   9.684090e+05
   4.731345e+05   1.684046e+06
  -5.696678e+05   1.268616e+06
  -1.149524e+06   1.008376e+04
  -7.437470e+05  -1.099278e+06
   2.806394e+05  -1.233231e+06
   9.576600e+05  -4.439825e+05
   7.173646e+05   4.928840e+05
  -1.894321e+04   8.889414e+05
  -3.692613e+05   7.157090e+05
  -3.614900e+04   4.156927e+05
   3.610544e+05   3.196734e+05
   3.930868e+04   3.483199e+05
  -9.803681e+05   2.021341e+05
  -1.775378e+06  -2.710782e+05
  -1.431800e+06  -8.851018e+05
  -3.275845e+04  -1.226331e+06
   1.330082e+06  -9.893257e+05
   1.597704e+06  -2.909391e+05
   7.689916e+05   3.533898e+05
  -1.929523e+05   4.645338e+05
  -4.323922e+05   6.781715e+04
  -5.338833e+03  -3.161345e+05
   4.179292e+05  -2.090346e+05
   4.140131e+05   3.038049e+05
   1.557001e+05   6.524557e+05
   2.176643e+04   4.227072e+05
   1.331494e+05  -1.288062e+05
   3.052115e+05  -3.105265e+05
   2.598099e+05   2.005752e+05
  -1.605916e+05   8.948718e+05
  -7.970021e+05   9.322873e+05
  -1.129907e+06   1.162735e+05
  -6.773447e+05  -8.088414e+05
   3.660253e+05  -9.488974e+05
   1.066257e+06  -2.378336e+05
   6.362712e+05   5.295499e+05
  -6.089105e+05   5.871128e+05
  -1.440100e+06  -5.685595e+04
  -9.766547e+05  -7.606114e+05
   3.752310e+05  -9.357291e+05
   1.358779e+06  -5.080880e+05
   1.157343e+06   1.330706e+05
   1.484297e+05   4.759066e+05
  -5.745009e+05   2.671573e+05
  -3.222907e+05  -2.421436e+05
   5.485451e+05  -4.291873e+05
   1.040982e+06   1.223189e+05
   5.339322e+05   1.070676e+06
  -5.940652e+05   1.481132e+06
  -1.350253e+06   7.367404e+05
  -1.108902e+06  -7.030460e+05
  -1.615584e+05  -1.611309e+06
   6.723108e+05  -1.182836e+06
   8.411304e+05   1.269010e+05
   4.183943e+05   1.067163e+06
  -1.568450e+05   8.992057e+05
  -4.918209e+05   9.480797e+04
  -4.491640e+05  -3.531194e+05
  -1.824933e+05  -1.417951e+05
  -3.061155e+04   9.845365e+04
  -1.965184e+05  -2.321188e+05
  -4.306539e+05  -8.523970e+05
  -2.095776e+05  -9.794888e+05
   5.890237e+05  -3.642996e+05
   1.323328e+06   4.259176e+05
   1.183410e+06   7.601977e+05
   1.687401e+05   6.169732e+05
  -8.012146e+05   3.613192e+05
  -8.966400e+05   1.702316e+05
  -2.940878e+05  -2.288222e+04
   1.450803e+05  -1.944631e+05
  -7.519880e+03  -2.099741e+05
  -2.790089e+05  -1.170680e+05
  -2.659815e+04  -1.205301e+05
   6.387397e+05  -1.829771e+05
   9.270476e+05   3.070902e+04
   3.168958e+05   6.046932e+05
  -7.980583e+05   1.012064e+06
  -1.487624e+06   6.338622e+05
  -1.198135e+06  -4.123001e+05
  -2.170077e+05  -1.261585e+06
   6.809179e+05  -1.209162e+06
   9.358800e+05  -4.437331e+05
   5.864905e+05   2.371263e+05
   9.852532e+04   3.181312e+05
  -9.663368e+04   2.887092e+04
   6.298664e+04  -4.495242e+04
   2.868552e+05   3.206883e+05
   2.308932e+05   7.256343e+05
  -1.729074e+05   5.944502e+05
  -6.110082e+05  -1.421454e+05
  -6.237472e+05  -8.775784e+05
  -5.215754e+04  -9.096417e+05
   6.910438e+05  -1.743411e+05
   8.994878e+05   6.826780e+05
   2.780042e+05   9.679463e+05
  -6.425670e+05   5.699698e+05
  -9.765534e+05  -8.281827e+04
  -4.519766e+05  -5.213186e+05
   2.534028e+05  -5.691610e+05
   3.095915e+05  -3.217353e+05
  -2.517580e+05  -2.762656e+04
  -5.875215e+05   2.380428e+04
  -1.179901e+05  -2.672877e+05
   7.416511e+05  -6.036221e+05
   1.101774e+06  -5.016421e+05
   6.486629e+05   1.323584e+05
  -9.334728e+04   7.602092e+05
  -4.672142e+05   7.498195e+05
  -3.437891e+05   1.224456e+05
  -2.494442e+04  -4.383045e+05
   2.197028e+05  -3.676587e+05
   3.101185e+05   1.630143e+05
   2.175297e+05   5.168209e+05
  -5.380282e+04   3.524472e+05
  -3.447983e+05  -5.536248e+04
  -4.146158e+05  -2.316459e+05
  -2.178819e+05  -6.928279e+04
   1.827415e+04   1.089707e+05
   8.032369e+04  -8.223910e+03
   3.539542e+04  -3.275041e+05
   1.007669e+05  -4.488319e+05
   2.956711e+05  -1.365029e+05
   3.615574e+05   3.696184e+05
   8.303655e+04   5.747427e+05
  -3.784462e+05   2.608429e+05
  -5.679004e+05  -2.698364e+05
  -2.056209e+05  -5.222641e+05
   4.456521e+05  -3.193334e+05
   7.670278e+05   8.390534e+04
   4.154747e+05   3.394575e+05
  -2.613550e+05   3.329654e+05
  -5.590740e+05   1.733460e+05
  -1.999739e+05   1.365373e+04
   3.364965e+05  -3.011331e+04
   3.695697e+05   9.358444e+04
  -1.806223e+05   2.728952e+05
  -7.057731e+05   2.283819e+05
