
 $NMID
 id='ANONYMOUS ', fmtdat='(2E16.6)'
 volume=1.0
 tramp=1.0
 $END
  -4.338940e+07   7.660204e+05
  -2.735521e+07  -2.483851e+07
   3.787187e+06  -2.906134e+07
   2.050296e+07  -1.341875e+07
   1.362963e+07   3.406754e+06
  -1.543742e+06   7.427437e+06
  -7.948397e+06   4.030914e+05
  -3.415227e+06  -7.392723e+06
   4.005550e+06  -8.512348e+06
   7.625724e+06  -2.628678e+06
   5.893425e+06   4.913544e+06
   7.964956e+05   7.255406e+06
  -3.326308e+06   2.110094e+06
  -2.418362e+06  -5.021922e+06
   2.755070e+06  -6.082209e+06
   6.419158e+06   4.596424e+05
   4.071525e+06   8.000165e+06
  -2.525097e+06   9.604552e+06
  -7.849208e+06   4.848687e+06
  -8.391924e+06  -1.668164e+06
  -4.828962e+06  -5.753928e+06
  -3.766540e+05  -6.179763e+06
   1.629991e+06  -4.203187e+06
   2.415692e+05  -2.441928e+06
  -1.629475e+06  -2.825109e+06
   1.176415e+05  -4.269871e+06
   5.290594e+06  -3.630602e+06
   8.527280e+06   3.215099e+04
   5.734155e+06   3.696773e+06
  -4.069658e+05   4.105108e+06
  -3.728993e+06   1.661377e+06
  -2.020992e+06  -7.736371e+05
   1.457641e+06  -1.398839e+06
   2.999587e+06  -2.134952e+05
   2.059400e+06   2.074297e+06
   2.444105e+04   3.863485e+06
  -1.749753e+06   2.939527e+06
  -2.127078e+06  -5.779530e+05
  -7.850730e+05  -2.845045e+06
   6.117283e+05  -8.146016e+05
  -1.167946e+05   2.730476e+06
  -2.230971e+06   2.259553e+06
  -2.235400e+06  -2.380692e+06
   1.270361e+06  -4.913763e+06
   4.822928e+06  -1.134664e+06
   3.997282e+06   5.032771e+06
  -1.068796e+06   6.558533e+06
  -5.781819e+06   2.041472e+06
  -6.094738e+06  -3.488209e+06
  -2.074223e+06  -5.147224e+06
   2.853646e+06  -2.709912e+06
   4.872799e+06   8.816865e+05
   2.586192e+06   2.817130e+06
  -1.692147e+06   2.020123e+06
  -3.751553e+06  -4.493025e+05
  -1.818721e+06  -2.046655e+06
   1.302570e+06  -1.174614e+06
   1.681158e+06   7.865110e+05
  -7.034668e+05   1.095798e+06
  -2.134142e+06  -7.262870e+05
  -2.451743e+05  -2.349257e+06
   3.041307e+06  -1.786845e+06
   4.215145e+06   5.023966e+05
   2.137382e+06   2.930656e+06
  -1.552852e+06   4.419706e+06
  -4.565923e+06   4.105060e+06
  -5.383484e+06   1.311613e+06
  -3.680761e+06  -2.850773e+06
  -7.045619e+05  -5.335085e+06
   1.315720e+06  -4.301251e+06
   1.282335e+06  -1.569266e+06
   4.535401e+05  -3.282824e+05
   7.092338e+05  -1.020813e+06
   2.038010e+06  -1.263451e+06
   2.718348e+06   3.587299e+05
   1.674611e+06   2.286004e+06
  -3.559773e+05   2.238697e+06
  -1.841426e+06   8.996182e+04
  -1.725250e+06  -2.235382e+06
   1.155580e+05  -2.853955e+06
   2.628616e+06  -1.327972e+06
   3.853219e+06   1.297321e+06
   2.569982e+06   3.258773e+06
  -9.866463e+04   3.382177e+06
  -1.755123e+06   2.132768e+06
  -1.663342e+06   1.037396e+06
  -1.511138e+06   8.258002e+05
  -2.712925e+06   6.534487e+05
  -4.097711e+06  -5.463309e+05
  -3.357613e+06  -2.522478e+06
  -1.944575e+05  -3.948216e+06
   3.099403e+06  -3.757231e+06
   4.094990e+06  -1.911944e+06
   2.494121e+06   6.093675e+05
   3.070349e+04   2.209520e+06
  -1.227696e+06   1.749214e+06
  -5.135463e+05  -1.124243e+05
   1.107071e+06  -1.223579e+06
   1.771964e+06  -3.690792e+05
   7.833099e+05   1.108098e+06
  -5.685622e+05   1.081082e+06
  -5.600172e+05  -3.521494e+05
   8.057548e+05  -9.149709e+05
   1.814465e+06   7.052062e+05
   1.116229e+06   3.011515e+06
  -9.017915e+05   3.545388e+06
  -2.816944e+06   1.690074e+06
  -3.492439e+06  -1.020669e+06
  -2.578802e+06  -2.730619e+06
  -5.611911e+05  -2.704037e+06
   1.260610e+06  -1.447678e+06
   1.573189e+06  -1.781212e+05
   4.791680e+05   4.187492e+04
  -3.592695e+05  -7.212136e+05
   3.324544e+05  -1.246653e+06
   1.733274e+06  -5.737595e+05
   1.930396e+06   7.406427e+05
   4.413283e+05   1.293684e+06
  -1.104904e+06   5.974566e+05
  -9.505151e+05  -4.261067e+05
   7.648266e+05  -6.537042e+05
   2.245113e+06   1.255459e+05
   1.919580e+06   1.308004e+06
  -1.222087e+05   2.065375e+06
  -2.256506e+06   1.740051e+06
  -2.718864e+06   3.231171e+05
  -1.184223e+06  -1.168317e+06
   8.384841e+05  -1.386233e+06
   1.416257e+06  -1.810903e+05
   1.550230e+05   9.930582e+05
  -1.445734e+06   7.098878e+05
  -1.686557e+06  -6.989879e+05
  -4.287825e+05  -1.596179e+06
   9.847855e+05  -1.049914e+06
   1.256097e+06   1.866615e+05
   3.265836e+05   7.258016e+05
  -7.225615e+05   7.951399e+04
  -7.023834e+05  -1.001543e+06
   5.705184e+05  -1.371132e+06
   1.953688e+06  -5.108921e+05
   1.968939e+06   1.020042e+06
   3.890042e+05   1.998908e+06
  -1.353225e+06   1.608906e+06
  -1.664379e+06   2.536182e+05
  -5.325024e+05  -8.233764e+05
   6.153107e+05  -8.113570e+05
   6.651781e+05  -7.274390e+04
  -7.440187e+04   4.426885e+05
  -5.523408e+05   2.960915e+05
  -2.634726e+05  -9.382701e+04
   3.682854e+05  -5.788140e+04
   5.582542e+05   5.499319e+05
  -1.171631e+05   1.142881e+06
  -1.311515e+06   9.050833e+05
  -2.029867e+06  -3.711022e+05
  -1.437781e+06  -1.874010e+06
   1.941545e+05  -2.380858e+06
   1.578455e+06  -1.456531e+06
   1.718903e+06   6.061790e+04
   9.424907e+05   9.343775e+05
   3.397692e+05   7.877616e+05
   3.829582e+05   3.009835e+05
   5.197233e+05   2.602965e+05
   8.425979e+04   6.807805e+05
  -8.165006e+05   9.052219e+05
  -1.431512e+06   3.804814e+05
  -1.100874e+06  -7.167072e+05
   1.887504e+05  -1.509500e+06
   1.683219e+06  -1.119471e+06
   2.232294e+06   4.379966e+05
   1.172536e+06   2.026649e+06
  -8.916843e+05   2.315258e+06
  -2.419593e+06   1.083724e+06
  -2.341389e+06  -5.454575e+05
  -1.056328e+06  -1.300454e+06
   1.372113e+05  -1.023190e+06
   4.473819e+05  -5.862200e+05
   1.929565e+05  -7.190853e+05
   1.477130e+05  -1.197565e+06
   6.205479e+05  -1.206559e+06
   1.220369e+06  -3.040516e+05
   1.295319e+06   1.051705e+06
   5.474083e+05   1.850348e+06
  -6.078894e+05   1.407753e+06
  -1.264373e+06   2.288951e+04
  -8.264424e+05  -1.211834e+06
   3.112972e+05  -1.362946e+06
   1.067084e+06  -4.783431e+05
   7.941816e+05   5.664168e+05
  -3.452098e+04   9.943915e+05
  -4.243493e+05   7.853586e+05
  -4.348563e+04   4.468317e+05
   4.071425e+05   3.444669e+05
   4.953316e+04   3.819058e+05
  -1.087888e+06   2.278418e+05
  -1.972213e+06  -2.868442e+05
  -1.587931e+06  -9.675433e+05
  -3.356282e+04  -1.360536e+06
   1.474363e+06  -1.109814e+06
   1.764068e+06  -3.284454e+05
   8.430951e+05   4.005499e+05
  -2.182179e+05   5.233200e+05
  -4.804240e+05   6.924476e+04
  -1.210873e+04  -3.640842e+05
   4.545360e+05  -2.407455e+05
   4.637229e+05   3.316787e+05
   1.961530e+05   7.175634e+05
   4.479360e+04   4.684900e+05
   1.419057e+05  -1.316287e+05
   3.161882e+05  -3.330469e+05
   2.819134e+05   2.193721e+05
  -1.592541e+05   9.825647e+05
  -8.677370e+05   1.038172e+06
  -1.263355e+06   1.482863e+05
  -7.751366e+05  -8.861840e+05
   3.947749e+05  -1.065529e+06
   1.187261e+06  -2.884931e+05
   7.120470e+05   5.720370e+05
  -6.687006e+05   6.510041e+05
  -1.580470e+06  -5.358047e+04
  -1.063091e+06  -8.275832e+05
   4.167638e+05  -1.019406e+06
   1.483081e+06  -5.540556e+05
   1.259798e+06   1.416610e+05
   1.619093e+05   5.170783e+05
  -6.297441e+05   2.941171e+05
  -3.627604e+05  -2.679120e+05
   5.921516e+05  -4.895194e+05
   1.152818e+06   1.085857e+05
   6.192626e+05   1.169759e+06
  -6.189647e+05   1.651337e+06
  -1.473367e+06   8.436192e+05
  -1.234619e+06  -7.544191e+05
  -2.028462e+05  -1.770855e+06
   7.228557e+05  -1.303748e+06
   9.227629e+05   1.380725e+05
   4.640273e+05   1.168333e+06
  -1.717415e+05   9.809239e+05
  -5.420651e+05   1.042240e+05
  -4.896676e+05  -3.776014e+05
  -1.929229e+05  -1.469276e+05
  -3.581215e+04   1.049658e+05
  -2.335756e+05  -2.637005e+05
  -4.916873e+05  -9.373392e+05
  -2.323112e+05  -1.070629e+06
   6.582249e+05  -4.037340e+05
   1.461640e+06   4.499497e+05
   1.301363e+06   8.183574e+05
   1.916314e+05   6.795281e+05
  -8.673126e+05   4.126745e+05
  -9.801378e+05   1.965107e+05
  -3.318497e+05  -3.007567e+04
   1.531478e+05  -2.190375e+05
   6.404662e+02  -2.222264e+05
  -2.962428e+05  -1.139617e+05
  -3.634961e+04  -1.318737e+05
   6.871468e+05  -2.193528e+05
   1.024447e+06   1.579475e+04
   3.781868e+05   6.684529e+05
  -8.529470e+05   1.139342e+06
  -1.641990e+06   7.296387e+05
  -1.346047e+06  -4.325164e+05
  -2.643363e+05  -1.386364e+06
   7.368749e+05  -1.346601e+06
   1.026703e+06  -5.123710e+05
   6.492361e+05   2.438552e+05
   1.193241e+05   3.499984e+05
  -9.577189e+04   4.389115e+04
   7.100497e+04  -4.008774e+04
   3.136282e+05   3.514679e+05
   2.606401e+05   7.945401e+05
  -1.783383e+05   6.616213e+05
  -6.749873e+05  -1.365415e+05
  -7.122889e+05  -9.500218e+05
  -8.700186e+04  -1.007260e+06
   7.542483e+05  -2.183140e+05
   1.010193e+06   7.274784e+05
   3.305388e+05   1.065771e+06
  -6.996292e+05   6.489038e+05
  -1.085258e+06  -7.341689e+04
  -5.118358e+05  -5.777913e+05
   2.736317e+05  -6.427448e+05
   3.467897e+05  -3.600403e+05
  -2.678434e+05  -1.960892e+04
  -6.447211e+05   3.797004e+04
  -1.377441e+05  -2.961915e+05
   8.078186e+05  -6.760527e+05
   1.215008e+06  -5.598684e+05
   7.272543e+05   1.475526e+05
  -9.060631e+04   8.450707e+05
  -5.146732e+05   8.369751e+05
  -3.909284e+05   1.462005e+05
  -4.184979e+04  -4.796961e+05
   2.357270e+05  -4.158124e+05
   3.464387e+05   1.642725e+05
   2.500677e+05   5.664459e+05
  -5.296859e+04   3.999156e+05
  -3.828166e+05  -5.074223e+04
  -4.632662e+05  -2.568690e+05
  -2.401122e+05  -7.961250e+04
   2.544736e+04   1.292847e+05
   8.469785e+04   6.837656e+03
   1.723141e+04  -3.583874e+05
   8.544600e+04  -5.133360e+05
   3.217575e+05  -1.764960e+05
   4.221191e+05   3.923457e+05
   1.203909e+05   6.352993e+05
  -4.089249e+05   3.004691e+05
  -6.395632e+05  -2.827642e+05
  -2.418710e+05  -5.694629e+05
   4.897652e+05  -3.603856e+05
   8.548336e+05   7.627867e+04
   4.673143e+05   3.678479e+05
  -2.844264e+05   3.799021e+05
  -6.191046e+05   2.101109e+05
  -2.295033e+05   1.814535e+04
   3.608045e+05  -5.067608e+04
   4.076593e+05   8.366446e+04
  -1.830710e+05   2.993005e+05
  -7.589411e+05   2.682321e+05
