
 $NMID
 id='ANONYMOUS ', fmtdat='(2E16.6)'
 volume=1.0
 tramp=1.0
 $END
  -1.471899e+07  -2.084116e+06
  -9.376926e+06  -5.983282e+06
  -4.168320e+05  -8.324809e+06
   5.935565e+06  -7.441827e+06
   5.972620e+06  -2.479533e+06
   1.189736e+06   2.677687e+06
  -3.265044e+06   2.645092e+06
  -3.420957e+06  -2.184977e+06
   1.997310e+03  -5.413328e+06
   3.006986e+06  -2.787031e+06
   2.777530e+06   2.429347e+06
   1.476873e+05   3.997821e+06
  -1.938915e+06   4.655417e+05
  -1.504878e+06  -3.797533e+06
   8.877582e+05  -4.220654e+06
   2.825896e+06  -6.686899e+05
   2.191621e+06   3.273396e+06
  -7.309193e+05   4.151928e+06
  -3.227664e+06   1.622759e+06
  -2.893002e+06  -1.575884e+06
  -4.473127e+05  -2.489028e+06
   9.850661e+05  -1.061659e+06
  -3.420831e+05  -1.698839e+04
  -2.579878e+06  -1.328409e+06
  -2.447194e+06  -3.639141e+06
   8.926623e+05  -4.020349e+06
   4.752502e+06  -1.626722e+06
   5.589017e+06   1.508672e+06
   2.473787e+06   2.954241e+06
  -1.896530e+06   2.023596e+06
  -3.564673e+06  -3.000170e+05
  -1.111116e+06  -2.275149e+06
   2.769227e+06  -2.205551e+06
   4.013287e+06   2.532174e+05
   1.640586e+06   3.088026e+06
  -1.332664e+06   3.431834e+06
  -1.746958e+06   8.683875e+05
   3.679501e+04  -1.681836e+06
   1.248401e+06  -1.309970e+06
   5.143481e+05   1.343430e+06
  -9.613968e+05   2.995040e+06
  -1.632417e+06   1.786032e+06
  -1.330672e+06  -7.457203e+05
  -5.464101e+05  -1.831286e+06
   4.218544e+05  -5.954998e+05
   9.236804e+05   1.387810e+06
  -5.793070e+04   2.004306e+06
  -2.269502e+06   5.770386e+05
  -3.497620e+06  -1.709989e+06
  -1.882166e+06  -2.941579e+06
   1.467449e+06  -2.152906e+06
   3.412593e+06  -1.553024e+05
   2.326886e+06   1.307778e+06
  -2.831872e+05   1.244934e+06
  -1.781280e+06   1.736530e+05
  -1.150251e+06  -6.696889e+05
   4.761222e+05  -5.491167e+05
   1.292191e+06   3.207193e+05
   5.002283e+05   1.119775e+06
  -1.004876e+06   1.064474e+06
  -1.443501e+06   8.050340e+04
  -9.470847e+04  -9.139696e+05
   1.544504e+06  -7.181209e+05
   1.229689e+06   8.008227e+05
  -1.235956e+06   2.256296e+06
  -3.499515e+06   2.035568e+06
  -3.402294e+06   2.256695e+04
  -1.452132e+06  -2.262483e+06
   1.638073e+05  -3.247636e+06
   4.086895e+05  -2.763042e+06
   2.289880e+05  -1.849864e+06
   7.950252e+05  -1.377769e+06
   1.966182e+06  -1.107668e+06
   2.716179e+06  -1.901970e+05
   2.321341e+06   1.497017e+06
   8.280995e+05   2.762706e+06
  -1.048521e+06   2.188662e+06
  -2.147287e+06  -1.257847e+05
  -1.547476e+06  -2.274557e+06
   4.242541e+05  -2.359087e+06
   2.156762e+06  -4.534730e+05
   2.229666e+06   1.584651e+06
   8.535824e+05   2.170515e+06
  -4.951188e+05   1.440296e+06
  -7.924236e+05   6.340205e+05
  -4.795526e+05   5.419611e+05
  -7.260893e+05   8.557544e+05
  -1.920624e+06   7.471903e+05
  -3.034692e+06  -2.655031e+05
  -2.546919e+06  -1.874198e+06
  -1.267742e+05  -3.084472e+06
   2.632750e+06  -2.873928e+06
   3.505718e+06  -1.131785e+06
   1.886225e+06   9.842312e+05
  -4.943614e+05   1.921186e+06
  -1.390344e+06   1.165857e+06
  -3.666789e+05  -2.644626e+05
   1.047026e+06  -8.697762e+05
   1.299621e+06  -1.799789e+05
   3.661620e+05   8.339229e+05
  -6.242698e+05   8.672408e+05
  -7.068627e+05  -2.193616e+05
   1.898815e+05  -1.106338e+06
   1.331628e+06  -4.020909e+05
   1.634186e+06   1.648779e+06
   4.238942e+05   3.125506e+06
  -1.750000e+06   2.372416e+06
  -3.231386e+06  -1.531343e+05
  -2.709175e+06  -2.305503e+06
  -6.312691e+05  -2.500240e+06
   1.170151e+06  -1.186603e+06
   1.364742e+06  -1.340622e+04
   3.848388e+05   4.567810e+04
  -2.834042e+05  -5.715833e+05
   1.898755e+05  -8.641019e+05
   1.177170e+06  -3.932583e+05
   1.407151e+06   4.356669e+05
   4.215035e+05   8.757498e+05
  -8.303623e+05   5.177014e+05
  -9.165895e+05  -3.190516e+05
   4.786760e+05  -7.769936e+05
   2.002850e+06  -2.231728e+05
   1.942681e+06   1.038711e+06
   1.077221e+05   1.924655e+06
  -1.866815e+06   1.589367e+06
  -2.229367e+06   2.860603e+05
  -8.981289e+05  -8.573615e+05
   6.322380e+05  -9.238645e+05
   9.459596e+05  -6.325655e+04
  -5.916266e+03   6.992990e+05
  -1.130116e+06   4.993852e+05
  -1.346819e+06  -4.920282e+05
  -4.913769e+05  -1.249041e+06
   6.437618e+05  -9.932296e+05
   1.039903e+06  -5.453634e+04
   4.080302e+05   5.004215e+05
  -4.686748e+05   7.886694e+04
  -4.932996e+05  -7.847938e+05
   5.317729e+05  -1.053673e+06
   1.592869e+06  -3.053252e+05
   1.521196e+06   8.897645e+05
   2.684275e+05   1.575216e+06
  -1.042546e+06   1.254101e+06
  -1.301793e+06   2.432774e+05
  -4.846437e+05  -6.228460e+05
   4.609706e+05  -6.854293e+05
   6.381372e+05  -4.576352e+04
   3.487859e+04   5.307333e+05
  -5.810003e+05   4.307785e+05
  -5.131847e+05  -1.070900e+05
   1.227170e+05  -2.881546e+05
   5.140360e+05   2.327073e+05
   3.612274e+04   8.671130e+05
  -1.007281e+06   7.429009e+05
  -1.618897e+06  -3.025610e+05
  -1.109946e+06  -1.518674e+06
   1.995695e+05  -1.955293e+06
   1.313198e+06  -1.288126e+06
   1.519218e+06  -3.990014e+04
   9.663045e+05   8.845211e+05
   3.514121e+05   9.551894e+05
   1.528826e+05   4.588851e+05
   2.097770e+05   1.601274e+05
   1.770375e+04   4.215893e+05
  -6.059898e+05   7.490649e+05
  -1.193798e+06   3.960909e+05
  -1.029845e+06  -6.225376e+05
   6.673724e+04  -1.378657e+06
   1.388857e+06  -1.001649e+06
   1.865144e+06   3.512047e+05
   1.012194e+06   1.617315e+06
  -6.052719e+05   1.833767e+06
  -1.848875e+06   9.392853e+05
  -1.950822e+06  -3.053308e+05
  -1.067558e+06  -1.044237e+06
  -1.423270e+04  -1.016456e+06
   4.997123e+05  -6.621768e+05
   4.291501e+05  -5.746130e+05
   2.811446e+05  -8.160396e+05
   4.894336e+05  -8.407304e+05
   9.140315e+05  -1.768945e+05
   9.902092e+05   8.966372e+05
   3.857876e+05   1.521638e+06
  -5.443138e+05   1.130363e+06
  -1.039293e+06   2.900133e+04
  -6.867748e+05  -9.167152e+05
   1.535583e+05  -1.075732e+06
   7.170710e+05  -5.053659e+05
   5.979139e+05   2.463107e+05
   1.020483e+05   6.649215e+05
  -1.564501e+05   6.408544e+05
   4.369088e+04   4.361715e+05
   2.884176e+05   3.345108e+05
   8.967010e+03   3.305719e+05
  -8.135034e+05   1.843413e+05
  -1.490119e+06  -2.364614e+05
  -1.260092e+06  -7.453330e+05
  -1.169431e+05  -9.992454e+05
   1.073045e+06  -8.168756e+05
   1.375736e+06  -3.183089e+05
   7.089571e+05   1.719839e+05
  -1.269510e+05   3.371638e+05
  -3.410293e+05   1.110713e+05
   5.622250e+04  -1.995966e+05
   4.298419e+05  -1.587917e+05
   3.484633e+05   2.847042e+05
   2.142043e+04   6.309907e+05
  -8.983174e+04   3.979276e+05
   1.258984e+05  -1.896918e+05
   3.511030e+05  -3.757769e+05
   2.465437e+05   1.683616e+05
  -2.094511e+05   8.403066e+05
  -7.232953e+05   7.985181e+05
  -8.893930e+05  -1.938610e+03
  -4.631288e+05  -7.529464e+05
   3.546650e+05  -7.393827e+05
   8.957274e+05  -7.944280e+04
   5.476765e+05   5.237616e+05
  -5.243483e+05   5.369199e+05
  -1.335083e+06  -4.432684e+03
  -1.011291e+06  -6.519139e+05
   2.317025e+05  -9.165199e+05
   1.242150e+06  -5.985567e+05
   1.131413e+06   4.187670e+04
   1.880337e+05   4.506671e+05
  -5.010288e+05   2.854724e+05
  -2.465286e+05  -1.902054e+05
   5.583249e+05  -3.273838e+05
   9.320288e+05   2.138854e+05
   3.624839e+05   1.028479e+06
  -6.908889e+05   1.292539e+06
  -1.300600e+06   5.656448e+05
  -9.865712e+05  -7.037847e+05
  -9.898051e+04  -1.491815e+06
   6.298872e+05  -1.119737e+06
   7.746961e+05   5.883841e+04
   4.330125e+05   9.592537e+05
  -5.867706e+04   8.575889e+05
  -4.152220e+05   1.145310e+05
  -4.721833e+05  -3.378785e+05
  -2.425857e+05  -1.485802e+05
   2.184640e+03   1.102734e+05
  -5.852992e+04  -1.728227e+05
  -3.315231e+05  -7.646501e+05
  -2.671701e+05  -9.030639e+05
   4.342917e+05  -3.265947e+05
   1.211800e+06   4.152247e+05
   1.149764e+06   7.063862e+05
   1.495113e+05   5.447001e+05
  -8.147952e+05   3.101601e+05
  -8.451809e+05   1.682326e+05
  -1.970075e+05   1.223662e+04
   1.675818e+05  -1.688512e+05
  -9.736738e+04  -2.277959e+05
  -3.525895e+05  -1.555831e+05
   1.669648e+04  -1.193186e+05
   6.930198e+05  -1.212326e+05
   8.305231e+05   8.656002e+04
   1.239858e+05   5.569378e+05
  -8.546091e+05   8.438403e+05
  -1.311175e+06   4.480294e+05
  -9.580911e+05  -4.817676e+05
  -1.177711e+05  -1.172206e+06
   6.351525e+05  -1.037612e+06
   8.677852e+05  -3.037710e+05
   5.427450e+05   2.872617e+05
   3.633806e+04   2.938688e+05
  -1.780630e+05  -2.545794e+04
   2.031520e+04  -1.005961e+05
   2.908451e+05   2.659569e+05
   2.236581e+05   6.601706e+05
  -1.987338e+05   5.140666e+05
  -5.741899e+05  -2.129432e+05
  -4.834670e+05  -8.874708e+05
   9.212986e+04  -8.275484e+05
   6.996779e+05  -4.789927e+04
   7.680642e+05   7.408944e+05
   1.528096e+05   8.896977e+05
  -6.271358e+05   4.243609e+05
  -8.384605e+05  -1.449683e+05
  -3.292516e+05  -4.322097e+05
   2.543142e+05  -4.205818e+05
   2.187703e+05  -2.512165e+05
  -3.141083e+05  -5.835216e+04
  -5.566199e+05  -1.283385e+04
  -6.552394e+04  -2.338519e+05
   6.939798e+05  -5.300245e+05
   9.391175e+05  -4.672924e+05
   4.920470e+05   8.856425e+04
  -1.255115e+05   6.527827e+05
  -3.834618e+05   6.185904e+05
  -2.396966e+05   2.725242e+04
   3.569841e+04  -4.377079e+05
   2.350408e+05  -2.803739e+05
   2.874184e+05   2.345857e+05
   1.642075e+05   4.814598e+05
  -9.134718e+04   2.507689e+05
  -3.106251e+05  -9.780857e+04
  -3.339331e+05  -1.774823e+05
  -1.885049e+05  -2.493073e+04
  -3.258256e+04   4.464231e+04
   5.810303e+04  -1.261975e+05
   1.449734e+05  -3.556516e+05
   2.683907e+05  -3.364696e+05
   3.372003e+05   2.130548e+04
   2.216019e+05   4.519979e+05
  -8.260461e+04   5.516834e+05
  -3.971790e+05   1.865495e+05
  -4.576319e+05  -3.258117e+05
  -1.276470e+05  -5.172646e+05
   3.962510e+05  -2.556974e+05
   6.498959e+05   1.493607e+05
   3.389559e+05   3.304339e+05
  -2.581157e+05   2.330776e+05
  -5.019317e+05   5.984313e+04
  -1.237149e+05  -1.575634e+04
   3.969859e+05   3.933490e+04
   3.736298e+05   1.828079e+05
  -2.384844e+05   2.981604e+05
  -7.628977e+05   1.850534e+05
