
 $NMID
 id='ANONYMOUS ', fmtdat='(2E16.6)'
 volume=1.0
 tramp=1.0
 $END
  -1.701380e+07   1.126558e+05
  -1.177496e+07  -7.063594e+06
  -7.926169e+05  -1.051045e+07
   6.941314e+06  -8.122438e+06
   6.554777e+06  -1.737838e+06
   8.870371e+05   3.134590e+06
  -3.593056e+06   2.238995e+06
  -3.251014e+06  -2.616642e+06
   3.617400e+05  -5.358991e+06
   3.264757e+06  -2.664836e+06
   3.036952e+06   2.303568e+06
   4.377217e+05   3.941214e+06
  -1.818813e+06   7.428645e+05
  -1.571060e+06  -3.432798e+06
   8.940081e+05  -4.059685e+06
   3.036132e+06  -6.251850e+05
   2.457966e+06   3.435518e+06
  -5.888618e+05   4.523414e+06
  -3.330577e+06   2.154729e+06
  -3.371888e+06  -1.097251e+06
  -1.225564e+06  -2.457771e+06
   4.181314e+05  -1.642337e+06
  -1.891999e+05  -7.112583e+05
  -1.911028e+06  -1.397917e+06
  -2.051098e+06  -3.048643e+06
   5.795033e+05  -3.533171e+06
   4.115693e+06  -1.829247e+06
   5.281784e+06   8.701664e+05
   2.728513e+06   2.505184e+06
  -1.311874e+06   2.045950e+06
  -3.061012e+06   9.907704e+04
  -1.082465e+06  -1.707358e+06
   2.220015e+06  -1.802645e+06
   3.340861e+06   1.212662e+05
   1.508296e+06   2.497977e+06
  -8.810535e+05   3.026096e+06
  -1.419702e+06   1.096219e+06
  -2.695977e+05  -1.213352e+06
   7.004526e+05  -1.306371e+06
   3.957021e+05   8.410824e+05
  -6.708035e+05   2.559092e+06
  -1.460509e+06   1.686896e+06
  -1.379926e+06  -8.292858e+05
  -3.752699e+05  -2.124118e+06
   9.852195e+05  -7.977977e+05
   1.444827e+06   1.602269e+06
   3.389027e+04   2.470227e+06
  -2.428569e+06   9.150246e+05
  -3.549027e+06  -1.579827e+06
  -1.822972e+06  -2.852762e+06
   1.423159e+06  -2.049825e+06
   3.238958e+06  -1.084277e+05
   2.159408e+06   1.310535e+06
  -4.003096e+05   1.266665e+06
  -1.870730e+06   1.764897e+05
  -1.173901e+06  -7.383489e+05
   5.019321e+05  -6.158496e+05
   1.211780e+06   3.086735e+05
   2.777938e+05   1.016866e+06
  -1.102147e+06   7.317985e+05
  -1.186225e+06  -3.142321e+05
   3.267007e+05  -1.061295e+06
   1.783170e+06  -5.912640e+05
   1.315465e+06   9.520203e+05
  -9.900182e+05   2.327672e+06
  -3.086311e+06   2.196015e+06
  -3.208575e+06   3.599126e+05
  -1.665632e+06  -1.939619e+06
  -1.359239e+05  -3.110635e+06
   3.729126e+05  -2.687098e+06
   3.323043e+05  -1.623718e+06
   6.623682e+05  -1.048883e+06
   1.514618e+06  -9.382491e+05
   2.223562e+06  -3.468799e+05
   2.066194e+06   1.079394e+06
   8.792474e+05   2.291748e+06
  -7.715712e+05   1.909092e+06
  -1.824164e+06  -5.199412e+04
  -1.418481e+06  -1.945531e+06
   2.603011e+05  -2.128645e+06
   1.907914e+06  -5.855702e+05
   2.204771e+06   1.230261e+06
   1.086752e+06   1.966497e+06
  -2.628733e+05   1.536938e+06
  -7.573019e+05   8.318220e+05
  -5.617661e+05   6.071716e+05
  -7.354966e+05   7.910715e+05
  -1.785406e+06   7.094386e+05
  -2.825874e+06  -1.703876e+05
  -2.408226e+06  -1.650378e+06
  -2.157550e+05  -2.817393e+06
   2.277279e+06  -2.711141e+06
   3.095016e+06  -1.195007e+06
   1.739724e+06   7.434440e+05
  -3.063558e+05   1.707733e+06
  -1.143912e+06   1.123059e+06
  -3.401588e+05  -1.961253e+05
   8.927147e+05  -8.342174e+05
   1.193972e+06  -2.290719e+05
   4.084313e+05   7.446034e+05
  -5.125556e+05   7.979122e+05
  -6.058116e+05  -2.053733e+05
   2.453374e+05  -9.687952e+05
   1.276038e+06  -2.330558e+05
   1.441115e+06   1.634126e+06
   2.506001e+05   2.842198e+06
  -1.672021e+06   2.050730e+06
  -2.901926e+06  -1.901663e+05
  -2.408817e+06  -2.031949e+06
  -5.966476e+05  -2.205727e+06
   1.002014e+06  -1.101006e+06
   1.215464e+06  -7.040372e+04
   3.506440e+05   2.808121e+04
  -2.758985e+05  -5.132370e+05
   1.546880e+05  -8.214742e+05
   1.095973e+06  -4.160148e+05
   1.328041e+06   3.775640e+05
   4.049025e+05   8.187233e+05
  -7.538714e+05   4.912569e+05
  -8.168258e+05  -2.768232e+05
   4.516874e+05  -6.827274e+05
   1.797260e+06  -1.915607e+05
   1.725298e+06   9.122905e+05
   1.020653e+05   1.710601e+06
  -1.652630e+06   1.462621e+06
  -2.013111e+06   3.179653e+05
  -8.560509e+05  -7.660298e+05
   5.459680e+05  -8.960202e+05
   8.896902e+05  -1.102458e+05
   4.399136e+04   6.477934e+05
  -1.015986e+06   5.019996e+05
  -1.245055e+06  -4.210401e+05
  -4.579442e+05  -1.136328e+06
   5.924000e+05  -9.026466e+05
   9.500674e+05  -4.010576e+04
   3.630801e+05   4.670431e+05
  -4.463181e+05   8.886309e+04
  -4.865527e+05  -6.998935e+05
   4.368368e+05  -9.797784e+05
   1.430723e+06  -3.429032e+05
   1.417742e+06   7.488564e+05
   3.000413e+05   1.428751e+06
  -9.181517e+05   1.180902e+06
  -1.185800e+06   2.536778e+05
  -4.502620e+05  -5.629864e+05
   4.078895e+05  -6.326047e+05
   5.597008e+05  -5.648001e+04
   2.011830e+04   4.553997e+05
  -5.017054e+05   3.663215e+05
  -4.132708e+05  -9.312442e+04
   1.481252e+05  -2.312032e+05
   4.741222e+05   2.383612e+05
   3.748209e+04   8.044495e+05
  -9.039784e+05   7.054014e+05
  -1.483967e+06  -2.261809e+05
  -1.062190e+06  -1.344358e+06
   1.185765e+05  -1.774602e+06
   1.155229e+06  -1.186109e+06
   1.360279e+06  -5.688094e+04
   8.589644e+05   7.630298e+05
   3.154580e+05   8.033698e+05
   1.692197e+05   3.643045e+05
   2.367449e+05   1.369513e+05
   4.494377e+04   4.032424e+05
  -5.393444e+05   6.981777e+05
  -1.071262e+06   3.768937e+05
  -9.261602e+05  -5.350517e+05
   4.458650e+04  -1.230415e+06
   1.232968e+06  -9.316439e+05
   1.694289e+06   2.686617e+05
   9.561993e+05   1.447868e+06
  -5.160684e+05   1.697428e+06
  -1.676144e+06   9.014132e+05
  -1.778384e+06  -2.491122e+05
  -9.614808e+05  -9.310606e+05
  -9.024650e+03  -8.954174e+05
   4.198760e+05  -5.741444e+05
   3.228543e+05  -5.208626e+05
   1.938816e+05  -7.686745e+05
   4.153030e+05  -8.034789e+05
   8.350293e+05  -2.038146e+05
   9.337202e+05   7.745178e+05
   4.036229e+05   1.363812e+06
  -4.518664e+05   1.041491e+06
  -9.411482e+05   5.351126e+04
  -6.507393e+05  -8.258323e+05
   1.249783e+05  -9.922266e+05
   6.703074e+05  -4.662625e+05
   5.703060e+05   2.429035e+05
   9.583860e+04   6.339950e+05
  -1.582314e+05   5.961832e+05
   3.364984e+04   3.856641e+05
   2.761795e+05   2.829031e+05
   2.236201e+04   2.943013e+05
  -7.459242e+05   1.948608e+05
  -1.379906e+06  -1.648438e+05
  -1.173175e+06  -6.462186e+05
  -1.243219e+05  -9.282908e+05
   9.688948e+05  -7.948545e+05
   1.253174e+06  -3.221346e+05
   6.526294e+05   1.652455e+05
  -1.098704e+05   3.285987e+05
  -3.184040e+05   1.033766e+05
   2.781661e+04  -1.965826e+05
   3.723471e+05  -1.597786e+05
   3.287278e+05   2.439970e+05
   6.015137e+04   5.556332e+05
  -4.801407e+04   3.536189e+05
   1.113721e+05  -1.601454e+05
   2.965276e+05  -3.269527e+05
   2.262398e+05   1.483261e+05
  -1.533748e+05   7.567701e+05
  -6.277346e+05   7.531630e+05
  -8.258493e+05   5.402262e+04
  -4.708542e+05  -6.549089e+05
   2.874439e+05  -7.026983e+05
   8.148112e+05  -1.300902e+05
   5.145652e+05   4.471625e+05
  -4.644194e+05   5.020173e+05
  -1.204835e+06   2.439083e+04
  -9.109054e+05  -5.745688e+05
   2.083557e+05  -8.283880e+05
   1.111776e+06  -5.498803e+05
   1.012641e+06   2.484303e+04
   1.716172e+05   4.012626e+05
  -4.512305e+05   2.656133e+05
  -2.396618e+05  -1.680220e+05
   4.794569e+05  -3.219038e+05
   8.461833e+05   1.441421e+05
   3.800257e+05   9.011642e+05
  -5.529239e+05   1.191719e+06
  -1.138766e+06   5.669667e+05
  -9.137164e+05  -5.929742e+05
  -1.418021e+05  -1.337965e+06
   5.351684e+05  -1.021125e+06
   7.033607e+05   4.227520e+04
   4.098918e+05   8.596679e+05
  -4.679864e+04   7.737064e+05
  -3.799886e+05   1.119115e+05
  -4.230824e+05  -2.916321e+05
  -2.071765e+05  -1.274087e+05
  -1.992985e+03   9.717870e+04
  -8.445907e+04  -1.554964e+05
  -3.351724e+05  -6.803081e+05
  -2.522109e+05  -8.104426e+05
   4.032125e+05  -3.148099e+05
   1.104758e+06   3.344058e+05
   1.044792e+06   6.057642e+05
   1.529610e+05   4.911598e+05
  -7.091443e+05   3.034234e+05
  -7.539429e+05   1.727272e+05
  -1.938259e+05   1.413318e+04
   1.388945e+05  -1.573108e+05
  -7.438256e+04  -2.007500e+05
  -3.006189e+05  -1.258023e+05
   3.872482e+03  -1.040350e+05
   5.977955e+05  -1.329362e+05
   7.527014e+05   4.110681e+04
   1.613564e+05   4.892732e+05
  -7.174260e+05   7.965461e+05
  -1.173514e+06   4.721720e+05
  -9.011152e+05  -3.783555e+05
  -1.558182e+05  -1.046911e+06
   5.368995e+05  -9.685372e+05
   7.666168e+05  -3.195005e+05
   4.932592e+05   2.296911e+05
   5.204968e+04   2.606528e+05
  -1.406165e+05  -1.236834e+04
   2.618812e+04  -8.154966e+04
   2.662042e+05   2.386877e+05
   2.190266e+05   5.909280e+05
  -1.545249e+05   4.737242e+05
  -5.170164e+05  -1.596035e+05
  -4.753738e+05  -7.653289e+05
   3.059952e+04  -7.431314e+05
   6.106596e+05  -8.241082e+04
   7.197892e+05   6.201416e+05
   1.841497e+05   7.924352e+05
  -5.406008e+05   4.188154e+05
  -7.684917e+05  -8.943743e+04
  -3.293045e+05  -3.848835e+05
   2.072235e+05  -4.059927e+05
   2.006529e+05  -2.454738e+05
  -2.667276e+05  -4.156432e+04
  -4.972077e+05   1.054510e+04
  -7.508863e+04  -2.090381e+05
   6.067963e+05  -5.025094e+05
   8.486008e+05  -4.515941e+05
   4.690595e+05   6.647372e+04
  -8.380493e+04   5.994799e+05
  -3.332438e+05   5.857550e+05
  -2.259482e+05   5.276079e+04
   9.742605e+03  -3.856756e+05
   1.941075e+05  -2.693687e+05
   2.609035e+05   1.864963e+05
   1.688555e+05   4.262738e+05
  -6.271966e+04   2.411478e+05
  -2.817039e+05  -6.949074e+04
  -3.177575e+05  -1.548756e+05
  -1.752571e+05  -2.412243e+04
  -1.516020e+04   4.955730e+04
   5.844991e+04  -9.269984e+04
   1.010141e+05  -3.078955e+05
   1.930368e+05  -3.167813e+05
   2.836234e+05  -1.625899e+04
   2.289172e+05   3.727660e+05
  -2.807966e+04   4.865829e+05
  -3.400731e+05   1.876783e+05
  -4.307830e+05  -2.615412e+05
  -1.403191e+05  -4.520509e+05
   3.505901e+05  -2.504117e+05
   5.975604e+05   9.840698e+04
   3.228916e+05   2.821744e+05
  -2.184564e+05   2.313283e+05
  -4.479290e+05   8.908658e+04
  -1.225188e+05  -1.664237e+03
   3.380188e+05   1.539046e+04
   3.302339e+05   1.365904e+05
  -1.945953e+05   2.624330e+05
  -6.586229e+05   1.877318e+05
