
 $NMID
 id='ANONYMOUS ', fmtdat='(2E16.6)'
 volume=1.0
 tramp=1.0
 $END
  -3.423246e+07   5.439870e+05
  -2.199859e+07  -1.868435e+07
   2.177687e+06  -2.266441e+07
   1.584496e+07  -1.160469e+07
   1.123073e+07   1.639361e+06
  -7.003352e+05   5.964964e+06
  -6.472393e+06   1.035292e+06
  -3.365733e+06  -5.766994e+06
   2.773188e+06  -7.440521e+06
   6.140298e+06  -2.638991e+06
   4.897844e+06   4.019285e+06
   6.554362e+05   6.108546e+06
  -2.801304e+06   1.628754e+06
  -2.100457e+06  -4.480200e+06
   2.137009e+06  -5.384188e+06
   5.259542e+06   9.123693e+04
   3.507563e+06   6.431440e+06
  -1.866217e+06   7.849808e+06
  -6.286819e+06   3.910666e+06
  -6.643648e+06  -1.471338e+06
  -3.575903e+06  -4.598881e+06
  -1.150570e+05  -4.595746e+06
   9.817277e+05  -3.006585e+06
  -4.981025e+05  -2.115772e+06
  -1.741838e+06  -2.928181e+06
   3.103985e+05  -4.005099e+06
   4.889701e+06  -2.970220e+06
   7.386192e+06   3.555072e+05
   4.673921e+06   3.290260e+06
  -7.268670e+05   3.370350e+06
  -3.486512e+06   1.092412e+06
  -1.670736e+06  -1.101999e+06
   1.744105e+06  -1.510478e+06
   3.115146e+06  -5.971090e+04
   1.839766e+06   2.234565e+06
  -3.157065e+05   3.559012e+06
  -1.634635e+06   2.288162e+06
  -1.466099e+06  -7.883250e+05
  -2.668939e+05  -2.293434e+06
   5.163002e+05  -2.370715e+05
  -3.349890e+05   2.660453e+06
  -1.977850e+06   2.051005e+06
  -1.941268e+06  -1.850689e+06
   7.015215e+05  -3.960854e+06
   3.496603e+06  -1.034222e+06
   3.118187e+06   3.839089e+06
  -6.836798e+05   5.147077e+06
  -4.619719e+06   1.648025e+06
  -5.207843e+06  -2.845593e+06
  -1.973186e+06  -4.368640e+06
   2.373977e+06  -2.476418e+06
   4.314280e+06   5.602798e+05
   2.436048e+06   2.314184e+06
  -1.250765e+06   1.764293e+06
  -3.105149e+06  -2.377243e+05
  -1.597447e+06  -1.600107e+06
   1.026536e+06  -9.813593e+05
   1.518847e+06   6.297493e+05
  -3.721722e+05   1.078450e+06
  -1.793894e+06  -2.237850e+05
  -5.835513e+05  -1.661362e+06
   2.104777e+06  -1.550488e+06
   3.385282e+06   1.244717e+05
   1.856112e+06   2.252279e+06
  -1.368226e+06   3.687663e+06
  -4.063572e+06   3.420578e+06
  -4.626727e+06   9.623930e+05
  -2.967594e+06  -2.538704e+06
  -4.900808e+05  -4.561380e+06
   1.005511e+06  -3.744697e+06
   9.705641e+05  -1.592236e+06
   5.430800e+05  -5.703471e+05
   9.988987e+05  -9.702736e+05
   2.099875e+06  -9.200409e+05
   2.475508e+06   6.263901e+05
   1.374510e+06   2.291801e+06
  -5.177306e+05   2.113487e+06
  -1.833887e+06   2.194809e+04
  -1.600676e+06  -2.147484e+06
   1.828588e+05  -2.598762e+06
   2.379630e+06  -1.055510e+06
   3.269065e+06   1.285976e+06
   2.043785e+06   2.811962e+06
  -1.591534e+05   2.738358e+06
  -1.409001e+06   1.680425e+06
  -1.284899e+06   8.898443e+05
  -1.250335e+06   8.113658e+05
  -2.399136e+06   6.603574e+05
  -3.657472e+06  -4.371902e+05
  -3.017078e+06  -2.239084e+06
  -1.799259e+05  -3.558529e+06
   2.835889e+06  -3.376064e+06
   3.756119e+06  -1.637605e+06
   2.223834e+06   6.688735e+05
  -1.007053e+05   2.029943e+06
  -1.206067e+06   1.520900e+06
  -4.507729e+05  -1.434302e+05
   1.038559e+06  -1.080583e+06
   1.572692e+06  -3.123379e+05
   6.481567e+05   9.834400e+05
  -5.550848e+05   9.781014e+05
  -5.746259e+05  -3.074411e+05
   6.214827e+05  -9.347969e+05
   1.636214e+06   3.891953e+05
   1.221406e+06   2.551024e+06
  -5.266741e+05   3.312386e+06
  -2.443893e+06   1.805887e+06
  -3.291929e+06  -7.590409e+05
  -2.503843e+06  -2.512786e+06
  -5.537943e+05  -2.538039e+06
   1.180379e+06  -1.318835e+06
   1.449383e+06  -1.305394e+05
   4.345380e+05   3.985955e+04
  -3.263762e+05  -6.512589e+05
   2.763251e+05  -1.098579e+06
   1.515234e+06  -5.119933e+05
   1.719939e+06   6.240874e+05
   4.237027e+05   1.132529e+06
  -9.870664e+05   5.550901e+05
  -9.019665e+05  -3.816488e+05
   6.635795e+05  -6.607874e+05
   2.093868e+06   3.158485e+04
   1.845297e+06   1.187613e+06
  -5.995987e+04   1.944966e+06
  -2.060590e+06   1.630688e+06
  -2.477551e+06   3.051684e+05
  -1.065344e+06  -1.035414e+06
   7.428593e+05  -1.212541e+06
   1.234225e+06  -1.510295e+05
   1.122124e+05   8.727937e+05
  -1.300339e+06   6.300837e+05
  -1.530921e+06  -6.124331e+05
  -4.303888e+05  -1.441583e+06
   8.568322e+05  -9.954673e+05
   1.151817e+06   1.155045e+05
   3.363200e+05   6.397100e+05
  -6.273167e+05   7.973971e+04
  -6.218035e+05  -9.004735e+05
   5.320105e+05  -1.231410e+06
   1.774771e+06  -4.408606e+05
   1.771681e+06   9.372471e+05
   3.470437e+05   1.803730e+06
  -1.211763e+06   1.453918e+06
  -1.501158e+06   2.447342e+05
  -5.001442e+05  -7.369987e+05
   5.484677e+05  -7.465160e+05
   6.289228e+05  -6.221560e+04
  -4.644401e+04   4.476259e+05
  -5.389530e+05   3.153335e+05
  -3.142848e+05  -9.891262e+04
   2.956301e+05  -1.177226e+05
   5.286122e+05   4.465142e+05
  -6.991350e+04   1.027025e+06
  -1.176442e+06   8.289795e+05
  -1.839199e+06  -3.329272e+05
  -1.296942e+06  -1.699120e+06
   1.824949e+05  -2.170075e+06
   1.442343e+06  -1.353712e+06
   1.596141e+06   3.159628e+04
   9.070521e+05   8.835096e+05
   3.231142e+05   7.966045e+05
   3.046566e+05   3.235816e+05
   4.208456e+05   2.183528e+05
   6.801172e+04   5.849368e+05
  -7.266420e+05   8.296704e+05
  -1.310813e+06   3.701986e+05
  -1.035982e+06  -6.626227e+05
   1.499829e+05  -1.413423e+06
   1.535868e+06  -1.044327e+06
   2.044152e+06   3.936303e+05
   1.086155e+06   1.834551e+06
  -7.751288e+05   2.098013e+06
  -2.169989e+06   1.007887e+06
  -2.145574e+06  -4.574426e+05
  -1.016332e+06  -1.181692e+06
   9.486541e+04  -9.800068e+05
   4.437886e+05  -5.779988e+05
   2.422803e+05  -6.462802e+05
   1.690486e+05  -1.046604e+06
   5.551728e+05  -1.063819e+06
   1.088259e+06  -2.630659e+05
   1.163705e+06   9.630411e+05
   4.865168e+05   1.684987e+06
  -5.622610e+05   1.277111e+06
  -1.153027e+06   2.583935e+04
  -7.593869e+05  -1.083595e+06
   2.545916e+05  -1.234278e+06
   9.341579e+05  -4.697264e+05
   7.159800e+05   4.586980e+05
   6.366098e+03   8.711544e+05
  -3.369761e+05   7.197090e+05
  -2.022690e+04   4.264784e+05
   3.592503e+05   3.253223e+05
   3.756243e+04   3.517268e+05
  -9.712420e+05   2.107545e+05
  -1.765977e+06  -2.553155e+05
  -1.439445e+06  -8.657449e+05
  -5.808912e+04  -1.212392e+06
   1.305383e+06  -9.936356e+05
   1.590206e+06  -3.165544e+05
   7.767666e+05   3.243941e+05
  -1.828911e+05   4.553077e+05
  -4.255292e+05   7.878201e+04
   2.832730e+03  -3.055958e+05
   4.273587e+05  -2.094669e+05
   4.150515e+05   3.039116e+05
   1.442610e+05   6.614409e+05
   9.646291e+03   4.277321e+05
   1.331837e+05  -1.406104e+05
   3.127524e+05  -3.280241e+05
   2.614430e+05   1.968921e+05
  -1.638372e+05   9.029056e+05
  -7.907376e+05   9.342750e+05
  -1.111706e+06   1.094771e+05
  -6.642192e+05  -8.092117e+05
   3.627508e+05  -9.374216e+05
   1.058677e+06  -2.273235e+05
   6.398344e+05   5.329520e+05
  -6.021869e+05   5.958925e+05
  -1.451139e+06  -3.660344e+04
  -1.006124e+06  -7.483193e+05
   3.518274e+05  -9.524115e+05
   1.360055e+06  -5.435668e+05
   1.174659e+06   1.100037e+05
   1.619100e+05   4.787610e+05
  -5.703712e+05   2.807098e+05
  -3.188915e+05  -2.349885e+05
   5.554830e+05  -4.271438e+05
   1.044911e+06   1.278445e+05
   5.286798e+05   1.079284e+06
  -6.056950e+05   1.486921e+06
  -1.361761e+06   7.381247e+05
  -1.118428e+06  -7.060012e+05
  -1.705909e+05  -1.622092e+06
   6.666108e+05  -1.201570e+06
   8.468810e+05   1.107393e+05
   4.383299e+05   1.065244e+06
  -1.350630e+05   9.093429e+05
  -4.870442e+05   1.039174e+05
  -4.641588e+05  -3.517288e+05
  -1.967265e+05  -1.423105e+05
  -2.498348e+04   1.024616e+05
  -1.808251e+05  -2.262338e+05
  -4.319887e+05  -8.508069e+05
  -2.325733e+05  -9.831337e+05
   5.724743e+05  -3.702568e+05
   1.335329e+06   4.191014e+05
   1.207653e+06   7.538431e+05
   1.743049e+05   6.156274e+05
  -8.150949e+05   3.685782e+05
  -9.034398e+05   1.819354e+05
  -2.843695e+05  -1.595577e+04
   1.494665e+05  -1.963597e+05
  -2.353821e+04  -2.159976e+05
  -2.964900e+05  -1.211619e+05
  -2.143956e+04  -1.219779e+05
   6.571841e+05  -1.838451e+05
   9.297515e+05   3.071934e+04
   2.989882e+05   6.068667e+05
  -8.122693e+05   1.014097e+06
  -1.483068e+06   6.311041e+05
  -1.188356e+06  -4.205259e+05
  -2.180002e+05  -1.269829e+06
   6.753548e+05  -1.211287e+06
   9.388310e+05  -4.391483e+05
   5.929680e+05   2.431494e+05
   9.380432e+04   3.192090e+05
  -1.109658e+05   2.269731e+04
   5.649039e+04  -5.446951e+04
   2.954185e+05   3.148000e+05
   2.413852e+05   7.259605e+05
  -1.738528e+05   5.950645e+05
  -6.185345e+05  -1.489357e+05
  -6.234755e+05  -8.896058e+05
  -4.013413e+04  -9.148458e+05
   7.046810e+05  -1.658173e+05
   9.039551e+05   6.960675e+05
   2.732753e+05   9.721973e+05
  -6.475807e+05   5.645704e+05
  -9.745308e+05  -8.506001e+04
  -4.456856e+05  -5.132827e+05
   2.534893e+05  -5.589146e+05
   2.979570e+05  -3.190520e+05
  -2.670365e+05  -2.989274e+04
  -5.936300e+05   2.423242e+04
  -1.143750e+05  -2.664356e+05
   7.423227e+05  -6.109333e+05
   1.091993e+06  -5.158336e+05
   6.375156e+05   1.227696e+05
  -9.297360e+04   7.591856e+05
  -4.563369e+05   7.475450e+05
  -3.337765e+05   1.123678e+05
  -2.057315e+04  -4.468153e+05
   2.232812e+05  -3.633313e+05
   3.148538e+05   1.742105e+05
   2.183895e+05   5.191784e+05
  -5.796304e+04   3.441938e+05
  -3.470039e+05  -5.955484e+04
  -4.118245e+05  -2.239196e+05
  -2.177000e+05  -6.177089e+04
   1.125659e+04   1.012547e+05
   7.703863e+04  -2.729711e+04
   4.915429e+04  -3.395058e+05
   1.249957e+05  -4.427170e+05
   3.079405e+05  -1.182498e+05
   3.515042e+05   3.869441e+05
   6.475260e+04   5.827745e+05
  -3.864199e+05   2.583284e+05
  -5.647091e+05  -2.787062e+05
  -2.027409e+05  -5.297157e+05
   4.434907e+05  -3.194906e+05
   7.645923e+05   8.863312e+04
   4.148936e+05   3.406619e+05
  -2.631216e+05   3.265507e+05
  -5.600693e+05   1.645482e+05
  -1.922933e+05   1.060749e+04
   3.524782e+05  -2.449079e+04
   3.792389e+05   1.049537e+05
  -1.895405e+05   2.845708e+05
  -7.257519e+05   2.342948e+05
