
 $NMID
 id='ANONYMOUS ', fmtdat='(2E16.6)'
 volume=1.0
 tramp=1.0
 $END
   5.373698e+07   1.418288e+06
   3.155426e+07   3.391145e+07
  -7.857152e+06   3.611849e+07
  -2.660723e+07   1.352337e+07
  -1.565664e+07  -6.847985e+06
   3.273757e+06  -8.828856e+06
   9.395476e+06   1.258218e+06
   2.554463e+06   9.379450e+06
  -6.069413e+06   8.917706e+06
  -9.284652e+06   1.789921e+06
  -6.563760e+06  -6.118134e+06
  -5.657969e+05  -8.301234e+06
   3.906803e+06  -2.499065e+06
   2.403621e+06   5.378998e+06
  -3.756883e+06   6.287627e+06
  -7.525298e+06  -1.408071e+06
  -4.058317e+06  -9.872852e+06
   3.859761e+06  -1.122716e+07
   9.796169e+06  -5.415430e+06
   1.026304e+07   2.244652e+06
   6.085720e+06   7.306903e+06
   4.179474e+05   8.198305e+06
  -2.845398e+06   5.635423e+06
  -1.669299e+06   2.577635e+06
   1.108694e+06   2.255546e+06
   8.486703e+04   4.139995e+06
  -5.433020e+06   4.080686e+06
  -9.379872e+06   1.525295e+05
  -6.644814e+06  -4.198754e+06
  -1.337475e+04  -4.854685e+06
   3.737517e+06  -2.296668e+06
   2.370934e+06   1.678041e+05
  -7.491268e+05   9.723581e+05
  -2.365227e+06   3.826328e+05
  -2.109197e+06  -1.556128e+06
  -4.905986e+05  -3.878746e+06
   1.862946e+06  -3.623401e+06
   3.021103e+06   2.486835e+05
   1.457891e+06   3.513726e+06
  -7.905258e+05   1.719005e+06
  -2.049161e+05  -2.474076e+06
   2.457267e+06  -2.205276e+06
   2.298435e+06   3.099846e+06
  -2.396069e+06   5.815935e+06
  -6.581625e+06   8.355849e+05
  -4.706395e+06  -6.703993e+06
   1.995206e+06  -8.088605e+06
   7.162425e+06  -2.134791e+06
   6.623629e+06   4.447024e+06
   1.693497e+06   5.883613e+06
  -3.419764e+06   2.582084e+06
  -5.099642e+06  -1.561555e+06
  -2.322201e+06  -3.412150e+06
   2.343019e+06  -2.071318e+06
   4.330871e+06   9.701250e+05
   1.827714e+06   2.638830e+06
  -1.675538e+06   1.273022e+06
  -1.679953e+06  -1.028806e+06
   1.244548e+06  -8.971249e+05
   2.352159e+06   1.649515e+06
  -5.738060e+05   3.224376e+06
  -4.389910e+06   1.742977e+06
  -5.043869e+06  -1.351327e+06
  -2.160290e+06  -3.836024e+06
   1.882794e+06  -5.032165e+06
   5.012881e+06  -4.546382e+06
   6.049046e+06  -1.498257e+06
   4.311504e+06   3.196629e+06
   7.325158e+05   6.001198e+06
  -1.886790e+06   4.596868e+06
  -1.703039e+06   1.215185e+06
  -1.987763e+05  -1.632038e+05
  -1.121169e+05   9.783158e+05
  -1.706191e+06   1.647858e+06
  -2.780499e+06   6.748672e+04
  -1.900618e+06  -2.024632e+06
   9.518727e+04  -2.139876e+06
   1.590792e+06  -1.383538e+05
   1.611568e+06   2.133463e+06
  -9.780946e+04   2.897995e+06
  -2.766426e+06   1.513937e+06
  -4.304748e+06  -1.315679e+06
  -2.994419e+06  -3.732778e+06
   1.548690e+05  -4.059774e+06
   2.246291e+06  -2.547752e+06
   2.157258e+06  -1.057760e+06
   1.791258e+06  -6.519979e+05
   2.904493e+06  -4.211041e+05
   4.264988e+06   8.458523e+05
   3.368574e+06   2.811584e+06
   2.062292e+04   4.081957e+06
  -3.284949e+06   3.767205e+06
  -4.197895e+06   1.959603e+06
  -2.603243e+06  -5.216255e+05
  -1.739537e+05  -2.225125e+06
   1.166005e+06  -1.862314e+06
   5.493319e+05   6.456081e+04
  -1.125107e+06   1.257966e+06
  -1.890036e+06   3.347314e+05
  -8.612470e+05  -1.212041e+06
   5.562633e+05  -1.084723e+06
   4.313897e+05   4.010285e+05
  -1.053126e+06   6.939648e+05
  -1.812608e+06  -1.260608e+06
  -6.070738e+05  -3.430036e+06
   1.595132e+06  -3.369540e+06
   3.120252e+06  -1.092328e+06
   3.275282e+06   1.480343e+06
   2.219015e+06   2.811312e+06
   3.860239e+05   2.623356e+06
  -1.279711e+06   1.418912e+06
  -1.575245e+06   1.745209e+05
  -4.871598e+05  -5.925336e+04
   3.338385e+05   7.580391e+05
  -4.448293e+05   1.314745e+06
  -1.900625e+06   5.184588e+05
  -1.988788e+06  -9.323878e+05
  -3.438324e+05  -1.412180e+06
   1.182705e+06  -5.339547e+05
   8.784129e+05   4.837725e+05
  -8.592200e+05   5.089882e+05
  -2.175283e+06  -3.686046e+05
  -1.714596e+06  -1.404808e+06
   2.986507e+05  -1.967706e+06
   2.347799e+06  -1.585949e+06
   2.767109e+06  -1.924910e+05
   1.170961e+06   1.288753e+06
  -9.538876e+05   1.458163e+06
  -1.546683e+06   1.411497e+05
  -1.625614e+05  -1.075249e+06
   1.529458e+06  -6.856185e+05
   1.686793e+06   8.266286e+05
   2.909606e+05   1.654383e+06
  -1.113218e+06   9.444536e+05
  -1.244350e+06  -3.439481e+05
  -2.237218e+05  -7.854473e+05
   7.949883e+05  -3.148857e+04
   7.026977e+05   1.072318e+06
  -6.173495e+05   1.402643e+06
  -2.016817e+06   4.806207e+05
  -1.995598e+06  -1.106019e+06
  -3.210302e+05  -2.076013e+06
   1.480059e+06  -1.592509e+06
   1.722763e+06  -1.590712e+05
   4.734412e+05   8.792154e+05
  -6.810704e+05   7.798363e+05
  -6.352624e+05   5.334065e+04
   1.305460e+05  -3.635169e+05
   5.041558e+05  -1.972659e+05
   1.294654e+05   7.479917e+04
  -4.426215e+05  -7.869415e+04
  -5.018952e+05  -6.783613e+05
   2.348796e+05  -1.177028e+06
   1.401528e+06  -8.538149e+05
   2.061670e+06   4.720360e+05
   1.402551e+06   1.977499e+06
  -2.864142e+05   2.404322e+06
  -1.650376e+06   1.360903e+06
  -1.681293e+06  -1.736940e+05
  -8.301387e+05  -9.207534e+05
  -2.951948e+05  -6.645352e+05
  -4.633057e+05  -2.343053e+05
  -6.123349e+05  -3.258342e+05
  -7.095567e+04  -7.601191e+05
   8.958519e+05  -8.741436e+05
   1.453289e+06  -2.854182e+05
   1.028451e+06   7.502781e+05
  -2.895672e+05   1.450909e+06
  -1.747008e+06   1.021479e+06
  -2.226345e+06  -5.462286e+05
  -1.069529e+06  -2.124980e+06
   1.072287e+06  -2.327538e+06
   2.560721e+06  -9.550666e+05
   2.323436e+06   7.236580e+05
   9.156420e+05   1.362934e+06
  -2.329758e+05   9.399246e+05
  -4.065466e+05   4.983249e+05
  -1.037966e+05   7.444283e+05
  -1.410754e+05   1.293584e+06
  -7.025017e+05   1.261360e+06
  -1.295215e+06   2.800749e+05
  -1.299887e+06  -1.113721e+06
  -4.993686e+05  -1.902039e+06
   6.609432e+05  -1.412506e+06
   1.280555e+06   3.971452e+04
   7.727773e+05   1.301179e+06
  -4.277518e+05   1.379637e+06
  -1.169298e+06   3.731093e+05
  -7.897886e+05  -7.149689e+05
   1.505551e+05  -1.067661e+06
   5.553215e+05  -7.657403e+05
   9.712075e+04  -4.129602e+05
  -4.216527e+05  -3.456101e+05
  -4.934968e+04  -3.829592e+05
   1.149188e+06  -1.781540e+05
   2.044986e+06   3.872856e+05
   1.581684e+06   1.077921e+06
  -7.741893e+04   1.429208e+06
  -1.614142e+06   1.092097e+06
  -1.832152e+06   2.245057e+05
  -8.176220e+05  -5.164382e+05
   2.748445e+05  -5.598958e+05
   5.110886e+05  -1.988394e+04
   2.097558e+04   4.192564e+05
  -4.463004e+05   2.448184e+05
  -4.700747e+05  -3.526007e+05
  -2.341028e+05  -7.242660e+05
  -8.394929e+04  -4.779911e+05
  -1.398351e+05   8.978280e+04
  -2.866158e+05   2.816682e+05
  -2.691329e+05  -2.392106e+05
   1.660009e+05  -9.778549e+05
   9.244741e+05  -1.038978e+06
   1.363865e+06  -1.418604e+05
   8.277602e+05   9.318139e+05
  -4.423495e+05   1.126638e+06
  -1.262125e+06   3.070862e+05
  -7.157050e+05  -5.883846e+05
   7.177742e+05  -6.261074e+05
   1.577708e+06   1.418558e+05
   9.727430e+05   8.901333e+05
  -5.144445e+05   9.692801e+05
  -1.506406e+06   4.284003e+05
  -1.219489e+06  -2.292728e+05
  -1.163492e+05  -5.153741e+05
   6.560954e+05  -2.474506e+05
   3.773091e+05   3.053726e+05
  -5.932470e+05   5.083309e+05
  -1.177348e+06  -1.052113e+05
  -6.463477e+05  -1.190193e+06
   6.204166e+05  -1.684901e+06
   1.495460e+06  -8.522220e+05
   1.233597e+06   7.820679e+05
   1.589648e+05   1.788627e+06
  -7.709986e+05   1.266561e+06
  -9.168929e+05  -2.061019e+05
  -3.926091e+05  -1.201172e+06
   2.539817e+05  -9.563998e+05
   5.662508e+05  -6.563951e+04
   4.478272e+05   3.875112e+05
   1.510162e+05   1.395824e+05
   5.436066e+04  -9.125635e+04
   2.842408e+05   3.064802e+05
   4.885783e+05   9.784519e+05
   1.519690e+05   1.078751e+06
  -7.349738e+05   3.745217e+05
  -1.456850e+06  -4.999783e+05
  -1.244658e+06  -8.666443e+05
  -1.662243e+05  -7.034758e+05
   8.505484e+05  -3.982818e+05
   9.821125e+05  -1.537843e+05
   3.677625e+05   6.736829e+04
  -1.461379e+05   2.223292e+05
  -5.364429e+04   1.975359e+05
   2.477531e+05   9.319141e+04
   5.346644e+04   1.332305e+05
  -6.492652e+05   2.265830e+05
  -1.046409e+06  -2.885302e+04
  -4.404349e+05  -7.018852e+05
   8.490089e+05  -1.167290e+06
   1.722528e+06  -7.326166e+05
   1.420060e+06   4.488046e+05
   2.533477e+05   1.406100e+06
  -7.974098e+05   1.364105e+06
  -1.058776e+06   5.287292e+05
  -6.475161e+05  -2.351828e+05
  -1.342811e+05  -3.608998e+05
   5.630714e+04  -7.511662e+04
  -8.735750e+04   3.401689e+03
  -2.847378e+05  -3.788294e+05
  -2.236866e+05  -8.124977e+05
   1.883095e+05  -6.788474e+05
   6.743603e+05   1.207773e+05
   7.320367e+05   9.505992e+05
   1.187349e+05   1.033724e+06
  -7.441078e+05   2.530878e+05
  -1.027340e+06  -7.191244e+05
  -3.427309e+05  -1.094646e+06
   7.198949e+05  -6.793948e+05
   1.125613e+06   8.716973e+04
   5.322663e+05   6.338654e+05
  -2.990618e+05   6.907212e+05
  -4.014642e+05   3.656744e+05
   2.286031e+05   6.321137e+03
   6.445622e+05  -3.158638e+04
   1.478218e+05   3.134377e+05
  -8.359282e+05   6.614565e+05
  -1.282778e+06   5.044950e+05
  -7.769143e+05  -2.041856e+05
   1.087926e+05  -8.739331e+05
   5.817353e+05  -8.538931e+05
   4.462551e+05  -1.688590e+05
   5.613735e+04   4.713520e+05
  -2.418296e+05   4.415505e+05
  -3.480551e+05  -1.351172e+05
  -2.477782e+05  -5.798116e+05
   5.412717e+04  -4.418535e+05
   3.904947e+05   4.275006e+04
   4.771064e+05   2.997170e+05
   2.410664e+05   1.109705e+05
  -4.117206e+04  -1.642324e+05
  -8.274258e+04  -7.324978e+04
   3.128361e+04   3.413739e+05
  -2.219003e+04   5.678638e+05
  -3.097534e+05   2.464198e+05
  -4.760852e+05  -3.632660e+05
  -1.799247e+05  -6.457900e+05
   4.026225e+05  -3.176670e+05
   6.722062e+05   2.756108e+05
   2.554067e+05   5.687470e+05
  -5.175613e+05   3.612303e+05
  -8.918937e+05  -7.864239e+04
  -4.791926e+05  -3.832042e+05
   2.986498e+05  -4.101723e+05
   6.463325e+05  -2.369204e+05
   2.653030e+05  -1.835712e+04
  -3.254699e+05   7.885261e+04
  -3.976632e+05  -4.751188e+04
   1.545798e+05  -2.755428e+05
   7.174044e+05  -2.620517e+05
