
 $NMID
 id='ANONYMOUS ', fmtdat='(2E16.6)'
 volume=1.0
 tramp=1.0
 $END
  -2.826550e+07  -1.873697e+05
  -1.829567e+07  -1.435258e+07
   1.019515e+06  -1.812871e+07
   1.258709e+07  -1.075367e+07
   9.747314e+06  -9.308722e+04
   1.026846e+05   4.970362e+06
  -5.523609e+06   1.839832e+06
  -3.658300e+06  -4.594820e+06
   1.707909e+06  -7.089100e+06
   5.188108e+06  -2.930830e+06
   4.366399e+06   3.560645e+06
   5.507093e+05   5.610618e+06
  -2.605757e+06   1.276842e+06
  -2.039256e+06  -4.458154e+06
   1.688653e+06  -5.262522e+06
   4.574750e+06  -2.749154e+05
   3.246321e+06   5.483442e+06
  -1.429997e+06   6.821681e+06
  -5.370645e+06   3.266841e+06
  -5.517991e+06  -1.544438e+06
  -2.542767e+06  -3.981128e+06
   2.982501e+05  -3.415383e+06
   4.686257e+05  -1.953289e+06
  -1.423392e+06  -1.903447e+06
  -2.189669e+06  -3.386096e+06
   5.221575e+05  -4.274556e+06
   5.114075e+06  -2.660219e+06
   7.117623e+06   7.758262e+05
   4.092705e+06   3.312692e+06
  -1.227295e+06   3.038677e+06
  -3.736379e+06   6.249334e+05
  -1.564264e+06  -1.645061e+06
   2.261304e+06  -1.925790e+06
   3.690716e+06   2.263778e+04
   1.906713e+06   2.711734e+06
  -7.169213e+05   3.742331e+06
  -1.764536e+06   1.861476e+06
  -9.457826e+05  -1.202228e+06
   3.260740e+05  -2.033617e+06
   5.540415e+05   4.022129e+05
  -5.824834e+05   2.978081e+06
  -1.934752e+06   2.094603e+06
  -1.827477e+06  -1.485453e+06
   1.852502e+05  -3.325731e+06
   2.423233e+06  -9.450816e+05
   2.435785e+06   3.031152e+06
  -4.163893e+05   4.167078e+06
  -3.916557e+06   1.352089e+06
  -4.855798e+06  -2.494831e+06
  -2.109480e+06  -4.026083e+06
   2.116766e+06  -2.524817e+06
   4.216218e+06   2.465786e+05
   2.569814e+06   2.010783e+06
  -9.069070e+05   1.670643e+06
  -2.750972e+06  -4.861061e+04
  -1.527621e+06  -1.295655e+06
   8.521199e+05  -8.735750e+05
   1.527486e+06   5.228013e+05
  -1.739515e+04   1.164903e+06
  -1.574637e+06   3.192033e+05
  -9.923017e+05  -1.027289e+06
   1.302987e+06  -1.398579e+06
   2.828601e+06  -2.533356e+05
   1.733608e+06   1.768644e+06
  -1.360639e+06   3.341064e+06
  -4.050567e+06   3.108514e+06
  -4.402645e+06   6.833817e+05
  -2.554175e+06  -2.555439e+06
  -2.989988e+05  -4.300436e+06
   7.777130e+05  -3.582745e+06
   7.006306e+05  -1.809693e+06
   6.711651e+05  -9.524542e+05
   1.453737e+06  -1.107793e+06
   2.483866e+06  -7.041155e+05
   2.582080e+06   9.994996e+05
   1.265793e+06   2.620681e+06
  -7.455000e+05   2.289670e+06
  -2.082925e+06  -1.329826e+04
  -1.708977e+06  -2.317853e+06
   2.636555e+05  -2.668339e+06
   2.428321e+06  -9.003677e+05
   3.061207e+06   1.456878e+06
   1.708904e+06   2.703514e+06
  -2.818650e+05   2.374046e+06
  -1.225130e+06   1.364629e+06
  -1.020409e+06   8.131704e+05
  -1.100156e+06   8.949501e+05
  -2.343239e+06   7.671436e+05
  -3.635220e+06  -3.496211e+05
  -3.039838e+06  -2.193257e+06
  -2.123033e+05  -3.585558e+06
   2.891405e+06  -3.417010e+06
   3.873060e+06  -1.577410e+06
   2.235042e+06   8.169672e+05
  -2.463966e+05   2.117667e+06
  -1.342836e+06   1.485955e+06
  -4.470466e+05  -1.980979e+05
   1.095872e+06  -1.074945e+06
   1.555919e+06  -2.955379e+05
   5.834168e+05   9.771614e+05
  -6.078615e+05   1.001819e+06
  -6.703890e+05  -2.822942e+05
   4.677994e+05  -1.072170e+06
   1.614290e+06   6.357423e+04
   1.500024e+06   2.318712e+06
  -1.213253e+05   3.447513e+06
  -2.283578e+06   2.185831e+06
  -3.483235e+06  -5.122494e+05
  -2.780646e+06  -2.553434e+06
  -6.538903e+05  -2.676829e+06
   1.235280e+06  -1.362769e+06
   1.505509e+06  -1.078930e+05
   4.420128e+05   3.959700e+04
  -3.372456e+05  -6.556553e+05
   2.449965e+05  -1.073916e+06
   1.464860e+06  -5.127126e+05
   1.706167e+06   5.649245e+05
   4.630074e+05   1.092349e+06
  -9.778857e+05   5.869414e+05
  -9.705594e+05  -3.682327e+05
   6.193702e+05  -7.593493e+05
   2.188628e+06  -9.954112e+04
   2.018463e+06   1.176948e+06
   3.124900e+04   2.060655e+06
  -2.090512e+06   1.743008e+06
  -2.528252e+06   3.470354e+05
  -1.075745e+06  -1.014458e+06
   7.301796e+05  -1.178242e+06
   1.191153e+06  -1.381483e+05
   8.022712e+04   8.553345e+05
  -1.304950e+06   6.314993e+05
  -1.559028e+06  -5.826313e+05
  -5.008142e+05  -1.447452e+06
   8.098667e+05  -1.068059e+06
   1.179356e+06   3.767193e+04
   3.953369e+05   6.178528e+05
  -6.001246e+05   9.190624e+04
  -6.189319e+05  -9.022335e+05
   5.508632e+05  -1.242644e+06
   1.807077e+06  -4.342664e+05
   1.791890e+06   9.558189e+05
   3.582453e+05   1.819375e+06
  -1.200891e+06   1.477852e+06
  -1.510612e+06   2.778140e+05
  -5.344284e+05  -7.302056e+05
   5.378062e+05  -7.753482e+05
   6.724381e+05  -6.737507e+04
  -9.080739e+03   5.113348e+05
  -5.863247e+05   3.910993e+05
  -4.190199e+05  -1.034896e+05
   2.396061e+05  -1.994933e+05
   5.608320e+05   3.787356e+05
  -1.760147e+04   1.025965e+06
  -1.170534e+06   8.601276e+05
  -1.868598e+06  -3.189943e+05
  -1.322403e+06  -1.716472e+06
   1.746477e+05  -2.221254e+06
   1.463518e+06  -1.430523e+06
   1.665951e+06  -1.627301e+04
   1.000999e+06   9.285196e+05
   3.664830e+05   9.095836e+05
   2.653670e+05   3.977022e+05
   3.618681e+05   2.035233e+05
   5.797440e+04   5.531886e+05
  -7.122439e+05   8.575256e+05
  -1.340528e+06   4.209068e+05
  -1.107776e+06  -6.747938e+05
   1.067365e+05  -1.490549e+06
   1.559175e+06  -1.112114e+06
   2.104617e+06   3.756891e+05
   1.147044e+06   1.847309e+06
  -7.280012e+05   2.130598e+06
  -2.161723e+06   1.069767e+06
  -2.206292e+06  -3.965684e+05
  -1.117146e+06  -1.186471e+06
   4.256219e+04  -1.058576e+06
   4.877435e+05  -6.561083e+05
   3.280730e+05  -6.615922e+05
   2.145534e+05  -1.019687e+06
   5.506589e+05  -1.045191e+06
   1.081948e+06  -2.568597e+05
   1.177443e+06   9.827725e+05
   4.961893e+05   1.718589e+06
  -5.750926e+05   1.304426e+06
  -1.178804e+06   4.300975e+04
  -7.905922e+05  -1.073644e+06
   2.135639e+05  -1.249569e+06
   8.968207e+05  -5.255739e+05
   7.171599e+05   3.905012e+05
   5.698503e+04   8.399512e+05
  -2.741058e+05   7.361630e+05
   1.070934e+04   4.577669e+05
   3.567014e+05   3.456782e+05
   3.237086e+04   3.649483e+05
  -9.646486e+05   2.248103e+05
  -1.766456e+06  -2.424505e+05
  -1.466844e+06  -8.531036e+05
  -1.009658e+05  -1.199647e+06
   1.279673e+06  -9.987377e+05
   1.598033e+06  -3.568028e+05
   8.014785e+05   2.717337e+05
  -1.658906e+05   4.370001e+05
  -4.161693e+05   1.023720e+05
   2.199400e+04  -2.809674e+05
   4.532701e+05  -2.070205e+05
   4.174323e+05   3.103238e+05
   1.102892e+05   6.896602e+05
  -2.609873e+04   4.429196e+05
   1.365961e+05  -1.717928e+05
   3.443498e+05  -3.731817e+05
   2.742786e+05   1.941603e+05
  -1.821249e+05   9.366175e+05
  -8.016530e+05   9.469291e+05
  -1.088725e+06   8.304637e+04
  -6.325267e+05  -8.297745e+05
   3.714735e+05  -9.189802e+05
   1.055847e+06  -1.926687e+05
   6.488591e+05   5.554305e+05
  -6.007559e+05   6.165745e+05
  -1.495577e+06  -7.533572e+03
  -1.081660e+06  -7.429176e+05
   3.120350e+05  -1.002153e+06
   1.390410e+06  -6.181179e+05
   1.232711e+06   7.372171e+04
   1.891738e+05   4.954161e+05
  -5.742067e+05   3.076184e+05
  -3.117941e+05  -2.275175e+05
   5.871733e+05  -4.197832e+05
   1.066455e+06   1.592277e+05
   5.063963e+05   1.121007e+06
  -6.620378e+05   1.508644e+06
  -1.414567e+06   7.301087e+05
  -1.143650e+06  -7.365660e+05
  -1.715493e+05  -1.669348e+06
   6.789065e+05  -1.252409e+06
   8.719518e+05   8.561083e+04
   4.772266e+05   1.083375e+06
  -1.003275e+05   9.471894e+05
  -4.867165e+05   1.209192e+05
  -5.016251e+05  -3.624516e+05
  -2.303722e+05  -1.513285e+05
  -1.387570e+04   1.124826e+05
  -1.438134e+05  -2.165595e+05
  -4.279782e+05  -8.640646e+05
  -2.740885e+05  -1.009351e+06
   5.466786e+05  -3.823188e+05
   1.374265e+06   4.278296e+05
   1.269982e+06   7.670410e+05
   1.825832e+05   6.231461e+05
  -8.626341e+05   3.780277e+05
  -9.345274e+05   1.990674e+05
  -2.660245e+05  -1.928675e+03
   1.642489e+05  -1.993701e+05
  -5.875416e+04  -2.341114e+05
  -3.406438e+05  -1.392825e+05
  -8.402178e+03  -1.285446e+05
   7.121272e+05  -1.779029e+05
   9.482646e+05   4.466151e+04
   2.523059e+05   6.217088e+05
  -8.697781e+05   1.018134e+06
  -1.498646e+06   6.128773e+05
  -1.173478e+06  -4.589498e+05
  -2.056800e+05  -1.307766e+06
   6.870146e+05  -1.224383e+06
   9.640719e+05  -4.221659e+05
   6.131315e+05   2.698213e+05
   7.970253e+04   3.280526e+05
  -1.460803e+05   5.691216e+03
   4.404803e+04  -7.783464e+04
   3.161886e+05   3.107162e+05
   2.583621e+05   7.418233e+05
  -1.881667e+05   6.015220e+05
  -6.416961e+05  -1.775787e+05
  -6.160130e+05  -9.382722e+05
   1.449677e+03  -9.368437e+05
   7.460503e+05  -1.359645e+05
   9.138703e+05   7.484434e+05
   2.522875e+05   9.968352e+05
  -6.738380e+05   5.500746e+05
  -9.811690e+05  -1.037781e+05
  -4.315912e+05  -5.069584e+05
   2.635125e+05  -5.399313e+05
   2.800643e+05  -3.144991e+05
  -3.043190e+05  -4.013643e+04
  -6.159175e+05   1.764917e+04
  -1.044670e+05  -2.685698e+05
   7.621094e+05  -6.253298e+05
   1.091414e+06  -5.417031e+05
   6.187448e+05   1.088167e+05
  -1.033587e+05   7.644737e+05
  -4.460340e+05   7.467995e+05
  -3.146377e+05   8.773026e+04
  -3.956439e+03  -4.715431e+05
   2.382155e+05  -3.546930e+05
   3.259620e+05   2.067535e+05
   2.160934e+05   5.340227e+05
  -7.168103e+04   3.279419e+05
  -3.548750e+05  -7.513273e+04
  -4.081707e+05  -2.138850e+05
  -2.200092e+05  -4.764687e+04
  -5.342527e+03   8.406084e+04
   7.325410e+04  -7.137012e+04
   8.804751e+04  -3.690185e+05
   1.878905e+05  -4.287255e+05
   3.389895e+05  -7.138815e+04
   3.247605e+05   4.350297e+05
   1.443831e+04   6.068211e+05
  -4.126529e+05   2.497344e+05
  -5.597007e+05  -3.095341e+05
  -1.909316e+05  -5.561053e+05
   4.482604e+05  -3.186284e+05
   7.668152e+05   1.105069e+05
   4.138974e+05   3.532083e+05
  -2.741021e+05   3.115982e+05
  -5.698887e+05   1.380733e+05
  -1.758359e+05   2.379700e+03
   3.936345e+05  -3.999822e+03
   4.028149e+05   1.394849e+05
  -2.184859e+05   3.110881e+05
  -7.849506e+05   2.380397e+05
