
 $NMID
 id='ANONYMOUS ', fmtdat='(2E16.6)'
 volume=1.0
 tramp=1.0
 $END
  -2.517365e+07  -1.196108e+06
  -1.661244e+07  -1.222522e+07
   3.249963e+05  -1.593765e+07
   1.134378e+07  -1.065803e+07
   9.591540e+06  -1.113549e+06
   6.248948e+05   4.694427e+06
  -5.424622e+06   2.409959e+06
  -4.057142e+06  -4.275466e+06
   1.381179e+06  -7.357277e+06
   5.020531e+06  -3.199046e+06
   4.086818e+06   3.572854e+06
   2.560248e+05   5.560091e+06
  -2.602561e+06   9.613717e+05
  -1.820264e+06  -4.806215e+06
   1.761022e+06  -5.458175e+06
   4.419510e+06  -4.269547e+05
   3.095652e+06   5.229031e+06
  -1.387382e+06   6.441212e+06
  -5.046642e+06   2.831425e+06
  -4.864472e+06  -1.781704e+06
  -1.794735e+06  -3.663540e+06
   5.706356e+05  -2.603440e+06
  -1.113508e+04  -1.362201e+06
  -2.123441e+06  -2.162773e+06
  -2.318133e+06  -4.169068e+06
   1.054477e+06  -4.631139e+06
   5.668718e+06  -2.187048e+06
   7.161750e+06   1.537266e+06
   3.661930e+06   3.643187e+06
  -1.790412e+06   2.758761e+06
  -4.060445e+06   5.068816e+03
  -1.334773e+06  -2.220970e+06
   2.999374e+06  -2.074796e+06
   4.308262e+06   4.627191e+05
   1.775334e+06   3.362418e+06
  -1.344564e+06   3.948985e+06
  -1.981813e+06   1.500663e+06
  -4.327146e+05  -1.518259e+06
   8.608130e+05  -1.790333e+06
   4.364207e+05   9.501632e+05
  -1.070724e+06   3.286353e+06
  -2.158233e+06   2.127844e+06
  -1.833084e+06  -1.386012e+06
  -1.241111e+05  -3.142335e+06
   1.792412e+06  -1.024085e+06
   2.049281e+06   2.591842e+06
  -2.823585e+05   3.697844e+06
  -3.625672e+06   1.113092e+06
  -4.780385e+06  -2.606160e+06
  -2.146169e+06  -4.163509e+06
   2.217486e+06  -2.623905e+06
   4.434885e+06   2.771014e+05
   2.754736e+06   2.093799e+06
  -7.840803e+05   1.714773e+06
  -2.678498e+06  -4.822076e+03
  -1.548208e+06  -1.221094e+06
   7.989324e+05  -8.261155e+05
   1.610093e+06   5.726565e+05
   1.528454e+05   1.376404e+06
  -1.645508e+06   6.942476e+05
  -1.436848e+06  -7.677616e+05
   8.287893e+05  -1.464986e+06
   2.673868e+06  -4.971512e+05
   1.736418e+06   1.588914e+06
  -1.568848e+06   3.180799e+06
  -4.398289e+06   2.786216e+06
  -4.460074e+06   2.763351e+05
  -2.215356e+06  -2.781044e+06
   4.745655e+04  -4.319425e+06
   8.457356e+05  -3.664468e+06
   7.065806e+05  -2.093118e+06
   9.581991e+05  -1.219772e+06
   1.982739e+06  -1.070551e+06
   2.906554e+06  -3.270478e+05
   2.652377e+06   1.530344e+06
   1.005389e+06   3.070745e+06
  -1.149010e+06   2.446652e+06
  -2.376104e+06  -2.353254e+05
  -1.693494e+06  -2.711711e+06
   5.296977e+05  -2.832696e+06
   2.622365e+06  -6.637063e+05
   2.940417e+06   1.817927e+06
   1.401712e+06   2.806284e+06
  -4.593654e+05   2.186126e+06
  -1.170949e+06   1.167165e+06
  -9.146321e+05   7.966738e+05
  -1.127513e+06   9.708919e+05
  -2.507647e+06   7.493398e+05
  -3.819314e+06  -5.369469e+05
  -3.093783e+06  -2.486178e+06
  -6.927065e+03  -3.827451e+06
   3.328415e+06  -3.435731e+06
   4.266315e+06  -1.339029e+06
   2.279585e+06   1.122408e+06
  -5.288425e+05   2.250941e+06
  -1.608916e+06   1.422697e+06
  -4.428414e+05  -2.779128e+05
   1.268703e+06  -1.044916e+06
   1.644661e+06  -2.016785e+05
   5.047895e+05   1.049233e+06
  -7.515480e+05   1.022943e+06
  -7.661991e+05  -3.451044e+05
   4.808136e+05  -1.239730e+06
   1.759441e+06  -7.622314e+04
   1.695276e+06   2.437416e+06
  -8.113135e+04   3.828475e+06
  -2.523116e+06   2.481098e+06
  -3.846179e+06  -6.286384e+05
  -2.967273e+06  -2.973664e+06
  -5.575730e+05  -2.996904e+06
   1.445223e+06  -1.378242e+06
   1.633514e+06   1.456366e+04
   4.699029e+05   7.213550e+04
  -3.199754e+05  -7.199526e+05
   2.997203e+05  -1.106086e+06
   1.542001e+06  -4.574534e+05
   1.767239e+06   6.600906e+05
   4.561684e+05   1.161693e+06
  -1.070723e+06   5.809510e+05
  -1.054226e+06  -4.583033e+05
   6.941879e+05  -8.447251e+05
   2.419118e+06  -3.707172e+04
   2.186086e+06   1.407830e+06
  -6.100438e+04   2.285774e+06
  -2.370212e+06   1.780390e+06
  -2.739857e+06   2.204319e+05
  -1.082136e+06  -1.127842e+06
   8.301442e+05  -1.173163e+06
   1.230903e+06  -6.853379e+04
   8.728151e+03   8.871653e+05
  -1.422556e+06   5.809276e+05
  -1.635583e+06  -7.012966e+05
  -4.855018e+05  -1.581468e+06
   9.062523e+05  -1.139821e+06
   1.280979e+06   6.480032e+04
   4.260943e+05   6.748724e+05
  -6.216751e+05   7.237650e+04
  -5.909409e+05  -9.941150e+05
   6.805522e+05  -1.279552e+06
   1.959308e+06  -3.269467e+05
   1.839903e+06   1.145575e+06
   2.636472e+05   1.958683e+06
  -1.362030e+06   1.502118e+06
  -1.627752e+06   2.173347e+05
  -5.438176e+05  -8.082481e+05
   6.169084e+05  -8.070832e+05
   7.476196e+05  -2.089354e+04
  -3.042556e+04   5.952199e+05
  -6.979706e+05   4.195946e+05
  -5.126861e+05  -1.649653e+05
   2.437106e+05  -2.691211e+05
   6.074916e+05   3.938978e+05
  -4.672264e+04   1.093915e+06
  -1.295606e+06   8.560838e+05
  -1.977489e+06  -4.560991e+05
  -1.298679e+06  -1.918290e+06
   3.360725e+05  -2.374208e+06
   1.672728e+06  -1.467254e+06
   1.823680e+06   7.223708e+04
   1.056394e+06   1.101520e+06
   3.339605e+05   1.079256e+06
   2.076804e+05   4.839479e+05
   3.281040e+05   2.141881e+05
   2.470115e+04   5.623070e+05
  -8.044591e+05   8.833141e+05
  -1.477819e+06   3.874224e+05
  -1.176757e+06  -8.115808e+05
   1.963026e+05  -1.635159e+06
   1.753060e+06  -1.117308e+06
   2.247283e+06   5.356898e+05
   1.132392e+06   2.049627e+06
  -8.809649e+05   2.237093e+06
  -2.360887e+06   1.035849e+06
  -2.363095e+06  -5.319020e+05
  -1.176150e+06  -1.352872e+06
   9.338315e+04  -1.185858e+06
   6.090721e+05  -7.091573e+05
   4.576213e+05  -6.687428e+05
   3.212563e+05  -1.031996e+06
   6.422984e+05  -1.054621e+06
   1.153132e+06  -1.970245e+05
   1.184490e+06   1.132955e+06
   4.105872e+05   1.874603e+06
  -7.087384e+05   1.357030e+06
  -1.270667e+06  -2.510848e+04
  -7.898597e+05  -1.185328e+06
   2.803759e+05  -1.326288e+06
   9.663716e+05  -5.464025e+05
   7.481710e+05   4.087603e+05
   4.999880e+04   8.789842e+05
  -2.945812e+05   7.860086e+05
  -2.711640e+03   5.145304e+05
   3.475618e+05   4.032108e+05
   3.329551e+03   3.963982e+05
  -1.031912e+06   1.860859e+05
  -1.852934e+06  -3.627000e+05
  -1.516281e+06  -9.941276e+05
  -6.263671e+04  -1.273625e+06
   1.398893e+06  -9.801843e+05
   1.725876e+06  -3.001506e+05
   8.589246e+05   3.058130e+05
  -1.870191e+05   4.408166e+05
  -4.446637e+05   1.005447e+05
   5.027816e+04  -2.726799e+05
   5.110929e+05  -1.813622e+05
   4.209241e+05   3.604104e+05
   3.949916e+04   7.489908e+05
  -8.675587e+04   4.692327e+05
   1.653038e+05  -1.950413e+05
   4.222323e+05  -3.978937e+05
   2.871437e+05   2.242990e+05
  -2.754223e+05   9.984226e+05
  -9.201287e+05   9.542194e+05
  -1.132159e+06   1.411297e+03
  -5.850716e+05  -9.261234e+05
   4.550795e+05  -9.303407e+05
   1.117776e+06  -1.088807e+05
   6.504522e+05   6.480341e+05
  -6.785550e+05   6.275393e+05
  -1.618816e+06  -9.450168e+04
  -1.151246e+06  -8.688106e+05
   3.769498e+05  -1.084169e+06
   1.548651e+06  -6.102606e+05
   1.348602e+06   1.449725e+05
   1.838026e+05   5.542465e+05
  -6.355180e+05   3.063049e+05
  -3.106048e+05  -2.535515e+05
   6.696958e+05  -3.919403e+05
   1.124670e+06   2.666112e+05
   4.349855e+05   1.243194e+06
  -8.452154e+05   1.553160e+06
  -1.579413e+06   6.602267e+05
  -1.171348e+06  -8.814685e+05
  -6.158508e+04  -1.809741e+06
   8.199511e+05  -1.313240e+06
   9.396535e+05   1.346444e+05
   4.576871e+05   1.197854e+06
  -1.509214e+05   1.029771e+06
  -5.255806e+05   1.083796e+05
  -5.314077e+05  -4.322727e+05
  -2.563396e+05  -1.892935e+05
  -1.597598e+04   1.278713e+05
  -1.121796e+05  -2.225507e+05
  -3.891871e+05  -9.495650e+05
  -2.482067e+05  -1.112843e+06
   5.858927e+05  -3.826682e+05
   1.450291e+06   5.573920e+05
   1.334350e+06   9.174399e+05
   1.563610e+05   6.776233e+05
  -9.734792e+05   3.388877e+05
  -1.027106e+06   1.545793e+05
  -2.703283e+05  -4.904126e+03
   1.982094e+05  -1.986640e+05
  -6.889788e+04  -2.726310e+05
  -3.794103e+05  -1.930688e+05
   1.087787e+04  -1.382904e+05
   8.034488e+05  -1.241796e+05
   1.009136e+06   1.241140e+05
   1.873905e+05   6.736597e+05
  -1.029245e+06   1.008061e+06
  -1.630436e+06   5.316655e+05
  -1.189365e+06  -5.870861e+05
  -1.135231e+05  -1.420168e+06
   8.177135e+05  -1.255051e+06
   1.060926e+06  -3.640553e+05
   6.387670e+05   3.497814e+05
   5.001662e+04   3.551096e+05
  -1.770247e+05  -2.425224e+04
   4.765096e+04  -9.955166e+04
   3.298951e+05   3.505944e+05
   2.331157e+05   8.160447e+05
  -2.503939e+05   6.243829e+05
  -6.767413e+05  -2.563527e+05
  -5.722711e+05  -1.065940e+06
   9.907075e+04  -9.962390e+05
   8.208959e+05  -6.295082e+04
   9.114989e+05   8.917487e+05
   1.797252e+05   1.082955e+06
  -7.640978e+05   5.199093e+05
  -1.030109e+06  -1.895631e+05
  -4.133592e+05  -5.558828e+05
   3.170176e+05  -5.364454e+05
   3.020709e+05  -3.143081e+05
  -3.442886e+05  -7.840714e+04
  -6.667966e+05  -3.179186e+04
  -8.481701e+04  -2.898709e+05
   8.639412e+05  -6.165928e+05
   1.193614e+06  -5.198021e+05
   6.354492e+05   1.409043e+05
  -1.683039e+05   8.021424e+05
  -5.122563e+05   7.611577e+05
  -3.182236e+05   5.792995e+04
   4.477532e+04  -5.129551e+05
   2.840848e+05  -3.491324e+05
   3.316108e+05   2.665527e+05
   1.880601e+05   5.887341e+05
  -1.038095e+05   3.264050e+05
  -3.721816e+05  -1.160555e+05
  -4.165449e+05  -2.443727e+05
  -2.341439e+05  -5.475187e+04
  -1.967663e+04   7.184179e+04
   8.918716e+04  -1.042946e+05
   1.529130e+05  -3.971465e+05
   2.703398e+05  -4.157717e+05
   3.752545e+05  -1.115988e+04
   2.835836e+05   5.105805e+05
  -6.758123e+04   6.483775e+05
  -4.698427e+05   2.242954e+05
  -5.600631e+05  -3.855480e+05
  -1.503180e+05  -6.168753e+05
   4.977178e+05  -3.053223e+05
   7.992752e+05   1.839200e+05
   4.103171e+05   4.093426e+05
  -3.147447e+05   2.974181e+05
  -6.122384e+05   8.641922e+04
  -1.717245e+05  -1.142513e+04
   4.420035e+05   4.623469e+04
   4.259995e+05   2.048341e+05
  -2.787476e+05   3.273928e+05
  -8.895931e+05   1.892318e+05
