
 $NMID
 id='ANONYMOUS ', fmtdat='(2E16.6)'
 volume=1.0
 tramp=1.0
 $END
   1.312223e+07  -6.610740e+05
   8.940811e+06   6.044492e+06
   1.234018e+05   8.409117e+06
  -5.522500e+06   5.471352e+06
  -4.596992e+06   4.394004e+05
  -2.409751e+05  -2.334827e+06
   2.564271e+06  -1.104563e+06
   1.922647e+06   2.041426e+06
  -5.603931e+05   3.454752e+06
  -2.360585e+06   1.578502e+06
  -2.155354e+06  -1.570267e+06
  -3.951269e+05  -2.653398e+06
   1.212784e+06  -6.511391e+05
   1.094266e+06   2.102232e+06
  -6.435331e+05   2.578578e+06
  -2.146125e+06   2.870585e+05
  -1.690888e+06  -2.475842e+06
   4.681169e+05  -3.234794e+06
   2.415550e+06  -1.659143e+06
   2.595127e+06   5.984696e+05
   1.243698e+06   1.786365e+06
  -7.684547e+04   1.548150e+06
  -1.230519e+05   8.720828e+05
   8.069063e+05   8.717405e+05
   1.168218e+06   1.612628e+06
  -1.616187e+05   2.088588e+06
  -2.407710e+06   1.384961e+06
  -3.423030e+06  -2.231975e+05
  -2.010876e+06  -1.491994e+06
   5.533394e+05  -1.469921e+06
   1.805412e+06  -3.585979e+05
   7.837071e+05   7.963261e+05
  -1.087973e+06   1.012195e+06
  -1.821603e+06   6.611753e+04
  -9.776964e+05  -1.298107e+06
   2.945477e+05  -1.825928e+06
   8.103532e+05  -8.979841e+05
   4.360420e+05   5.869170e+05
  -1.514450e+05   9.609873e+05
  -2.705048e+05  -2.309116e+05
   2.295664e+05  -1.469967e+06
   8.742766e+05  -1.059534e+06
   9.129959e+05   6.414310e+05
   4.657747e+04   1.566209e+06
  -1.056018e+06   5.277252e+05
  -1.211120e+06  -1.321786e+06
   5.355297e+04  -1.943249e+06
   1.788636e+06  -7.398039e+05
   2.379366e+06   1.041865e+06
   1.133858e+06   1.858795e+06
  -9.381328e+05   1.277625e+06
  -2.034960e+06   1.296979e+04
  -1.299763e+06  -8.861396e+05
   3.732472e+05  -8.291624e+05
   1.305529e+06  -6.406519e+04
   7.660995e+05   5.670096e+05
  -3.769044e+05   4.397921e+05
  -7.522954e+05  -2.080694e+05
  -4.495464e+04  -5.779157e+05
   7.447434e+05  -2.387041e+05
   5.476064e+05   4.305124e+05
  -5.253944e+05   7.090809e+05
  -1.315590e+06   2.311082e+05
  -8.754623e+05  -7.664772e+05
   5.640367e+05  -1.609976e+06
   1.862344e+06  -1.568078e+06
   2.076138e+06  -4.190536e+05
   1.257688e+06   1.159985e+06
   2.379340e+05   2.037798e+06
  -2.671918e+05   1.732700e+06
  -2.756418e+05   9.052564e+05
  -3.133163e+05   4.982778e+05
  -7.057389e+05   5.723921e+05
  -1.202345e+06   3.815706e+05
  -1.271745e+06  -4.445574e+05
  -6.635174e+05  -1.255308e+06
   3.228681e+05  -1.134673e+06
   1.025664e+06  -4.034357e+04
   8.893189e+05   1.090055e+06
  -6.800584e+04   1.297610e+06
  -1.149353e+06   4.815937e+05
  -1.490388e+06  -6.355556e+05
  -8.629683e+05  -1.244316e+06
   8.179700e+04  -1.116740e+06
   5.349694e+05  -6.622045e+05
   4.462183e+05  -4.125658e+05
   4.943119e+05  -4.667724e+05
   1.103703e+06  -4.388607e+05
   1.755675e+06   6.724791e+04
   1.519521e+06   9.739836e+05
   1.958576e+05   1.722261e+06
  -1.308217e+06   1.719722e+06
  -1.832101e+06   8.498731e+05
  -1.096280e+06  -3.498928e+05
   7.791910e+04  -1.031518e+06
   6.218360e+05  -7.444677e+05
   2.218112e+05   8.993659e+04
  -5.054776e+05   5.460039e+05
  -7.429837e+05   1.809439e+05
  -3.014791e+05  -4.563930e+05
   2.748459e+05  -5.014138e+05
   3.417292e+05   1.184865e+05
  -1.869013e+05   5.445966e+05
  -7.834557e+05   4.024091e+04
  -8.078352e+05  -1.062589e+06
  -5.934539e+04  -1.680213e+06
   1.036278e+06  -1.143224e+06
   1.706926e+06   1.421913e+05
   1.423007e+06   1.166751e+06
   3.880334e+05   1.284058e+06
  -5.649694e+05   6.885255e+05
  -7.261567e+05   8.590484e+04
  -2.141243e+05  -8.834127e+03
   1.809002e+05   3.078865e+05
  -8.692173e+04   5.232010e+05
  -6.891581e+05   2.862931e+05
  -8.380559e+05  -2.241990e+05
  -2.560095e+05  -5.144873e+05
   4.568557e+05  -3.135644e+05
   4.856965e+05   1.513947e+05
  -2.736950e+05   3.916265e+05
  -1.059534e+06   1.153754e+05
  -1.016319e+06  -5.155338e+05
  -7.407291e+04  -1.001908e+06
   9.657664e+05  -9.010159e+05
   1.213224e+06  -2.331896e+05
   5.447700e+05   4.609213e+05
  -3.209959e+05   5.841063e+05
  -5.676995e+05   9.591606e+04
  -5.876403e+04  -4.093407e+05
   6.131762e+05  -3.384458e+05
   7.692484e+05   2.390917e+05
   2.837982e+05   6.872432e+05
  -3.613908e+05   5.430162e+05
  -5.745882e+05   1.778928e+04
  -2.131811e+05  -2.887025e+05
   2.843845e+05  -6.428164e+04
   3.226236e+05   4.161692e+05
  -2.324064e+05   6.124799e+05
  -8.593884e+05   2.552482e+05
  -8.877873e+05  -4.151541e+05
  -2.195346e+05  -8.678963e+05
   5.404457e+05  -7.439902e+05
   7.224892e+05  -1.735316e+05
   2.793421e+05   3.401709e+05
  -2.396421e+05   3.914281e+05
  -3.278905e+05   4.961366e+04
  -1.306274e+04  -2.536229e+05
   2.764745e+05  -2.108069e+05
   2.140895e+05   3.975438e+04
  -1.046489e+05   1.100176e+05
  -2.819763e+05  -1.611138e+05
  -2.267420e+04  -4.929636e+05
   5.396086e+05  -4.457057e+05
   9.085860e+05   1.044391e+05
   6.812258e+05   7.929292e+05
  -2.828963e+04   1.076967e+06
  -6.715737e+05   7.311849e+05
  -8.078631e+05   5.207745e+04
  -5.111983e+05  -4.281530e+05
  -1.993234e+05  -4.396698e+05
  -1.314134e+05  -1.900670e+05
  -1.731594e+05  -8.498614e+04
  -4.114986e+04  -2.595334e+05
   3.189527e+05  -4.312621e+05
   6.349960e+05  -2.398082e+05
   5.538464e+05   2.975313e+05
  -1.090708e+04   7.252635e+05
  -7.229604e+05   5.792375e+05
  -1.026055e+06  -1.260589e+05
  -6.042440e+05  -8.607079e+05
   2.911683e+05  -1.047045e+06
   1.012457e+06  -5.756702e+05
   1.078163e+06   1.303728e+05
   5.767182e+05   5.452756e+05
   9.450869e+03   5.187758e+05
  -2.238032e+05   3.338767e+05
  -1.494170e+05   3.254725e+05
  -8.110008e+04   4.918316e+05
  -2.374186e+05   5.147138e+05
  -5.127644e+05   1.505890e+05
  -5.917985e+05  -4.445486e+05
  -2.824897e+05  -8.168944e+05
   2.451131e+05  -6.441859e+05
   5.687342e+05  -5.208127e+04
   4.109871e+05   4.955058e+05
  -6.706378e+04   6.086432e+05
  -4.154140e+05   2.822116e+05
  -3.565614e+05  -1.623419e+05
  -5.488989e+04  -4.003384e+05
   1.068217e+05  -3.643523e+05
  -1.883279e+04  -2.239994e+05
  -1.785646e+05  -1.588015e+05
  -2.354329e+04  -1.750507e+05
   4.567394e+05  -1.338131e+05
   8.541774e+05   6.986391e+04
   7.294594e+05   3.715088e+05
   8.456151e+04   5.737344e+05
  -5.864129e+05   5.140127e+05
  -7.609498e+05   2.161102e+05
  -3.964774e+05  -1.054862e+05
   6.617564e+04  -2.125828e+05
   1.968141e+05  -6.238603e+04
  -5.248416e+03   1.318138e+05
  -2.153233e+05   1.089726e+05
  -2.079031e+05  -1.395737e+05
  -6.537694e+04  -3.300802e+05
   5.749978e+03  -2.138316e+05
  -6.234350e+04   8.870941e+04
  -1.598920e+05   1.917765e+05
  -1.373976e+05  -8.525370e+04
   6.631755e+04  -4.560761e+05
   3.612073e+05  -4.758222e+05
   5.163955e+05  -6.618382e+04
   3.206610e+05   3.828487e+05
  -1.549601e+05   4.481988e+05
  -5.002478e+05   1.155903e+05
  -3.255616e+05  -2.529645e+05
   2.734727e+05  -3.132571e+05
   7.237485e+05  -3.555449e+04
   5.459888e+05   3.311547e+05
  -1.219710e+05   4.952725e+05
  -6.574212e+05   3.387579e+05
  -6.009788e+05  -2.055773e+03
  -1.057971e+05  -2.357499e+05
   2.692945e+05  -1.653445e+05
   1.553769e+05   1.000921e+05
  -2.740674e+05   2.148621e+05
  -5.173622e+05  -5.309874e+04
  -2.679262e+05  -5.289845e+05
   2.864464e+05  -7.415104e+05
   6.661550e+05  -3.835083e+05
   5.692596e+05   3.290353e+05
   1.228924e+05   8.021958e+05
  -2.972900e+05   6.234161e+05
  -4.242580e+05  -1.703029e+04
  -2.603501e+05  -5.111048e+05
   2.123167e+04  -4.626703e+05
   2.308949e+05  -7.262413e+04
   2.538748e+05   1.634845e+05
   1.180689e+05   6.889696e+04
   3.094317e+03  -5.593200e+04
   7.094080e+04   9.781157e+04
   2.266588e+05   4.053238e+05
   1.609326e+05   4.822154e+05
  -2.503801e+05   1.998036e+05
  -6.746089e+05  -1.729233e+05
  -6.354507e+05  -3.396788e+05
  -1.040338e+05  -2.954284e+05
   4.100509e+05  -2.025128e+05
   4.475082e+05  -1.200509e+05
   1.261192e+05  -8.054293e+03
  -7.572211e+04   9.974529e+04
   3.715302e+04   1.141103e+05
   1.712528e+05   6.150253e+04
   5.862300e+03   6.147410e+04
  -3.429391e+05   1.009046e+05
  -4.578497e+05   6.825271e+02
  -1.312819e+05  -2.918868e+05
   3.981632e+05  -5.092555e+05
   7.048644e+05  -3.297047e+05
   5.717720e+05   1.942117e+05
   1.291541e+05   6.261436e+05
  -3.001886e+05   6.060457e+05
  -4.538745e+05   2.244497e+05
  -3.023877e+05  -1.172991e+05
  -4.494626e+04  -1.557201e+05
   7.311151e+04  -3.327321e+03
  -1.858366e+04   4.151744e+04
  -1.621902e+05  -1.412672e+05
  -1.444761e+05  -3.518656e+05
   7.666185e+04  -2.939698e+05
   3.142175e+05   7.268781e+04
   3.171996e+05   4.398693e+05
   1.773200e+04   4.508143e+05
  -3.582738e+05   7.941678e+04
  -4.568852e+05  -3.422923e+05
  -1.431422e+05  -4.740098e+05
   3.117829e+05  -2.785080e+05
   4.735231e+05   2.709495e+04
   2.187870e+05   2.309129e+05
  -1.128996e+05   2.633397e+05
  -1.240874e+05   1.584629e+05
   1.508025e+05   1.427287e+04
   2.972699e+05  -2.255662e+04
   5.571321e+04   1.260590e+05
  -3.526654e+05   3.204189e+05
  -5.110226e+05   2.907124e+05
  -2.981862e+05  -3.428513e+04
   3.157682e+04  -3.698297e+05
   1.939346e+05  -3.700678e+05
   1.456576e+05  -4.801622e+04
   1.104192e+04   2.283410e+05
  -1.066355e+05   1.746898e+05
  -1.616686e+05  -9.503500e+04
  -1.164680e+05  -2.523666e+05
   2.699380e+04  -1.568740e+05
   1.725839e+05   2.907992e+04
   2.013599e+05   9.105126e+04
   1.075702e+05   1.582218e+04
   1.585550e+03  -3.792779e+04
  -3.457954e+04   4.119363e+04
  -3.832583e+04   1.812372e+05
  -8.583680e+04   2.066567e+05
  -1.626623e+05   3.643685e+04
  -1.621299e+05  -2.049776e+05
  -1.578870e+04  -2.916835e+05
   1.942968e+05  -1.283744e+05
   2.747294e+05   1.375648e+05
   1.034792e+05   2.644877e+05
  -2.074792e+05   1.640375e+05
  -3.702647e+05  -3.602261e+04
  -2.070902e+05  -1.603670e+05
   1.243366e+05  -1.545010e+05
   2.702302e+05  -7.742511e+04
   8.221105e+04  -5.189241e+03
  -1.927941e+05   8.189126e+03
  -1.983600e+05  -6.150373e+04
   1.012020e+05  -1.568702e+05
   3.775585e+05  -1.324605e+05
