
 $NMID
 id='ANONYMOUS ', fmtdat='(2E16.6)'
 volume=1.0
 tramp=1.0
 $END
  -2.363231e+07  -2.465056e+06
  -1.398264e+07  -1.285416e+07
   2.013800e+06  -1.461941e+07
   1.082075e+07  -8.347526e+06
   7.977744e+06  -1.846960e+03
  -1.614154e+04   4.006933e+06
  -4.580322e+06   1.524519e+06
  -2.991590e+06  -3.837720e+06
   1.522900e+06  -5.991161e+06
   4.410103e+06  -2.358911e+06
   3.539679e+06   3.298690e+06
   1.731531e+05   4.910074e+06
  -2.379492e+06   9.076860e+05
  -1.641001e+06  -4.070218e+06
   1.588292e+06  -4.536656e+06
   3.835731e+06  -7.221261e+04
   2.465602e+06   4.787739e+06
  -1.573677e+06   5.673064e+06
  -4.764045e+06   2.379614e+06
  -4.560257e+06  -1.800884e+06
  -1.713237e+06  -3.652139e+06
   7.230807e+05  -2.762904e+06
   5.182109e+05  -1.322136e+06
  -1.453342e+06  -1.529962e+06
  -2.058270e+06  -3.175255e+06
   6.397653e+05  -3.931634e+06
   4.802250e+06  -2.143438e+06
   6.340815e+06   1.128276e+06
   3.372300e+06   3.223866e+06
  -1.420858e+06   2.662186e+06
  -3.527246e+06   3.239465e+05
  -1.403723e+06  -1.715199e+06
   2.180427e+06  -1.861155e+06
   3.496305e+06   7.659350e+04
   1.717056e+06   2.630758e+06
  -8.643726e+05   3.453440e+06
  -1.760999e+06   1.498471e+06
  -7.179627e+05  -1.327170e+06
   5.920596e+05  -1.834563e+06
   6.062784e+05   5.687904e+05
  -6.488128e+05   2.788116e+06
  -1.788510e+06   1.813549e+06
  -1.484456e+06  -1.304630e+06
   2.414849e+05  -2.687780e+06
   1.894219e+06  -5.420251e+05
   1.721556e+06   2.679089e+06
  -6.166498e+05   3.373600e+06
  -3.397182e+06   8.553965e+05
  -4.091929e+06  -2.367059e+06
  -1.726047e+06  -3.555557e+06
   1.900252e+06  -2.154695e+06
   3.683018e+06   2.946554e+05
   2.217558e+06   1.776319e+06
  -7.830656e+05   1.372571e+06
  -2.319982e+06  -1.478062e+05
  -1.246227e+06  -1.133349e+06
   7.602670e+05  -6.866371e+05
   1.332667e+06   4.886910e+05
   6.601117e+04   1.005164e+06
  -1.258399e+06   3.558302e+05
  -8.634308e+05  -6.895338e+05
   1.000896e+06  -1.017569e+06
   2.307471e+06  -1.423032e+05
   1.367393e+06   1.521518e+06
  -1.397991e+06   2.839344e+06
  -3.792840e+06   2.544129e+06
  -3.951421e+06   3.301912e+05
  -2.074476e+06  -2.459776e+06
  -9.612957e+03  -3.818239e+06
   7.837721e+05  -3.092739e+06
   5.709204e+05  -1.616072e+06
   6.069437e+05  -9.703011e+05
   1.458032e+06  -1.063655e+06
   2.407635e+06  -5.429259e+05
   2.376289e+06   1.084609e+06
   1.063972e+06   2.513386e+06
  -7.891554e+05   2.117722e+06
  -1.947293e+06  -5.456411e+04
  -1.509921e+06  -2.171125e+06
   3.449104e+05  -2.416224e+06
   2.250193e+06  -6.802544e+05
   2.657381e+06   1.504245e+06
   1.313399e+06   2.509841e+06
  -4.390499e+05   2.028099e+06
  -1.146444e+06   1.050938e+06
  -8.768037e+05   6.228644e+05
  -9.579941e+05   7.617683e+05
  -2.092247e+06   6.256282e+05
  -3.223632e+06  -4.217612e+05
  -2.644424e+06  -2.057193e+06
  -7.545773e+04  -3.223554e+06
   2.724448e+06  -2.980448e+06
   3.573868e+06  -1.276417e+06
   2.002369e+06   8.557160e+05
  -3.263283e+05   1.940875e+06
  -1.304024e+06   1.296139e+06
  -4.009193e+05  -2.109495e+05
   1.039399e+06  -9.313756e+05
   1.401926e+06  -1.999972e+05
   4.660403e+05   9.056902e+05
  -5.923084e+05   8.910722e+05
  -6.141693e+05  -2.531579e+05
   3.875787e+05  -9.578186e+05
   1.380206e+06   2.111332e+04
   1.304247e+06   2.012450e+06
  -8.582901e+04   3.054360e+06
  -2.009446e+06   1.963796e+06
  -3.117971e+06  -4.752345e+05
  -2.491512e+06  -2.351537e+06
  -5.445669e+05  -2.447001e+06
   1.164906e+06  -1.200113e+06
   1.373818e+06  -4.578105e+04
   3.968178e+05   4.974145e+04
  -2.822510e+05  -5.992149e+05
   2.536115e+05  -9.401386e+05
   1.315619e+06  -3.972856e+05
   1.493017e+06   5.524937e+05
   3.793904e+05   9.757703e+05
  -8.892447e+05   4.975224e+05
  -8.741576e+05  -3.497127e+05
   5.527501e+05  -6.803093e+05
   1.971316e+06  -6.622828e+04
   1.817170e+06   1.094289e+06
   1.470296e+03   1.866995e+06
  -1.925702e+06   1.525903e+06
  -2.285962e+06   2.415383e+05
  -9.265790e+05  -9.392644e+05
   6.989177e+05  -1.016335e+06
   1.061027e+06  -6.915334e+04
   2.772443e+04   7.693594e+05
  -1.193337e+06   5.195401e+05
  -1.378916e+06  -5.644938e+05
  -4.186338e+05  -1.304088e+06
   7.370606e+05  -9.409535e+05
   1.049411e+06   4.820710e+04
   3.451215e+05   5.505655e+05
  -5.312489e+05   5.864243e+04
  -5.213008e+05  -8.329315e+05
   5.430430e+05  -1.100940e+06
   1.646784e+06  -3.275176e+05
   1.580945e+06   9.235958e+05
   2.614786e+05   1.646166e+06
  -1.121824e+06   1.286246e+06
  -1.360238e+06   2.062850e+05
  -4.612243e+05  -6.649689e+05
   5.016665e+05  -6.815424e+05
   6.167380e+05  -4.487122e+04
  -4.916956e+03   4.706363e+05
  -5.411856e+05   3.602101e+05
  -4.042858e+05  -9.140258e+04
   1.911691e+05  -1.853871e+05
   4.874177e+05   3.336724e+05
  -3.698370e+04   9.099083e+05
  -1.073147e+06   7.374536e+05
  -1.670043e+06  -3.439178e+05
  -1.134297e+06  -1.586996e+06
   2.249912e+05  -1.998563e+06
   1.355780e+06  -1.256232e+06
   1.506135e+06   1.841916e+04
   9.001048e+05   8.646988e+05
   3.290559e+05   8.543704e+05
   2.251577e+05   3.951377e+05
   2.970904e+05   2.015519e+05
   2.386745e+04   4.905663e+05
  -6.599684e+05   7.494766e+05
  -1.217270e+06   3.500458e+05
  -9.931460e+05  -6.357339e+05
   1.224783e+05  -1.348267e+06
   1.432988e+06  -9.656231e+05
   1.888264e+06   3.964682e+05
   9.820485e+05   1.690396e+06
  -7.096553e+05   1.884963e+06
  -1.962776e+06   8.979536e+05
  -1.970511e+06  -4.059517e+05
  -9.894723e+05  -1.087153e+06
   4.673541e+04  -9.614783e+05
   4.600989e+05  -6.017175e+05
   3.407788e+05  -6.009862e+05
   2.473029e+05  -9.062085e+05
   5.330734e+05  -9.105909e+05
   9.782245e+05  -1.882868e+05
   1.027571e+06   9.267647e+05
   3.916376e+05   1.566611e+06
  -5.614867e+05   1.158819e+06
  -1.062760e+06   5.620176e+03
  -6.774393e+05  -9.824387e+05
   2.215402e+05  -1.109636e+06
   8.018327e+05  -4.487424e+05
   6.171005e+05   3.554425e+05
   3.032757e+04   7.367807e+05
  -2.507320e+05   6.437430e+05
   7.855497e+03   4.144052e+05
   3.103999e+05   3.291081e+05
   1.690560e+04   3.332595e+05
  -8.684839e+05   1.700338e+05
  -1.572923e+06  -2.769056e+05
  -1.290161e+06  -8.090035e+05
  -5.757167e+04  -1.067726e+06
   1.174674e+06  -8.461516e+05
   1.440402e+06  -2.755634e+05
   7.065249e+05   2.525072e+05
  -1.626284e+05   3.773998e+05
  -3.698409e+05   8.218570e+04
   3.958109e+04  -2.472515e+05
   4.216215e+05  -1.733772e+05
   3.649647e+05   2.944550e+05
   6.928755e+04   6.364939e+05
  -4.709414e+04   4.068860e+05
   1.240993e+05  -1.590569e+05
   3.236346e+05  -3.411792e+05
   2.425778e+05   1.810417e+05
  -1.962193e+05   8.466830e+05
  -7.539412e+05   8.260007e+05
  -9.772759e+05   2.343451e+04
  -5.316714e+05  -7.784173e+05
   3.719223e+05  -8.067267e+05
   9.588345e+05  -1.241976e+05
   5.684476e+05   5.261651e+05
  -5.565091e+05   5.370500e+05
  -1.348360e+06  -4.385741e+04
  -9.643840e+05  -6.897699e+05
   2.950477e+05  -8.948545e+05
   1.264347e+06  -5.316191e+05
   1.113128e+06   8.937742e+04
   1.627641e+05   4.509780e+05
  -5.221709e+05   2.636362e+05
  -2.678398e+05  -2.143372e+05
   5.522125e+05  -3.586735e+05
   9.622660e+05   1.865472e+05
   4.145448e+05   1.039390e+06
  -6.603240e+05   1.345051e+06
  -1.311174e+06   6.108029e+05
  -1.011639e+06  -7.057528e+05
  -1.026291e+05  -1.516336e+06
   6.481155e+05  -1.115518e+06
   7.815457e+05   9.622512e+04
   4.035538e+05   9.868395e+05
  -1.071646e+05   8.505090e+05
  -4.376820e+05   9.579675e+04
  -4.495747e+05  -3.395257e+05
  -2.124898e+05  -1.406649e+05
  -1.141234e+04   1.012538e+05
  -1.085727e+05  -2.030956e+05
  -3.537725e+05  -7.945783e+05
  -2.262305e+05  -9.149425e+05
   4.941148e+05  -3.220181e+05
   1.229566e+06   4.284930e+05
   1.131594e+06   7.259962e+05
   1.451297e+05   5.659669e+05
  -7.991224e+05   3.192045e+05
  -8.510147e+05   1.554739e+05
  -2.305890e+05  -1.041641e+04
   1.581489e+05  -1.762917e+05
  -5.787088e+04  -2.110091e+05
  -3.165828e+05  -1.346338e+05
  -2.430085e+02  -1.198954e+05
   6.620138e+05  -1.419700e+05
   8.564434e+05   7.493383e+04
   1.928408e+05   5.790860e+05
  -8.324122e+05   8.929026e+05
  -1.373320e+06   4.930755e+05
  -1.038049e+06  -4.674269e+05
  -1.406242e+05  -1.193100e+06
   6.609799e+05  -1.078977e+06
   8.899541e+05  -3.434044e+05
   5.506859e+05   2.682084e+05
   5.708562e+04   3.021432e+05
  -1.445062e+05   1.131213e+03
   3.450504e+04  -7.283245e+04
   2.776626e+05   2.850724e+05
   2.126952e+05   6.759939e+05
  -1.934188e+05   5.368960e+05
  -5.807637e+05  -1.865967e+05
  -5.249580e+05  -8.788653e+05
   4.321808e+04  -8.536053e+05
   6.910837e+05  -9.370783e+04
   8.046046e+05   7.173133e+05
   1.886562e+05   9.136483e+05
  -6.340979e+05   4.694141e+05
  -8.812103e+05  -1.325581e+05
  -3.634950e+05  -4.707130e+05
   2.619960e+05  -4.708766e+05
   2.580353e+05  -2.673471e+05
  -2.840825e+05  -4.319778e+04
  -5.605309e+05  -4.218253e+03
  -8.153018e+04  -2.469151e+05
   7.088983e+05  -5.409697e+05
   9.931273e+05  -4.539013e+05
   5.428254e+05   1.190124e+05
  -1.221918e+05   6.850084e+05
  -4.237905e+05   6.514535e+05
  -2.840243e+05   5.678338e+04
   1.381167e+04  -4.330597e+05
   2.321857e+05  -3.095958e+05
   2.938515e+05   2.045665e+05
   1.765403e+05   4.912607e+05
  -8.292636e+04   2.891267e+05
  -3.205062e+05  -8.325099e+04
  -3.553815e+05  -2.041161e+05
  -1.936935e+05  -4.605996e+04
  -1.572687e+04   7.311012e+04
   5.929019e+04  -7.355330e+04
   9.830054e+04  -3.431951e+05
   2.046837e+05  -3.846945e+05
   3.238487e+05  -4.366910e+04
   2.762698e+05   4.204463e+05
  -1.924293e+04   5.605048e+05
  -3.881018e+05   2.112478e+05
  -4.947086e+05  -3.074821e+05
  -1.524660e+05  -5.152378e+05
   4.148690e+05  -2.701765e+05
   6.880421e+05   1.325973e+05
   3.603159e+05   3.353574e+05
  -2.627849e+05   2.670753e+05
  -5.234095e+05   9.732738e+04
  -1.543529e+05  -9.476968e+03
   3.686837e+05   9.256630e+03
   3.691012e+05   1.454071e+05
  -2.107943e+05   2.839069e+05
  -7.288633e+05   1.968225e+05
