
 $NMID
 id='ANONYMOUS ', fmtdat='(2E16.6)'
 volume=1.0
 tramp=1.0
 $END
   2.647438e+07   8.006614e+05
   1.662224e+07   1.391681e+07
  -1.511255e+06   1.687362e+07
  -1.192719e+07   9.599908e+06
  -8.912742e+06  -2.072466e+05
   7.146671e+04  -4.567745e+06
   5.082379e+06  -1.529313e+06
   3.220776e+06   4.296871e+06
  -1.706889e+06   6.444428e+06
  -4.825396e+06   2.568267e+06
  -3.995693e+06  -3.376720e+06
  -4.419166e+05  -5.209648e+06
   2.449643e+06  -1.168066e+06
   1.858244e+06   4.121115e+06
  -1.619643e+06   4.804116e+06
  -4.224083e+06   1.455940e+05
  -2.893627e+06  -5.148676e+06
   1.470253e+06  -6.300453e+06
   5.077518e+06  -2.940693e+06
   5.152219e+06   1.545381e+06
   2.332914e+06   3.810964e+06
  -3.711796e+05   3.256829e+06
  -5.695299e+05   1.817566e+06
   1.222345e+06   1.688733e+06
   2.012621e+06   3.057395e+06
  -4.626967e+05   3.934735e+06
  -4.734512e+06   2.465452e+06
  -6.604762e+06  -7.451235e+05
  -3.791880e+06  -3.120583e+06
   1.142149e+06  -2.858684e+06
   3.469248e+06  -6.105597e+05
   1.488601e+06   1.496521e+06
  -2.019793e+06   1.782421e+06
  -3.367969e+06   1.935709e+04
  -1.781578e+06  -2.468518e+06
   6.350939e+05  -3.466452e+06
   1.663600e+06  -1.744770e+06
   9.362397e+05   1.131790e+06
  -2.950861e+05   1.941381e+06
  -5.638223e+05  -3.281147e+05
   5.054471e+05  -2.740951e+06
   1.789915e+06  -1.912534e+06
   1.649589e+06   1.410189e+06
  -2.774010e+05   3.055183e+06
  -2.313003e+06   7.669072e+05
  -2.198987e+06  -2.916458e+06
   5.093377e+05  -3.873661e+06
   3.684578e+06  -1.181618e+06
   4.449672e+06   2.374475e+06
   1.883156e+06   3.726359e+06
  -1.972991e+06   2.287949e+06
  -3.858333e+06  -2.761590e+05
  -2.320102e+06  -1.870820e+06
   8.736806e+05  -1.508539e+06
   2.538184e+06   1.022352e+05
   1.377050e+06   1.226122e+06
  -8.097737e+05   7.913259e+05
  -1.393499e+06  -4.946977e+05
   3.668895e+04  -1.034540e+06
   1.416055e+06  -2.313243e+05
   8.245930e+05   9.544027e+05
  -1.271921e+06   1.218453e+06
  -2.607031e+06   1.448634e+05
  -1.551687e+06  -1.678893e+06
   1.300355e+06  -3.091251e+06
   3.772929e+06  -2.861757e+06
   4.096322e+06  -6.061083e+05
   2.367706e+06   2.401153e+06
   2.436297e+05   3.994805e+06
  -7.623602e+05   3.284506e+06
  -6.512375e+05   1.624136e+06
  -5.793195e+05   8.606117e+05
  -1.301641e+06   1.045498e+06
  -2.284884e+06   6.854290e+05
  -2.399511e+06  -8.985448e+05
  -1.189889e+06  -2.407323e+06
   6.664483e+05  -2.113757e+06
   1.904691e+06  -2.793064e+03
   1.570878e+06   2.121168e+06
  -2.438114e+05   2.458195e+06
  -2.250833e+06   8.319033e+05
  -2.840381e+06  -1.363543e+06
  -1.572348e+06  -2.534461e+06
   2.958425e+05  -2.219025e+06
   1.174902e+06  -1.254289e+06
   9.673176e+05  -7.247760e+05
   1.019188e+06  -7.997098e+05
   2.154841e+06  -6.832509e+05
   3.338608e+06   3.466849e+05
   2.782649e+06   2.034439e+06
   1.789093e+05   3.297360e+06
  -2.670768e+06   3.134640e+06
  -3.571064e+06   1.448487e+06
  -2.066554e+06  -7.521071e+05
   2.194559e+05  -1.956032e+06
   1.237632e+06  -1.376360e+06
   4.158390e+05   1.813313e+05
  -1.010821e+06   9.900490e+05
  -1.436483e+06   2.642693e+05
  -5.361057e+05  -9.086882e+05
   5.588339e+05  -9.226902e+05
   6.073956e+05   2.560346e+05
  -4.332429e+05   9.620601e+05
  -1.457785e+06  -8.921643e+04
  -1.330938e+06  -2.131534e+06
   1.419338e+05  -3.127814e+06
   2.088553e+06  -1.962463e+06
   3.169605e+06   4.866143e+05
   2.533714e+06   2.336147e+06
   5.955059e+05   2.449426e+06
  -1.136129e+06   1.250944e+06
  -1.384963e+06   9.878290e+04
  -4.062325e+05  -3.788009e+04
   3.070881e+05   6.039648e+05
  -2.349080e+05   9.863132e+05
  -1.354263e+06   4.604863e+05
  -1.563640e+06  -5.332660e+05
  -4.148882e+05  -1.006921e+06
   9.008121e+05  -5.328578e+05
   8.861817e+05   3.382690e+05
  -5.677225e+05   6.858254e+05
  -1.997418e+06   8.146262e+04
  -1.840593e+06  -1.078045e+06
  -2.365545e+04  -1.881534e+06
   1.920721e+06  -1.590292e+06
   2.322184e+06  -3.094557e+05
   9.830026e+05   9.394570e+05
  -6.817544e+05   1.082363e+06
  -1.101247e+06   1.184646e+05
  -7.029219e+04  -7.918950e+05
   1.203976e+06  -5.755565e+05
   1.428048e+06   5.431501e+05
   4.502003e+05   1.328196e+06
  -7.471186e+05   9.705143e+05
  -1.076758e+06  -4.281500e+04
  -3.552289e+05  -5.667825e+05
   5.536355e+05  -7.854156e+04
   5.659489e+05   8.337241e+05
  -5.107599e+05   1.142462e+06
  -1.664253e+06   3.946714e+05
  -1.645588e+06  -8.853843e+05
  -3.219324e+05  -1.674672e+06
   1.111108e+06  -1.352376e+06
   1.388433e+06  -2.473392e+05
   4.857146e+05   6.721310e+05
  -4.968918e+05   7.084512e+05
  -6.161294e+05   6.244681e+04
   7.412163e+03  -4.632386e+05
   5.317228e+05  -3.567197e+05
   3.789447e+05   8.745589e+04
  -2.177271e+05   1.721837e+05
  -5.063201e+05  -3.527646e+05
   2.449867e+04  -9.397898e+05
   1.079248e+06  -7.838226e+05
   1.715658e+06   3.007080e+05
   1.209315e+06   1.583061e+06
  -1.671219e+05   2.040140e+06
  -1.345790e+06   1.307050e+06
  -1.524960e+06   1.035920e+04
  -9.151731e+05  -8.481130e+05
  -3.405404e+05  -8.278695e+05
  -2.516993e+05  -3.661431e+05
  -3.346766e+05  -1.953701e+05
  -4.855888e+04  -5.125155e+05
   6.581440e+05  -7.830174e+05
   1.229596e+06  -3.806319e+05
   1.013155e+06   6.191357e+05
  -1.010698e+05   1.362847e+06
  -1.433018e+06   1.014265e+06
  -1.930304e+06  -3.514543e+05
  -1.044546e+06  -1.699783e+06
   6.803667e+05  -1.951733e+06
   1.990158e+06  -9.699432e+05
   2.019902e+06   3.739381e+05
   1.016808e+06   1.088143e+06
  -4.044076e+04   9.645471e+05
  -4.422029e+05   6.006712e+05
  -2.982099e+05   6.143295e+05
  -2.018238e+05   9.436254e+05
  -5.138676e+05   9.604543e+05
  -9.982747e+05   2.312111e+05
  -1.080281e+06  -9.078113e+05
  -4.511392e+05  -1.581502e+06
   5.322998e+05  -1.197604e+06
   1.082248e+06  -3.526541e+04
   7.198826e+05   9.899935e+05
  -2.037751e+05   1.144703e+06
  -8.254958e+05   4.726479e+05
  -6.521652e+05  -3.672006e+05
  -4.240620e+04  -7.710078e+05
   2.584058e+05  -6.697032e+05
  -8.527974e+03  -4.166638e+05
  -3.287753e+05  -3.188284e+05
  -2.962357e+04  -3.357464e+05
   8.883064e+05  -2.009298e+05
   1.623946e+06   2.323019e+05
   1.343517e+06   7.906478e+05
   8.337862e+04   1.101882e+06
  -1.184035e+06   9.108113e+05
  -1.468757e+06   3.190641e+05
  -7.302349e+05  -2.551247e+05
   1.575390e+05  -4.011901e+05
   3.820963e+05  -8.991672e+04
  -2.255352e+04   2.618876e+05
  -4.168075e+05   1.909548e+05
  -3.832655e+05  -2.870272e+05
  -1.030459e+05  -6.366869e+05
   2.242258e+04  -4.098955e+05
  -1.235166e+05   1.558065e+05
  -3.126450e+05   3.418893e+05
  -2.505320e+05  -1.790454e+05
   1.678269e+05  -8.609037e+05
   7.406326e+05  -8.681962e+05
   1.006605e+06  -7.098446e+04
   5.823507e+05   7.684330e+05
  -3.474162e+05   8.462951e+05
  -9.762806e+05   1.744068e+05
  -5.962017e+05  -5.121301e+05
   5.542030e+05  -5.633471e+05
   1.371345e+06   1.183600e+04
   9.869436e+05   6.825654e+05
  -2.900641e+05   9.143326e+05
  -1.274268e+06   5.604404e+05
  -1.127500e+06  -7.076989e+04
  -1.715705e+05  -4.534478e+05
   5.274103e+05  -2.791091e+05
   2.857702e+05   2.120598e+05
  -5.411660e+05   3.870573e+05
  -9.825235e+05  -1.476253e+05
  -4.661570e+05  -1.033743e+06
   6.109818e+05  -1.389497e+06
   1.303047e+06  -6.708080e+05
   1.050555e+06   6.792326e+05
   1.542931e+05   1.534530e+06
  -6.255277e+05   1.147645e+06
  -7.984588e+05  -8.227917e+04
  -4.333813e+05  -9.949572e+05
   9.565059e+04  -8.659654e+05
   4.471494e+05  -1.079074e+05
   4.586582e+05   3.319673e+05
   2.100153e+05   1.367806e+05
   1.311985e+04  -1.018361e+05
   1.329098e+05   2.040240e+05
   3.914101e+05   7.970149e+05
   2.472660e+05   9.250935e+05
  -5.056792e+05   3.462953e+05
  -1.261461e+06  -3.962587e+05
  -1.162746e+06  -7.056556e+05
  -1.653085e+05  -5.733173e+05
   7.920187e+05  -3.476553e+05
   8.577395e+05  -1.805752e+05
   2.448264e+05   5.592523e+03
  -1.509239e+05   1.839151e+05
   5.234396e+04   2.114497e+05
   3.117353e+05   1.246650e+05
   8.574157e+03   1.191376e+05
  -6.534272e+05   1.657901e+05
  -8.728674e+05  -4.299851e+04
  -2.337298e+05  -5.768163e+05
   8.014521e+05  -9.381844e+05
   1.383240e+06  -5.597844e+05
   1.082634e+06   4.268997e+05
   1.874367e+05   1.203608e+06
  -6.363117e+05   1.124198e+06
  -8.894508e+05   3.875181e+05
  -5.643142e+05  -2.477394e+05
  -7.355201e+04  -3.030977e+05
   1.337748e+05  -8.830261e+03
  -3.961367e+04   6.881231e+04
  -2.879227e+05  -2.859342e+05
  -2.347057e+05  -6.816119e+05
   1.745540e+05  -5.537816e+05
   5.910297e+05   1.625552e+05
   5.675994e+05   8.642346e+05
  -1.058008e+03   8.648259e+05
  -6.875027e+05   1.273391e+05
  -8.419192e+05  -6.890566e+05
  -2.311669e+05  -9.192156e+05
   6.225581e+05  -5.065676e+05
   9.040817e+05   9.834098e+04
   3.953041e+05   4.704415e+05
  -2.462039e+05   4.979857e+05
  -2.608922e+05   2.869070e+05
   2.784860e+05   3.434982e+04
   5.662730e+05  -1.579495e+04
   9.574989e+04   2.485042e+05
  -7.019891e+05   5.729772e+05
  -1.005053e+06   4.918543e+05
  -5.690886e+05  -1.056919e+05
   9.760110e+04  -7.039178e+05
   4.148856e+05  -6.845571e+05
   2.935481e+05  -7.915812e+04
   4.736952e+03   4.340391e+05
  -2.207904e+05   3.273356e+05
  -3.013422e+05  -1.887646e+05
  -1.979246e+05  -4.919058e+05
   6.811321e+04  -3.038741e+05
   3.272577e+05   6.911848e+04
   3.741047e+05   1.998128e+05
   2.008998e+05   4.560742e+04
   5.790441e+03  -7.998029e+04
  -6.404030e+04   6.216217e+04
  -7.760761e+04   3.409213e+05
  -1.721824e+05   4.004096e+05
  -3.146446e+05   6.997224e+04
  -3.030213e+05  -4.013330e+05
  -1.587444e+04  -5.617203e+05
   3.801557e+05  -2.309039e+05
   5.169402e+05   2.860551e+05
   1.763164e+05   5.122286e+05
  -4.139548e+05   2.917236e+05
  -7.072774e+05  -1.037233e+05
  -3.805900e+05  -3.264023e+05
   2.544555e+05  -2.875440e+05
   5.270698e+05  -1.270395e+05
   1.637027e+05  -4.099114e+02
  -3.616006e+05   6.877442e+03
  -3.717845e+05  -1.259428e+05
   1.983395e+05  -2.862702e+05
   7.196039e+05  -2.205637e+05
