
 $NMID
 id='ANONYMOUS ', fmtdat='(2E16.6)'
 volume=1.0
 tramp=1.0
 $END
  -5.771439e+07  -1.264932e+06
  -3.413651e+07  -3.576341e+07
   7.903235e+06  -3.860084e+07
   2.821753e+07  -1.510183e+07
   1.694508e+07   6.722588e+06
  -3.205608e+06   9.499034e+06
  -1.010101e+07  -9.203432e+05
  -3.113445e+06  -9.938286e+06
   6.182981e+06  -9.910305e+06
   9.948621e+06  -2.262084e+06
   7.228608e+06   6.575690e+06
   7.191074e+05   9.104202e+06
  -4.280880e+06   2.722255e+06
  -2.783963e+06  -5.980646e+06
   3.899119e+06  -7.045632e+06
   8.143761e+06   1.318915e+06
   4.560374e+06   1.059980e+07
  -4.001769e+06   1.218480e+07
  -1.053421e+07   5.908758e+06
  -1.106587e+07  -2.439003e+06
  -6.467149e+06  -7.881898e+06
  -3.634732e+05  -8.698452e+06
   2.931129e+06  -5.882854e+06
   1.439086e+06  -2.773348e+06
  -1.504396e+06  -2.679452e+06
  -9.791607e+04  -4.769256e+06
   6.129623e+06  -4.558723e+06
   1.042749e+07  -1.534358e+05
   7.289278e+06   4.628243e+06
  -1.229653e+05   5.340045e+06
  -4.286022e+06   2.470786e+06
  -2.654674e+06  -3.821200e+05
   1.019808e+06  -1.320914e+06
   2.904028e+06  -4.727149e+05
   2.452975e+06   1.919567e+06
   4.519852e+05   4.456247e+06
  -2.114228e+06   3.921651e+06
  -3.197922e+06  -4.410900e+05
  -1.428373e+06  -3.840609e+06
   9.101100e+05  -1.665250e+06
   1.879292e+05   2.925405e+06
  -2.694034e+06   2.533699e+06
  -2.567586e+06  -3.282309e+06
   2.385522e+06  -6.257817e+06
   6.897490e+06  -9.575100e+05
   5.056358e+06   7.111932e+06
  -2.024526e+06   8.656568e+06
  -7.697784e+06   2.355231e+06
  -7.333437e+06  -4.726634e+06
  -2.048555e+06  -6.406697e+06
   3.670698e+06  -2.969611e+06
   5.689070e+06   1.521252e+06
   2.713647e+06   3.647991e+06
  -2.441912e+06   2.316320e+06
  -4.713942e+06  -9.396646e+05
  -2.058515e+06  -2.800334e+06
   1.782768e+06  -1.408289e+06
   1.905522e+06   1.074377e+06
  -1.213856e+06   1.051427e+06
  -2.542878e+06  -1.576554e+06
   4.351181e+05  -3.323920e+06
   4.544449e+06  -1.922489e+06
   5.415303e+06   1.290477e+06
   2.410193e+06   4.057982e+06
  -2.040524e+06   5.523507e+06
  -5.555362e+06   5.049307e+06
  -6.675740e+06   1.652746e+06
  -4.713257e+06  -3.540013e+06
  -8.321774e+05  -6.617533e+06
   1.943651e+06  -5.109777e+06
   1.762268e+06  -1.474193e+06
   2.646194e+05   8.443480e+03
   2.981966e+05  -1.181708e+06
   2.059307e+06  -1.807326e+06
   3.184026e+06   2.666442e+04
   2.144772e+06   2.384280e+06
  -1.520411e+05   2.495778e+06
  -1.893618e+06   1.896167e+05
  -1.909515e+06  -2.428815e+06
   8.386141e+04  -3.289755e+06
   3.105770e+06  -1.687152e+06
   4.773097e+06   1.483526e+06
   3.273679e+06   4.106340e+06
  -1.769321e+05   4.404972e+06
  -2.413520e+06   2.747342e+06
  -2.290184e+06   1.173222e+06
  -1.925543e+06   7.897306e+05
  -3.216132e+06   5.685818e+05
  -4.780541e+06  -8.332079e+05
  -3.835392e+06  -3.069271e+06
  -1.154107e+05  -4.585864e+06
   3.634316e+06  -4.305381e+06
   4.726453e+06  -2.256603e+06
   2.945407e+06   5.992266e+05
   1.801265e+05   2.540095e+06
  -1.335721e+06   2.107015e+06
  -6.222432e+05  -8.364369e+04
   1.261163e+06  -1.434973e+06
   2.107935e+06  -4.066766e+05
   9.632244e+05   1.344102e+06
  -6.231207e+05   1.245617e+06
  -5.337644e+05  -4.199739e+05
   1.087453e+06  -8.492837e+05
   2.023080e+06   1.234335e+06
   8.525454e+05   3.713767e+06
  -1.538021e+06   3.843171e+06
  -3.383787e+06   1.440215e+06
  -3.769551e+06  -1.480451e+06
  -2.665583e+06  -3.113619e+06
  -5.342774e+05  -2.989535e+06
   1.431250e+06  -1.637245e+06
   1.791114e+06  -2.184555e+05
   5.516522e+05   5.735924e+04
  -3.946781e+05  -8.437724e+05
   4.594492e+05  -1.469657e+06
   2.098073e+06  -6.165568e+05
   2.239988e+06   9.798521e+05
   4.315097e+05   1.556429e+06
  -1.306465e+06   6.377785e+05
  -1.023617e+06  -5.109215e+05
   9.246526e+05  -6.245565e+05
   2.475719e+06   3.086443e+05
   2.023099e+06   1.525635e+06
  -2.496814e+05   2.255864e+06
  -2.608171e+06   1.873779e+06
  -3.119863e+06   2.899285e+05
  -1.342516e+06  -1.413774e+06
   1.037912e+06  -1.639018e+06
   1.714900e+06  -1.808282e+05
   1.897544e+05   1.196866e+06
  -1.702789e+06   8.001399e+05
  -1.918477e+06  -8.786871e+05
  -3.910953e+05  -1.848108e+06
   1.203741e+06  -1.111526e+06
   1.410099e+06   3.231026e+05
   2.939141e+05   8.616989e+05
  -8.739804e+05   5.540435e+04
  -8.050666e+05  -1.186456e+06
   6.722552e+05  -1.587062e+06
   2.264548e+06  -5.745938e+05
   2.267127e+06   1.209190e+06
   4.050825e+05   2.327687e+06
  -1.623412e+06   1.824181e+06
  -1.932740e+06   2.269973e+05
  -5.652540e+05  -9.720504e+05
   7.403639e+05  -9.013922e+05
   7.307819e+05  -7.985751e+04
  -1.160761e+05   4.335057e+05
  -5.744724e+05   2.670883e+05
  -1.918041e+05  -7.447988e+04
   4.664302e+05   5.016231e+04
   5.825391e+05   7.199833e+05
  -2.202888e+05   1.318562e+06
  -1.550751e+06   9.945687e+05
  -2.330935e+06  -4.837285e+05
  -1.620352e+06  -2.197083e+06
   2.703005e+05  -2.723671e+06
   1.830129e+06  -1.592841e+06
   1.917286e+06   1.379077e+05
   9.937773e+05   1.032661e+06
   3.705294e+05   7.894407e+05
   5.104212e+05   2.915407e+05
   6.631773e+05   3.522305e+05
   8.422586e+04   8.371194e+05
  -9.818049e+05   1.005885e+06
  -1.633388e+06   3.681533e+05
  -1.197270e+06  -8.246628e+05
   2.754270e+05  -1.662376e+06
   1.945548e+06  -1.206695e+06
   2.530519e+06   5.603418e+05
   1.265724e+06   2.363170e+06
  -1.135176e+06   2.639249e+06
  -2.844446e+06   1.144990e+06
  -2.641439e+06  -7.363784e+05
  -1.098233e+06  -1.506061e+06
   2.142888e+05  -1.090010e+06
   4.611909e+05  -6.047297e+05
   1.410118e+05  -8.496954e+05
   1.574941e+05  -1.444143e+06
   7.640006e+05  -1.418310e+06
   1.444458e+06  -3.343208e+05
   1.485183e+06   1.232754e+06
   6.015096e+05   2.137594e+06
  -7.186749e+05   1.609066e+06
  -1.446435e+06  -1.082599e+04
  -9.034290e+05  -1.437103e+06
   4.342830e+05  -1.558118e+06
   1.282207e+06  -4.623978e+05
   8.931911e+05   7.555183e+05
  -1.285833e+05   1.180932e+06
  -5.779299e+05   8.708449e+05
  -8.439234e+04   4.770841e+05
   4.787249e+05   3.902926e+05
   5.988035e+04   4.350985e+05
  -1.280933e+06   2.253276e+05
  -2.297593e+06  -3.924712e+05
  -1.803419e+06  -1.171730e+06
   4.182250e+04  -1.593232e+06
   1.776771e+06  -1.253145e+06
   2.050152e+06  -3.043690e+05
   9.332909e+05   5.372580e+05
  -2.917878e+05   6.224656e+05
  -5.663029e+05   4.134273e+04
  -1.913092e+04  -4.601101e+05
   5.094500e+05  -2.832228e+05
   5.350844e+05   3.904869e+05
   2.611259e+05   8.243601e+05
   8.698889e+04   5.446066e+05
   1.546247e+05  -1.175127e+05
   3.269610e+05  -3.436638e+05
   3.100154e+05   2.613365e+05
  -1.759499e+05   1.115313e+06
  -1.021644e+06   1.186214e+06
  -1.516339e+06   1.680205e+05
  -9.302953e+05  -1.041907e+06
   4.816394e+05  -1.262163e+06
   1.410818e+06  -3.494783e+05
   8.186687e+05   6.571205e+05
  -7.915610e+05   7.241559e+05
  -1.789931e+06  -1.142919e+05
  -1.140964e+06  -9.723891e+05
   5.373530e+05  -1.115735e+06
   1.689403e+06  -5.440375e+05
   1.395148e+06   2.137629e+05
   1.537403e+05   5.811995e+05
  -7.303146e+05   3.022184e+05
  -4.243245e+05  -3.321182e+05
   6.710806e+05  -5.791248e+05
   1.333893e+06   1.099575e+05
   7.383814e+05   1.344012e+06
  -6.906059e+05   1.914592e+06
  -1.687247e+06   9.822598e+05
  -1.411247e+06  -8.675891e+05
  -2.138821e+05  -2.024728e+06
   8.437268e+05  -1.458342e+06
   1.040998e+06   2.010018e+05
   4.809624e+05   1.344549e+06
  -2.479549e+05   1.091031e+06
  -6.314289e+05   9.142347e+04
  -5.271891e+05  -4.281173e+05
  -1.884818e+05  -1.548818e+05
  -5.317400e+04   1.072883e+05
  -3.055134e+05  -3.368662e+05
  -5.642378e+05  -1.094608e+06
  -2.116110e+05  -1.215438e+06
   8.038245e+05  -4.363987e+05
   1.661125e+06   5.356408e+05
   1.441088e+06   9.506266e+05
   2.029704e+05   7.884725e+05
  -9.683936e+05   4.697656e+05
  -1.111432e+06   2.002903e+05
  -4.034137e+05  -6.407080e+04
   1.666834e+05  -2.547331e+05
   3.853928e+04  -2.282358e+05
  -3.015029e+05  -1.048641e+05
  -5.640750e+04  -1.522082e+05
   7.502261e+05  -2.669503e+05
   1.183085e+06   1.894237e+04
   4.849624e+05   7.898948e+05
  -9.580869e+05   1.330134e+06
  -1.926807e+06   8.440372e+05
  -1.595704e+06  -4.978633e+05
  -3.058117e+05  -1.590719e+06
   8.743689e+05  -1.549813e+06
   1.190637e+06  -6.049002e+05
   7.413551e+05   2.631278e+05
   1.507594e+05   4.071990e+05
  -7.984461e+04   7.993594e+04
   8.992016e+04  -1.534128e+04
   3.351876e+05   4.157489e+05
   2.745145e+05   9.124920e+05
  -2.050242e+05   7.683705e+05
  -7.712058e+05  -1.348933e+05
  -8.379236e+05  -1.076146e+06
  -1.334957e+05  -1.170630e+06
   8.518879e+05  -2.861863e+05
   1.173409e+06   8.121444e+05
   3.953803e+05   1.234514e+06
  -8.088032e+05   7.693354e+05
  -1.267745e+06  -8.643213e+04
  -6.001868e+05  -6.991274e+05
   3.294211e+05  -7.708810e+05
   4.350559e+05  -4.130764e+05
  -2.752429e+05  -4.954161e+03
  -7.330369e+05   4.526909e+04
  -1.665147e+05  -3.506484e+05
   9.335415e+05  -7.646273e+05
   1.426407e+06  -6.002863e+05
   8.642625e+05   2.102100e+05
  -1.110819e+05   9.849390e+05
  -6.322517e+05   9.660201e+05
  -4.902248e+05   1.835516e+05
  -6.529079e+04  -5.406243e+05
   2.712866e+05  -4.962140e+05
   4.005847e+05   1.600380e+05
   2.879994e+05   6.528263e+05
  -6.090928e+04   4.895943e+05
  -4.435508e+05  -4.779299e+04
  -5.374476e+05  -3.230603e+05
  -2.720616e+05  -1.132642e+05
   3.962611e+04   1.764963e+05
   8.842520e+04   5.990953e+04
  -2.503815e+04  -3.995233e+05
   4.617694e+04  -6.356491e+05
   3.618046e+05  -2.619390e+05
   5.313813e+05   4.241422e+05
   1.909598e+05   7.365267e+05
  -4.590168e+05   3.611921e+05
  -7.584349e+05  -3.123716e+05
  -2.927498e+05  -6.465722e+05
   5.761137e+05  -4.138356e+05
   1.003903e+06   8.280007e+04
   5.444087e+05   4.271573e+05
  -3.340315e+05   4.588209e+05
  -7.273031e+05   2.651751e+05
  -2.900376e+05   1.984632e+04
   3.847847e+05  -8.801988e+04
   4.608974e+05   6.063210e+04
  -1.798473e+05   3.267704e+05
  -8.274472e+05   3.132839e+05
