
 $NMID
 id='ANONYMOUS ', fmtdat='(2E16.6)'
 volume=1.0
 tramp=1.0
 $END
   4.980198e+07  -1.029406e+05
   3.042470e+07   2.987527e+07
  -5.714928e+06   3.345784e+07
  -2.401749e+07   1.398429e+07
  -1.501936e+07  -5.149930e+06
   2.407870e+06  -8.348167e+06
   8.871062e+06   3.682183e+05
   3.119965e+06   8.554077e+06
  -5.072579e+06   8.953924e+06
  -8.631747e+06   2.331769e+06
  -6.439658e+06  -5.592038e+06
  -7.810536e+05  -7.966023e+06
   3.689737e+06  -2.408293e+06
   2.537381e+06   5.288742e+06
  -3.262604e+06   6.353841e+06
  -7.143232e+06  -8.978620e+05
  -4.240248e+06  -9.115868e+06
   3.182338e+06  -1.069519e+07
   9.001269e+06  -5.335769e+06
   9.587465e+06   1.924263e+06
   5.661430e+06   6.658128e+06
   4.653098e+05   7.385508e+06
  -2.274232e+06   5.065858e+06
  -9.781194e+05   2.553740e+06
   1.431461e+06   2.553345e+06
   4.937201e+04   4.296739e+06
  -5.435013e+06   4.022934e+06
  -9.172131e+06   1.772449e+05
  -6.395770e+06  -3.976034e+06
   1.393981e+05  -4.610753e+06
   3.800471e+06  -2.095161e+06
   2.272997e+06   4.416656e+05
  -1.086631e+06   1.233068e+06
  -2.727648e+06   3.573324e+05
  -2.165176e+06  -1.820841e+06
  -3.221879e+05  -3.966547e+06
   1.821006e+06  -3.390920e+06
   2.664811e+06   4.002151e+05
   1.192978e+06   3.262955e+06
  -7.197890e+05   1.320016e+06
  -9.313061e+04  -2.659539e+06
   2.368562e+06  -2.307263e+06
   2.344322e+06   2.786383e+06
  -1.836611e+06   5.505908e+06
  -5.842972e+06   1.047624e+06
  -4.512869e+06  -5.981577e+06
   1.509282e+06  -7.516603e+06
   6.612825e+06  -2.199741e+06
   6.545429e+06   3.993646e+06
   1.980102e+06   5.617383e+06
  -3.178113e+06   2.736429e+06
  -5.105938e+06  -1.196230e+06
  -2.536788e+06  -3.159773e+06
   2.047744e+06  -2.113601e+06
   4.145201e+06   6.882026e+05
   1.888876e+06   2.384213e+06
  -1.513454e+06   1.270300e+06
  -1.728027e+06  -9.093249e+05
   9.871938e+05  -1.020864e+06
   2.298022e+06   1.203892e+06
  -1.587708e+05   2.853482e+06
  -3.797704e+06   1.829670e+06
  -4.745129e+06  -9.168151e+05
  -2.225550e+06  -3.447267e+06
   1.710906e+06  -4.857807e+06
   4.854189e+06  -4.484191e+06
   5.839454e+06  -1.503707e+06
   4.131029e+06   3.055088e+06
   7.995911e+05   5.798453e+06
  -1.594316e+06   4.565908e+06
  -1.511753e+06   1.427921e+06
  -3.203349e+05   8.059476e+04
  -3.919931e+05   1.034527e+06
  -1.890514e+06   1.527354e+06
  -2.819817e+06  -1.013393e+05
  -1.867962e+06  -2.175902e+06
   1.910860e+05  -2.245086e+06
   1.748601e+06  -1.487584e+05
   1.737237e+06   2.204227e+06
  -6.829860e+04   2.943160e+06
  -2.743837e+06   1.492052e+06
  -4.196133e+06  -1.288030e+06
  -2.890730e+06  -3.553204e+06
   9.367179e+04  -3.817674e+06
   2.031687e+06  -2.417130e+06
   1.948984e+06  -1.086019e+06
   1.679352e+06  -7.677691e+05
   2.860991e+06  -5.789574e+05
   4.278473e+06   6.632292e+05
   3.467237e+06   2.685146e+06
   1.595862e+05   4.100188e+06
  -3.213166e+06   3.884397e+06
  -4.213510e+06   2.034482e+06
  -2.617500e+06  -5.422314e+05
  -1.389919e+05  -2.267897e+06
   1.199563e+06  -1.867261e+06
   5.478948e+05   8.156410e+04
  -1.123128e+06   1.285104e+06
  -1.868807e+06   3.842883e+05
  -8.578808e+05  -1.177811e+06
   5.587850e+05  -1.117589e+06
   5.096281e+05   3.741295e+05
  -9.370506e+05   8.263274e+05
  -1.854627e+06  -9.883169e+05
  -9.066754e+05  -3.276928e+06
   1.237943e+06  -3.533830e+06
   3.008462e+06  -1.444790e+06
   3.461890e+06   1.237172e+06
   2.481012e+06   2.794011e+06
   5.187454e+05   2.710415e+06
  -1.278546e+06   1.480901e+06
  -1.607126e+06   2.016320e+05
  -4.947328e+05  -4.587279e+04
   3.638487e+05   7.506439e+05
  -3.815943e+05   1.313402e+06
  -1.850897e+06   5.803136e+05
  -2.012912e+06  -8.310121e+05
  -4.182495e+05  -1.377635e+06
   1.159568e+06  -5.932969e+05
   9.386971e+05   4.493394e+05
  -8.185973e+05   5.993302e+05
  -2.253743e+06  -2.248317e+05
  -1.869050e+06  -1.357598e+06
   1.880353e+05  -2.057470e+06
   2.327712e+06  -1.726592e+06
   2.798325e+06  -2.982596e+05
   1.218858e+06   1.241597e+06
  -8.993714e+05   1.466054e+06
  -1.514329e+06   1.828165e+05
  -1.765266e+05  -1.056484e+06
   1.511050e+06  -7.326070e+05
   1.732347e+06   7.577553e+05
   3.877144e+05   1.654630e+06
  -1.057935e+06   1.030456e+06
  -1.278770e+06  -2.549994e+05
  -2.905440e+05  -7.669851e+05
   7.730220e+05  -6.603597e+04
   7.302573e+05   1.049112e+06
  -5.882220e+05   1.423436e+06
  -2.020947e+06   5.318848e+05
  -2.038536e+06  -1.060564e+06
  -3.884124e+05  -2.077103e+06
   1.427602e+06  -1.653051e+06
   1.728127e+06  -2.318456e+05
   5.252302e+05   8.632278e+05
  -6.509887e+05   8.214033e+05
  -6.631494e+05   7.527843e+04
   9.688748e+04  -4.096851e+05
   5.317415e+05  -2.586868e+05
   1.991835e+05   7.904912e+04
  -4.122357e+05  -1.050581e+04
  -5.449707e+05  -6.217634e+05
   1.676523e+05  -1.184964e+06
   1.374418e+06  -9.134608e+05
   2.093978e+06   4.054022e+05
   1.474340e+06   1.949304e+06
  -2.150620e+05   2.446951e+06
  -1.630031e+06   1.458985e+06
  -1.736459e+06  -9.775388e+04
  -9.172358e+05  -9.341442e+05
  -3.362766e+05  -7.358200e+05
  -4.383791e+05  -2.690504e+05
  -5.815449e+05  -2.951377e+05
  -8.585599e+04  -7.359099e+05
   8.642357e+05  -9.174077e+05
   1.467204e+06  -3.562379e+05
   1.094605e+06   7.347416e+05
  -2.255493e+05   1.511937e+06
  -1.736718e+06   1.113052e+06
  -2.281664e+06  -4.744713e+05
  -1.169982e+06  -2.104750e+06
   9.744475e+05  -2.381418e+06
   2.529862e+06  -1.070723e+06
   2.388253e+06   6.187069e+05
   1.022750e+06   1.345248e+06
  -1.750841e+05   1.002350e+06
  -4.264258e+05   5.597048e+05
  -1.411599e+05   7.523916e+05
  -1.329434e+05   1.276701e+06
  -6.618693e+05   1.269161e+06
  -1.282048e+06   3.135426e+05
  -1.339557e+06  -1.089864e+06
  -5.586968e+05  -1.909967e+06
   6.298756e+05  -1.448807e+06
   1.299271e+06  -7.843740e+03
   8.314992e+05   1.272954e+06
  -3.608554e+05   1.403926e+06
  -1.135621e+06   4.465547e+05
  -8.142193e+05  -6.457297e+05
   8.386789e+04  -1.052888e+06
   4.909791e+05  -7.956915e+05
   6.567412e+04  -4.388318e+05
  -4.280174e+05  -3.478845e+05
  -5.515085e+04  -3.902706e+05
   1.139988e+06  -2.199008e+05
   2.055358e+06   3.209555e+05
   1.630516e+06   1.024995e+06
  -6.316714e+03   1.423540e+06
  -1.564387e+06   1.142245e+06
  -1.832377e+06   3.042209e+05
  -8.518306e+05  -4.577903e+05
   2.463587e+05  -5.557305e+05
   5.051611e+05  -5.072960e+04
   2.024078e+04   4.011138e+05
  -4.578662e+05   2.543198e+05
  -4.814379e+05  -3.443266e+05
  -2.293792e+05  -7.355109e+05
  -7.215495e+04  -4.842150e+05
  -1.415526e+05   1.144330e+05
  -3.020450e+05   3.181418e+05
  -2.831529e+05  -2.305672e+05
   1.537480e+05  -1.003345e+06
   9.024666e+05  -1.071325e+06
   1.340915e+06  -1.626809e+05
   8.302131e+05   9.202603e+05
  -4.153980e+05   1.125016e+06
  -1.249152e+06   3.185616e+05
  -7.370368e+05  -5.841085e+05
   7.001748e+05  -6.604598e+05
   1.613369e+06   7.985395e+04
   1.049423e+06   8.628092e+05
  -4.625510e+05   1.019591e+06
  -1.518428e+06   5.201751e+05
  -1.266931e+06  -1.728124e+05
  -1.487795e+05  -5.246193e+05
   6.524568e+05  -2.844409e+05
   3.812239e+05   2.885213e+05
  -5.995647e+05   5.179520e+05
  -1.192614e+06  -9.431303e+04
  -6.622478e+05  -1.198729e+06
   6.123973e+05  -1.713887e+06
   1.506958e+06  -8.860053e+05
   1.271215e+06   7.694393e+05
   2.075885e+05   1.816232e+06
  -7.460395e+05   1.322158e+06
  -9.406555e+05  -1.641231e+05
  -4.520895e+05  -1.203666e+06
   2.045025e+05  -9.904487e+05
   5.642248e+05  -9.319406e+04
   4.836271e+05   3.836245e+05
   1.776865e+05   1.427663e+05
   4.453599e+04  -1.004093e+05
   2.675805e+05   2.896559e+05
   5.127128e+05   9.729748e+05
   2.100985e+05   1.094036e+06
  -7.066711e+05   4.047784e+05
  -1.496844e+06  -4.664881e+05
  -1.310930e+06  -8.432913e+05
  -1.910922e+05  -7.040408e+05
   8.724035e+05  -4.262213e+05
   9.995673e+05  -1.916577e+05
   3.574080e+05   4.651048e+04
  -1.501567e+05   2.279711e+05
  -2.471989e+04   2.133961e+05
   2.795595e+05   1.006979e+05
   4.766011e+04   1.351864e+05
  -6.800797e+05   2.378024e+05
  -1.058540e+06  -9.771727e+03
  -4.269485e+05  -6.970234e+05
   8.555399e+05  -1.190724e+06
   1.710868e+06  -7.674632e+05
   1.419821e+06   4.345596e+05
   2.823591e+05   1.423897e+06
  -7.673075e+05   1.394037e+06
  -1.059709e+06   5.450096e+05
  -6.660981e+05  -2.361274e+05
  -1.340911e+05  -3.620267e+05
   7.753206e+04  -6.309847e+04
  -7.970398e+04   2.255070e+04
  -3.096874e+05  -3.686266e+05
  -2.575548e+05  -8.171881e+05
   1.789103e+05  -6.874703e+05
   6.918396e+05   1.223269e+05
   7.511098e+05   9.624850e+05
   1.181982e+05   1.043109e+06
  -7.638211e+05   2.514575e+05
  -1.051550e+06  -7.265168e+05
  -3.576526e+05  -1.100520e+06
   7.179204e+05  -6.879413e+05
   1.131012e+06   6.877408e+04
   5.401499e+05   6.133078e+05
  -2.854180e+05   6.848319e+05
  -3.780018e+05   3.743632e+05
   2.542234e+05   8.890551e+03
   6.584030e+05  -4.393607e+04
   1.495030e+05   3.101734e+05
  -8.312098e+05   6.937194e+05
  -1.268648e+06   5.583622e+05
  -7.699453e+05  -1.716513e+05
   9.150901e+04  -8.797779e+05
   5.502273e+05  -8.697842e+05
   4.268690e+05  -1.650528e+05
   5.664218e+04   4.859339e+05
  -2.392965e+05   4.413615e+05
  -3.578530e+05  -1.484083e+05
  -2.616401e+05  -5.827060e+05
   5.042812e+04  -4.312208e+05
   3.962345e+05   4.284792e+04
   4.832728e+05   2.789549e+05
   2.463559e+05   9.448716e+04
  -3.508337e+04  -1.502215e+05
  -8.419895e+04  -4.014274e+04
   1.257903e+04   3.589477e+05
  -4.912279e+04   5.555930e+05
  -3.220432e+05   2.211125e+05
  -4.653191e+05  -3.817817e+05
  -1.619747e+05  -6.547251e+05
   4.112732e+05  -3.215953e+05
   6.746175e+05   2.777310e+05
   2.617672e+05   5.789423e+05
  -5.103633e+05   3.746928e+05
  -8.940680e+05  -6.876155e+04
  -4.884477e+05  -3.781144e+05
   2.937961e+05  -4.075341e+05
   6.449247e+05  -2.362912e+05
   2.529938e+05  -2.086280e+04
  -3.505847e+05   7.202362e+04
  -4.136196e+05  -6.120348e+04
   1.679133e+05  -2.968339e+05
   7.508276e+05  -2.820573e+05
