
 $NMID
 id='ANONYMOUS ', fmtdat='(2E16.6)'
 volume=1.0
 tramp=1.0
 $END
   1.796366e+07   9.668348e+05
   1.079132e+07   1.079144e+07
  -2.123584e+06   1.187506e+07
  -8.828327e+06   5.316216e+06
  -5.768360e+06  -1.486982e+06
   6.889521e+05  -3.097872e+06
   3.415831e+06  -1.626959e+05
   1.427312e+06   3.180705e+06
  -1.823605e+06   3.673951e+06
  -3.310542e+06   1.046471e+06
  -2.368170e+06  -2.269184e+06
  -1.007657e+05  -3.155478e+06
   1.495089e+06  -7.517399e+05
   8.843515e+05   2.334931e+06
  -1.343519e+06   2.634712e+06
  -2.725160e+06  -2.990645e+05
  -1.541737e+06  -3.487187e+06
   1.300323e+06  -3.997927e+06
   3.424704e+06  -1.798180e+06
   3.418906e+06   9.885018e+05
   1.746575e+06   2.524707e+06
  -6.697567e+04   2.460618e+06
  -6.740784e+05   1.607162e+06
   4.712200e+04   1.112100e+06
   6.979360e+05   1.480705e+06
  -2.884006e+05   1.961499e+06
  -2.541100e+06   1.335402e+06
  -3.725179e+06  -4.164419e+05
  -2.289627e+06  -1.831925e+06
   4.330713e+05  -1.703821e+06
   1.759471e+06  -4.692780e+05
   8.065098e+05   5.490217e+05
  -8.702030e+05   6.331153e+05
  -1.490777e+06  -8.568651e+04
  -8.230191e+05  -1.133187e+06
   2.497075e+05  -1.747620e+06
   8.929003e+05  -1.136963e+06
   7.694609e+05   3.988759e+05
   1.201329e+05   1.192655e+06
  -2.609286e+05   1.807447e+05
   2.431712e+05  -1.279558e+06
   1.079450e+06  -9.448981e+05
   9.166529e+05   1.052628e+06
  -5.731171e+05   2.043877e+06
  -1.933547e+06   3.962843e+05
  -1.503847e+06  -2.151296e+06
   5.772831e+05  -2.682938e+06
   2.472602e+06  -6.847956e+05
   2.546997e+06   1.678064e+06
   8.004297e+05   2.314990e+06
  -1.323132e+06   1.143167e+06
  -2.156586e+06  -4.926595e+05
  -1.114051e+06  -1.298094e+06
   7.423391e+05  -8.494865e+05
   1.595541e+06   2.657501e+05
   7.481389e+05   9.059645e+05
  -5.764937e+05   4.666097e+05
  -7.365374e+05  -3.904611e+05
   2.759868e+05  -5.171044e+05
   9.221476e+05   2.527651e+05
   1.769427e+05   9.407772e+05
  -1.220371e+06   7.175962e+05
  -1.766885e+06  -2.433765e+05
  -8.595381e+05  -1.265576e+06
   8.324294e+05  -1.840130e+06
   2.174788e+06  -1.594553e+06
   2.386998e+06  -3.357917e+05
   1.441056e+06   1.387684e+06
   9.012190e+04   2.340843e+06
  -6.823317e+05   1.860572e+06
  -5.861764e+05   7.329507e+05
  -2.800755e+05   2.142247e+05
  -4.812296e+05   4.273279e+05
  -1.039430e+06   4.047143e+05
  -1.201931e+06  -3.646919e+05
  -6.114028e+05  -1.161735e+06
   3.151903e+05  -1.016474e+06
   8.890694e+05   5.827188e+04
   7.033364e+05   1.119770e+06
  -1.849489e+05   1.287540e+06
  -1.229112e+06   4.548640e+05
  -1.615145e+06  -7.522746e+05
  -9.571158e+05  -1.504615e+06
   1.714425e+05  -1.413868e+06
   7.959999e+05  -8.283553e+05
   7.136067e+05  -4.061900e+05
   6.791046e+05  -3.472104e+05
   1.237438e+06  -2.225927e+05
   1.820726e+06   3.756564e+05
   1.421945e+06   1.249131e+06
  -5.527951e+04   1.789162e+06
  -1.549776e+06   1.575689e+06
  -1.934234e+06   6.796493e+05
  -1.087257e+06  -4.049956e+05
   1.127319e+05  -1.002687e+06
   6.480154e+05  -7.191300e+05
   2.209898e+05   8.295667e+04
  -5.566571e+05   5.016166e+05
  -8.038811e+05   9.652444e+04
  -2.946173e+05  -5.199319e+05
   3.109446e+05  -4.656881e+05
   2.642346e+05   1.807364e+05
  -3.692546e+05   4.276023e+05
  -8.098533e+05  -3.018021e+05
  -4.766898e+05  -1.359474e+06
   4.486371e+05  -1.625396e+06
   1.320146e+06  -7.607514e+05
   1.597750e+06   5.442783e+05
   1.120457e+06   1.356197e+06
   1.635266e+05   1.277909e+06
  -6.377125e+05   6.087979e+05
  -7.250717e+05   1.047013e+04
  -2.154558e+05  -3.740801e+04
   1.365828e+05   3.392336e+05
  -1.861193e+05   5.436892e+05
  -7.871866e+05   1.969810e+05
  -8.404615e+05  -3.890494e+05
  -1.628785e+05  -5.907024e+05
   5.187363e+05  -2.355886e+05
   4.289467e+05   2.292088e+05
  -3.649962e+05   2.928475e+05
  -1.037558e+06  -1.160260e+05
  -8.564962e+05  -6.711074e+05
   1.194533e+05  -9.589692e+05
   1.095216e+06  -7.217854e+05
   1.248879e+06  -4.905807e+04
   4.921618e+05   5.646993e+05
  -4.224566e+05   5.834512e+05
  -6.309001e+05   2.856545e+04
  -2.591091e+04  -4.446369e+05
   6.769291e+05  -2.644253e+05
   7.404329e+05   3.720534e+05
   1.496353e+05   7.400944e+05
  -4.759273e+05   4.564562e+05
  -5.703519e+05  -1.138260e+05
  -1.360339e+05  -3.376019e+05
   3.214564e+05  -1.397562e+04
   2.767862e+05   4.760121e+05
  -3.131674e+05   5.951661e+05
  -9.036001e+05   1.515649e+05
  -8.489865e+05  -5.381795e+05
  -1.010120e+05  -9.167953e+05
   6.672688e+05  -6.783342e+05
   7.619413e+05  -5.877476e+04
   2.173535e+05   3.908836e+05
  -3.064122e+05   3.493075e+05
  -3.126665e+05   5.428114e+03
   4.592770e+04  -2.148449e+05
   2.770727e+05  -1.270701e+05
   1.403791e+05   6.182594e+04
  -1.603409e+05   3.706908e+04
  -2.435085e+05  -2.537043e+05
   8.251576e+04  -5.126818e+05
   6.238864e+05  -3.651630e+05
   9.056978e+05   2.419019e+05
   5.798334e+05   9.017425e+05
  -1.790128e+05   1.074914e+06
  -7.750859e+05   6.119055e+05
  -7.907994e+05  -8.578260e+04
  -4.076162e+05  -4.740593e+05
  -1.242306e+05  -3.982765e+05
  -1.445531e+05  -1.647338e+05
  -2.099850e+05  -1.277659e+05
  -1.227661e+04  -2.999873e+05
   3.993715e+05  -3.836940e+05
   6.685052e+05  -1.269838e+05
   4.839705e+05   3.722190e+05
  -1.372488e+05   6.932826e+05
  -8.091426e+05   4.540798e+05
  -1.002120e+06  -2.811622e+05
  -4.642635e+05  -9.620819e+05
   4.782562e+05  -1.017840e+06
   1.130002e+06  -4.116572e+05
   1.050812e+06   3.227696e+05
   4.500739e+05   6.331289e+05
  -9.358186e+04   4.781352e+05
  -2.403764e+05   2.621350e+05
  -1.363456e+05   3.121875e+05
  -1.204462e+05   5.215330e+05
  -3.212557e+05   5.140426e+05
  -5.571679e+05   8.959029e+04
  -5.437102e+05  -5.268820e+05
  -1.757801e+05  -8.603958e+05
   3.312809e+05  -6.148451e+05
   5.763025e+05   3.509962e+04
   3.340540e+05   5.751653e+05
  -1.820134e+05   6.073667e+05
  -4.923294e+05   1.916792e+05
  -3.411854e+05  -2.671841e+05
   3.763840e+04  -4.415038e+05
   2.056691e+05  -3.459428e+05
   3.119915e+04  -2.093666e+05
  -1.674384e+05  -1.748461e+05
  -5.425876e+03  -1.761653e+05
   4.964362e+05  -6.537926e+04
   8.756711e+05   1.997969e+05
   6.843044e+05   4.931591e+05
  -2.429109e+04   6.123587e+05
  -6.975403e+05   4.461570e+05
  -8.095572e+05   9.052456e+04
  -3.739862e+05  -2.003911e+05
   1.118676e+05  -2.235400e+05
   2.178889e+05  -1.967778e+04
  -1.104461e+04   1.561441e+05
  -2.194253e+05   8.817856e+04
  -1.957483e+05  -1.681740e+05
  -5.017471e+04  -3.337381e+05
   7.731422e+03  -2.128164e+05
  -7.211892e+04   6.123656e+04
  -1.661015e+05   1.462339e+05
  -1.216531e+05  -1.094588e+05
   1.158876e+05  -4.419182e+05
   4.323267e+05  -4.355691e+05
   5.646633e+05  -1.431863e+04
   3.049331e+05   4.294437e+05
  -2.179392e+05   4.580851e+05
  -5.401991e+05   7.637664e+04
  -2.984868e+05  -2.899656e+05
   3.260519e+05  -2.723644e+05
   7.210008e+05   7.996910e+04
   4.654133e+05   4.164588e+05
  -2.196520e+05   4.576825e+05
  -7.004060e+05   2.090216e+05
  -5.777252e+05  -1.067510e+05
  -5.866202e+04  -2.446431e+05
   2.969430e+05  -1.147661e+05
   1.516126e+05   1.314218e+05
  -2.915207e+05   1.929709e+05
  -5.161633e+05  -1.017507e+05
  -2.249157e+05  -5.569673e+05
   3.558956e+05  -7.187265e+05
   7.056887e+05  -3.168478e+05
   5.295985e+05   3.948756e+05
   2.071677e+04   8.144769e+05
  -3.808614e+05   5.697437e+05
  -4.173878e+05  -9.249792e+04
  -1.725632e+05  -5.496781e+05
   1.084362e+05  -4.462183e+05
   2.485564e+05  -3.067560e+04
   2.140807e+05   1.937153e+05
   8.875436e+04   7.825896e+04
   1.807898e+04  -4.921698e+04
   8.646156e+04   1.216426e+05
   1.833466e+05   4.422411e+05
   7.223129e+04   4.993649e+05
  -3.051983e+05   1.616447e+05
  -6.482162e+05  -2.624025e+05
  -5.678885e+05  -4.248188e+05
  -6.188802e+04  -3.148121e+05
   4.175585e+05  -1.510092e+05
   4.565784e+05  -5.302981e+04
   1.443994e+05   2.094911e+04
  -8.094567e+04   9.209608e+04
  -1.346412e+03   1.072123e+05
   1.382280e+05   7.051098e+04
   7.536934e+03   6.110097e+04
  -3.299630e+05   6.653422e+04
  -4.627303e+05  -5.066312e+04
  -1.316778e+05  -3.141117e+05
   4.404870e+05  -4.755655e+05
   7.669038e+05  -2.598793e+05
   5.810148e+05   2.531921e+05
   6.023721e+04   6.407427e+05
  -3.854517e+05   5.790365e+05
  -4.850428e+05   1.849942e+05
  -2.850699e+05  -1.422442e+05
  -3.612297e+04  -1.626213e+05
   5.201632e+04  -8.907154e+03
  -3.220872e+04   2.221117e+04
  -1.330984e+05  -1.702678e+05
  -9.004419e+04  -3.718374e+05
   1.090523e+05  -2.907076e+05
   3.012648e+05   9.577742e+04
   2.780774e+05   4.648121e+05
  -1.108829e+04   4.574706e+05
  -3.546683e+05   5.869853e+04
  -4.242150e+05  -3.785169e+05
  -1.009577e+05  -4.952736e+05
   3.438431e+05  -2.591329e+05
   4.844884e+05   7.903622e+04
   2.050011e+05   2.758495e+05
  -1.479359e+05   2.726153e+05
  -1.643341e+05   1.489169e+05
   1.279919e+05   2.456446e+04
   2.958663e+05   1.072933e+04
   4.801954e+04   1.378495e+05
  -3.942130e+05   2.750356e+05
  -5.684736e+05   2.121343e+05
  -3.173614e+05  -8.853909e+04
   7.551113e+04  -3.763949e+05
   2.598791e+05  -3.570105e+05
   1.741336e+05  -4.633109e+04
  -5.492481e+03   2.217184e+05
  -1.244869e+05   1.743680e+05
  -1.494023e+05  -9.586138e+04
  -8.912340e+04  -2.672071e+05
   4.091027e+04  -1.723059e+05
   1.706082e+05   4.173982e+04
   1.982106e+05   1.299154e+05
   1.065432e+05   4.142666e+04
  -3.831438e+03  -5.329608e+04
  -4.048485e+04   5.106174e+03
  -3.342482e+04   1.643845e+05
  -7.227026e+04   2.184705e+05
  -1.549559e+05   5.278850e+04
  -1.640132e+05  -2.018286e+05
  -1.552062e+04  -2.915436e+05
   2.007261e+05  -1.151470e+05
   2.726227e+05   1.583054e+05
   8.198263e+04   2.703513e+05
  -2.345301e+05   1.427250e+05
  -3.795827e+05  -7.207263e+04
  -1.946349e+05  -1.857649e+05
   1.434742e+05  -1.551709e+05
   2.860722e+05  -6.357122e+04
   9.889970e+04   1.185114e+03
  -1.724750e+05   6.171407e+02
  -1.828839e+05  -6.350918e+04
   1.028980e+05  -1.317032e+05
   3.659204e+05  -8.786213e+04
