
 $NMID
 id='ANONYMOUS ', fmtdat='(2E16.6)'
 volume=1.0
 tramp=1.0
 $END
   3.473316e+07  -2.230815e+06
   2.355205e+07   1.774570e+07
  -8.301687e+05   2.322648e+07
  -1.562939e+07   1.289915e+07
  -1.181961e+07  -9.293275e+05
   2.839921e+05  -6.213797e+06
   6.691448e+06  -1.518106e+06
   3.883478e+06   5.788164e+06
  -2.476747e+06   7.938631e+06
  -6.235815e+06   3.106668e+06
  -5.216583e+06  -3.908587e+06
  -9.205984e+05  -6.268614e+06
   2.788393e+06  -1.763907e+06
   2.303317e+06   4.593584e+06
  -2.003044e+06   5.718693e+06
  -5.447896e+06   1.972687e+05
  -3.934688e+06  -6.450930e+06
   1.531502e+06  -8.171784e+06
   6.245083e+06  -4.299440e+06
   6.812914e+06   1.205673e+06
   3.802023e+06   4.469232e+06
   3.591724e+05   4.566034e+06
  -7.111573e+05   3.094255e+06
   7.424985e+05   2.314493e+06
   1.886188e+06   3.154242e+06
  -2.972768e+05   4.195207e+06
  -5.012086e+06   3.141955e+06
  -7.610099e+06  -1.993654e+05
  -4.875305e+06  -3.217489e+06
   6.825618e+05  -3.402326e+06
   3.561530e+06  -1.124456e+06
   1.668481e+06   1.164018e+06
  -1.918001e+06   1.601055e+06
  -3.323479e+06   4.408495e+04
  -1.925758e+06  -2.368247e+06
   3.144922e+05  -3.699232e+06
   1.601855e+06  -2.359948e+06
   1.419168e+06   7.596894e+05
   2.953830e+05   2.256675e+06
  -4.412107e+05   1.609797e+05
   3.660390e+05  -2.794853e+06
   2.015513e+06  -2.205949e+06
   2.115757e+06   1.807403e+06
  -4.578022e+05   4.132227e+06
  -3.450255e+06   1.315377e+06
  -3.368978e+06  -3.704272e+06
   4.010451e+05  -5.281837e+06
   4.632789e+06  -1.896159e+06
   5.506230e+06   2.735332e+06
   2.242123e+06   4.480666e+06
  -2.379963e+06   2.692580e+06
  -4.549101e+06  -4.100942e+05
  -2.676033e+06  -2.324494e+06
   1.182485e+06  -1.911937e+06
   3.218749e+06   8.010174e+04
   1.750955e+06   1.565356e+06
  -9.961521e+05   1.059521e+06
  -1.619597e+06  -5.985330e+05
   3.145319e+05  -1.198012e+06
   1.923845e+06   7.001307e+04
   8.092001e+05   1.679507e+06
  -2.014977e+06   1.767324e+06
  -3.514316e+06   9.683501e+04
  -2.051591e+06  -2.215914e+06
   1.285024e+06  -3.841180e+06
   4.113842e+06  -3.636436e+06
   4.736832e+06  -1.116241e+06
   3.103319e+06   2.517345e+06
   6.434352e+05   4.685727e+06
  -8.921466e+05   3.951176e+06
  -9.661919e+05   1.768055e+06
  -6.352848e+05   6.523480e+05
  -1.112563e+06   9.889006e+05
  -2.193970e+06   9.185038e+05
  -2.556595e+06  -6.644854e+05
  -1.426556e+06  -2.386348e+06
   5.428614e+05  -2.207697e+06
   1.940173e+06  -2.855077e+04
   1.715032e+06   2.237710e+06
  -1.438285e+05   2.713432e+06
  -2.438660e+06   1.133908e+06
  -3.391072e+06  -1.251554e+06
  -2.176403e+06  -2.818894e+06
   5.822422e+04  -2.794928e+06
   1.356580e+06  -1.775351e+06
   1.272820e+06  -9.923013e+05
   1.278166e+06  -9.135741e+05
   2.497454e+06  -7.720858e+05
   3.841282e+06   3.508967e+05
   3.218161e+06   2.260299e+06
   2.776884e+05   3.719703e+06
  -2.891836e+06   3.593625e+06
  -3.888826e+06   1.779510e+06
  -2.317217e+06  -6.624717e+05
   8.717385e+04  -2.110938e+06
   1.231381e+06  -1.594506e+06
   4.629546e+05   1.415883e+05
  -1.061634e+06   1.142697e+06
  -1.624358e+06   3.680167e+05
  -6.935163e+05  -9.956197e+05
   5.598338e+05  -1.029346e+06
   6.205440e+05   3.140688e+05
  -6.219096e+05   1.029949e+06
  -1.759175e+06  -3.170515e+05
  -1.413483e+06  -2.640499e+06
   4.258476e+05  -3.551233e+06
   2.539342e+06  -2.026472e+06
   3.523890e+06   7.014876e+05
   2.714902e+06   2.607342e+06
   6.367331e+05   2.671720e+06
  -1.214488e+06   1.406709e+06
  -1.515473e+06   1.634663e+05
  -4.567210e+05  -3.063495e+04
   3.569376e+05   6.725486e+05
  -2.522028e+05   1.152218e+06
  -1.558866e+06   5.795093e+05
  -1.815020e+06  -5.943369e+05
  -4.829465e+05  -1.166219e+06
   1.015411e+06  -6.068692e+05
   9.578398e+05   3.828767e+05
  -6.870753e+05   7.230606e+05
  -2.219433e+06   2.067263e+04
  -1.981172e+06  -1.218768e+06
   1.868406e+04  -2.061426e+06
   2.130990e+06  -1.765714e+06
   2.592141e+06  -3.811078e+05
   1.144048e+06   1.050281e+06
  -7.355665e+05   1.280905e+06
  -1.274602e+06   1.953248e+05
  -1.374416e+05  -8.982487e+05
   1.340376e+06  -6.890602e+05
   1.620628e+06   5.990435e+05
   4.959949e+05   1.502798e+06
  -8.700874e+05   1.077191e+06
  -1.217538e+06  -8.240139e+04
  -3.780383e+05  -6.604680e+05
   6.483715e+05  -1.004411e+05
   6.667421e+05   9.257845e+05
  -5.324863e+05   1.295977e+06
  -1.846648e+06   4.962905e+05
  -1.872901e+06  -9.409404e+05
  -4.069400e+05  -1.878044e+06
   1.229348e+06  -1.553856e+06
   1.566381e+06  -2.992739e+05
   5.475806e+05   7.572546e+05
  -5.536581e+05   7.968966e+05
  -6.586883e+05   7.636175e+04
   4.329834e+04  -4.795341e+05
   5.722722e+05  -3.431810e+05
   3.423051e+05   1.125143e+05
  -3.125140e+05   1.484327e+05
  -5.782228e+05  -4.511307e+05
   4.171271e+04  -1.083624e+06
   1.213866e+06  -9.000588e+05
   1.936004e+06   3.055939e+05
   1.397905e+06   1.749491e+06
  -1.419278e+05   2.280050e+06
  -1.485397e+06   1.458704e+06
  -1.684909e+06   5.194531e+03
  -9.787842e+05  -9.186214e+05
  -3.504240e+05  -8.459131e+05
  -3.121520e+05  -3.364622e+05
  -4.394488e+05  -2.096395e+05
  -8.794818e+04  -6.064429e+05
   7.428196e+05  -8.924624e+05
   1.374809e+06  -4.212866e+05
   1.108782e+06   6.810856e+05
  -1.276597e+05   1.499106e+06
  -1.593762e+06   1.134937e+06
  -2.156933e+06  -3.677190e+05
  -1.185747e+06  -1.899790e+06
   7.565177e+05  -2.220657e+06
   2.248671e+06  -1.115659e+06
   2.268554e+06   4.237037e+05
   1.104294e+06   1.222149e+06
  -7.763049e+04   1.043336e+06
  -4.654254e+05   6.200186e+05
  -2.506702e+05   6.725638e+05
  -1.529776e+05   1.088431e+06
  -5.502894e+05   1.123447e+06
  -1.128712e+06   3.018075e+05
  -1.238895e+06  -9.816962e+05
  -5.469295e+05  -1.753833e+06
   5.607030e+05  -1.349826e+06
   1.208841e+06  -5.435351e+04
   8.249549e+05   1.115855e+06
  -2.320164e+05   1.302747e+06
  -9.661457e+05   5.254436e+05
  -7.676574e+05  -4.531801e+05
  -3.821624e+04  -9.121448e+05
   3.283441e+05  -7.695244e+05
   9.845829e+03  -4.536514e+05
  -3.815786e+05  -3.342304e+05
  -4.573886e+04  -3.688694e+05
   1.011786e+06  -2.467520e+05
   1.854502e+06   2.228946e+05
   1.530407e+06   8.715774e+05
   9.661447e+04   1.268349e+06
  -1.337305e+06   1.073429e+06
  -1.659189e+06   3.743463e+05
  -8.284942e+05  -3.156387e+05
   1.758844e+05  -4.801408e+05
   4.446881e+05  -9.686898e+04
   5.309682e+03   3.153072e+05
  -4.448804e+05   2.276142e+05
  -4.418577e+05  -3.083827e+05
  -1.602981e+05  -6.883808e+05
  -1.467396e+04  -4.449702e+05
  -1.403074e+05   1.542262e+05
  -3.288521e+05   3.521350e+05
  -2.801433e+05  -2.024803e+05
   1.565505e+05  -9.515557e+05
   8.082605e+05  -9.958764e+05
   1.154439e+06  -1.392884e+05
   7.076262e+05   8.297054e+05
  -3.559862e+05   9.856550e+05
  -1.097649e+06   2.594763e+05
  -6.811205e+05  -5.454240e+05
   6.170146e+05  -6.410040e+05
   1.527361e+06   3.429486e+03
   1.080908e+06   7.655242e+05
  -3.449161e+05   1.015654e+06
  -1.420899e+06   6.079609e+05
  -1.242142e+06  -8.816678e+04
  -1.825989e+05  -5.015800e+05
   5.924400e+05  -3.100865e+05
   3.383887e+05   2.360957e+05
  -5.737060e+05   4.552562e+05
  -1.094566e+06  -1.147427e+05
  -5.716550e+05  -1.118270e+06
   6.060689e+05  -1.566212e+06
   1.411387e+06  -7.989004e+05
   1.186969e+06   7.169732e+05
   2.136231e+05   1.698017e+06
  -6.744569e+05   1.277909e+06
  -8.940207e+05  -9.472409e+04
  -4.869820e+05  -1.109523e+06
   1.190974e+05  -9.620081e+05
   5.084934e+05  -1.220771e+05
   4.970571e+05   3.618713e+05
   2.119925e+05   1.484966e+05
   2.301130e+04  -1.101258e+05
   1.907729e+05   2.271554e+05
   4.704494e+05   8.799806e+05
   2.697260e+05   1.029325e+06
  -5.873655e+05   4.051432e+05
  -1.410321e+06  -4.104469e+05
  -1.287572e+06  -7.666948e+05
  -1.975218e+05  -6.415133e+05
   8.502387e+05  -4.018393e+05
   9.458822e+05  -2.112032e+05
   2.970312e+05   6.220335e+03
  -1.532921e+05   2.078754e+05
   3.265155e+04   2.313369e+05
   3.163721e+05   1.266010e+05
   2.260384e+04   1.266739e+05
  -6.890814e+05   2.016911e+05
  -9.735877e+05  -1.333730e+04
  -3.200208e+05  -6.243522e+05
   8.319483e+05  -1.074722e+06
   1.535315e+06  -6.922511e+05
   1.247252e+06   4.139675e+05
   2.535658e+05   1.326033e+06
  -6.797667e+05   1.283467e+06
  -9.726664e+05   4.770533e+05
  -6.255303e+05  -2.455491e+05
  -1.027924e+05  -3.312067e+05
   1.182086e+05  -2.062104e+04
  -5.865524e+04   6.243963e+04
  -3.193453e+05  -3.236937e+05
  -2.701726e+05  -7.566596e+05
   1.697374e+05  -6.253011e+05
   6.499103e+05   1.467301e+05
   6.674328e+05   9.199531e+05
   5.702914e+04   9.538282e+05
  -7.346546e+05   1.827854e+05
  -9.581236e+05  -7.130595e+05
  -3.044526e+05  -1.010849e+06
   6.652402e+05  -6.017492e+05
   1.020068e+06   6.835492e+04
   4.771787e+05   5.238755e+05
  -2.511280e+05   5.871062e+05
  -3.011881e+05   3.416723e+05
   2.837373e+05   2.949490e+04
   6.224071e+05  -3.667714e+04
   1.247109e+05   2.752096e+05
  -7.651151e+05   6.566746e+05
  -1.131671e+06   5.691879e+05
  -6.687095e+05  -1.091770e+05
   8.039803e+04  -7.956492e+05
   4.575956e+05  -7.937561e+05
   3.415998e+05  -1.245415e+05
   2.796624e+04   4.681630e+05
  -2.256852e+05   3.829003e+05
  -3.316977e+05  -1.795839e+05
  -2.392511e+05  -5.391893e+05
   5.229394e+04  -3.579866e+05
   3.636466e+05   5.646700e+04
   4.365918e+05   2.224376e+05
   2.308943e+05   5.775072e+04
  -1.383844e+04  -1.018176e+05
  -8.380089e+04   3.619363e+04
  -5.080704e+04   3.558879e+05
  -1.261425e+05   4.579952e+05
  -3.182083e+05   1.224181e+05
  -3.689760e+05  -3.991989e+05
  -7.340390e+04  -6.057748e+05
   4.001810e+05  -2.759044e+05
   5.936564e+05   2.810301e+05
   2.207621e+05   5.511085e+05
  -4.565513e+05   3.442703e+05
  -7.997369e+05  -7.702692e+04
  -4.407145e+05  -3.475179e+05
   2.669463e+05  -3.448892e+05
   5.800547e+05  -1.815738e+05
   1.980317e+05  -1.658499e+04
  -3.707319e+05   2.756104e+04
  -3.984200e+05  -1.069131e+05
   1.973336e+05  -3.023954e+05
   7.606243e+05  -2.572471e+05
