
 $NMID
 id='ANONYMOUS ', fmtdat='(2E16.6)'
 volume=1.0
 tramp=1.0
 $END
   4.266858e+07  -5.857533e+05
   2.673598e+07   2.507170e+07
  -4.213630e+06   2.882848e+07
  -2.055710e+07   1.265714e+07
  -1.332645e+07  -4.008414e+06
   1.825141e+06  -7.332622e+06
   7.838962e+06   2.543035e+04
   3.006216e+06   7.429624e+06
  -4.287962e+06   8.061701e+06
  -7.544469e+06   2.252259e+06
  -5.628704e+06  -4.830940e+06
  -6.733410e+05  -6.955828e+06
   3.189333e+06  -2.048940e+06
   2.176844e+06   4.727463e+06
  -2.851243e+06   5.687720e+06
  -6.259755e+06  -6.469554e+05
  -3.802625e+06  -7.876368e+06
   2.634417e+06  -9.320700e+06
   7.709668e+06  -4.674514e+06
   8.208911e+06   1.607045e+06
   4.828016e+06   5.613933e+06
   4.772404e+05   6.187636e+06
  -1.721975e+06   4.328564e+06
  -6.193124e+05   2.419719e+06
   1.250511e+06   2.515827e+06
  -1.318955e+05   3.849955e+06
  -4.884856e+06   3.377837e+06
  -8.008946e+06  -1.551463e+04
  -5.488549e+06  -3.503192e+06
   2.407839e+05  -3.905574e+06
   3.372102e+06  -1.636179e+06
   1.866826e+06   5.405197e+05
  -1.213997e+06   1.071887e+06
  -2.564757e+06   1.272816e+05
  -1.811766e+06  -1.790585e+06
  -8.689418e+04  -3.493687e+06
   1.604700e+06  -2.856363e+06
   2.139538e+06   3.804729e+05
   9.246599e+05   2.720492e+06
  -5.224521e+05   9.926806e+05
   9.053511e+04  -2.395986e+06
   2.141167e+06  -2.044240e+06
   2.104830e+06   2.394679e+06
  -1.433527e+06   4.835179e+06
  -4.923350e+06   1.076247e+06
  -3.947917e+06  -5.026924e+06
   1.154677e+06  -6.485208e+06
   5.673203e+06  -1.953810e+06
   5.766622e+06   3.477520e+06
   1.800502e+06   4.975445e+06
  -2.814265e+06   2.465772e+06
  -4.579591e+06  -1.032966e+06
  -2.320808e+06  -2.802774e+06
   1.743488e+06  -1.909613e+06
   3.635871e+06   5.403540e+05
   1.701919e+06   2.055758e+06
  -1.296278e+06   1.123094e+06
  -1.553843e+06  -8.084494e+05
   8.220739e+05  -9.996294e+05
   2.099019e+06   9.140679e+05
   7.006729e+04   2.470592e+06
  -3.167439e+06   1.722735e+06
  -4.158501e+06  -6.571206e+05
  -2.014881e+06  -2.949416e+06
   1.509904e+06  -4.217143e+06
   4.311979e+06  -3.851021e+06
   5.101899e+06  -1.238752e+06
   3.528167e+06   2.688477e+06
   6.430758e+05   5.066276e+06
  -1.387583e+06   4.056761e+06
  -1.346953e+06   1.369524e+06
  -4.072909e+05   1.365994e+05
  -5.124745e+05   8.474093e+05
  -1.755039e+06   1.190867e+06
  -2.452854e+06  -2.499801e+05
  -1.530683e+06  -2.024359e+06
   3.004861e+05  -1.990781e+06
   1.616130e+06  -4.204813e+04
   1.506163e+06   2.056757e+06
  -1.383323e+05   2.620748e+06
  -2.442262e+06   1.240313e+06
  -3.628115e+06  -1.201892e+06
  -2.465174e+06  -3.100925e+06
   8.409934e+04  -3.278151e+06
   1.723653e+06  -2.086472e+06
   1.665746e+06  -9.817715e+05
   1.487409e+06  -7.169673e+05
   2.567303e+06  -5.167113e+05
   3.817402e+06   6.223494e+05
   3.068661e+06   2.433782e+06
   8.768972e+04   3.669908e+06
  -2.940341e+06   3.414457e+06
  -3.798675e+06   1.712161e+06
  -2.293546e+06  -5.600391e+05
  -3.478385e+04  -2.011755e+06
   1.121801e+06  -1.606704e+06
   4.734677e+05   9.348718e+04
  -1.031957e+06   1.114853e+06
  -1.662189e+06   3.160650e+05
  -7.328103e+05  -1.044767e+06
   5.323539e+05  -9.819685e+05
   4.793149e+05   3.559447e+05
  -8.383107e+05   7.939924e+05
  -1.707981e+06  -8.172945e+05
  -8.877759e+05  -2.936407e+06
   1.078360e+06  -3.259488e+06
   2.746455e+06  -1.380539e+06
   3.173495e+06   1.130426e+06
   2.234043e+06   2.597776e+06
   4.187011e+05   2.480932e+06
  -1.183879e+06   1.300565e+06
  -1.443989e+06   1.387453e+05
  -4.421557e+05  -4.933932e+04
   3.155905e+05   6.774896e+05
  -3.444346e+05   1.165794e+06
  -1.644347e+06   5.032106e+05
  -1.792018e+06  -7.498454e+05
  -3.729317e+05  -1.231891e+06
   1.046343e+06  -5.228587e+05
   8.508982e+05   4.256862e+05
  -7.489648e+05   5.582696e+05
  -2.059587e+06  -2.194535e+05
  -1.693676e+06  -1.272506e+06
   1.990421e+05  -1.881404e+06
   2.131376e+06  -1.528324e+06
   2.520111e+06  -2.262457e+05
   1.076331e+06   1.120067e+06
  -8.104425e+05   1.287874e+06
  -1.337702e+06   1.485324e+05
  -1.384242e+05  -9.319023e+05
   1.357987e+06  -6.311561e+05
   1.547126e+06   6.978784e+05
   3.393801e+05   1.497303e+06
  -9.614227e+05   9.329841e+05
  -1.160804e+06  -2.311606e+05
  -2.684574e+05  -6.953089e+05
   6.855016e+05  -5.748821e+04
   6.350176e+05   9.447082e+05
  -5.512573e+05   1.258761e+06
  -1.814878e+06   4.368693e+05
  -1.802653e+06  -9.825739e+05
  -3.166736e+05  -1.862683e+06
   1.297522e+06  -1.461813e+06
   1.552974e+06  -1.890625e+05
   4.664187e+05   7.824887e+05
  -5.952637e+05   7.327180e+05
  -6.042784e+05   4.921375e+04
   9.704505e+04  -3.887028e+05
   5.070138e+05  -2.317692e+05
   2.023264e+05   9.846218e+04
  -3.715404e+05   1.891579e+04
  -5.008998e+05  -5.514656e+05
   1.520085e+05  -1.065276e+06
   1.242886e+06  -8.043289e+05
   1.870955e+06   3.933023e+05
   1.289317e+06   1.767542e+06
  -2.351408e+05   2.192276e+06
  -1.495608e+06   1.292381e+06
  -1.574824e+06  -1.147686e+05
  -8.182371e+05  -8.781442e+05
  -2.747031e+05  -6.993103e+05
  -3.597580e+05  -2.558421e+05
  -5.023271e+05  -2.536398e+05
  -7.107304e+04  -6.464285e+05
   7.853956e+05  -8.160114e+05
   1.331553e+06  -3.034263e+05
   9.809084e+05   6.894046e+05
  -2.284037e+05   1.373876e+06
  -1.584405e+06   9.799008e+05
  -2.046161e+06  -4.635343e+05
  -1.026155e+06  -1.908804e+06
   8.964949e+05  -2.127641e+06
   2.281016e+06  -9.369215e+05
   2.149031e+06   5.825271e+05
   9.175631e+05   1.237138e+06
  -1.744229e+05   9.229338e+05
  -4.169395e+05   5.028376e+05
  -1.617727e+05   6.526800e+05
  -1.416146e+05   1.118334e+06
  -6.018145e+05   1.117936e+06
  -1.143600e+06   2.615173e+05
  -1.177518e+06  -9.978194e+05
  -4.661999e+05  -1.720396e+06
   5.908162e+05  -1.286289e+06
   1.168356e+06   1.246315e+04
   7.336153e+05   1.150315e+06
  -3.338666e+05   1.259295e+06
  -1.021241e+06   4.051548e+05
  -7.325373e+05  -5.693180e+05
   6.907015e+04  -9.405805e+05
   4.360606e+05  -7.208705e+05
   6.380052e+04  -4.052518e+05
  -3.712496e+05  -3.205282e+05
  -3.939224e+04  -3.507153e+05
   1.020323e+06  -1.853415e+05
   1.830025e+06   3.111475e+05
   1.448627e+06   9.388465e+05
  -1.133329e+04   1.274888e+06
  -1.404232e+06   1.003378e+06
  -1.648134e+06   2.543209e+05
  -7.711231e+05  -4.117886e+05
   2.186014e+05  -4.909617e+05
   4.538202e+05  -4.645137e+04
   1.323985e+04   3.469422e+05
  -4.175684e+05   2.137132e+05
  -4.233598e+05  -3.156317e+05
  -1.790179e+05  -6.579734e+05
  -4.492539e+04  -4.281348e+05
  -1.357451e+05   1.072567e+05
  -2.920345e+05   2.836688e+05
  -2.530657e+05  -2.116045e+05
   1.632823e+05  -8.963742e+05
   8.246355e+05  -9.428790e+05
   1.185067e+06  -1.249202e+05
   7.141652e+05   8.294497e+05
  -3.836686e+05   9.899369e+05
  -1.108732e+06   2.583433e+05
  -6.458142e+05  -5.384766e+05
   6.373622e+05  -5.844699e+05
   1.454548e+06   9.614010e+04
   9.438265e+05   7.992201e+05
  -4.273957e+05   9.240318e+05
  -1.385061e+06   4.547396e+05
  -1.149746e+06  -1.754671e+05
  -1.285116e+05  -4.800466e+05
   5.924470e+05  -2.504712e+05
   3.355811e+05   2.587958e+05
  -5.478430e+05   4.440568e+05
  -1.059678e+06  -1.135243e+05
  -5.582131e+05  -1.082850e+06
   5.887954e+05  -1.511300e+06
   1.366695e+06  -7.544600e+05
   1.121525e+06   7.167804e+05
   1.492946e+05   1.633536e+06
  -6.978220e+05   1.178026e+06
  -8.481002e+05  -1.585155e+05
  -3.920472e+05  -1.092333e+06
   1.956530e+05  -8.974030e+05
   5.078508e+05  -7.969521e+04
   4.328004e+05   3.598617e+05
   1.629302e+05   1.397117e+05
   4.051182e+04  -9.397735e+04
   2.271245e+05   2.507969e+05
   4.393278e+05   8.765063e+05
   1.767521e+05   9.939825e+05
  -6.313823e+05   3.599358e+05
  -1.335287e+06  -4.474972e+05
  -1.169425e+06  -7.871927e+05
  -1.609552e+05  -6.337897e+05
   7.976065e+05  -3.592455e+05
   9.052113e+05  -1.542413e+05
   3.163220e+05   3.855307e+04
  -1.414298e+05   1.984300e+05
  -2.007108e+04   2.025440e+05
   2.549001e+05   1.083884e+05
   3.573845e+04   1.198132e+05
  -6.220165e+05   1.883545e+05
  -9.446083e+05  -3.115842e+04
  -3.553855e+05  -6.200524e+05
   7.944554e+05  -1.036980e+06
   1.534832e+06  -6.519465e+05
   1.246443e+06   4.132607e+05
   2.200557e+05   1.279547e+06
  -7.089364e+05   1.232221e+06
  -9.543430e+05   4.608263e+05
  -5.893120e+05  -2.310830e+05
  -1.088219e+05  -3.234653e+05
   7.508027e+04  -4.271443e+04
  -7.349689e+04   2.785997e+04
  -2.771297e+05  -3.364520e+05
  -2.189254e+05  -7.396692e+05
   1.740717e+05  -6.084522e+05
   6.141331e+05   1.312364e+05
   6.428690e+05   8.787650e+05
   7.517156e+04   9.271673e+05
  -6.878314e+05   1.963315e+05
  -9.174448e+05  -6.776003e+05
  -2.924318e+05  -9.870380e+05
   6.526004e+05  -5.933052e+05
   1.004218e+06   8.322795e+04
   4.706498e+05   5.490670e+05
  -2.619873e+05   5.990808e+05
  -3.363339e+05   3.312855e+05
   2.336284e+05   2.262318e+04
   5.914791e+05  -2.325078e+04
   1.258933e+05   2.767080e+05
  -7.585952e+05   6.058032e+05
  -1.143893e+06   4.867862e+05
  -6.820462e+05  -1.556725e+05
   9.756430e+04  -7.816112e+05
   4.994485e+05  -7.695771e+05
   3.720485e+05  -1.392362e+05
   3.381185e+04   4.363011e+05
  -2.211658e+05   3.843104e+05
  -3.121892e+05  -1.480919e+05
  -2.210853e+05  -5.261048e+05
   5.067874e+04  -3.762020e+05
   3.509074e+05   4.946110e+04
   4.281206e+05   2.518058e+05
   2.220420e+05   8.448808e+04
  -2.886680e+04  -1.261022e+05
  -8.361831e+04  -2.472871e+04
  -1.052544e+04   3.186592e+05
  -6.439594e+04   4.763237e+05
  -2.872187e+05   1.733906e+05
  -3.914191e+05  -3.528190e+05
  -1.168271e+05  -5.802369e+05
   3.756635e+05  -2.726381e+05
   5.888990e+05   2.635517e+05
   2.161529e+05   5.235378e+05
  -4.609458e+05   3.254993e+05
  -7.912338e+05  -7.974358e+04
  -4.268606e+05  -3.466475e+05
   2.667930e+05  -3.526989e+05
   5.743459e+05  -1.925755e+05
   2.195878e+05  -1.676329e+04
  -3.192479e+05   4.461148e+04
  -3.658278e+05  -7.453687e+04
   1.672456e+05  -2.623361e+05
   6.889776e+05  -2.283208e+05
