
 $NMID
 id='ANONYMOUS ', fmtdat='(2E16.6)'
 volume=1.0
 tramp=1.0
 $END
  -3.345913e+06  -1.357841e+06
  -1.421445e+06  -2.634480e+06
   1.063110e+06  -2.100643e+06
   2.003065e+06  -5.833484e+05
   1.090296e+06   5.304058e+05
  -2.625874e+05   5.828854e+05
  -7.070414e+05  -8.567145e+04
  -1.671798e+05  -7.025665e+05
   5.413011e+05  -6.961799e+05
   7.290945e+05  -6.402201e+04
   3.413528e+05   6.157115e+05
  -1.891883e+05   6.710589e+05
  -3.659758e+05   4.376631e+04
  -4.381834e+04  -5.774401e+05
   4.280300e+05  -4.975950e+05
   5.298167e+05   2.005776e+05
   1.008381e+05   7.856733e+05
  -5.026383e+05   7.107383e+05
  -7.877884e+05   1.196071e+05
  -5.849502e+05  -4.412359e+05
  -1.301058e+05  -6.026367e+05
   1.974257e+05  -4.237789e+05
   1.908754e+05  -2.251540e+05
  -2.119229e+04  -2.507609e+05
  -8.295521e+04  -4.264480e+05
   2.212437e+05  -4.346815e+05
   6.663375e+05  -9.302317e+04
   7.678210e+05   3.735178e+05
   3.379177e+05   5.519156e+05
  -2.455881e+05   3.157178e+05
  -4.375792e+05  -5.441451e+04
  -1.247217e+05  -2.219097e+05
   2.923269e+05  -1.111441e+05
   3.781919e+05   1.410228e+05
   9.961113e+04   3.594839e+05
  -2.216996e+05   3.850886e+05
  -2.846184e+05   1.488195e+05
  -8.992812e+04  -1.726526e+05
   1.022655e+05  -2.390399e+05
   5.919359e+04   3.787927e+04
  -1.705907e+05   2.920963e+05
  -3.010719e+05   1.403283e+05
  -1.324201e+05  -2.612307e+05
   1.993476e+05  -3.688993e+05
   3.521628e+05   2.473715e+04
   1.450118e+05   4.846296e+05
  -2.582652e+05   4.680151e+05
  -5.197948e+05  -2.616283e+04
  -4.264727e+05  -5.008927e+05
  -4.218345e+04  -5.385486e+05
   3.488515e+05  -1.777376e+05
   4.461455e+05   2.223757e+05
   1.814875e+05   3.434522e+05
  -1.889627e+05   1.456621e+05
  -3.124702e+05  -1.382910e+05
  -1.101968e+05  -2.263151e+05
   1.404511e+05  -6.380305e+04
   1.438471e+05   1.273692e+05
  -6.334511e+04   1.171101e+05
  -1.828338e+05  -6.023644e+04
  -3.351320e+04  -1.724691e+05
   2.387099e+05  -8.251836e+04
   3.327083e+05   1.263052e+05
   1.039757e+05   2.916220e+05
  -3.038518e+05   3.171721e+05
  -5.850546e+05   1.732274e+05
  -5.253282e+05  -1.113996e+05
  -1.853162e+05  -3.996519e+05
   1.523950e+05  -4.993170e+05
   2.557209e+05  -3.591475e+05
   1.641800e+05  -1.488410e+05
   1.005522e+05  -5.733663e+04
   1.803491e+05  -6.100153e+04
   2.857351e+05   9.609909e+03
   2.424742e+05   1.975253e+05
   4.162417e+04   3.272378e+05
  -1.622951e+05   2.183894e+05
  -2.175132e+05  -7.906376e+04
  -8.982999e+04  -3.144532e+05
   1.360626e+05  -2.802495e+05
   3.057951e+05  -3.703059e+03
   2.851846e+05   2.886023e+05
   8.059320e+04   3.831177e+05
  -1.393047e+05   2.657710e+05
  -2.102124e+05   1.025888e+05
  -1.600742e+05   3.800688e+04
  -1.616315e+05   4.079407e+04
  -2.853405e+05  -2.360862e+04
  -3.764137e+05  -1.983817e+05
  -2.328163e+05  -3.699975e+05
   1.307382e+05  -3.959485e+05
   4.559505e+05  -2.462290e+05
   4.853393e+05  -1.131460e+04
   2.134057e+05   1.772684e+05
  -1.074373e+05   2.206575e+05
  -2.058683e+05   1.116648e+05
  -4.454374e+04  -3.725851e+04
   1.615405e+05  -7.375066e+04
   1.845354e+05   3.148948e+04
   2.665019e+04   1.338306e+05
  -1.056491e+05   8.717486e+04
  -5.825471e+04  -5.505166e+04
   9.659922e+04  -8.760024e+04
   1.631079e+05   8.744578e+04
   4.547111e+04   3.170002e+05
  -1.736390e+05   3.529427e+05
  -3.374273e+05   1.191323e+05
  -3.412494e+05  -2.113488e+05
  -1.820870e+05  -3.883281e+05
   4.411788e+04  -3.101746e+05
   1.897423e+05  -9.423575e+04
   1.676280e+05   5.069850e+04
   4.654182e+04   2.362564e+04
  -9.247490e+03  -8.454519e+04
   7.285668e+04  -1.067857e+05
   1.828426e+05   6.489042e+03
   1.622611e+05   1.354894e+05
   4.077166e+03   1.396973e+05
  -1.290540e+05   2.342176e+04
  -8.757377e+04  -7.690778e+04
   9.580766e+04  -4.942570e+04
   2.317852e+05   8.463754e+04
   1.608121e+05   2.081382e+05
  -8.438334e+04   2.170139e+05
  -2.966102e+05   9.633726e+04
  -2.869282e+05  -7.049249e+04
  -7.375842e+04  -1.575284e+05
   1.309505e+05  -9.938525e+04
   1.387946e+05   3.555504e+04
  -2.529139e+04   9.842244e+04
  -1.679955e+05   1.434806e+04
  -1.434888e+05  -1.294487e+05
   8.685299e+03  -1.771264e+05
   1.330360e+05  -7.911121e+04
   1.245650e+05   5.505322e+04
   1.623992e+04   8.303085e+04
  -6.747884e+04  -1.505122e+04
  -2.839548e+04  -1.215853e+05
   1.102563e+05  -1.094586e+05
   2.116958e+05   2.918438e+04
   1.526584e+05   1.784337e+05
  -3.861434e+04   2.117921e+05
  -1.935330e+05   1.084956e+05
  -1.761357e+05  -3.510949e+04
  -2.733188e+04  -1.022782e+05
   9.016353e+04  -6.162651e+04
   7.500769e+04   1.844494e+04
  -2.011893e+04   5.053956e+04
  -7.413004e+04   1.630969e+04
  -3.652581e+04  -2.416289e+04
   3.301078e+04  -4.927732e+03
   3.941631e+04   6.686045e+04
  -4.889635e+04   1.075890e+05
  -1.626146e+05   4.034508e+04
  -1.863152e+05  -1.146087e+05
  -6.856978e+04  -2.411192e+05
   1.134336e+05  -2.314350e+05
   2.175842e+05  -9.059599e+04
   1.780466e+05   6.977900e+04
   6.696661e+04   1.406502e+05
   2.289483e+03   1.105456e+05
   1.450811e+04   5.395110e+04
   3.065944e+04   4.008769e+04
  -1.982531e+04   6.317050e+04
  -1.144987e+05   5.912508e+04
  -1.597325e+05  -1.493776e+04
  -8.684390e+04  -1.188182e+05
   7.591032e+04  -1.516945e+05
   2.132639e+05  -5.017343e+04
   2.081396e+05   1.303228e+05
   4.305592e+04   2.463282e+05
  -1.702439e+05   1.963545e+05
  -2.780023e+05   2.084533e+04
  -2.184023e+05  -1.375499e+05
  -6.755687e+04  -1.733009e+05
   4.902224e+04  -1.089309e+05
   7.736580e+04  -4.911393e+04
   6.123202e+04  -5.983335e+04
   6.694075e+04  -1.036114e+05
   1.055324e+05  -9.000015e+04
   1.285950e+05   1.879137e+04
   8.540121e+04   1.560491e+05
  -1.931731e+04   2.060927e+05
  -1.169658e+05   1.162931e+05
  -1.281005e+05  -4.525358e+04
  -3.822578e+04  -1.490913e+05
   7.735958e+04  -1.241974e+05
   1.185121e+05  -1.568598e+04
   5.814185e+04   7.462291e+04
  -3.233722e+04   9.210201e+04
  -6.197835e+04   6.514151e+04
  -1.810882e+04   4.849023e+04
   2.385567e+04   5.288743e+04
  -1.237452e+04   4.067717e+04
  -1.135476e+05  -1.864457e+04
  -1.792414e+05  -1.034042e+05
  -1.202870e+05  -1.547667e+05
   4.186455e+04  -1.323057e+05
   1.814209e+05  -5.152732e+04
   1.867348e+05   3.076122e+04
   7.277563e+04   6.394910e+04
  -3.792875e+04   3.966168e+04
  -4.869984e+04  -7.975631e+03
   1.580243e+04  -3.070272e+04
   5.837821e+04  -3.384054e+03
   3.185044e+04   5.203077e+04
  -1.688050e+04   8.040522e+04
  -2.097862e+04   4.793724e+04
   2.119276e+04  -1.179615e+04
   5.072740e+04  -2.524415e+04
   1.968673e+04   3.231501e+04
  -5.951347e+04   9.241035e+04
  -1.265584e+05   6.667162e+04
  -1.215403e+05  -3.901861e+04
  -3.304371e+04  -1.176514e+05
   8.055608e+04  -8.335430e+04
   1.236490e+05   2.496274e+04
   4.651253e+04   8.777065e+04
  -9.125918e+04   4.005884e+04
  -1.596499e+05  -6.505943e+04
  -8.289791e+04  -1.249068e+05
   7.650423e+04  -9.233440e+04
   1.739501e+05  -5.986000e+03
   1.275559e+05   6.005043e+04
  -8.967087e+02   6.045736e+04
  -7.418494e+04   8.244351e+03
  -2.371974e+04  -3.811162e+04
   8.109353e+04  -2.100473e+04
   1.088752e+05   6.206716e+04
   7.839394e+03   1.431583e+05
  -1.355701e+05   1.359866e+05
  -1.843495e+05   1.935688e+04
  -9.236299e+04  -1.282219e+05
   5.255952e+04  -1.872819e+05
   1.259101e+05  -1.054326e+05
   8.905082e+04   4.663794e+04
   4.481088e+03   1.358581e+05
  -5.081519e+04   9.586204e+04
  -5.680084e+04  -8.341239e+03
  -3.820265e+04  -5.917607e+04
  -1.829875e+04  -2.475433e+04
  -6.179188e+03   1.115792e+04
  -6.183519e+03  -3.100506e+04
  -9.311889e+03  -1.118426e+05
   1.361044e+04  -1.191239e+05
   7.546884e+04  -1.649121e+04
   1.297276e+05   1.044557e+05
   1.034722e+05   1.356648e+05
  -7.415115e+03   7.477960e+04
  -1.088047e+05   4.815173e+03
  -1.085167e+05  -1.829246e+04
  -2.825128e+04  -1.272078e+04
   2.619068e+04  -1.508148e+04
   3.742141e+03  -2.642959e+04
  -3.065537e+04  -2.783789e+04
   4.347934e+03  -1.433532e+04
   8.404186e+04   9.788820e+03
   1.005635e+05   4.512537e+04
   1.245661e+03   7.960021e+04
  -1.373779e+05   7.422200e+04
  -1.889745e+05   1.710531e+03
  -1.082538e+05  -1.008766e+05
   3.329589e+04  -1.501422e+05
   1.268304e+05  -1.022877e+05
   1.225464e+05  -4.553788e+03
   5.496438e+04   5.460894e+04
  -5.190686e+03   3.904322e+04
  -1.615767e+04  -4.295601e+03
   7.371806e+03  -5.708050e+03
   2.014634e+04   4.643526e+04
  -3.852284e+03   9.027486e+04
  -4.580805e+04   5.721488e+04
  -6.226615e+04  -4.565146e+04
  -2.773079e+04  -1.276729e+05
   3.952269e+04  -1.024665e+05
   8.718549e+04   1.581782e+04
   6.800074e+04   1.196728e+05
  -1.507032e+04   1.191406e+05
  -9.697798e+04   3.109060e+04
  -1.018803e+05  -5.351112e+04
  -2.428993e+04  -7.393640e+04
   5.244716e+04  -4.716267e+04
   4.401725e+04  -2.111240e+04
  -3.122025e+04  -1.623361e+04
  -6.718450e+04  -2.412577e+04
   3.283347e+02  -3.390676e+04
   1.087347e+05  -3.492428e+04
   1.403967e+05  -1.068658e+04
   6.173329e+04   3.957123e+04
  -4.412986e+04   7.841358e+04
  -8.082568e+04   6.077825e+04
  -3.890535e+04  -4.801995e+03
   1.906703e+04  -5.147540e+04
   4.138527e+04  -2.848425e+04
   2.728383e+04   3.583229e+04
   6.118397e+02   6.698030e+04
  -2.252136e+04   3.294060e+04
  -3.556816e+04  -2.308445e+04
  -3.443043e+04  -4.108886e+04
  -2.111995e+04  -1.482108e+04
  -4.705849e+03   9.596771e+03
   9.375311e+03  -3.937291e+03
   2.404083e+04  -3.719076e+04
   3.887346e+04  -4.065924e+04
   4.123056e+04   5.403979e+03
   1.822114e+04   6.168068e+04
  -2.349816e+04   6.781641e+04
  -5.549286e+04   1.001408e+04
  -4.807800e+04  -5.770378e+04
   2.556540e+03  -6.846878e+04
   6.221397e+04  -1.498368e+04
   7.869907e+04   4.502178e+04
   2.977974e+04   5.603790e+04
  -4.359270e+04   2.230434e+04
  -6.849069e+04  -9.222499e+03
  -1.965491e+04  -7.999487e+03
   4.303093e+04   1.480488e+04
   3.858499e+04   3.129939e+04
  -3.575808e+04   2.496961e+04
  -9.437091e+04  -6.198211e+03
