
 $NMID
 id='ANONYMOUS ', fmtdat='(2E16.6)'
 volume=1.0
 tramp=1.0
 $END
  -3.761306e+07  -2.379793e+06
  -2.203066e+07  -2.233683e+07
   4.587375e+06  -2.433531e+07
   1.797418e+07  -1.106686e+07
   1.164337e+07   2.698295e+06
  -1.304599e+06   6.239819e+06
  -6.840492e+06   5.753316e+05
  -3.076939e+06  -6.323302e+06
   3.409876e+06  -7.654264e+06
   6.694542e+06  -2.344936e+06
   5.057133e+06   4.706233e+06
   3.575011e+05   6.699335e+06
  -3.210517e+06   1.630078e+06
  -2.126096e+06  -4.942491e+06
   2.551695e+06  -5.627497e+06
   5.612529e+06   5.055794e+05
   3.300512e+06   7.211303e+06
  -2.628207e+06   8.353490e+06
  -7.188383e+06   3.768875e+06
  -7.225309e+06  -2.166531e+06
  -3.576044e+06  -5.455621e+06
   3.788771e+05  -5.169240e+06
   1.519278e+06  -3.115062e+06
  -3.559571e+05  -2.029301e+06
  -1.909489e+06  -3.066649e+06
   3.744730e+05  -4.380212e+06
   5.480103e+06  -3.140438e+06
   8.133747e+06   6.925456e+05
   4.991264e+06   3.899617e+06
  -9.762075e+05   3.801649e+06
  -3.946677e+06   1.171780e+06
  -1.949554e+06  -1.254631e+06
   1.783497e+06  -1.720450e+06
   3.374373e+06  -1.452142e+05
   2.064507e+06   2.439702e+06
  -3.850202e+05   3.963778e+06
  -1.976299e+06   2.485981e+06
  -1.718491e+06  -1.046732e+06
  -1.610938e+05  -2.692343e+06
   7.653432e+05  -2.825070e+05
  -3.397416e+05   2.932643e+06
  -2.199249e+06   2.139681e+06
  -1.933389e+06  -2.122916e+06
   1.114001e+06  -4.136153e+06
   3.900843e+06  -6.728323e+05
   3.030281e+06   4.513170e+06
  -1.230244e+06   5.514579e+06
  -5.184140e+06   1.425618e+06
  -5.452906e+06  -3.381468e+06
  -1.878253e+06  -4.771081e+06
   2.650904e+06  -2.521623e+06
   4.561651e+06   7.954629e+05
   2.461592e+06   2.561919e+06
  -1.458843e+06   1.769206e+06
  -3.314766e+06  -4.792228e+05
  -1.587333e+06  -1.823906e+06
   1.186009e+06  -9.812277e+05
   1.591546e+06   7.349388e+05
  -4.280126e+05   1.041972e+06
  -1.777145e+06  -3.957621e+05
  -3.605225e+05  -1.721676e+06
   2.416716e+06  -1.366154e+06
   3.571492e+06   4.401381e+05
   1.789870e+06   2.563264e+06
  -1.714810e+06   3.962510e+06
  -4.614831e+06   3.579503e+06
  -5.141883e+06   8.307420e+05
  -3.154762e+06  -2.977839e+06
  -3.062525e+05  -5.030310e+06
   1.276260e+06  -3.960215e+06
   1.050917e+06  -1.597563e+06
   4.829259e+05  -6.202064e+05
   1.049157e+06  -1.151981e+06
   2.352854e+06  -1.056908e+06
   2.771453e+06   7.087553e+05
   1.521461e+06   2.545772e+06
  -5.639743e+05   2.335469e+06
  -1.986255e+06   4.363436e+04
  -1.711482e+06  -2.336694e+06
   2.581188e+05  -2.831267e+06
   2.658967e+06  -1.087511e+06
   3.562012e+06   1.558633e+06
   2.102253e+06   3.224591e+06
  -3.723043e+05   3.017132e+06
  -1.690606e+06   1.730487e+06
  -1.458626e+06   8.411536e+05
  -1.362371e+06   7.855903e+05
  -2.589313e+06   6.124366e+05
  -3.919907e+06  -6.067757e+05
  -3.177482e+06  -2.520884e+06
  -8.341692e+04  -3.848595e+06
   3.168239e+06  -3.577264e+06
   4.136158e+06  -1.688246e+06
   2.432829e+06   7.874496e+05
  -1.416193e+05   2.236847e+06
  -1.361437e+06   1.652632e+06
  -5.015669e+05  -1.681854e+05
   1.159198e+06  -1.154602e+06
   1.720112e+06  -2.826391e+05
   6.713619e+05   1.107246e+06
  -6.232437e+05   1.057587e+06
  -6.001515e+05  -3.221576e+05
   6.674943e+05  -9.372066e+05
   1.657520e+06   4.976050e+05
   1.151817e+06   2.727152e+06
  -6.575146e+05   3.436895e+06
  -2.595648e+06   1.806200e+06
  -3.453900e+06  -8.840972e+05
  -2.627920e+06  -2.716771e+06
  -5.539792e+05  -2.729451e+06
   1.306302e+06  -1.404141e+06
   1.579053e+06  -1.117905e+05
   4.691371e+05   5.544457e+04
  -3.329588e+05  -7.123046e+05
   3.444328e+05  -1.172009e+06
   1.660051e+06  -4.889348e+05
   1.824775e+06   7.394807e+05
   4.079553e+05   1.230197e+06
  -1.077077e+06   5.648295e+05
  -9.567696e+05  -4.212962e+05
   7.110487e+05  -6.743223e+05
   2.220240e+06   8.038897e+04
   1.947160e+06   1.293460e+06
  -9.752183e+04   2.070143e+06
  -2.249216e+06   1.701695e+06
  -2.678280e+06   2.621787e+05
  -1.112902e+06  -1.154741e+06
   8.560196e+05  -1.286757e+06
   1.348240e+06  -1.101517e+05
   8.919656e+04   9.598713e+05
  -1.428349e+06   6.410131e+05
  -1.627346e+06  -7.064189e+05
  -4.172985e+05  -1.553410e+06
   9.402310e+05  -1.032154e+06
   1.218247e+06   1.576846e+05
   3.342421e+05   6.862118e+05
  -6.785509e+05   5.676690e+04
  -6.437454e+05  -9.958743e+05
   6.124438e+05  -1.320553e+06
   1.936800e+06  -4.285884e+05
   1.892251e+06   1.066706e+06
   3.203373e+05   1.960814e+06
  -1.353809e+06   1.530111e+06
  -1.623687e+06   2.168371e+05
  -5.142356e+05  -8.044878e+05
   6.097836e+05  -7.861191e+05
   6.796927e+05  -6.064307e+04
  -4.627072e+04   4.679443e+05
  -5.674118e+05   3.348409e+05
  -3.332301e+05  -8.395794e+04
   3.007995e+05  -9.552789e+04
   5.341988e+05   4.945114e+05
  -1.132049e+05   1.093243e+06
  -1.292247e+06   8.547968e+05
  -1.974760e+06  -4.134798e+05
  -1.352008e+06  -1.874628e+06
   2.543790e+05  -2.339501e+06
   1.582270e+06  -1.421394e+06
   1.709652e+06   6.774046e+04
   9.630342e+05   9.559565e+05
   3.570306e+05   8.552462e+05
   3.441197e+05   3.699655e+05
   4.460785e+05   2.699857e+05
   4.395284e+04   6.403543e+05
  -8.070253e+05   8.680064e+05
  -1.414573e+06   3.634247e+05
  -1.099831e+06  -7.295203e+05
   1.878107e+05  -1.508358e+06
   1.675823e+06  -1.083407e+06
   2.192013e+06   4.765563e+05
   1.116239e+06   2.003102e+06
  -9.011723e+05   2.229720e+06
  -2.364468e+06   1.013759e+06
  -2.286593e+06  -5.504687e+05
  -1.058481e+06  -1.281659e+06
   1.128804e+05  -1.038232e+06
   4.733602e+05  -6.216016e+05
   2.754369e+05  -7.183049e+05
   2.246097e+05  -1.143504e+06
   6.429220e+05  -1.133055e+06
   1.189630e+06  -2.468380e+05
   1.233772e+06   1.076636e+06
   4.808653e+05   1.836547e+06
  -6.423032e+05   1.367251e+06
  -1.242966e+06  -2.972386e+03
  -7.816922e+05  -1.189321e+06
   3.138505e+05  -1.314527e+06
   1.011197e+06  -4.632820e+05
   7.382847e+05   5.232091e+05
  -3.430884e+04   9.288560e+05
  -3.863507e+05   7.474445e+05
  -2.746978e+04   4.501427e+05
   3.846158e+05   3.645137e+05
   3.308742e+04   3.833188e+05
  -1.054746e+06   1.927933e+05
  -1.899664e+06  -3.362880e+05
  -1.524598e+06  -9.775771e+05
  -1.657283e+04  -1.301624e+06
   1.446276e+06  -1.023914e+06
   1.719650e+06  -2.905201e+05
   8.126450e+05   3.715218e+05
  -2.198937e+05   4.822709e+05
  -4.563666e+05   6.703035e+04
   2.059343e+04  -3.380969e+05
   4.698719e+05  -2.208563e+05
   4.413189e+05   3.422268e+05
   1.442918e+05   7.310195e+05
   2.371333e+03   4.743931e+05
   1.389838e+05  -1.475113e+05
   3.339315e+05  -3.527664e+05
   2.747211e+05   2.181062e+05
  -1.965902e+05   9.765493e+05
  -8.831610e+05   9.878392e+05
  -1.216663e+06   7.478140e+04
  -6.998044e+05  -9.078834e+05
   4.298727e+05  -1.006417e+06
   1.165322e+06  -2.110153e+05
   6.818322e+05   5.949739e+05
  -6.657278e+05   6.238565e+05
  -1.559385e+06  -7.546288e+04
  -1.059692e+06  -8.204570e+05
   3.988837e+05  -1.004962e+06
   1.466236e+06  -5.496264e+05
   1.254499e+06   1.415423e+05
   1.634983e+05   5.145539e+05
  -6.183039e+05   2.850705e+05
  -3.353528e+05  -2.676101e+05
   6.168844e+05  -4.542688e+05
   1.136373e+06   1.653567e+05
   5.504988e+05   1.191988e+06
  -6.967304e+05   1.607110e+06
  -1.500103e+06   7.708312e+05
  -1.196350e+06  -7.929661e+05
  -1.452752e+05  -1.760341e+06
   7.456203e+05  -1.280806e+06
   9.043878e+05   1.413835e+05
   4.431351e+05   1.155157e+06
  -1.660238e+05   9.675588e+05
  -5.253957e+05   9.537094e+04
  -4.927487e+05  -3.840429e+05
  -2.098401e+05  -1.495344e+05
  -2.772013e+04   1.062395e+05
  -1.865601e+05  -2.632333e+05
  -4.436895e+05  -9.366317e+05
  -2.256983e+05  -1.058232e+06
   6.295264e+05  -3.730678e+05
   1.433353e+06   4.859418e+05
   1.284323e+06   8.365501e+05
   1.700976e+05   6.696275e+05
  -8.902954e+05   3.865738e+05
  -9.778217e+05   1.759211e+05
  -3.036395e+05  -3.327482e+04
   1.669294e+05  -2.123073e+05
  -2.261734e+04  -2.228145e+05
  -3.210036e+05  -1.263331e+05
  -2.166874e+04  -1.366282e+05
   7.176107e+05  -1.947466e+05
   1.009522e+06   5.802651e+04
   3.099392e+05   6.815791e+05
  -9.101951e+05   1.089181e+06
  -1.632535e+06   6.393189e+05
  -1.285668e+06  -4.986570e+05
  -2.059780e+05  -1.384980e+06
   7.674699e+05  -1.292217e+06
   1.035860e+06  -4.526697e+05
   6.416363e+05   2.757452e+05
   9.420163e+04   3.529178e+05
  -1.249851e+05   3.270080e+04
   5.601334e+04  -5.219114e+04
   3.072026e+05   3.443227e+05
   2.414576e+05   7.881619e+05
  -2.055538e+05   6.428868e+05
  -6.730459e+05  -1.734849e+05
  -6.611930e+05  -9.847871e+05
  -2.141630e+04  -1.004547e+06
   7.766716e+05  -1.703145e+05
   9.719522e+05   7.790027e+05
   2.719498e+05   1.067811e+06
  -7.239179e+05   5.985732e+05
  -1.058205e+06  -1.220486e+05
  -4.638673e+05  -5.755456e+05
   2.989698e+05  -6.006106e+05
   3.354506e+05  -3.299276e+05
  -2.900895e+05  -2.907183e+04
  -6.449272e+05   1.362508e+04
  -1.159438e+05  -2.954849e+05
   8.190670e+05  -6.424513e+05
   1.191654e+06  -5.207630e+05
   6.825454e+05   1.609227e+05
  -1.240982e+05   8.221807e+05
  -5.199597e+05   7.909546e+05
  -3.738654e+05   1.052633e+05
  -1.579234e+04  -4.889583e+05
   2.562309e+05  -3.910565e+05
   3.451059e+05   1.944696e+05
   2.238812e+05   5.697558e+05
  -7.902181e+04   3.758068e+05
  -3.784770e+05  -7.303111e+04
  -4.354039e+05  -2.578801e+05
  -2.290851e+05  -7.402666e+04
   3.923715e+03   1.159835e+05
   7.039045e+04  -2.407792e+04
   5.370197e+04  -3.773335e+05
   1.523140e+05  -4.959150e+05
   3.512844e+05  -1.294466e+05
   3.840797e+05   4.375857e+05
   6.014528e+04   6.484841e+05
  -4.289136e+05   2.754782e+05
  -6.122237e+05  -3.212477e+05
  -2.106245e+05  -5.832304e+05
   4.911101e+05  -3.326217e+05
   8.319348e+05   1.201398e+05
   4.419144e+05   3.826957e+05
  -3.002749e+05   3.488957e+05
  -6.201690e+05   1.635577e+05
  -2.119026e+05   6.741562e+01
   3.875079e+05  -2.867482e+04
   4.173468e+05   1.175097e+05
  -2.052029e+05   3.100701e+05
  -7.903649e+05   2.481671e+05
