
 $NMID
 id='ANONYMOUS ', fmtdat='(2E16.6)'
 volume=1.0
 tramp=1.0
 $END
   3.434220e+07   7.222124e+05
   2.086114e+07   2.030961e+07
  -3.847540e+06   2.279695e+07
  -1.660116e+07   1.011985e+07
  -1.071922e+07  -3.028014e+06
   1.429127e+06  -6.004221e+06
   6.429359e+06  -3.170845e+05
   2.698152e+06   5.973427e+06
  -3.312129e+06   6.867807e+06
  -6.184743e+06   1.994561e+06
  -4.625945e+06  -4.205125e+06
  -3.737388e+05  -5.986168e+06
   2.889811e+06  -1.599862e+06
   1.959408e+06   4.213393e+06
  -2.283012e+06   4.899379e+06
  -5.075979e+06  -5.009403e+05
  -2.983024e+06  -6.450545e+06
   2.332884e+06  -7.467320e+06
   6.394443e+06  -3.463647e+06
   6.544590e+06   1.726283e+06
   3.515527e+06   4.780593e+06
  -2.693416e+04   4.867935e+06
  -1.466046e+06   3.167889e+06
  -1.948933e+05   1.840516e+06
   1.327418e+06   2.304162e+06
  -1.688582e+05   3.493255e+06
  -4.399694e+06   2.843279e+06
  -6.961610e+06  -2.519338e+05
  -4.579471e+06  -3.222451e+06
   4.993023e+05  -3.445606e+06
   3.209196e+06  -1.325633e+06
   1.722384e+06   7.464482e+05
  -1.249358e+06   1.233819e+06
  -2.530219e+06   1.262422e+05
  -1.605453e+06  -1.849894e+06
   2.204534e+05  -3.217307e+06
   1.610774e+06  -2.244943e+06
   1.685125e+06   6.952577e+05
   4.674518e+05   2.379063e+06
  -5.628587e+05   5.621392e+05
   1.635606e+05  -2.275889e+06
   1.841918e+06  -1.763536e+06
   1.735962e+06   1.972847e+06
  -1.067399e+06   3.865996e+06
  -3.774921e+06   7.665905e+05
  -3.027267e+06  -4.056100e+06
   9.613766e+05  -5.116435e+06
   4.610204e+06  -1.469313e+06
   4.798682e+06   2.882616e+06
   1.577677e+06   4.147475e+06
  -2.354202e+06   2.157218e+06
  -3.932419e+06  -7.776913e+05
  -2.033510e+06  -2.363138e+06
   1.430857e+06  -1.660302e+06
   3.044646e+06   4.330916e+05
   1.433714e+06   1.744039e+06
  -1.088960e+06   9.650898e+05
  -1.378098e+06  -6.852647e+05
   5.439309e+05  -9.309551e+05
   1.701523e+06   5.594561e+05
   2.198606e+05   1.841162e+06
  -2.377155e+06   1.342641e+06
  -3.297332e+06  -4.905550e+05
  -1.605826e+06  -2.358597e+06
   1.394459e+06  -3.441336e+06
   3.805714e+06  -3.106290e+06
   4.350830e+06  -8.509794e+05
   2.829460e+06   2.428597e+06
   3.739283e+05   4.324749e+06
  -1.188916e+06   3.423115e+06
  -1.073373e+06   1.218620e+06
  -3.820958e+05   2.483311e+05
  -6.142512e+05   8.197495e+05
  -1.700749e+06   9.928389e+05
  -2.230355e+06  -3.599085e+05
  -1.342782e+06  -1.947620e+06
   3.497461e+05  -1.889485e+06
   1.567355e+06  -7.386001e+04
   1.416810e+06   1.879532e+06
  -1.579258e+05   2.358188e+06
  -2.195536e+06   1.012990e+06
  -3.077547e+06  -1.187152e+06
  -1.929010e+06  -2.717243e+06
   2.246767e+05  -2.682070e+06
   1.470863e+06  -1.595078e+06
   1.327576e+06  -7.379880e+05
   1.198088e+06  -6.214688e+05
   2.170378e+06  -4.859616e+05
   3.264193e+06   5.097955e+05
   2.644045e+06   2.097940e+06
   8.771013e+04   3.192311e+06
  -2.574078e+06   2.974032e+06
  -3.377032e+06   1.453346e+06
  -2.041017e+06  -5.722000e+05
   2.774996e+04  -1.827181e+06
   1.082214e+06  -1.414083e+06
   4.568229e+05   1.114929e+05
  -9.261637e+05   1.000850e+06
  -1.475060e+06   2.824400e+05
  -6.271728e+05  -9.372200e+05
   5.068025e+05  -9.197521e+05
   5.029044e+05   2.656651e+05
  -6.098820e+05   7.672579e+05
  -1.428618e+06  -5.121495e+05
  -8.773633e+05  -2.389875e+06
   7.277374e+05  -2.856136e+06
   2.259657e+06  -1.360872e+06
   2.806868e+06   8.651154e+05
   2.065247e+06   2.268709e+06
   4.179279e+05   2.213937e+06
  -1.062163e+06   1.142098e+06
  -1.298190e+06   9.732858e+04
  -3.910913e+05  -5.407918e+04
   2.934455e+05   5.885011e+05
  -2.720763e+05   1.010208e+06
  -1.411633e+06   4.508251e+05
  -1.576397e+06  -6.202679e+05
  -3.716916e+05  -1.072580e+06
   8.973972e+05  -5.135251e+05
   8.029615e+05   3.236735e+05
  -5.738256e+05   5.286902e+05
  -1.794173e+06  -9.345981e+04
  -1.555591e+06  -1.061728e+06
   1.034443e+05  -1.677123e+06
   1.852582e+06  -1.387719e+06
   2.221831e+06  -2.142431e+05
   9.461297e+05   9.815268e+05
  -7.119526e+05   1.117658e+06
  -1.164829e+06   1.181411e+05
  -1.174883e+05  -8.203404e+05
   1.185918e+06  -5.662320e+05
   1.370973e+06   5.870587e+05
   3.420678e+05   1.313949e+06
  -8.105692e+05   8.671911e+05
  -1.040387e+06  -1.453801e+05
  -2.942928e+05  -5.989935e+05
   5.606317e+05  -8.737269e+04
   5.577897e+05   7.860107e+05
  -4.604021e+05   1.083467e+06
  -1.569340e+06   3.815113e+05
  -1.569267e+06  -8.543452e+05
  -2.809825e+05  -1.625444e+06
   1.128808e+06  -1.283546e+06
   1.371608e+06  -1.739344e+05
   4.412731e+05   6.952946e+05
  -5.082586e+05   6.773626e+05
  -5.706500e+05   6.755353e+04
   2.269397e+04  -3.677471e+05
   4.331124e+05  -2.651004e+05
   2.356534e+05   5.077246e+04
  -2.562180e+05   3.988661e+04
  -4.167752e+05  -4.287693e+05
   1.112449e+05  -8.922708e+05
   1.058760e+06  -6.939386e+05
   1.618449e+06   3.336004e+05
   1.117874e+06   1.534492e+06
  -2.089097e+05   1.925593e+06
  -1.313547e+06   1.161756e+06
  -1.404168e+06  -7.917415e+04
  -7.604456e+05  -7.992296e+05
  -2.613802e+05  -6.858504e+05
  -2.802731e+05  -2.778450e+05
  -3.776506e+05  -2.137760e+05
  -3.117387e+04  -5.235019e+05
   6.715340e+05  -6.902807e+05
   1.140534e+06  -2.696083e+05
   8.596745e+05   5.973408e+05
  -1.767375e+05   1.206628e+06
  -1.364156e+06   8.653904e+05
  -1.785113e+06  -3.915810e+05
  -9.192376e+05  -1.644932e+06
   7.390619e+05  -1.846021e+06
   1.958309e+06  -8.416845e+05
   1.891875e+06   4.661046e+05
   8.592757e+05   1.069793e+06
  -1.107831e+05   8.459262e+05
  -3.852729e+05   4.877462e+05
  -2.023206e+05   5.804791e+05
  -1.660232e+05   9.519021e+05
  -5.271985e+05   9.495378e+05
  -9.849282e+05   2.148721e+05
  -1.022532e+06  -8.789357e+05
  -4.054958e+05  -1.509283e+06
   5.211464e+05  -1.130587e+06
   1.025915e+06  -4.139590e+03
   6.509025e+05   9.813419e+05
  -2.614421e+05   1.091160e+06
  -8.476056e+05   3.838767e+05
  -6.200630e+05  -4.404429e+05
   2.863939e+04  -7.788578e+05
   3.258859e+05  -6.252778e+05
   3.099272e+04  -3.739616e+05
  -3.081155e+05  -2.969075e+05
  -2.080509e+04  -3.081553e+05
   8.672785e+05  -1.548514e+05
   1.558581e+06   2.723218e+05
   1.256592e+06   8.003677e+05
   2.266826e+04   1.078750e+06
  -1.187550e+06   8.567893e+05
  -1.425367e+06   2.436642e+05
  -6.801435e+05  -3.130487e+05
   1.797336e+05  -4.019591e+05
   3.789029e+05  -5.235370e+04
  -1.882037e+04   2.775119e+05
  -3.902459e+05   1.721605e+05
  -3.605321e+05  -2.870685e+05
  -1.142442e+05  -5.946327e+05
  -4.078094e+03  -3.852335e+05
  -1.175640e+05   1.111484e+05
  -2.670576e+05   2.779650e+05
  -2.119445e+05  -1.720284e+05
   1.639186e+05  -7.820140e+05
   7.120550e+05  -8.042712e+05
   9.864254e+05  -7.476759e+04
   5.756738e+05   7.315908e+05
  -3.441494e+05   8.264180e+05
  -9.508653e+05   1.783726e+05
  -5.558716e+05  -4.888685e+05
   5.527526e+05  -5.110666e+05
   1.283112e+06   7.339890e+04
   8.618438e+05   6.864455e+05
  -3.419480e+05   8.247791e+05
  -1.212506e+06   4.397722e+05
  -1.029625e+06  -1.253316e+05
  -1.309320e+05  -4.251180e+05
   5.111747e+05  -2.370364e+05
   2.822853e+05   2.147745e+05
  -4.968187e+05   3.729319e+05
  -9.274648e+05  -1.284061e+05
  -4.537211e+05  -9.700907e+05
   5.677512e+05  -1.314320e+06
   1.229065e+06  -6.292504e+05
   9.792904e+05   6.543321e+05
   1.132607e+05   1.445436e+06
  -6.184070e+05   1.047973e+06
  -7.445021e+05  -1.198011e+05
  -3.619906e+05  -9.506600e+05
   1.376967e+05  -7.971624e+05
   4.299424e+05  -8.103615e+04
   4.019164e+05   3.158568e+05
   1.716616e+05   1.246961e+05
   2.609745e+04  -9.028526e+04
   1.589694e+05   2.089733e+05
   3.679920e+05   7.676893e+05
   1.839762e+05   8.770715e+05
  -5.204007e+05   3.136009e+05
  -1.177371e+06  -4.022469e+05
  -1.051706e+06  -6.944078e+05
  -1.378948e+05  -5.493771e+05
   7.304535e+05  -3.097405e+05
   8.035445e+05  -1.405101e+05
   2.518124e+05   2.501540e+04
  -1.381555e+05   1.743578e+05
   1.130116e+04   1.883600e+05
   2.568033e+05   1.057804e+05
   1.910167e+04   1.054915e+05
  -5.823740e+05   1.529392e+05
  -8.253776e+05  -4.468053e+04
  -2.572670e+05  -5.499421e+05
   7.426363e+05  -8.892561e+05
   1.336628e+06  -5.284654e+05
   1.051504e+06   4.030322e+05
   1.660712e+05   1.132858e+06
  -6.272544e+05   1.058561e+06
  -8.418987e+05   3.709662e+05
  -5.205290e+05  -2.234005e+05
  -7.928408e+04  -2.837374e+05
   9.624992e+04  -2.229973e+04
  -4.975916e+04   4.338961e+04
  -2.528789e+05  -2.837772e+05
  -2.002448e+05  -6.471536e+05
   1.640185e+05  -5.281432e+05
   5.482097e+05   1.392424e+05
   5.416879e+05   8.028039e+05
   2.011541e+04   8.194779e+05
  -6.322676e+05   1.377468e+05
  -7.926063e+05  -6.375804e+05
  -2.225229e+05  -8.723492e+05
   5.895592e+05  -4.890479e+05
   8.647301e+05   9.731492e+04
   3.839336e+05   4.668908e+05
  -2.377979e+05   4.916750e+05
  -2.716014e+05   2.766671e+05
   2.356229e+05   3.159231e+04
   5.262213e+05  -8.479598e+03
   9.492914e+04   2.404801e+05
  -6.730350e+05   5.264764e+05
  -9.822930e+05   4.306130e+05
  -5.646495e+05  -1.284501e+05
   1.005161e+05  -6.749274e+05
   4.258260e+05  -6.527397e+05
   3.031151e+05  -9.056592e+04
   9.875317e+03   3.979900e+05
  -2.076788e+05   3.186726e+05
  -2.776487e+05  -1.602106e+05
  -1.826296e+05  -4.663580e+05
   6.090820e+04  -3.070867e+05
   3.087867e+05   5.956734e+04
   3.608031e+05   2.106678e+05
   1.905628e+05   6.177235e+04
  -7.535943e+03  -9.278482e+04
  -6.526427e+04   1.897469e+04
  -4.630805e+04   3.029274e+05
  -1.195576e+05   3.984409e+05
  -2.801767e+05   1.036991e+05
  -3.098347e+05  -3.529997e+05
  -4.842719e+04  -5.234810e+05
   3.491879e+05  -2.227796e+05
   4.979488e+05   2.604149e+05
   1.701941e+05   4.747323e+05
  -4.016238e+05   2.731296e+05
  -6.795413e+05  -9.575901e+04
  -3.622917e+05  -3.124474e+05
   2.429652e+05  -2.869339e+05
   5.055442e+05  -1.357743e+05
   1.742857e+05  -2.415006e+03
  -3.142185e+05   2.022273e+04
  -3.382768e+05  -9.795782e+04
   1.706067e+05  -2.508475e+05
   6.478742e+05  -1.969465e+05
