
 $NMID
 id='ANONYMOUS ', fmtdat='(2E16.6)'
 volume=1.0
 tramp=1.0
 $END
   5.868326e+07   1.193809e+06
   3.435845e+07   3.766706e+07
  -9.053599e+06   3.977724e+07
  -2.934373e+07   1.407476e+07
  -1.681287e+07  -8.327831e+06
   3.969822e+06  -9.622272e+06
   1.014954e+07   1.936789e+06
   2.282576e+06   1.033185e+07
  -6.953912e+06   9.188874e+06
  -1.006684e+07   1.521022e+06
  -6.989343e+06  -6.543718e+06
  -6.181322e+05  -8.746533e+06
   4.105032e+06  -2.778805e+06
   2.463825e+06   5.428671e+06
  -4.135806e+06   6.390581e+06
  -8.078480e+06  -1.742163e+06
  -4.222780e+06  -1.068026e+07
   4.288722e+06  -1.205760e+07
   1.060215e+07  -5.882287e+06
   1.119256e+07   2.271700e+06
   6.880823e+06   7.884593e+06
   6.749435e+05   9.181080e+06
  -3.318987e+06   6.459965e+06
  -2.418915e+06   2.712681e+06
   7.772588e+05   1.888155e+06
   2.576029e+05   3.956551e+06
  -5.300694e+06   4.346076e+06
  -9.655519e+06   4.602800e+05
  -7.133085e+06  -4.236684e+06
  -3.887826e+05  -5.166573e+06
   3.584606e+06  -2.687767e+06
   2.493334e+06  -2.511972e+05
  -3.295675e+05   6.758826e+05
  -1.931531e+06   4.706018e+05
  -2.084808e+06  -1.196320e+06
  -8.040961e+05  -3.778529e+06
   1.800876e+06  -3.977820e+06
   3.464685e+06  -4.217956e+04
   1.913419e+06   3.765212e+06
  -7.956110e+05   2.227736e+06
  -4.101195e+05  -2.248923e+06
   2.504617e+06  -2.174709e+06
   2.379987e+06   3.410192e+06
  -2.844524e+06   6.314380e+06
  -7.455438e+06   8.534315e+05
  -5.217693e+06  -7.400943e+06
   2.265836e+06  -8.874799e+06
   7.759439e+06  -2.334613e+06
   6.906931e+06   4.764961e+06
   1.571314e+06   6.175017e+06
  -3.638891e+06   2.542775e+06
  -5.186356e+06  -1.824567e+06
  -2.213103e+06  -3.667355e+06
   2.629805e+06  -2.143162e+06
   4.622500e+06   1.141335e+06
   1.878715e+06   2.898579e+06
  -1.825367e+06   1.357836e+06
  -1.678102e+06  -1.119475e+06
   1.523065e+06  -8.202883e+05
   2.510831e+06   2.092321e+06
  -9.240430e+05   3.717092e+06
  -5.044481e+06   1.829104e+06
  -5.484597e+06  -1.685925e+06
  -2.238459e+06  -4.241499e+06
   1.923754e+06  -5.321647e+06
   5.070412e+06  -4.799788e+06
   6.267831e+06  -1.701342e+06
   4.649769e+06   3.225347e+06
   8.632667e+05   6.245422e+06
  -2.090558e+06   4.734732e+06
  -1.918738e+06   1.036447e+06
  -8.592933e+04  -4.606127e+05
   2.480170e+05   8.917201e+05
  -1.422931e+06   1.838181e+06
  -2.725486e+06   3.618032e+05
  -2.007975e+06  -1.784034e+06
  -8.906901e+04  -2.024344e+06
   1.406293e+06  -1.781489e+05
   1.541676e+06   2.007305e+06
  -3.488882e+04   2.862502e+06
  -2.751298e+06   1.641900e+06
  -4.494040e+06  -1.204731e+06
  -3.259149e+06  -3.856538e+06
   8.398466e+04  -4.369620e+06
   2.420419e+06  -2.793531e+06
   2.380208e+06  -1.105362e+06
   1.914198e+06  -5.788673e+05
   2.956368e+06  -3.319888e+05
   4.295299e+06   9.264916e+05
   3.359028e+06   2.865149e+06
  -9.494299e+03   4.077885e+06
  -3.260271e+06   3.749129e+06
  -4.132211e+06   2.014442e+06
  -2.614034e+06  -4.111440e+05
  -2.903090e+05  -2.174264e+06
   1.069775e+06  -1.904935e+06
   5.594155e+05   2.166658e+04
  -1.086338e+06   1.270661e+06
  -1.914232e+06   3.484999e+05
  -9.160183e+05  -1.226935e+06
   5.172796e+05  -1.076178e+06
   3.584782e+05   4.161210e+05
  -1.170240e+06   5.821482e+05
  -1.819984e+06  -1.522015e+06
  -3.766305e+05  -3.614844e+06
   1.917592e+06  -3.259758e+06
   3.244350e+06  -7.888137e+05
   3.127996e+06   1.677795e+06
   2.010909e+06   2.785025e+06
   3.116463e+05   2.523479e+06
  -1.243848e+06   1.391293e+06
  -1.541220e+06   1.928355e+05
  -4.840819e+05  -6.059890e+04
   3.267352e+05   7.574372e+05
  -4.728513e+05   1.338136e+06
  -1.948925e+06   5.168228e+05
  -2.006360e+06  -9.846153e+05
  -3.138624e+05  -1.448880e+06
   1.192643e+06  -5.118321e+05
   8.281122e+05   4.916530e+05
  -8.915517e+05   4.295740e+05
  -2.102560e+06  -4.712341e+05
  -1.584074e+06  -1.413143e+06
   3.683014e+05  -1.881212e+06
   2.332143e+06  -1.503607e+06
   2.739457e+06  -1.591648e+05
   1.166699e+06   1.312841e+06
  -9.714768e+05   1.491026e+06
  -1.589281e+06   1.487458e+05
  -1.874786e+05  -1.095658e+06
   1.533217e+06  -6.868301e+05
   1.670904e+06   8.539660e+05
   2.366733e+05   1.655130e+06
  -1.152369e+06   8.901864e+05
  -1.225558e+06  -4.049274e+05
  -1.790116e+05  -8.031393e+05
   8.168935e+05  -2.100216e+04
   7.057840e+05   1.074604e+06
  -6.060313e+05   1.398219e+06
  -2.000263e+06   4.858160e+05
  -1.987445e+06  -1.098316e+06
  -3.115805e+05  -2.073218e+06
   1.496744e+06  -1.579086e+06
   1.723409e+06  -1.324587e+05
   4.492988e+05   8.881159e+05
  -6.911749e+05   7.609844e+05
  -6.047118e+05   5.251110e+04
   1.559045e+05  -3.123911e+05
   4.643666e+05  -1.407231e+05
   4.784902e+04   6.545663e+04
  -4.834286e+05  -1.476569e+05
  -4.731482e+05  -7.338868e+05
   2.797002e+05  -1.179273e+06
   1.412197e+06  -8.295795e+05
   2.045774e+06   4.874048e+05
   1.385934e+06   1.973926e+06
  -2.957365e+05   2.374865e+06
  -1.640497e+06   1.306202e+06
  -1.632860e+06  -2.113839e+05
  -7.621281e+05  -8.882006e+05
  -2.671581e+05  -5.797806e+05
  -4.983970e+05  -1.814628e+05
  -6.582877e+05  -3.430393e+05
  -7.458233e+04  -7.884183e+05
   9.122375e+05  -8.527956e+05
   1.434281e+06  -2.442770e+05
   9.749823e+05   7.435441e+05
  -3.244300e+05   1.394178e+06
  -1.735054e+06   9.700214e+05
  -2.186735e+06  -5.640703e+05
  -1.023837e+06  -2.122828e+06
   1.115419e+06  -2.307892e+06
   2.576710e+06  -9.066942e+05
   2.282871e+06   7.746733e+05
   8.402603e+05   1.361938e+06
  -2.719108e+05   8.806141e+05
  -3.715885e+05   4.417786e+05
  -3.892994e+04   7.400667e+05
  -1.105153e+05   1.322286e+06
  -7.124206e+05   1.279971e+06
  -1.306632e+06   2.834592e+05
  -1.294033e+06  -1.105072e+06
  -4.925140e+05  -1.884914e+06
   6.549382e+05  -1.397316e+06
   1.265281e+06   5.368777e+04
   7.493166e+05   1.313998e+06
  -4.627540e+05   1.370986e+06
  -1.200634e+06   3.278873e+05
  -7.871946e+05  -7.716797e+05
   1.936684e+05  -1.093096e+06
   6.061911e+05  -7.519715e+05
   1.202022e+05  -3.892442e+05
  -4.254353e+05  -3.329966e+05
  -5.287169e+04  -3.749332e+05
   1.158835e+06  -1.649239e+05
   2.051432e+06   4.034201e+05
   1.564439e+06   1.093794e+06
  -1.136943e+05   1.442167e+06
  -1.642254e+06   1.088219e+06
  -1.832463e+06   1.918660e+05
  -7.986293e+05  -5.588689e+05
   2.912229e+05  -5.747047e+05
   5.191973e+05  -2.288220e+02
   3.285608e+04   4.411714e+05
  -4.299012e+05   2.480833e+05
  -4.700230e+05  -3.506151e+05
  -2.606205e+05  -7.086625e+05
  -1.112763e+05  -4.708005e+05
  -1.365517e+05   6.598413e+04
  -2.615805e+05   2.491117e+05
  -2.587756e+05  -2.422580e+05
   1.538261e+05  -9.563294e+05
   9.213675e+05  -1.031483e+06
   1.388097e+06  -1.579664e+05
   8.540554e+05   9.235277e+05
  -4.410823e+05   1.144680e+06
  -1.272248e+06   3.315597e+05
  -7.118382e+05  -5.751322e+05
   7.224412e+05  -6.114704e+05
   1.549077e+06   1.658403e+05
   9.171496e+05   8.963479e+05
  -5.466529e+05   9.323406e+05
  -1.486794e+06   3.717918e+05
  -1.178020e+06  -2.573413e+05
  -9.595846e+04  -5.036711e+05
   6.548684e+05  -2.270727e+05
   3.832721e+05   3.131968e+05
  -5.729266e+05   5.164313e+05
  -1.167322e+06  -8.302564e+04
  -6.657598e+05  -1.166144e+06
   5.828496e+05  -1.677508e+06
   1.464384e+06  -8.616481e+05
   1.219909e+06   7.637794e+05
   1.574950e+05   1.761009e+06
  -7.650815e+05   1.232445e+06
  -8.998809e+05  -2.267052e+05
  -3.630970e+05  -1.191103e+06
   2.811666e+05  -9.290480e+05
   5.677704e+05  -5.172694e+04
   4.209770e+05   3.797306e+05
   1.264309e+05   1.315691e+05
   6.263480e+04  -8.346269e+04
   3.122186e+05   3.176922e+05
   4.924262e+05   9.738183e+05
   1.205320e+05   1.061566e+06
  -7.577164e+05   3.640231e+05
  -1.433109e+06  -4.965317e+05
  -1.201653e+06  -8.596702e+05
  -1.593650e+05  -7.006868e+05
   8.187074e+05  -3.935430e+05
   9.621499e+05  -1.409904e+05
   3.822200e+05   8.019554e+04
  -1.359294e+05   2.216891e+05
  -8.005219e+04   1.827233e+05
   2.160007e+05   7.784298e+04
   6.352428e+04   1.294070e+05
  -6.111886e+05   2.335578e+05
  -1.037419e+06  -1.962836e+04
  -4.768663e+05  -6.971893e+05
   8.114625e+05  -1.170625e+06
   1.720750e+06  -7.465839e+05
   1.438506e+06   4.257699e+05
   2.626435e+05   1.384672e+06
  -7.943144e+05   1.358670e+06
  -1.046137e+06   5.426864e+05
  -6.357625e+05  -2.162254e+05
  -1.451642e+05  -3.566036e+05
   3.104152e+04  -9.007597e+04
  -9.580565e+04  -1.519094e+04
  -2.690907e+05  -3.828825e+05
  -2.109895e+05  -8.032716e+05
   1.791724e+05  -6.772063e+05
   6.609457e+05   9.960754e+04
   7.415567e+05   9.197258e+05
   1.497543e+05   1.024159e+06
  -7.182968e+05   2.775153e+05
  -1.025658e+06  -6.843469e+05
  -3.589660e+05  -1.082674e+06
   7.054895e+05  -6.930486e+05
   1.126133e+06   7.558364e+04
   5.432646e+05   6.431887e+05
  -2.953067e+05   7.076868e+05
  -4.175249e+05   3.687083e+05
   2.021173e+05  -2.865697e+03
   6.308614e+05  -3.639852e+04
   1.552776e+05   3.140810e+05
  -8.251894e+05   6.526701e+05
  -1.288304e+06   4.842377e+05
  -7.931753e+05  -2.184097e+05
   1.030403e+05  -8.740581e+05
   5.939659e+05  -8.561934e+05
   4.643951e+05  -1.860162e+05
   6.922444e+04   4.557892e+05
  -2.331153e+05   4.501992e+05
  -3.426926e+05  -1.113298e+05
  -2.500776e+05  -5.717532e+05
   4.593322e+04  -4.566520e+05
   3.870210e+05   3.156699e+04
   4.806841e+05   3.098248e+05
   2.393121e+05   1.225508e+05
  -5.254468e+04  -1.789049e+05
  -8.327717e+04  -1.072310e+05
   6.172304e+04   3.228331e+05
   2.312951e+04   5.844103e+05
  -2.908993e+05   2.839418e+05
  -5.002542e+05  -3.311277e+05
  -2.185690e+05  -6.336708e+05
   3.857470e+05  -3.260569e+05
   6.799268e+05   2.553378e+05
   2.655733e+05   5.524463e+05
  -5.170029e+05   3.624623e+05
  -8.950231e+05  -6.433782e+04
  -4.818399e+05  -3.764664e+05
   2.933697e+05  -4.232001e+05
   6.437467e+05  -2.570945e+05
   2.794618e+05  -2.308576e+04
  -2.971009e+05   9.639870e+04
  -3.834977e+05  -2.111799e+04
   1.324089e+05  -2.580479e+05
   6.761305e+05  -2.621826e+05
