
 $NMID
 id='ANONYMOUS ', fmtdat='(2E16.6)'
 volume=1.0
 tramp=1.0
 $END
   2.914174e+07   6.611835e+05
   1.885738e+07   1.484125e+07
  -1.058200e+06   1.867156e+07
  -1.314230e+07   1.124424e+07
  -1.030315e+07   2.286306e+05
  -1.803698e+05  -5.210869e+06
   5.858254e+06  -2.019619e+06
   3.920236e+06   4.839469e+06
  -1.818774e+06   7.551854e+06
  -5.490044e+06   3.108458e+06
  -4.512417e+06  -3.811412e+06
  -4.505721e+05  -5.921120e+06
   2.762249e+06  -1.247330e+06
   2.046386e+06   4.814004e+06
  -1.867742e+06   5.590854e+06
  -4.809547e+06   2.789947e+05
  -3.343080e+06  -5.771966e+06
   1.568942e+06  -7.109591e+06
   5.628330e+06  -3.300519e+06
   5.658060e+06   1.732990e+06
   2.478166e+06   4.143525e+06
  -3.945784e+05   3.411478e+06
  -3.895387e+05   1.936324e+06
   1.638615e+06   2.108925e+06
   2.284631e+06   3.790849e+06
  -7.342007e+05   4.582206e+06
  -5.553797e+06   2.630093e+06
  -7.507712e+06  -1.079078e+06
  -4.182010e+06  -3.615116e+06
   1.455565e+06  -3.120085e+06
   4.017436e+06  -4.661324e+05
   1.566689e+06   1.884984e+06
  -2.589306e+06   2.024937e+06
  -4.033931e+06  -1.859960e+05
  -1.935506e+06  -3.037468e+06
   9.539390e+05  -3.979561e+06
   1.928060e+06  -1.857578e+06
   8.580407e+05   1.341943e+06
  -4.854632e+05   2.075555e+06
  -5.382085e+05  -5.556795e+05
   7.721168e+05  -3.200605e+06
   2.122569e+06  -2.194353e+06
   1.920133e+06   1.569155e+06
  -1.558513e+05   3.481934e+06
  -2.428889e+06   1.009234e+06
  -2.465283e+06  -3.119431e+06
   4.416682e+05  -4.297000e+06
   4.082304e+06  -1.339013e+06
   5.086674e+06   2.716405e+06
   2.190205e+06   4.314597e+06
  -2.293819e+06   2.666716e+06
  -4.506600e+06  -3.218849e+05
  -2.735374e+06  -2.181128e+06
   9.517448e+05  -1.771336e+06
   2.894150e+06   7.036421e+04
   1.607969e+06   1.371887e+06
  -8.978552e+05   9.054689e+05
  -1.627655e+06  -5.846070e+05
  -1.605673e+03  -1.286719e+06
   1.696937e+06  -4.049636e+05
   1.149264e+06   1.050909e+06
  -1.285225e+06   1.494060e+06
  -2.965255e+06   2.971023e+05
  -1.819134e+06  -1.848207e+06
   1.520492e+06  -3.473949e+06
   4.390085e+06  -3.155754e+06
   4.664892e+06  -5.762540e+05
   2.586543e+06   2.774040e+06
   1.860121e+05   4.545737e+06
  -8.817519e+05   3.797100e+06
  -7.714691e+05   1.971063e+06
  -7.949782e+05   1.052687e+06
  -1.671313e+06   1.130820e+06
  -2.721736e+06   6.170460e+05
  -2.720510e+06  -1.211283e+06
  -1.235794e+06  -2.883183e+06
   9.127593e+05  -2.438460e+06
   2.265012e+06   9.749883e+04
   1.766629e+06   2.562084e+06
  -3.756830e+05   2.849921e+06
  -2.616854e+06   8.641819e+05
  -3.182383e+06  -1.655990e+06
  -1.701907e+06  -2.893514e+06
   3.610669e+05  -2.458387e+06
   1.292682e+06  -1.384479e+06
   1.062964e+06  -8.472567e+05
   1.181871e+06  -9.507878e+05
   2.524205e+06  -7.761027e+05
   3.877551e+06   4.594271e+05
   3.193909e+06   2.423321e+06
   1.294273e+05   3.844569e+06
  -3.198297e+06   3.572711e+06
  -4.198351e+06   1.557581e+06
  -2.356251e+06  -9.617155e+05
   3.539907e+05  -2.259832e+06
   1.497399e+06  -1.534041e+06
   4.677375e+05   2.331658e+05
  -1.210477e+06   1.112856e+06
  -1.667242e+06   2.707621e+05
  -5.858330e+05  -1.054820e+06
   6.885964e+05  -1.053916e+06
   7.268964e+05   3.234032e+05
  -5.144471e+05   1.167753e+06
  -1.744498e+06  -5.646539e+04
  -1.602451e+06  -2.502155e+06
   1.687708e+05  -3.734574e+06
   2.503871e+06  -2.347804e+06
   3.758857e+06   6.187127e+05
   2.943014e+06   2.835109e+06
   6.296322e+05   2.909948e+06
  -1.371067e+06   1.424615e+06
  -1.619700e+06   6.471091e+04
  -4.725503e+05  -5.537910e+04
   3.435882e+05   7.116823e+05
  -2.846730e+05   1.139108e+06
  -1.571444e+06   5.109175e+05
  -1.809927e+06  -6.405700e+05
  -4.741192e+05  -1.176820e+06
   1.062327e+06  -6.062382e+05
   1.039672e+06   4.234555e+05
  -6.829152e+05   8.140046e+05
  -2.367351e+06   5.985554e+04
  -2.153847e+06  -1.325743e+06
   1.793529e+04  -2.229361e+06
   2.296591e+06  -1.820494e+06
   2.723371e+06  -3.028893e+05
   1.124516e+06   1.111763e+06
  -8.087177e+05   1.233962e+06
  -1.268764e+06   1.153177e+05
  -5.781606e+04  -9.110399e+05
   1.413161e+06  -6.382209e+05
   1.656822e+06   6.635410e+05
   5.060343e+05   1.567419e+06
  -8.931769e+05   1.134673e+06
  -1.270094e+06  -6.226617e+04
  -4.170520e+05  -6.723162e+05
   6.400377e+05  -8.580867e+04
   6.354906e+05   9.812639e+05
  -6.273664e+05   1.312700e+06
  -1.947986e+06   4.097097e+05
  -1.889891e+06  -1.076379e+06
  -3.323827e+05  -1.957798e+06
   1.324927e+06  -1.550426e+06
   1.626428e+06  -2.592122e+05
   5.570817e+05   7.970306e+05
  -5.968992e+05   8.193839e+05
  -7.284233e+05   5.081531e+04
   2.232664e+04  -5.597609e+05
   6.511068e+05  -4.107630e+05
   4.621918e+05   1.309254e+05
  -2.582272e+05   2.243856e+05
  -5.990351e+05  -4.114448e+05
   3.881792e+04  -1.099459e+06
   1.276298e+06  -8.917624e+05
   1.993694e+06   3.933311e+05
   1.367712e+06   1.876239e+06
  -2.517908e+05   2.377970e+06
  -1.613725e+06   1.498863e+06
  -1.796226e+06  -2.682722e+04
  -1.055948e+06  -1.035387e+06
  -3.646040e+05  -1.004905e+06
  -2.599093e+05  -4.420539e+05
  -3.719286e+05  -2.205947e+05
  -4.693269e+04  -5.864551e+05
   7.849447e+05  -9.018551e+05
   1.453008e+06  -4.181449e+05
   1.175696e+06   7.598061e+05
  -1.546792e+05   1.605942e+06
  -1.706401e+06   1.154017e+06
  -2.249846e+06  -4.622824e+05
  -1.183077e+06  -2.013008e+06
   8.322811e+05  -2.265322e+06
   2.343372e+06  -1.093462e+06
   2.361460e+06   4.801637e+05
   1.177182e+06   1.307856e+06
  -7.239428e+04   1.147361e+06
  -5.531324e+05   6.972711e+05
  -3.849872e+05   6.937424e+05
  -2.636897e+05   1.075515e+06
  -6.156757e+05   1.098548e+06
  -1.161822e+06   2.434429e+05
  -1.231341e+06  -1.087714e+06
  -4.809241e+05  -1.856861e+06
   6.555092e+05  -1.381381e+06
   1.266562e+06  -1.378545e+04
   8.206825e+05   1.170166e+06
  -2.575406e+05   1.334984e+06
  -9.709915e+05   5.487782e+05
  -7.607370e+05  -4.258782e+05
  -4.829113e+04  -8.976610e+05
   3.040961e+05  -7.865446e+05
  -1.444239e+03  -4.972129e+05
  -3.693321e+05  -3.827380e+05
  -2.232902e+04  -3.926997e+05
   1.037004e+06  -2.158777e+05
   1.881652e+06   3.066911e+05
   1.548979e+06   9.527894e+05
   8.249275e+04   1.285781e+06
  -1.391444e+06   1.034004e+06
  -1.722074e+06   3.425747e+05
  -8.570745e+05  -3.057842e+05
   1.852589e+05  -4.604209e+05
   4.477634e+05  -1.023997e+05
  -3.291264e+04   2.938938e+05
  -4.945112e+05   2.059527e+05
  -4.371853e+05  -3.447114e+05
  -9.033608e+04  -7.422928e+05
   4.769499e+04  -4.724205e+05
  -1.537774e+05   1.847491e+05
  -3.872712e+05   3.943428e+05
  -2.898746e+05  -2.156374e+05
   2.267741e+05  -9.999034e+05
   8.860119e+05  -9.904596e+05
   1.159554e+06  -5.528025e+04
   6.454066e+05   9.055075e+05
  -4.228952e+05   9.675943e+05
  -1.130455e+06   1.703288e+05
  -6.774631e+05  -6.163648e+05
   6.606779e+05  -6.455330e+05
   1.607720e+06   4.868155e+04
   1.148188e+06   8.292107e+05
  -3.586905e+05   1.073598e+06
  -1.514047e+06   6.317253e+05
  -1.327844e+06  -1.117404e+05
  -1.915837e+05  -5.396500e+05
   6.249398e+05  -3.168815e+05
   3.261273e+05   2.500234e+05
  -6.440780e+05   4.283022e+05
  -1.136321e+06  -2.072163e+05
  -5.024640e+05  -1.217547e+06
   7.613097e+05  -1.592771e+06
   1.540582e+06  -7.348032e+05
   1.203241e+06   8.265167e+05
   1.327399e+05   1.796794e+06
  -7.667716e+05   1.326877e+06
  -9.355116e+05  -1.136578e+05
  -4.846884e+05  -1.177138e+06
   1.307813e+05  -1.018425e+06
   5.246746e+05  -1.184554e+05
   5.314060e+05   4.061159e+05
   2.470191e+05   1.723044e+05
   1.686247e+04  -1.223966e+05
   1.419276e+05   2.309238e+05
   4.312516e+05   9.373087e+05
   2.695796e+05   1.093963e+06
  -5.913897e+05   3.971766e+05
  -1.462414e+06  -5.003913e+05
  -1.345095e+06  -8.624712e+05
  -1.783516e+05  -6.729054e+05
   9.413291e+05  -3.775623e+05
   1.010836e+06  -1.869165e+05
   2.820963e+05   5.739803e+03
  -1.839209e+05   2.078022e+05
   6.083538e+04   2.576448e+05
   3.662586e+05   1.649164e+05
   2.607999e+03   1.376774e+05
  -7.749264e+05   1.647597e+05
  -1.014079e+06  -7.826254e+04
  -2.428702e+05  -6.703803e+05
   9.683044e+05  -1.059651e+06
   1.619887e+06  -6.082687e+05
   1.235402e+06   5.289787e+05
   1.778427e+05   1.408751e+06
  -7.716084e+05   1.290226e+06
  -1.045034e+06   4.190254e+05
  -6.489355e+05  -3.117148e+05
  -7.281283e+04  -3.531839e+05
   1.609855e+05   3.672014e+03
  -4.890208e+04   8.690810e+04
  -3.329845e+05  -3.417891e+05
  -2.568859e+05  -8.039491e+05
   2.209489e+05  -6.374556e+05
   6.824488e+05   2.145225e+05
   6.267631e+05   1.027733e+06
  -3.681708e+04   1.001603e+06
  -8.058540e+05   1.159235e+05
  -9.530708e+05  -8.352955e+05
  -2.359410e+05  -1.074882e+06
   7.389297e+05  -5.642280e+05
   1.045150e+06   1.422921e+05
   4.449091e+05   5.516563e+05
  -2.970367e+05   5.654219e+05
  -3.046465e+05   3.287476e+05
   3.296929e+05   5.612579e+04
   6.619370e+05   1.368618e+03
   1.021641e+05   2.895197e+05
  -8.364746e+05   6.476487e+05
  -1.183345e+06   5.525561e+05
  -6.558976e+05  -1.298712e+05
   1.341963e+05  -8.140551e+05
   4.958142e+05  -7.860431e+05
   3.334639e+05  -8.207294e+04
  -1.384714e+04   5.069531e+05
  -2.664544e+05   3.696240e+05
  -3.418759e+05  -2.365902e+05
  -2.142978e+05  -5.790848e+05
   8.696145e+04  -3.445233e+05
   3.772349e+05   9.357949e+04
   4.302471e+05   2.380333e+05
   2.352207e+05   5.485840e+04
   9.620342e+03  -8.541943e+04
  -8.301711e+04   8.209781e+04
  -1.134669e+05   3.939284e+05
  -2.226433e+05   4.455541e+05
  -3.659963e+05   5.623930e+04
  -3.264298e+05  -4.802471e+05
   1.222687e+04  -6.490882e+05
   4.518343e+05  -2.517009e+05
   5.860723e+05   3.514622e+05
   1.842587e+05   6.032272e+05
  -4.887044e+05   3.272940e+05
  -8.149275e+05  -1.436455e+05
  -4.311584e+05  -3.911640e+05
   3.024135e+05  -3.217964e+05
   6.124956e+05  -1.261404e+05
   1.844838e+05   2.583379e+03
  -4.262549e+05  -1.350931e+04
  -4.279126e+05  -1.681717e+05
   2.492560e+05  -3.286080e+05
   8.559553e+05  -2.283224e+05
