
 $NMID
 id='ANONYMOUS ', fmtdat='(2E16.6)'
 volume=1.0
 tramp=1.0
 $END
   1.513344e+07  -1.206936e+06
   1.050074e+07   7.829382e+06
  -3.023339e+05   1.034350e+07
  -6.997146e+06   5.618124e+06
  -5.285379e+06  -6.063511e+05
   2.032887e+05  -2.800573e+06
   3.026998e+06  -5.415749e+05
   1.631602e+06   2.651907e+06
  -1.245030e+06   3.439476e+06
  -2.796661e+06   1.273423e+06
  -2.227998e+06  -1.704098e+06
  -3.526855e+05  -2.672572e+06
   1.175025e+06  -7.526579e+05
   9.004473e+05   1.949227e+06
  -9.610953e+05   2.421042e+06
  -2.396773e+06   3.688846e+04
  -1.683712e+06  -2.825780e+06
   6.894136e+05  -3.548669e+06
   2.693048e+06  -1.877568e+06
   2.939498e+06   4.622497e+05
   1.710509e+06   1.867892e+06
   2.689074e+05   1.998324e+06
  -2.821296e+05   1.462568e+06
   1.865590e+05   1.103972e+06
   6.319582e+05   1.333941e+06
  -1.894728e+05   1.684687e+06
  -2.069930e+06   1.247487e+06
  -3.151251e+06  -1.141622e+05
  -2.049938e+06  -1.346309e+06
   2.403330e+05  -1.392808e+06
   1.421144e+06  -4.429269e+05
   6.296204e+05   4.336002e+05
  -8.085996e+05   5.284310e+05
  -1.303672e+06  -8.841990e+04
  -6.980010e+05  -9.627045e+05
   1.627864e+05  -1.461576e+06
   6.361499e+05  -9.902484e+05
   5.912940e+05   2.293838e+05
   1.897996e+05   9.073651e+05
  -1.069301e+05   1.341758e+05
   2.004651e+05  -1.090308e+06
   8.804422e+05  -8.875560e+05
   9.091021e+05   8.166150e+05
  -2.407797e+05   1.853498e+06
  -1.577106e+06   6.343562e+05
  -1.528284e+06  -1.611081e+06
   1.598711e+05  -2.345735e+06
   2.007273e+06  -8.416669e+05
   2.337508e+06   1.220064e+06
   8.911906e+05   1.955613e+06
  -1.069372e+06   1.109551e+06
  -1.937012e+06  -2.661429e+05
  -1.095031e+06  -1.061816e+06
   5.574428e+05  -8.301558e+05
   1.406412e+06   6.570648e+04
   7.469233e+05   7.104199e+05
  -4.427314e+05   4.607263e+05
  -6.765755e+05  -2.896027e+05
   2.052795e+05  -5.266543e+05
   8.920279e+05   1.002730e+05
   3.356433e+05   8.400529e+05
  -9.456471e+05   8.200293e+05
  -1.575497e+06   7.230882e+03
  -8.922078e+05  -9.964950e+05
   5.498765e+05  -1.620175e+06
   1.727256e+06  -1.489994e+06
   1.979804e+06  -4.548504e+05
   1.301399e+06   1.041782e+06
   2.508594e+05   1.967660e+06
  -4.402011e+05   1.675334e+06
  -4.864339e+05   7.229373e+05
  -3.002632e+05   1.976476e+05
  -4.350407e+05   3.256240e+05
  -8.538193e+05   3.340765e+05
  -9.989870e+05  -2.798000e+05
  -5.340102e+05  -9.626974e+05
   2.529036e+05  -8.642891e+05
   7.757028e+05   4.218835e+04
   6.482277e+05   9.505851e+05
  -9.945357e+04   1.110344e+06
  -1.008664e+06   4.486908e+05
  -1.397555e+06  -5.261952e+05
  -9.161953e+05  -1.178471e+06
   8.257084e+03  -1.190662e+06
   5.748151e+05  -7.773209e+05
   5.656266e+05  -4.337052e+05
   5.721790e+05  -3.689254e+05
   1.069317e+06  -2.792954e+05
   1.605687e+06   2.088358e+05
   1.308267e+06   9.949874e+05
   5.447029e+04   1.552530e+06
  -1.253094e+06   1.442028e+06
  -1.622858e+06   6.768388e+05
  -9.363597e+05  -2.941761e+05
   6.016760e+04  -8.503313e+05
   5.168770e+05  -6.330368e+05
   1.858217e+05   6.046717e+04
  -4.521605e+05   4.550757e+05
  -6.836176e+05   1.325367e+05
  -2.825218e+05  -4.195068e+05
   2.471940e+05  -4.118162e+05
   2.472156e+05   1.554307e+05
  -3.093341e+05   4.230925e+05
  -7.704602e+05  -1.933389e+05
  -5.438578e+05  -1.180488e+06
   2.949112e+05  -1.503308e+06
   1.150610e+06  -7.789947e+05
   1.460752e+06   3.961398e+05
   1.052009e+06   1.152495e+06
   1.972079e+05   1.115806e+06
  -5.241013e+05   5.550964e+05
  -6.232799e+05   4.102608e+04
  -1.883505e+05  -2.082588e+04
   1.374409e+05   2.864835e+05
  -1.227947e+05   4.838017e+05
  -6.647486e+05   2.247119e+05
  -7.568325e+05  -2.807939e+05
  -1.838551e+05  -5.044016e+05
   4.383292e+05  -2.366201e+05
   3.887716e+05   1.834808e+05
  -3.122317e+05   2.861509e+05
  -9.282485e+05  -4.899472e+04
  -7.879263e+05  -5.572980e+05
   6.201885e+04  -8.548547e+05
   9.223664e+05  -6.868991e+05
   1.083341e+06  -1.090815e+05
   4.615722e+05   4.586346e+05
  -3.234103e+05   5.283420e+05
  -5.379326e+05   6.847287e+04
  -4.992099e+04  -3.754712e+05
   5.684829e+05  -2.670188e+05
   6.666114e+05   2.805843e+05
   1.748704e+05   6.415127e+05
  -3.935873e+05   4.329472e+05
  -5.129513e+05  -6.558424e+04
  -1.436326e+05  -2.920417e+05
   2.770924e+05  -3.610639e+04
   2.661312e+05   3.937423e+05
  -2.378631e+05   5.288335e+05
  -7.705403e+05   1.779390e+05
  -7.613601e+05  -4.184073e+05
  -1.388495e+05  -7.870959e+05
   5.389267e+05  -6.270280e+05
   6.594920e+05  -9.545850e+04
   2.131464e+05   3.296863e+05
  -2.480184e+05   3.223108e+05
  -2.721431e+05   1.586938e+04
   3.610879e+04  -1.973132e+05
   2.466140e+05  -1.213211e+05
   1.288491e+05   6.318208e+04
  -1.473896e+05   5.485173e+04
  -2.379889e+05  -2.067059e+05
   3.832699e+04  -4.557624e+05
   5.214593e+05  -3.540045e+05
   7.988440e+05   1.596623e+05
   5.511667e+05   7.485060e+05
  -9.947679e+04   9.410140e+05
  -6.463405e+05   5.731603e+05
  -6.983020e+05  -3.707332e+04
  -3.761014e+05  -4.028810e+05
  -1.133317e+05  -3.488219e+05
  -1.198138e+05  -1.303442e+05
  -1.882935e+05  -8.705164e+04
  -3.317875e+04  -2.547191e+05
   3.258332e+05  -3.580994e+05
   5.789879e+05  -1.461406e+05
   4.405127e+05   3.052986e+05
  -8.866861e+04   6.168567e+05
  -6.835980e+05   4.383159e+05
  -8.864488e+05  -1.929498e+05
  -4.575339e+05  -8.131495e+05
   3.558076e+05  -9.152184e+05
   9.601702e+05  -4.256890e+05
   9.381780e+05   2.239453e+05
   4.292192e+05   5.367917e+05
  -6.348552e+04   4.303682e+05
  -2.072352e+05   2.363422e+05
  -1.058740e+05   2.632572e+05
  -7.073478e+04   4.476715e+05
  -2.433401e+05   4.619484e+05
  -4.737245e+05   1.107830e+05
  -4.970161e+05  -4.255513e+05
  -1.968615e+05  -7.346814e+05
   2.547227e+05  -5.486580e+05
   5.030580e+05  -3.591102e+01
   3.249894e+05   4.810815e+05
  -1.218716e+05   5.420555e+05
  -4.209397e+05   2.032129e+05
  -3.215471e+05  -2.072626e+05
  -1.227952e+03  -3.900075e+05
   1.568076e+05  -3.218414e+05
   1.845419e+04  -1.890887e+05
  -1.510603e+05  -1.414276e+05
  -1.254510e+04  -1.513133e+05
   4.262519e+05  -8.735612e+04
   7.689381e+05   1.202393e+05
   6.224209e+05   3.890169e+05
   1.925333e+04   5.360763e+05
  -5.748049e+05   4.302866e+05
  -6.998556e+05   1.262166e+05
  -3.443525e+05  -1.524961e+05
   7.937637e+04  -2.013381e+05
   1.902784e+05  -3.249184e+04
   2.965800e+03   1.308471e+05
  -1.847927e+05   8.441118e+04
  -1.776825e+05  -1.341797e+05
  -5.648075e+04  -2.803264e+05
  -1.575439e+03  -1.785574e+05
  -6.405770e+04   5.793704e+04
  -1.438116e+05   1.325899e+05
  -1.124073e+05  -8.929723e+04
   8.054162e+04  -3.863160e+05
   3.498135e+05  -3.996923e+05
   4.804114e+05  -4.820616e+04
   2.831525e+05   3.478949e+05
  -1.582338e+05   4.054018e+05
  -4.552081e+05   9.646448e+04
  -2.709936e+05  -2.350392e+05
   2.685432e+05  -2.552200e+05
   6.333724e+05   3.273760e+04
   4.302452e+05   3.443003e+05
  -1.690526e+05   4.166495e+05
  -6.057081e+05   2.197502e+05
  -5.132937e+05  -6.624422e+04
  -6.341055e+04  -2.129033e+05
   2.540265e+05  -1.170187e+05
   1.393717e+05   1.028312e+05
  -2.402359e+05   1.777598e+05
  -4.466625e+05  -6.253158e+04
  -2.184992e+05  -4.651376e+05
   2.709300e+05  -6.320042e+05
   5.909016e+05  -3.052980e+05
   4.758012e+05   3.150339e+05
   5.775674e+04   7.033793e+05
  -3.040984e+05   5.139112e+05
  -3.707599e+05  -5.828974e+04
  -1.798444e+05  -4.712474e+05
   7.206676e+04  -3.987900e+05
   2.153772e+05  -4.191535e+04
   1.959002e+05   1.613190e+05
   8.116723e+04   6.841268e+04
   1.387319e+04  -4.585941e+04
   8.159713e+04   9.302917e+04
   1.816283e+05   3.704382e+05
   8.912945e+04   4.345873e+05
  -2.544597e+05   1.622725e+05
  -5.746415e+05  -1.951558e+05
  -5.152823e+05  -3.441059e+05
  -7.098156e+04  -2.695464e+05
   3.549720e+05  -1.470980e+05
   3.949098e+05  -6.808133e+04
   1.272540e+05   5.782289e+03
  -6.557778e+04   8.178278e+04
   3.722999e+03   9.936846e+04
   1.223158e+05   6.104677e+04
   8.352864e+03   5.032920e+04
  -2.821498e+05   6.712396e+04
  -4.004227e+05  -2.028428e+04
  -1.272672e+05  -2.558167e+05
   3.552007e+05  -4.263051e+05
   6.435365e+05  -2.656419e+05
   5.085689e+05   1.833992e+05
   8.257064e+04   5.485696e+05
  -3.010536e+05   5.205213e+05
  -4.056070e+05   1.829146e+05
  -2.505469e+05  -1.105723e+05
  -3.853061e+04  -1.360989e+05
   4.308309e+04  -3.952474e+03
  -2.985843e+04   2.426548e+04
  -1.264384e+05  -1.423198e+05
  -9.759030e+04  -3.189281e+05
   7.870372e+04  -2.549088e+05
   2.615782e+05   7.016098e+04
   2.584309e+05   3.854103e+05
   1.163320e+04   3.890115e+05
  -2.991889e+05   6.300766e+04
  -3.795419e+05  -3.055507e+05
  -1.109808e+05  -4.186522e+05
   2.799768e+05  -2.384780e+05
   4.194790e+05   4.166557e+04
   1.933769e+05   2.230751e+05
  -1.087558e+05   2.411353e+05
  -1.313093e+05   1.408832e+05
   1.118067e+05   2.048201e+04
   2.556461e+05  -4.041485e+03
   4.867784e+04   1.144378e+05
  -3.270845e+05   2.576132e+05
  -4.820181e+05   2.176402e+05
  -2.803145e+05  -5.381493e+04
   4.435732e+04  -3.274306e+05
   2.024490e+05  -3.248026e+05
   1.423078e+05  -5.228574e+04
   3.308500e+03   1.898141e+05
  -9.630586e+04   1.547037e+05
  -1.294261e+05  -7.728718e+04
  -8.991519e+04  -2.254425e+05
   2.301588e+04  -1.478580e+05
   1.472617e+05   2.802846e+04
   1.800652e+05   9.925537e+04
   9.680888e+04   2.917775e+04
  -8.583473e+03  -4.208625e+04
  -4.193433e+04   9.504846e+03
  -2.601172e+04   1.384548e+05
  -5.004016e+04   1.812306e+05
  -1.239703e+05   4.712700e+04
  -1.438217e+05  -1.620716e+05
  -2.405888e+04  -2.430051e+05
   1.660587e+05  -1.062054e+05
   2.388664e+05   1.210522e+05
   8.152787e+04   2.274976e+05
  -1.938880e+05   1.359906e+05
  -3.278771e+05  -4.122639e+04
  -1.765451e+05  -1.491344e+05
   1.125417e+05  -1.396425e+05
   2.388510e+05  -6.871089e+04
   8.315883e+04  -7.212791e+03
  -1.471104e+05   2.695242e+03
  -1.566348e+05  -4.964318e+04
   8.685098e+04  -1.159158e+05
   3.137401e+05  -8.735935e+04
