
 $NMID
 id='ANONYMOUS ', fmtdat='(2E16.6)'
 volume=1.0
 tramp=1.0
 $END
   1.334869e+07  -8.388391e+05
   9.490801e+06   6.296916e+06
   2.400072e+05   8.905638e+06
  -5.993201e+06   5.674509e+06
  -5.037908e+06   2.090604e+05
  -1.755635e+05  -2.592097e+06
   2.874756e+06  -1.031788e+06
   1.965503e+06   2.328834e+06
  -8.376629e+05   3.633159e+06
  -2.602890e+06   1.546402e+06
  -2.149643e+06  -1.675330e+06
  -2.778220e+05  -2.699887e+06
   1.223446e+06  -6.190823e+05
   9.483783e+05   2.169606e+06
  -8.434611e+05   2.608878e+06
  -2.268901e+06   2.203372e+05
  -1.674328e+06  -2.604011e+06
   5.645070e+05  -3.313010e+06
   2.470563e+06  -1.654716e+06
   2.584237e+06   5.922244e+05
   1.274710e+06   1.721377e+06
   4.924052e+04   1.536922e+06
  -3.802958e+04   1.028269e+06
   6.905388e+05   1.110669e+06
   9.059458e+05   1.728035e+06
  -3.520047e+05   1.991288e+06
  -2.411501e+06   1.172273e+06
  -3.321373e+06  -3.973353e+05
  -1.929985e+06  -1.530074e+06
   5.580021e+05  -1.365012e+06
   1.720199e+06  -2.211711e+05
   6.319580e+05   7.857102e+05
  -1.193266e+06   7.939875e+05
  -1.750023e+06  -1.799516e+05
  -7.622803e+05  -1.347157e+06
   4.550862e+05  -1.700376e+06
   7.943952e+05  -8.266882e+05
   3.509213e+05   4.985252e+05
  -1.306798e+05   8.554929e+05
  -1.260342e+05  -2.074724e+05
   3.818908e+05  -1.366746e+06
   9.582430e+05  -9.821502e+05
   9.346799e+05   7.181511e+05
   1.192947e+04   1.705623e+06
  -1.148926e+06   6.563327e+05
  -1.308762e+06  -1.327783e+06
   2.652679e+04  -2.041206e+06
   1.818750e+06  -7.537973e+05
   2.368707e+06   1.167712e+06
   1.034535e+06   1.977871e+06
  -1.059861e+06   1.242363e+06
  -2.088134e+06  -1.493633e+05
  -1.265515e+06  -1.038539e+06
   4.510117e+05  -8.797548e+05
   1.372283e+06  -1.675221e+04
   7.832849e+05   6.439492e+05
  -4.037447e+05   4.584164e+05
  -7.544379e+05  -2.782237e+05
   4.434179e+04  -6.473413e+05
   8.840170e+05  -1.810984e+05
   6.069774e+05   6.019164e+05
  -6.034739e+05   8.301995e+05
  -1.433569e+06   2.020835e+05
  -9.059694e+05  -8.398691e+05
   6.212540e+05  -1.568624e+06
   1.906846e+06  -1.421668e+06
   2.047540e+06  -3.108188e+05
   1.177806e+06   1.167645e+06
   1.356178e+05   2.020979e+06
  -3.936307e+05   1.750753e+06
  -4.134753e+05   9.034306e+05
  -4.141609e+05   4.043147e+05
  -7.285186e+05   4.082467e+05
  -1.141908e+06   2.307643e+05
  -1.144542e+06  -5.247876e+05
  -5.099801e+05  -1.248973e+06
   4.221542e+05  -1.048312e+06
   9.982338e+05   7.925542e+04
   7.617336e+05   1.157455e+06
  -1.741083e+05   1.263711e+06
  -1.144912e+06   3.922444e+05
  -1.409611e+06  -6.945316e+05
  -7.992620e+05  -1.245701e+06
   9.401172e+04  -1.101543e+06
   5.363963e+05  -6.667797e+05
   4.777955e+05  -4.235592e+05
   5.500279e+05  -4.429946e+05
   1.146606e+06  -3.517261e+05
   1.745095e+06   2.036221e+05
   1.431814e+06   1.088063e+06
   5.413061e+04   1.721830e+06
  -1.427986e+06   1.584886e+06
  -1.858508e+06   6.804813e+05
  -1.032531e+06  -4.227373e+05
   1.609729e+05  -9.828355e+05
   6.605339e+05  -6.685835e+05
   2.089060e+05   1.013479e+05
  -5.361213e+05   4.956203e+05
  -7.525880e+05   1.301482e+05
  -2.733932e+05  -4.662127e+05
   3.138303e+05  -4.711309e+05
   3.335940e+05   1.601062e+05
  -2.596717e+05   5.485009e+05
  -8.414243e+05  -3.293291e+04
  -7.421429e+05  -1.181102e+06
   1.258296e+05  -1.735832e+06
   1.196669e+06  -1.054071e+06
   1.708865e+06   3.298314e+05
   1.288140e+06   1.316652e+06
   2.502910e+05   1.309077e+06
  -6.175255e+05   6.217855e+05
  -7.185233e+05   1.769973e+04
  -2.112158e+05  -2.842098e+04
   1.560773e+05   3.198376e+05
  -1.208049e+05   5.208712e+05
  -7.084567e+05   2.437035e+05
  -8.297588e+05  -2.863358e+05
  -2.245178e+05  -5.430791e+05
   4.817938e+05  -2.821244e+05
   4.714391e+05   1.956432e+05
  -3.157267e+05   3.677591e+05
  -1.070803e+06   9.075910e+03
  -9.554050e+05  -6.184156e+05
   3.011779e+04  -1.005134e+06
   1.043084e+06  -8.040395e+05
   1.224152e+06  -1.242875e+05
   5.085938e+05   5.040195e+05
  -3.577035e+05   5.611934e+05
  -5.731097e+05   6.123747e+04
  -3.528410e+04  -4.069079e+05
   6.327207e+05  -2.899408e+05
   7.491070e+05   3.022427e+05
   2.242251e+05   7.174555e+05
  -4.171973e+05   5.177281e+05
  -5.871135e+05  -3.471255e+04
  -1.944816e+05  -3.166676e+05
   2.871293e+05  -5.187822e+04
   2.884276e+05   4.296068e+05
  -2.729505e+05   5.807069e+05
  -8.618737e+05   1.816034e+05
  -8.400720e+05  -4.796343e+05
  -1.471800e+05  -8.762838e+05
   5.980397e+05  -6.957596e+05
   7.370530e+05  -1.113827e+05
   2.526061e+05   3.684256e+05
  -2.729529e+05   3.734303e+05
  -3.298362e+05   1.826920e+04
   1.560923e+04  -2.547393e+05
   2.970240e+05  -1.760729e+05
   2.013004e+05   7.146178e+04
  -1.270950e+05   1.039131e+05
  -2.731088e+05  -1.899720e+05
   1.953242e+04  -4.952507e+05
   5.717830e+05  -3.955365e+05
   8.881187e+05   1.794317e+05
   6.056521e+05   8.386683e+05
  -1.225720e+05   1.060401e+06
  -7.351566e+05   6.623498e+05
  -8.083807e+05  -2.862756e+04
  -4.573110e+05  -4.812499e+05
  -1.369299e+05  -4.546396e+05
  -1.006744e+05  -1.873542e+05
  -1.674838e+05  -8.600695e+04
  -2.423620e+04  -2.565010e+05
   3.547336e+05  -3.981339e+05
   6.499788e+05  -1.757781e+05
   5.128669e+05   3.495940e+05
  -8.543177e+04   7.160668e+05
  -7.680015e+05   5.049318e+05
  -1.001108e+06  -2.164580e+05
  -5.247346e+05  -9.060536e+05
   3.752490e+05  -1.018138e+06
   1.055794e+06  -4.892637e+05
   1.064186e+06   2.265513e+05
   5.226625e+05   6.029537e+05
  -4.809690e+04   5.200359e+05
  -2.602692e+05   3.002296e+05
  -1.726151e+05   2.922892e+05
  -1.118668e+05   4.716823e+05
  -2.714022e+05   4.914225e+05
  -5.169186e+05   1.103002e+05
  -5.452679e+05  -4.865273e+05
  -2.088634e+05  -8.287724e+05
   2.964654e+05  -6.138068e+05
   5.679503e+05  -2.658046e+03
   3.683921e+05   5.265616e+05
  -1.174688e+05   6.028169e+05
  -4.434621e+05   2.520794e+05
  -3.519382e+05  -1.896231e+05
  -2.777581e+04  -4.094525e+05
   1.378911e+05  -3.628715e+05
   5.767327e+03  -2.282893e+05
  -1.583385e+05  -1.700198e+05
  -5.799642e+03  -1.724199e+05
   4.628854e+05  -9.587502e+04
   8.372252e+05   1.364722e+05
   6.914800e+05   4.281915e+05
   4.141184e+04   5.802605e+05
  -6.189028e+05   4.660976e+05
  -7.753796e+05   1.518185e+05
  -3.931457e+05  -1.405073e+05
   7.872133e+04  -2.076743e+05
   2.033652e+05  -4.704747e+04
  -1.199496e+04   1.258977e+05
  -2.212758e+05   8.419020e+04
  -1.921884e+05  -1.554818e+05
  -3.216530e+04  -3.237558e+05
   2.531494e+04  -2.033815e+05
  -7.443222e+04   8.042216e+04
  -1.795973e+05   1.690345e+05
  -1.267269e+05  -9.605160e+04
   1.082123e+05  -4.376356e+05
   3.938065e+05  -4.365321e+05
   5.068153e+05  -2.958654e+04
   2.813481e+05   3.950588e+05
  -1.839060e+05   4.271201e+05
  -4.947804e+05   7.475544e+04
  -2.958703e+05  -2.768603e+05
   2.987655e+05  -2.867705e+05
   7.211336e+05   3.202515e+04
   5.112784e+05   3.845768e+05
  -1.701481e+05   4.850048e+05
  -6.886477e+05   2.745431e+05
  -5.980682e+05  -6.113349e+04
  -8.216813e+04  -2.457468e+05
   2.834530e+05  -1.413014e+05
   1.472370e+05   1.088297e+05
  -2.844103e+05   1.840588e+05
  -4.989210e+05  -9.641094e+04
  -2.143845e+05  -5.373011e+05
   3.447656e+05  -6.967613e+05
   6.851041e+05  -3.146084e+05
   5.286216e+05   3.745082e+05
   4.782973e+04   8.001146e+05
  -3.522742e+05   5.876924e+05
  -4.210849e+05  -5.533717e+04
  -2.123593e+05  -5.310685e+05
   6.425038e+04  -4.603987e+05
   2.357235e+05  -5.364159e+04
   2.348880e+05   1.877894e+05
   1.093675e+05   8.335945e+04
   9.644371e+03  -5.730060e+04
   6.423211e+04   9.439366e+04
   1.890091e+05   4.163022e+05
   1.155917e+05   4.961522e+05
  -2.648009e+05   1.823428e+05
  -6.491902e+05  -2.313796e+05
  -5.962356e+05  -3.971295e+05
  -7.728070e+04  -3.005504e+05
   4.218128e+05  -1.573213e+05
   4.534275e+05  -7.661584e+04
   1.274147e+05  -1.459102e+03
  -8.332322e+04   8.966601e+04
   2.352374e+04   1.223612e+05
   1.598599e+05   8.226631e+04
  -2.118731e+02   5.772860e+04
  -3.440423e+05   6.134493e+04
  -4.479478e+05  -3.875106e+04
  -1.033647e+05  -2.884401e+05
   4.331084e+05  -4.588840e+05
   7.166250e+05  -2.659359e+05
   5.399592e+05   2.336964e+05
   6.999209e+04   6.242468e+05
  -3.458476e+05   5.702851e+05
  -4.606769e+05   1.800368e+05
  -2.828757e+05  -1.428566e+05
  -3.043739e+04  -1.535688e+05
   6.863925e+04   9.457363e+03
  -2.608461e+04   4.179924e+04
  -1.493312e+05  -1.556931e+05
  -1.118448e+05  -3.609214e+05
   9.941389e+04  -2.808788e+05
   2.980834e+05   1.003622e+05
   2.685094e+05   4.565724e+05
  -2.230028e+04   4.374356e+05
  -3.534396e+05   4.188116e+04
  -4.126766e+05  -3.753117e+05
  -9.848696e+04  -4.739944e+05
   3.261848e+05  -2.442213e+05
   4.601517e+05   6.538948e+04
   1.983105e+05   2.414233e+05
  -1.278311e+05   2.480435e+05
  -1.332401e+05   1.499647e+05
   1.455213e+05   3.379058e+04
   2.929850e+05   5.873370e+03
   4.425798e+04   1.265422e+05
  -3.754849e+05   2.838098e+05
  -5.312847e+05   2.461317e+05
  -2.936628e+05  -5.367272e+04
   6.142211e+04  -3.597803e+05
   2.200938e+05  -3.510510e+05
   1.422345e+05  -3.930313e+04
  -1.225176e+04   2.225041e+05
  -1.171816e+05   1.604190e+05
  -1.451941e+05  -1.087637e+05
  -9.172346e+04  -2.572491e+05
   3.584205e+04  -1.495375e+05
   1.646633e+05   4.384204e+04
   1.931350e+05   1.048344e+05
   1.074491e+05   2.459770e+04
   1.132870e+03  -3.382284e+04
  -4.599696e+04   3.871423e+04
  -5.795812e+04   1.678854e+05
  -9.833906e+04   1.843242e+05
  -1.540237e+05   1.672817e+04
  -1.338876e+05  -2.096236e+05
   1.250010e+04  -2.786088e+05
   1.998320e+05  -1.057349e+05
   2.533761e+05   1.562874e+05
   7.565873e+04   2.661984e+05
  -2.169934e+05   1.440567e+05
  -3.573164e+05  -6.519114e+04
  -1.887917e+05  -1.740775e+05
   1.317212e+05  -1.402085e+05
   2.671892e+05  -5.293548e+04
   7.984548e+04  -1.643792e+03
  -1.866812e+05  -1.507488e+04
  -1.839778e+05  -8.095987e+04
   1.172738e+05  -1.410419e+05
   3.832549e+05  -8.907099e+04
