
 $NMID
 id='ANONYMOUS ', fmtdat='(2E16.6)'
 volume=1.0
 tramp=1.0
 $END
  -3.870269e+07  -2.530668e+06
  -2.300169e+07  -2.265111e+07
   4.318092e+06  -2.504979e+07
   1.852620e+07  -1.191256e+07
   1.238566e+07   2.365678e+06
  -1.121691e+06   6.553425e+06
  -7.259668e+06   8.897861e+05
  -3.489671e+06  -6.595592e+06
   3.459534e+06  -8.286094e+06
   7.048531e+06  -2.653587e+06
   5.290472e+06   4.960629e+06
   3.047464e+05   7.081624e+06
  -3.383361e+06   1.622017e+06
  -2.182068e+06  -5.374064e+06
   2.718077e+06  -6.077213e+06
   5.916600e+06   4.299741e+05
   3.510924e+06   7.533993e+06
  -2.698244e+06   8.747810e+06
  -7.460341e+06   3.897456e+06
  -7.417423e+06  -2.314904e+06
  -3.551124e+06  -5.606347e+06
   4.359504e+05  -5.152338e+06
   1.366297e+06  -3.105254e+06
  -6.670836e+05  -2.297443e+06
  -2.064830e+06  -3.575712e+06
   6.052607e+05  -4.779866e+06
   6.010428e+06  -3.153776e+06
   8.632731e+06   9.977798e+05
   5.137615e+06   4.227499e+06
  -1.232043e+06   3.903352e+06
  -4.290630e+06   9.981498e+05
  -1.956564e+06  -1.546835e+06
   2.195795e+06  -1.863542e+06
   3.816777e+06   3.509040e+04
   2.123882e+06   2.837282e+06
  -6.489944e+05   4.266339e+06
  -2.152382e+06   2.497024e+06
  -1.605796e+06  -1.202977e+06
   1.780296e+04  -2.733652e+06
   7.354258e+05  -8.755757e+04
  -5.575096e+05   3.221677e+06
  -2.417143e+06   2.292751e+06
  -2.076539e+06  -2.203991e+06
   1.022498e+06  -4.347543e+06
   3.891206e+06  -8.065136e+05
   3.117850e+06   4.581438e+06
  -1.192999e+06   5.690146e+06
  -5.373672e+06   1.468755e+06
  -5.786121e+06  -3.602236e+06
  -2.037363e+06  -5.119897e+06
   2.848984e+06  -2.733538e+06
   4.943739e+06   8.402339e+05
   2.704420e+06   2.750169e+06
  -1.492928e+06   1.912495e+06
  -3.499803e+06  -4.677903e+05
  -1.709890e+06  -1.898875e+06
   1.231692e+06  -1.032924e+06
   1.727275e+06   7.960445e+05
  -3.912067e+05   1.204876e+06
  -1.940412e+06  -2.609072e+05
  -5.879797e+05  -1.746061e+06
   2.371809e+06  -1.520841e+06
   3.750421e+06   3.361096e+05
   1.931487e+06   2.640320e+06
  -1.872093e+06   4.149744e+06
  -5.007252e+06   3.689230e+06
  -5.464425e+06   7.499695e+05
  -3.225097e+06  -3.219257e+06
  -2.172259e+05  -5.336128e+06
   1.361916e+06  -4.248662e+06
   1.122175e+06  -1.820991e+06
   6.386928e+05  -7.581037e+05
   1.322047e+06  -1.191055e+06
   2.649597e+06  -9.643906e+05
   2.954149e+06   9.564066e+05
   1.504516e+06   2.868209e+06
  -7.584731e+05   2.530030e+06
  -2.220390e+06  -4.775657e+04
  -1.807832e+06  -2.634495e+06
   3.737403e+05  -3.065530e+06
   2.887388e+06  -1.066782e+06
   3.729967e+06   1.774753e+06
   2.126543e+06   3.440201e+06
  -4.375930e+05   3.124548e+06
  -1.752771e+06   1.774280e+06
  -1.500704e+06   9.040656e+05
  -1.458625e+06   8.749636e+05
  -2.816443e+06   6.534317e+05
  -4.239213e+06  -7.044986e+05
  -3.403545e+06  -2.781798e+06
  -1.810014e+04  -4.180977e+06
   3.525113e+06  -3.811284e+06
   4.535621e+06  -1.705389e+06
   2.594310e+06   9.487729e+05
  -2.585623e+05   2.419530e+06
  -1.542208e+06   1.725885e+06
  -5.278721e+05  -2.088739e+05
   1.294985e+06  -1.213957e+06
   1.858801e+06  -2.678453e+05
   6.845448e+05   1.198678e+06
  -7.164567e+05   1.128710e+06
  -6.760087e+05  -3.707692e+05
   7.190636e+05  -1.069156e+06
   1.834060e+06   4.694386e+05
   1.317178e+06   2.952008e+06
  -6.801188e+05   3.817441e+06
  -2.862049e+06   2.046614e+06
  -3.821355e+06  -9.830635e+05
  -2.867167e+06  -3.052704e+06
  -5.514804e+05  -3.024827e+06
   1.466021e+06  -1.497555e+06
   1.723961e+06  -7.274254e+04
   5.086889e+05   7.044729e+04
  -3.482469e+05  -7.811352e+05
   3.831998e+05  -1.259302e+06
   1.791419e+06  -5.039471e+05
   1.965282e+06   8.173734e+05
   4.343918e+05   1.334076e+06
  -1.180655e+06   5.998798e+05
  -1.050101e+06  -4.842901e+05
   7.876899e+05  -7.539842e+05
   2.453981e+06   1.080784e+05
   2.136503e+06   1.466242e+06
  -1.395392e+05   2.289992e+06
  -2.497276e+06   1.825595e+06
  -2.926347e+06   2.337795e+05
  -1.187454e+06  -1.267310e+06
   9.427388e+05  -1.366496e+06
   1.445520e+06  -9.507047e+04
   6.973740e+04   1.029720e+06
  -1.560723e+06   6.641062e+05
  -1.760406e+06  -7.934595e+05
  -4.402379e+05  -1.703387e+06
   1.036863e+06  -1.127689e+06
   1.336744e+06   1.769729e+05
   3.686799e+05   7.531883e+05
  -7.303962e+05   5.563391e+04
  -6.758723e+05  -1.091904e+06
   6.975850e+05  -1.417976e+06
   2.114274e+06  -4.175485e+05
   2.029804e+06   1.201902e+06
   3.078706e+05   2.135384e+06
  -1.496769e+06   1.637701e+06
  -1.769669e+06   2.102250e+05
  -5.511216e+05  -8.847007e+05
   6.780300e+05  -8.485122e+05
   7.507694e+05  -4.516856e+04
  -5.997139e+04   5.319946e+05
  -6.493084e+05   3.658553e+05
  -3.904770e+05  -1.177521e+05
   3.249492e+05  -1.327362e+05
   5.905783e+05   5.306803e+05
  -1.278406e+05   1.190201e+06
  -1.419473e+06   9.103424e+05
  -2.140830e+06  -4.878074e+05
  -1.430787e+06  -2.065840e+06
   3.285637e+05  -2.543826e+06
   1.760605e+06  -1.526153e+06
   1.878282e+06   1.050453e+05
   1.043661e+06   1.083406e+06
   3.628187e+05   9.740481e+05
   3.404797e+05   4.225960e+05
   4.626268e+05   2.862165e+05
   3.795648e+04   6.827206e+05
  -8.908756e+05   9.349288e+05
  -1.556424e+06   3.761559e+05
  -1.196233e+06  -8.273588e+05
   2.332181e+05  -1.660138e+06
   1.854485e+06  -1.156306e+06
   2.384864e+06   5.645124e+05
   1.184431e+06   2.205179e+06
  -1.011663e+06   2.413701e+06
  -2.587979e+06   1.070082e+06
  -2.492786e+06  -6.338776e+05
  -1.149421e+06  -1.427449e+06
   1.409768e+05  -1.154300e+06
   5.516463e+05  -6.792181e+05
   3.409355e+05  -7.615509e+05
   2.748771e+05  -1.217032e+06
   7.138399e+05  -1.208642e+06
   1.289562e+06  -2.426312e+05
   1.314579e+06   1.198339e+06
   4.807571e+05   2.009290e+06
  -7.312765e+05   1.472963e+06
  -1.356136e+06  -2.758493e+04
  -8.334688e+05  -1.305562e+06
   3.563717e+05  -1.428397e+06
   1.102481e+06  -5.045577e+05
   8.011524e+05   5.608623e+05
  -3.498550e+04   1.004370e+06
  -4.172918e+05   8.174092e+05
  -3.503621e+04   5.013965e+05
   4.048784e+05   4.076272e+05
   2.456900e+04   4.185810e+05
  -1.146014e+06   1.933409e+05
  -2.052216e+06  -3.977747e+05
  -1.641373e+06  -1.089600e+06
  -6.951504e+03  -1.413234e+06
   1.579252e+06  -1.085658e+06
   1.876582e+06  -2.907319e+05
   8.888343e+05   4.071035e+05
  -2.392505e+05   5.152492e+05
  -4.967031e+05   7.226356e+04
   3.007430e+04  -3.547174e+05
   5.199207e+05  -2.244742e+05
   4.704224e+05   3.812903e+05
   1.267425e+05   7.963214e+05
  -2.013377e+04   5.116377e+05
   1.598124e+05  -1.657290e+05
   3.860101e+05  -3.832688e+05
   2.978222e+05   2.429671e+05
  -2.432233e+05   1.060244e+06
  -9.811646e+05   1.054009e+06
  -1.307301e+06   5.325075e+04
  -7.266561e+05  -9.971445e+05
   4.845521e+05  -1.073992e+06
   1.258579e+06  -1.956782e+05
   7.249594e+05   6.656878e+05
  -7.360892e+05   6.684785e+05
  -1.704668e+06  -1.116995e+05
  -1.154233e+06  -9.207459e+05
   4.485236e+05  -1.101732e+06
   1.620169e+06  -5.827114e+05
   1.378822e+06   1.775751e+05
   1.719035e+05   5.699988e+05
  -6.809191e+05   3.035305e+05
  -3.569086e+05  -2.929994e+05
   6.849586e+05  -4.717445e+05
   1.227684e+06   2.147014e+05
   5.582540e+05   1.309609e+06
  -8.065144e+05   1.722175e+06
  -1.653124e+06   7.929014e+05
  -1.281235e+06  -8.954478e+05
  -1.143418e+05  -1.922382e+06
   8.450571e+05  -1.384490e+06
   9.880729e+05   1.679414e+05
   4.651216e+05   1.271518e+06
  -1.954184e+05   1.061535e+06
  -5.736804e+05   9.794244e+04
  -5.349968e+05  -4.353877e+05
  -2.324956e+05  -1.747732e+05
  -3.061414e+04   1.193247e+05
  -1.875384e+05  -2.792310e+05
  -4.581284e+05  -1.025869e+06
  -2.308496e+05  -1.165063e+06
   6.833713e+05  -3.994826e+05
   1.551804e+06   5.638839e+05
   1.389703e+06   9.459060e+05
   1.720534e+05   7.318989e+05
  -9.869993e+05   3.951856e+05
  -1.074156e+06   1.706256e+05
  -3.251232e+05  -3.457944e+04
   1.897799e+05  -2.246837e+05
  -2.729348e+04  -2.531902e+05
  -3.548709e+05  -1.563623e+05
  -1.578104e+04  -1.480582e+05
   7.958398e+05  -1.851225e+05
   1.094661e+06   9.023065e+04
   3.056041e+05   7.399953e+05
  -1.024490e+06   1.151894e+06
  -1.781128e+06   6.515803e+05
  -1.370580e+06  -5.738349e+05
  -1.852190e+05  -1.512239e+06
   8.620688e+05  -1.385468e+06
   1.134726e+06  -4.600852e+05
   6.903878e+05   3.226765e+05
   8.927266e+04   3.840803e+05
  -1.432994e+05   2.168059e+04
   6.216883e+04  -6.451690e+04
   3.326130e+05   3.813356e+05
   2.479134e+05   8.657314e+05
  -2.407067e+05   6.911979e+05
  -7.268872e+05  -2.137771e+05
  -6.852966e+05  -1.092164e+06
   1.293267e+04  -1.086848e+06
   8.509358e+05  -1.527700e+05
   1.030233e+06   8.796588e+05
   2.626902e+05   1.164737e+06
  -8.005827e+05   6.246861e+05
  -1.141714e+06  -1.597175e+05
  -4.877702e+05  -6.278569e+05
   3.350971e+05  -6.369330e+05
   3.636541e+05  -3.523709e+05
  -3.225311e+05  -4.681966e+04
  -7.037886e+05  -3.868481e+03
  -1.163950e+05  -3.209893e+05
   9.077096e+05  -6.799305e+05
   1.304665e+06  -5.478481e+05
   7.325898e+05   1.802205e+05
  -1.546021e+05   8.871993e+05
  -5.752936e+05   8.475140e+05
  -3.967335e+05   1.027446e+05
   1.859412e+03  -5.338894e+05
   2.879230e+05  -4.130509e+05
   3.671805e+05   2.288678e+05
   2.277652e+05   6.251239e+05
  -9.409805e+04   3.980008e+05
  -4.077694e+05  -9.254194e+04
  -4.669074e+05  -2.841531e+05
  -2.497050e+05  -8.089663e+04
   1.302335e+02   1.176170e+05
   8.342526e+04  -3.832373e+04
   8.232484e+04  -4.091297e+05
   1.907005e+05  -5.184282e+05
   3.835635e+05  -1.138222e+05
   3.906236e+05   4.906322e+05
   3.318634e+04   7.012326e+05
  -4.759095e+05   2.825162e+05
  -6.493992e+05  -3.680076e+05
  -2.082992e+05  -6.411654e+05
   5.394387e+05  -3.492623e+05
   8.949297e+05   1.533308e+05
   4.682519e+05   4.265159e+05
  -3.325093e+05   3.653463e+05
  -6.726852e+05   1.552032e+05
  -2.230186e+05  -3.588002e+03
   4.284988e+05  -9.939764e+03
   4.501766e+05   1.498611e+05
  -2.415480e+05   3.341980e+05
  -8.785445e+05   2.435013e+05
