
 $NMID
 id='ANONYMOUS ', fmtdat='(2E16.6)'
 volume=1.0
 tramp=1.0
 $END
  -2.574140e+07  -3.759273e+06
  -1.480416e+07  -1.455223e+07
   2.725957e+06  -1.587911e+07
   1.217952e+07  -8.814147e+06
   8.823207e+06   2.025748e+05
  -1.169386e+05   4.414069e+06
  -5.124721e+06   1.575490e+06
  -3.210465e+06  -4.333939e+06
   1.884025e+06  -6.609097e+06
   4.960575e+06  -2.471493e+06
   3.764406e+06   3.795119e+06
  -3.143144e+04   5.443741e+06
  -2.673570e+06   8.811216e+05
  -1.638445e+06  -4.609628e+06
   1.942864e+06  -4.984582e+06
   4.234468e+06   5.361182e+04
   2.526123e+06   5.372130e+06
  -1.963161e+06   6.179509e+06
  -5.336773e+06   2.399185e+06
  -4.909681e+06  -2.201540e+06
  -1.672822e+06  -4.079183e+06
   9.391357e+05  -2.944981e+06
   5.753837e+05  -1.381362e+06
  -1.622379e+06  -1.779728e+06
  -2.166827e+06  -3.680357e+06
   9.194294e+05  -4.366165e+06
   5.460419e+06  -2.135359e+06
   6.983330e+06   1.577810e+06
   3.565260e+06   3.737669e+06
  -1.735618e+06   2.865468e+06
  -3.953773e+06   1.577844e+05
  -1.464161e+06  -2.014744e+06
   2.566263e+06  -1.992001e+06
   3.935349e+06   2.695951e+05
   1.783413e+06   3.052884e+06
  -1.162280e+06   3.814942e+06
  -2.034698e+06   1.551776e+06
  -6.896481e+05  -1.533243e+06
   7.840431e+05  -1.983428e+06
   6.360698e+05   7.122538e+05
  -8.802366e+05   3.095123e+06
  -2.076002e+06   1.941205e+06
  -1.594624e+06  -1.493069e+06
   3.379107e+05  -2.948183e+06
   2.050665e+06  -5.358314e+05
   1.761195e+06   2.985384e+06
  -7.987474e+05   3.660353e+06
  -3.763091e+06   7.890445e+05
  -4.430405e+06  -2.792320e+06
  -1.776296e+06  -4.019726e+06
   2.199870e+06  -2.323603e+06
   4.091697e+06   4.733706e+05
   2.407288e+06   2.065046e+06
  -9.078515e+05   1.497507e+06
  -2.557604e+06  -2.484250e+05
  -1.340187e+06  -1.297559e+06
   8.627443e+05  -7.276753e+05
   1.466960e+06   5.989249e+05
   5.270555e+04   1.140430e+06
  -1.416694e+06   3.861061e+05
  -9.792675e+05  -7.703820e+05
   1.096461e+06  -1.095828e+06
   2.544766e+06  -9.326207e+04
   1.454912e+06   1.719504e+06
  -1.682969e+06   3.071350e+06
  -4.338326e+06   2.632327e+06
  -4.394904e+06   1.658275e+05
  -2.163918e+06  -2.830082e+06
   1.768150e+05  -4.231630e+06
   9.977002e+05  -3.404096e+06
   6.983301e+05  -1.797710e+06
   7.426288e+05  -1.077772e+06
   1.712851e+06  -1.114858e+06
   2.731330e+06  -4.659231e+05
   2.595707e+06   1.350488e+06
   1.052365e+06   2.872999e+06
  -9.995258e+05   2.331893e+06
  -2.186181e+06  -1.595268e+05
  -1.586397e+06  -2.505632e+06
   5.047074e+05  -2.680599e+06
   2.539632e+06  -6.402958e+05
   2.871119e+06   1.808985e+06
   1.322775e+06   2.842611e+06
  -5.854729e+05   2.208746e+06
  -1.305615e+06   1.097066e+06
  -9.844116e+05   6.527269e+05
  -1.093643e+06   8.135956e+05
  -2.358578e+06   6.085790e+05
  -3.572227e+06  -6.138768e+05
  -2.852969e+06  -2.413454e+06
   6.488883e+04  -3.598369e+06
   3.180568e+06  -3.195109e+06
   4.050055e+06  -1.247546e+06
   2.189217e+06   1.058711e+06
  -4.673866e+05   2.150984e+06
  -1.523852e+06   1.378266e+06
  -4.362279e+05  -2.573219e+05
   1.205533e+06  -9.880699e+05
   1.570320e+06  -1.575431e+05
   4.730872e+05   1.029041e+06
  -7.059885e+05   9.672528e+05
  -6.812662e+05  -3.100484e+05
   4.670160e+05  -1.063923e+06
   1.542607e+06   6.128209e+04
   1.386480e+06   2.292007e+06
  -2.102166e+05   3.420313e+06
  -2.327915e+06   2.127728e+06
  -3.473249e+06  -6.616599e+05
  -2.686930e+06  -2.747575e+06
  -4.965861e+05  -2.765608e+06
   1.359983e+06  -1.284719e+06
   1.537371e+06   1.652729e+04
   4.407109e+05   7.435533e+04
  -2.875551e+05  -6.812414e+05
   3.228800e+05  -1.034667e+06
   1.480486e+06  -3.831511e+05
   1.638967e+06   6.797695e+05
   3.824623e+05   1.102935e+06
  -1.013362e+06   5.165471e+05
  -9.636052e+05  -4.299169e+05
   6.457011e+05  -7.402952e+05
   2.209369e+06   1.038578e+04
   1.987158e+06   1.307293e+06
  -8.116821e+04   2.091434e+06
  -2.222137e+06   1.618346e+06
  -2.563906e+06   1.643669e+05
  -9.904667e+05  -1.088832e+06
   8.243535e+05  -1.098062e+06
   1.182352e+06  -2.797123e+04
  -6.472566e+03   8.565284e+05
  -1.354181e+06   5.236351e+05
  -1.513433e+06  -6.914816e+05
  -4.114871e+05  -1.475126e+06
   8.631273e+05  -1.021619e+06
   1.171591e+06   9.658129e+04
   3.650062e+05   6.291025e+05
  -5.918416e+05   4.263982e+04
  -5.412816e+05  -9.515627e+05
   6.579386e+05  -1.200933e+06
   1.852027e+06  -2.863503e+05
   1.719274e+06   1.104930e+06
   2.149411e+05   1.848038e+06
  -1.310022e+06   1.383213e+06
  -1.527517e+06   1.688503e+05
  -4.865623e+05  -7.630342e+05
   5.902488e+05  -7.391566e+05
   6.931211e+05  -2.132128e+04
  -2.526490e+04   5.295571e+05
  -6.245795e+05   3.809266e+05
  -4.540147e+05  -1.230055e+05
   2.188540e+05  -2.046795e+05
   5.309077e+05   3.902358e+05
  -8.016420e+04   1.012853e+06
  -1.230531e+06   7.734850e+05
  -1.847038e+06  -4.612473e+05
  -1.190848e+06  -1.823438e+06
   3.451038e+05  -2.220787e+06
   1.573278e+06  -1.342097e+06
   1.684377e+06   8.903414e+04
   9.691315e+05   1.012029e+06
   3.274788e+05   9.780921e+05
   2.272542e+05   4.562817e+05
   3.166582e+05   2.361454e+05
   2.796219e+03   5.448327e+05
  -7.704690e+05   8.061060e+05
  -1.376096e+06   3.354562e+05
  -1.081555e+06  -7.580199e+05
   1.985467e+05  -1.503385e+06
   1.645350e+06  -1.012956e+06
   2.090292e+06   5.305293e+05
   1.019451e+06   1.931721e+06
  -8.758510e+05   2.070432e+06
  -2.229670e+06   9.136842e+05
  -2.182988e+06  -5.410550e+05
  -1.059848e+06  -1.260408e+06
   9.455645e+04  -1.076766e+06
   5.462825e+05  -6.543081e+05
   4.154102e+05  -6.530445e+05
   3.213487e+05  -9.949982e+05
   6.359996e+05  -9.882143e+05
   1.098156e+06  -1.634939e+05
   1.102135e+06   1.082790e+06
   3.629357e+05   1.766902e+06
  -6.815938e+05   1.266862e+06
  -1.186854e+06  -4.259548e+04
  -7.114791e+05  -1.126145e+06
   2.958097e+05  -1.228074e+06
   9.124304e+05  -4.678183e+05
   6.722772e+05   4.192780e+05
   4.058285e+03   8.206740e+05
  -3.045322e+05   7.080828e+05
  -8.682329e+03   4.654830e+05
   3.295641e+05   3.831806e+05
   2.187308e+03   3.731514e+05
  -9.753842e+05   1.496395e+05
  -1.739539e+06  -3.817128e+05
  -1.401841e+06  -9.615050e+05
  -1.795178e+04  -1.191892e+06
   1.346348e+06  -8.883769e+05
   1.619331e+06  -2.426731e+05
   7.785508e+05   3.104424e+05
  -1.971893e+05   4.115537e+05
  -4.155965e+05   7.627680e+04
   5.717676e+04  -2.712339e+05
   4.804460e+05  -1.725408e+05
   3.928959e+05   3.460933e+05
   4.356489e+04   7.143909e+05
  -7.505860e+04   4.518238e+05
   1.467582e+05  -1.738550e+05
   3.801213e+05  -3.679534e+05
   2.624359e+05   2.131909e+05
  -2.611068e+05   9.363586e+05
  -8.800192e+05   8.852329e+05
  -1.087084e+06  -2.200724e+04
  -5.523105e+05  -8.934630e+05
   4.528411e+05  -8.793705e+05
   1.073242e+06  -9.006880e+04
   6.088702e+05   6.152771e+05
  -6.457561e+05   5.739562e+05
  -1.504763e+06  -1.108974e+05
  -1.048572e+06  -8.151048e+05
   3.685818e+05  -9.881892e+05
   1.437888e+06  -5.385136e+05
   1.241694e+06   1.500473e+05
   1.621474e+05   5.121018e+05
  -5.949805e+05   2.714708e+05
  -2.878397e+05  -2.504925e+05
   6.346649e+05  -3.722757e+05
   1.064512e+06   2.563020e+05
   4.101126e+05   1.180775e+06
  -8.045151e+05   1.468339e+06
  -1.494259e+06   6.170032e+05
  -1.095547e+06  -8.372982e+05
  -4.195874e+04  -1.698556e+06
   7.768220e+05  -1.216528e+06
   8.688619e+05   1.423630e+05
   4.061121e+05   1.120780e+06
  -1.570790e+05   9.464034e+05
  -4.923033e+05   8.756398e+04
  -4.879226e+05  -4.010465e+05
  -2.329320e+05  -1.680671e+05
  -1.669237e+04   1.134263e+05
  -1.082754e+05  -2.298110e+05
  -3.561257e+05  -9.030337e+05
  -2.121779e+05  -1.033159e+06
   5.636222e+05  -3.370476e+05
   1.353036e+06   5.369063e+05
   1.231790e+06   8.646043e+05
   1.355114e+05   6.382358e+05
  -9.098494e+05   3.178629e+05
  -9.585561e+05   1.339833e+05
  -2.550293e+05  -2.094198e+04
   1.858957e+05  -1.890251e+05
  -5.725663e+04  -2.401415e+05
  -3.498510e+05  -1.673142e+05
   6.710126e+03  -1.338172e+05
   7.489887e+05  -1.253405e+05
   9.519791e+05   1.254441e+05
   1.831001e+05   6.547171e+05
  -9.747231e+05   9.548697e+05
  -1.554397e+06   4.826507e+05
  -1.132444e+06  -5.729547e+05
  -9.853484e+04  -1.339068e+06
   7.886344e+05  -1.171793e+06
   1.009589e+06  -3.385445e+05
   6.020814e+05   3.275082e+05
   4.790721e+04   3.397492e+05
  -1.638259e+05  -7.743488e+03
   4.119446e+04  -8.180000e+04
   2.977851e+05   3.306858e+05
   2.063290e+05   7.648100e+05
  -2.421106e+05   5.893446e+05
  -6.397272e+05  -2.381759e+05
  -5.419042e+05  -1.008065e+06
   9.247285e+04  -9.502144e+05
   7.775372e+05  -6.842595e+04
   8.625517e+05   8.420071e+05
   1.647382e+05   1.028663e+06
  -7.307180e+05   4.912687e+05
  -9.757357e+05  -1.910877e+05
  -3.815667e+05  -5.407190e+05
   3.146426e+05  -5.102922e+05
   2.983274e+05  -2.855796e+05
  -3.176645e+05  -6.317928e+04
  -6.261562e+05  -3.219785e+04
  -7.822732e+04  -2.789700e+05
   8.173648e+05  -5.701898e+05
   1.128312e+06  -4.611666e+05
   5.977577e+05   1.566399e+05
  -1.694811e+05   7.577350e+05
  -5.019882e+05   7.059241e+05
  -3.169760e+05   4.797284e+04
   3.777915e+04  -4.837581e+05
   2.745007e+05  -3.329079e+05
   3.181384e+05   2.449170e+05
   1.730150e+05   5.569488e+05
  -1.069781e+05   3.165110e+05
  -3.535881e+05  -1.094010e+05
  -3.861787e+05  -2.432183e+05
  -2.140956e+05  -5.925624e+04
  -2.213967e+04   7.885945e+04
   6.998546e+04  -8.315489e+04
   1.297122e+05  -3.796626e+05
   2.515673e+05  -4.165752e+05
   3.648223e+05  -2.863346e+04
   2.847161e+05   4.853001e+05
  -5.283362e+04   6.248215e+05
  -4.445652e+05   2.157831e+05
  -5.356338e+05  -3.686076e+05
  -1.439908e+05  -5.833696e+05
   4.753783e+05  -2.812400e+05
   7.600971e+05   1.822033e+05
   3.852982e+05   3.917337e+05
  -3.060830e+05   2.836390e+05
  -5.881619e+05   8.121919e+04
  -1.699472e+05  -1.829449e+04
   4.136217e+05   3.023273e+04
   4.058842e+05   1.829014e+05
  -2.512815e+05   3.082292e+05
  -8.266955e+05   1.841858e+05
