
 $NMID
 id='ANONYMOUS ', fmtdat='(2E16.6)'
 volume=1.0
 tramp=1.0
 $END
  -1.993306e+07  -1.267406e+06
  -1.156491e+07  -1.218675e+07
   2.742509e+06  -1.304227e+07
   9.752202e+06  -5.528758e+06
   6.088624e+06   1.872588e+06
  -9.107968e+05   3.395565e+06
  -3.672869e+06   1.031844e+05
  -1.464310e+06  -3.453426e+06
   1.982545e+06  -3.917698e+06
   3.586602e+06  -1.066277e+06
   2.617272e+06   2.530591e+06
   1.205149e+05   3.504493e+06
  -1.722118e+06   8.749593e+05
  -1.094141e+06  -2.509070e+06
   1.385646e+06  -2.828697e+06
   2.925605e+06   3.727424e+05
   1.615664e+06   3.801850e+06
  -1.495740e+06   4.300056e+06
  -3.800016e+06   1.884830e+06
  -3.783984e+06  -1.165185e+06
  -1.919485e+06  -2.888760e+06
   1.711577e+05  -2.822572e+06
   9.281026e+05  -1.752019e+06
   7.744977e+04  -1.019277e+06
  -8.211414e+05  -1.391007e+06
   1.432860e+05  -2.099735e+06
   2.674775e+06  -1.617719e+06
   4.117935e+06   2.814123e+05
   2.623625e+06   1.992222e+06
  -3.924701e+05   2.026823e+06
  -1.952804e+06   7.188795e+05
  -1.028807e+06  -5.080323e+05
   7.662959e+05  -7.740853e+05
   1.545702e+06  -7.536349e+04
   9.695445e+05   1.139728e+06
  -1.752578e+05   1.938609e+06
  -1.008830e+06   1.292557e+06
  -9.764000e+05  -4.852483e+05
  -1.905710e+05  -1.426572e+06
   3.820205e+05  -2.815403e+05
  -1.224606e+05   1.383304e+06
  -1.106277e+06   1.024688e+06
  -9.723187e+05  -1.164804e+06
   6.824436e+05  -2.193538e+06
   2.171541e+06  -3.324466e+05
   1.638985e+06   2.423387e+06
  -6.783416e+05   2.929965e+06
  -2.716864e+06   7.466333e+05
  -2.757482e+06  -1.764114e+06
  -8.721925e+05  -2.441252e+06
   1.394705e+06  -1.233823e+06
   2.288336e+06   4.900053e+05
   1.167837e+06   1.385250e+06
  -8.403715e+05   9.294005e+05
  -1.752100e+06  -3.003109e+05
  -8.020488e+05  -1.022882e+06
   6.465410e+05  -5.335571e+05
   7.983546e+05   4.104459e+05
  -3.001538e+05   5.223740e+05
  -9.454847e+05  -3.257554e+05
  -9.416591e+04  -1.015373e+06
   1.375676e+06  -7.021160e+05
   1.882529e+06   3.356382e+05
   8.849603e+05   1.387951e+06
  -8.862432e+05   2.000595e+06
  -2.309348e+06   1.777430e+06
  -2.589727e+06   4.214891e+05
  -1.620444e+06  -1.497641e+06
  -1.437253e+05  -2.556862e+06
   7.328078e+05  -1.986685e+06
   6.121633e+05  -7.122190e+05
   2.144214e+05  -1.852478e+05
   4.022057e+05  -5.196401e+05
   1.064120e+06  -5.731880e+05
   1.346812e+06   2.635220e+05
   7.815767e+05   1.198601e+06
  -2.351919e+05   1.137075e+06
  -9.451651e+05   3.575609e+04
  -8.312069e+05  -1.133153e+06
   1.229170e+05  -1.400945e+06
   1.322769e+06  -5.644390e+05
   1.803244e+06   7.631380e+05
   1.081493e+06   1.643279e+06
  -1.936314e+05   1.567757e+06
  -8.956117e+05   8.961494e+05
  -7.816516e+05   4.026483e+05
  -7.023774e+05   3.518236e+05
  -1.282373e+06   2.655069e+05
  -1.922412e+06  -3.370000e+05
  -1.541100e+06  -1.269828e+06
  -1.706136e+04  -1.891812e+06
   1.562970e+06  -1.737313e+06
   2.028936e+06  -8.237552e+05
   1.209395e+06   3.722683e+05
  -4.400246e+04   1.095221e+06
  -6.665587e+05   8.287769e+05
  -2.684009e+05  -7.490202e+04
   5.647431e+05  -5.816373e+05
   8.728466e+05  -1.455249e+05
   3.528399e+05   5.635743e+05
  -3.109303e+05   5.389912e+05
  -2.953458e+05  -1.568733e+05
   3.529442e+05  -4.437025e+05
   8.171776e+05   3.029097e+05
   4.952648e+05   1.392899e+06
  -4.278206e+05   1.665597e+06
  -1.319474e+06   7.955114e+05
  -1.651219e+06  -5.147195e+05
  -1.219244e+06  -1.352124e+06
  -2.371955e+05  -1.319670e+06
   6.433388e+05  -6.714645e+05
   7.743568e+05  -4.550751e+04
   2.312958e+05   3.513483e+04
  -1.662033e+05  -3.515926e+05
   1.741392e+05  -5.894876e+05
   8.366693e+05  -2.445489e+05
   9.176611e+05   3.832381e+05
   2.042844e+05   6.311630e+05
  -5.346313e+05   2.902592e+05
  -4.719398e+05  -1.988085e+05
   3.410726e+05  -3.094648e+05
   1.061859e+06   6.461972e+04
   9.193841e+05   6.379030e+05
  -6.923091e+04   9.944427e+05
  -1.109169e+06   8.085807e+05
  -1.318140e+06   1.066180e+05
  -5.469678e+05  -5.886509e+05
   4.354207e+05  -6.481703e+05
   6.867104e+05  -5.215832e+04
   5.477944e+04   4.862113e+05
  -7.087870e+05   3.194149e+05
  -8.029850e+05  -3.605136e+05
  -1.908463e+05  -7.761859e+05
   4.815848e+05  -5.032067e+05
   6.083508e+05   9.252114e+04
   1.665363e+05   3.511986e+05
  -3.316898e+05   4.024485e+04
  -3.191404e+05  -4.759889e+05
   2.895346e+05  -6.391293e+05
   9.389973e+05  -2.074964e+05
   9.219885e+05   5.260963e+05
   1.481832e+05   9.662749e+05
  -6.809846e+05   7.468940e+05
  -8.108922e+05   9.006836e+04
  -2.531310e+05  -4.119444e+05
   3.063075e+05  -3.934616e+05
   3.388377e+05  -3.480934e+04
  -1.466402e+04   2.187907e+05
  -2.600917e+05   1.576902e+05
  -1.455760e+05  -2.891342e+04
   1.459774e+05  -2.327229e+04
   2.417976e+05   2.538172e+05
  -7.319595e+04   5.261831e+05
  -6.348080e+05   4.012802e+05
  -9.573434e+05  -2.148194e+05
  -6.473386e+05  -9.229827e+05
   1.423884e+05  -1.141301e+06
   7.875715e+05  -6.788138e+05
   8.318884e+05   5.518703e+04
   4.505835e+05   4.774997e+05
   1.581836e+05   4.122048e+05
   1.667323e+05   1.747727e+05
   2.183818e+05   1.350036e+05
   1.096416e+04   3.113570e+05
  -4.039054e+05   4.044488e+05
  -6.803512e+05   1.528123e+05
  -5.104083e+05  -3.610423e+05
   1.110631e+05  -7.171215e+05
   8.177050e+05  -5.037342e+05
   1.057366e+06   2.487043e+05
   5.292490e+05   9.836817e+05
  -4.564645e+05   1.084267e+06
  -1.166618e+06   4.779961e+05
  -1.114653e+06  -2.914304e+05
  -5.019977e+05  -6.373761e+05
   6.768485e+04  -5.006127e+05
   2.312131e+05  -2.919085e+05
   1.301888e+05  -3.485128e+05
   1.135931e+05  -5.639529e+05
   3.245572e+05  -5.552974e+05
   5.865273e+05  -1.148957e+05
   5.977864e+05   5.334137e+05
   2.250100e+05   9.006900e+05
  -3.213410e+05   6.660073e+05
  -6.081860e+05  -7.722852e+03
  -3.747589e+05  -5.873494e+05
   1.651323e+05  -6.417633e+05
   5.016668e+05  -2.173411e+05
   3.579573e+05   2.656187e+05
  -2.621189e+04   4.568240e+05
  -1.971098e+05   3.632112e+05
  -1.913906e+04   2.202514e+05
   1.815089e+05   1.807124e+05
   1.011157e+04   1.845564e+05
  -5.156517e+05   8.249200e+04
  -9.217304e+05  -1.792796e+05
  -7.365371e+05  -4.876152e+05
  -7.892713e+02  -6.368561e+05
   7.136900e+05  -4.924052e+05
   8.454995e+05  -1.297186e+05
   3.965931e+05   1.898949e+05
  -1.119504e+05   2.346247e+05
  -2.235734e+05   2.713044e+04
   1.601414e+04  -1.651829e+05
   2.340717e+05  -1.002960e+05
   2.115480e+05   1.739355e+05
   6.241110e+04   3.576519e+05
  -2.084491e+03   2.316738e+05
   6.905532e+04  -6.662735e+04
   1.605794e+05  -1.660459e+05
   1.253139e+05   1.045661e+05
  -1.045212e+05   4.663703e+05
  -4.327242e+05   4.710291e+05
  -5.887020e+05   2.985999e+04
  -3.338353e+05  -4.446027e+05
   2.158102e+05  -4.868374e+05
   5.691510e+05  -9.369015e+04
   3.265254e+05   2.965233e+05
  -3.321019e+05   2.978375e+05
  -7.602327e+05  -5.351476e+04
  -5.064291e+05  -4.114929e+05
   2.070064e+05  -4.848871e+05
   7.204550e+05  -2.522791e+05
   6.092966e+05   8.079479e+04
   7.495003e+04   2.524390e+05
  -3.042952e+05   1.356025e+05
  -1.638504e+05  -1.313613e+05
   3.013247e+05  -2.174720e+05
   5.521100e+05   8.689943e+04
   2.602197e+05   5.842512e+05
  -3.523823e+05   7.783820e+05
  -7.388760e+05   3.631326e+05
  -5.768840e+05  -3.984524e+05
  -5.445226e+04  -8.606575e+05
   3.756602e+05  -6.176709e+05
   4.396649e+05   7.703750e+04
   2.064523e+05   5.664642e+05
  -8.749443e+04   4.703467e+05
  -2.552958e+05   4.337133e+04
  -2.368773e+05  -1.900605e+05
  -1.019271e+05  -7.399017e+04
  -1.529033e+04   5.262308e+04
  -8.995968e+04  -1.284975e+05
  -2.102031e+05  -4.606162e+05
  -1.021394e+05  -5.201973e+05
   3.107854e+05  -1.784268e+05
   6.960023e+05   2.496290e+05
   6.192841e+05   4.200231e+05
   7.651724e+04   3.275093e+05
  -4.378935e+05   1.795207e+05
  -4.783903e+05   7.705202e+04
  -1.477096e+05  -1.865324e+04
   8.404580e+04  -1.029408e+05
  -7.269376e+03  -1.098413e+05
  -1.540895e+05  -6.335812e+04
  -1.003855e+04  -6.443001e+04
   3.499061e+05  -8.801891e+04
   4.911707e+05   3.535610e+04
   1.460048e+05   3.334933e+05
  -4.525700e+05   5.236564e+05
  -8.013971e+05   2.988965e+05
  -6.221292e+05  -2.535855e+05
  -8.811443e+04  -6.766196e+05
   3.841554e+05  -6.227224e+05
   5.065366e+05  -2.118998e+05
   3.092185e+05   1.382859e+05
   4.382908e+04   1.709906e+05
  -5.991037e+04   1.423746e+04
   2.797488e+04  -2.499239e+04
   1.471522e+05   1.699002e+05
   1.127725e+05   3.858512e+05
  -1.037379e+05   3.126813e+05
  -3.265974e+05  -8.848712e+04
  -3.154116e+05  -4.849352e+05
  -2.779450e+03  -4.903094e+05
   3.802787e+05  -7.661322e+04
   4.673471e+05   3.883751e+05
   1.233422e+05   5.227584e+05
  -3.575464e+05   2.851847e+05
  -5.140210e+05  -6.787105e+04
  -2.216584e+05  -2.827705e+05
   1.488677e+05  -2.894960e+05
   1.645532e+05  -1.594416e+05
  -1.413712e+05  -1.868402e+04
  -3.138274e+05   5.293564e+02
  -5.356703e+04  -1.447168e+05
   4.051151e+05  -3.066754e+05
   5.861417e+05  -2.449657e+05
   3.321150e+05   8.372896e+04
  -6.732976e+04   4.003765e+05
  -2.600627e+05   3.818357e+05
  -1.823671e+05   4.820791e+04
  -2.749896e+03  -2.383762e+05
   1.280541e+05  -1.877911e+05
   1.658343e+05   9.835225e+04
   1.041380e+05   2.796085e+05
  -4.131309e+04   1.822050e+05
  -1.839867e+05  -3.879132e+04
  -2.108529e+05  -1.292002e+05
  -1.114391e+05  -3.823073e+04
   1.568479e+03   5.596487e+04
   3.552062e+04  -1.148966e+04
   2.989780e+04  -1.830633e+05
   7.839924e+04  -2.394778e+05
   1.718895e+05  -5.935995e+04
   1.827368e+05   2.164796e+05
   2.313920e+04   3.158375e+05
  -2.113002e+05   1.300308e+05
  -2.949049e+05  -1.616234e+05
  -9.725105e+04  -2.855592e+05
   2.418707e+05  -1.579132e+05
   4.041026e+05   6.519407e+04
   2.123748e+05   1.901295e+05
  -1.489881e+05   1.678718e+05
  -3.038635e+05   7.472872e+04
  -1.035715e+05  -1.924840e+03
   1.894075e+05  -1.074333e+04
   2.028205e+05   6.126130e+04
  -1.030418e+05   1.497669e+05
  -3.882413e+05   1.139462e+05
