
 $NMID
 id='ANONYMOUS ', fmtdat='(2E16.6)'
 volume=1.0
 tramp=1.0
 $END
   2.173455e+07  -1.530912e+06
   1.494711e+07   1.030916e+07
   8.393032e+04   1.422152e+07
  -9.327477e+06   8.761806e+06
  -7.532838e+06   2.455902e+05
  -1.966389e+05  -3.876499e+06
   4.207313e+06  -1.488826e+06
   2.893966e+06   3.457795e+06
  -1.142060e+06   5.404283e+06
  -3.881139e+06   2.367209e+06
  -3.466621e+06  -2.483944e+06
  -6.754319e+05  -4.172318e+06
   1.870142e+06  -1.113374e+06
   1.680138e+06   3.188948e+06
  -1.104907e+06   3.977869e+06
  -3.491561e+06   3.641343e+05
  -2.708363e+06  -4.042623e+06
   7.853215e+05  -5.269993e+06
   3.924739e+06  -2.784295e+06
   4.298609e+06   8.219596e+05
   2.247371e+06   2.852801e+06
   7.454886e+04   2.694443e+06
  -2.816333e+05   1.675225e+06
   9.674951e+05   1.445577e+06
   1.622540e+06   2.347760e+06
  -1.988277e+05   3.089479e+06
  -3.582234e+06   2.187082e+06
  -5.264090e+06  -1.979420e+05
  -3.230270e+06  -2.223128e+06
   6.685984e+05  -2.297710e+06
   2.636152e+06  -6.679601e+05
   1.189597e+06   1.040667e+06
  -1.521254e+06   1.387028e+06
  -2.597055e+06   9.856962e+04
  -1.454714e+06  -1.833334e+06
   3.230887e+05  -2.707786e+06
   1.166539e+06  -1.498538e+06
   8.016633e+05   7.327272e+05
  -3.545152e+04   1.505904e+06
  -3.676997e+05  -1.620067e+05
   2.907561e+05  -2.130336e+06
   1.347549e+06  -1.605498e+06
   1.444149e+06   1.074925e+06
  -5.200682e+04   2.596564e+06
  -1.924470e+06   8.821245e+05
  -2.084723e+06  -2.220922e+06
   1.183636e+05  -3.265211e+06
   2.921632e+06  -1.247985e+06
   3.744693e+06   1.676575e+06
   1.703295e+06   2.940195e+06
  -1.503301e+06   1.942975e+06
  -3.140603e+06  -6.616602e+04
  -1.959544e+06  -1.438535e+06
   6.552066e+05  -1.301921e+06
   2.095761e+06  -6.308187e+04
   1.204525e+06   9.401940e+05
  -6.143411e+05   7.056471e+05
  -1.146206e+06  -3.440326e+05
   3.770811e+04  -8.655868e+05
   1.221331e+06  -2.140723e+05
   7.410576e+05   8.583874e+05
  -1.032680e+06   1.162251e+06
  -2.190498e+06   2.690473e+05
  -1.396712e+06  -1.306212e+06
   8.432032e+05  -2.563470e+06
   2.827007e+06  -2.491575e+06
   3.219254e+06  -7.378465e+05
   2.043377e+06   1.740197e+06
   4.390076e+05   3.172548e+06
  -4.600637e+05   2.701473e+06
  -5.076501e+05   1.334158e+06
  -4.600463e+05   6.459713e+05
  -9.510710e+05   8.101104e+05
  -1.708527e+06   6.228748e+05
  -1.884776e+06  -5.735115e+05
  -1.024548e+06  -1.805122e+06
   4.301883e+05  -1.659038e+06
   1.480433e+06  -5.885417e+04
   1.310626e+06   1.610432e+06
  -8.066375e+04   1.947701e+06
  -1.724862e+06   7.780897e+05
  -2.324476e+06  -9.032991e+05
  -1.424847e+06  -1.909701e+06
   6.579607e+04  -1.806603e+06
   8.542991e+05  -1.117354e+06
   7.576027e+05  -6.686329e+05
   8.044081e+05  -6.947707e+05
   1.705392e+06  -6.383542e+05
   2.688173e+06   1.290177e+05
   2.312246e+06   1.499282e+06
   2.869703e+05   2.617228e+06
  -1.979582e+06   2.605139e+06
  -2.752089e+06   1.308358e+06
  -1.656918e+06  -4.866540e+05
   7.898943e+04  -1.535331e+06
   8.998376e+05  -1.137217e+06
   3.321613e+05   1.180571e+05
  -7.509963e+05   8.273003e+05
  -1.130966e+06   2.811229e+05
  -4.775332e+05  -6.901391e+05
   3.993701e+05  -7.498546e+05
   4.874192e+05   1.926047e+05
  -3.388834e+05   7.911566e+05
  -1.213877e+06  -4.018870e+04
  -1.156951e+06  -1.703261e+06
   3.756009e+04  -2.537417e+06
   1.645597e+06  -1.634732e+06
   2.556757e+06   2.985483e+05
   2.084469e+06   1.776870e+06
   5.549178e+05   1.919143e+06
  -8.459136e+05   1.034692e+06
  -1.087515e+06   1.372123e+05
  -3.241348e+05  -1.255327e+04
   2.704368e+05   4.675534e+05
  -1.416458e+05   8.034950e+05
  -1.062941e+06   4.363004e+05
  -1.279474e+06  -3.575428e+05
  -3.777369e+05  -7.930668e+05
   6.981799e+05  -4.633977e+05
   7.147467e+05   2.397091e+05
  -4.394471e+05   5.665233e+05
  -1.593034e+06   1.277372e+05
  -1.495057e+06  -7.989243e+05
  -7.810341e+04  -1.495258e+06
   1.467540e+06  -1.336382e+06
   1.833634e+06  -3.411262e+05
   8.274467e+05   7.064449e+05
  -4.893161e+05   8.990069e+05
  -8.745290e+05   1.528499e+05
  -9.899380e+04  -6.247036e+05
   9.313282e+05  -5.129649e+05
   1.162561e+06   3.740118e+05
   4.101917e+05   1.045786e+06
  -5.660773e+05   8.048724e+05
  -8.669315e+05   2.144543e+03
  -3.049355e+05  -4.460429e+05
   4.421275e+05  -9.079993e+04
   4.892786e+05   6.365725e+05
  -3.527372e+05   9.288030e+05
  -1.301230e+06   3.873497e+05
  -1.345430e+06  -6.291023e+05
  -3.300090e+05  -1.317606e+06
   8.265982e+05  -1.126266e+06
   1.097230e+06  -2.554753e+05
   4.144006e+05   5.184412e+05
  -3.682810e+05   5.849461e+05
  -4.830839e+05   7.128370e+04
  -1.974779e+03  -3.667442e+05
   4.117176e+05  -2.926070e+05
   2.922780e+05   6.644476e+04
  -1.837156e+05   1.451832e+05
  -4.249554e+05  -2.700853e+05
  -1.778472e+04  -7.565391e+05
   8.277114e+05  -6.706983e+05
   1.377598e+06   1.658432e+05
   1.029963e+06   1.205388e+06
  -4.705000e+04   1.626149e+06
  -1.019113e+06   1.089914e+06
  -1.211458e+06   6.276205e+04
  -7.494386e+05  -6.407462e+05
  -2.875684e+05  -6.355687e+05
  -2.112493e+05  -2.650005e+05
  -2.846335e+05  -1.332052e+05
  -6.812241e+04  -4.078679e+05
   4.932008e+05  -6.520804e+05
   9.643684e+05  -3.492893e+05
   8.242304e+05   4.545692e+05
  -3.375079e+04   1.085893e+06
  -1.100257e+06   8.617587e+05
  -1.547519e+06  -2.012667e+05
  -9.006365e+05  -1.311578e+06
   4.615680e+05  -1.587515e+06
   1.548861e+06  -8.575903e+05
   1.626153e+06   2.203921e+05
   8.465278e+05   8.329559e+05
  -5.305889e+03   7.674627e+05
  -3.300611e+05   4.825896e+05
  -2.006906e+05   4.883964e+05
  -1.075869e+05   7.569547e+05
  -3.624099e+05   7.909940e+05
  -7.836075e+05   2.318168e+05
  -8.971372e+05  -6.720693e+05
  -4.261149e+05  -1.235016e+06
   3.706263e+05  -9.725098e+05
   8.590052e+05  -7.231595e+04
   6.163367e+05   7.602571e+05
  -1.164194e+05   9.244553e+05
  -6.476844e+05   4.129464e+05
  -5.456975e+05  -2.704750e+05
  -6.779515e+04  -6.227020e+05
   1.846525e+05  -5.520237e+05
  -1.774621e+04  -3.318906e+05
  -2.736685e+05  -2.356467e+05
  -3.778966e+04  -2.633895e+05
   7.003662e+05  -2.002038e+05
   1.304756e+06   1.113470e+05
   1.104209e+06   5.725119e+05
   1.140223e+05   8.807714e+05
  -9.039302e+05   7.826974e+05
  -1.158967e+06   3.158115e+05
  -5.975808e+05  -1.792255e+05
   1.062042e+05  -3.312063e+05
   3.044346e+05  -8.772028e+04
   1.296689e+01   2.095797e+05
  -3.193649e+05   1.676734e+05
  -3.169854e+05  -2.102784e+05
  -1.113921e+05  -4.935055e+05
  -3.203122e+03  -3.201807e+05
  -9.517180e+04   1.253973e+05
  -2.356568e+05   2.764905e+05
  -2.064496e+05  -1.329717e+05
   9.637226e+04  -6.859891e+05
   5.496211e+05  -7.220040e+05
   7.965866e+05  -1.096451e+05
   4.997802e+05   5.774019e+05
  -2.335511e+05   6.904473e+05
  -7.640751e+05   1.885174e+05
  -4.937183e+05  -3.785554e+05
   4.181443e+05  -4.715877e+05
   1.090621e+06  -4.398350e+04
   8.085403e+05   5.091404e+05
  -2.005868e+05   7.407243e+05
  -9.952337e+05   4.914500e+05
  -8.987290e+05  -1.699343e+04
  -1.517813e+05  -3.548507e+05
   4.102453e+05  -2.427051e+05
   2.391891e+05   1.553937e+05
  -4.078124e+05   3.293300e+05
  -7.815083e+05  -7.135667e+04
  -4.153734e+05  -7.927567e+05
   4.183060e+05  -1.123107e+06
   9.983404e+05  -5.872970e+05
   8.598635e+05   4.919221e+05
   1.867089e+05   1.208383e+06
  -4.506124e+05   9.342119e+05
  -6.397960e+05  -3.522549e+04
  -3.835498e+05  -7.751498e+05
   4.573607e+04  -6.940147e+05
   3.533255e+05  -1.045758e+05
   3.742612e+05   2.470948e+05
   1.680975e+05   1.029435e+05
   8.545313e+03  -8.205638e+04
   1.210794e+05   1.519698e+05
   3.468792e+05   6.139450e+05
   2.307139e+05   7.276136e+05
  -3.912503e+05   3.012588e+05
  -1.016154e+06  -2.616192e+05
  -9.484282e+05  -5.152447e+05
  -1.559560e+05  -4.488471e+05
   6.098046e+05  -3.051814e+05
   6.729274e+05  -1.767579e+05
   1.993211e+05  -7.857942e+03
  -1.102681e+05   1.508113e+05
   4.452680e+04   1.687787e+05
   2.458665e+05   8.901073e+04
   1.297261e+04   9.169520e+04
  -5.047833e+05   1.548580e+05
  -6.923007e+05   5.150013e+03
  -2.161289e+05  -4.395859e+05
   5.880229e+05  -7.747431e+05
   1.070273e+06  -5.093298e+05
   8.774090e+05   2.828362e+05
   2.007579e+05   9.427056e+05
  -4.548295e+05   9.207010e+05
  -6.843025e+05   3.478742e+05
  -4.541860e+05  -1.707365e+05
  -7.297814e+04  -2.346511e+05
   9.932057e+04  -1.014883e+04
  -3.324025e+04   5.558818e+04
  -2.404350e+05  -2.177218e+05
  -2.139525e+05  -5.320968e+05
   1.124959e+05  -4.458969e+05
   4.708733e+05   1.019267e+05
   4.854490e+05   6.545110e+05
   4.095102e+04   6.795227e+05
  -5.318560e+05   1.306828e+05
  -6.929759e+05  -5.045180e+05
  -2.253851e+05  -7.147291e+05
   4.666814e+05  -4.297929e+05
   7.204175e+05   3.514744e+04
   3.389424e+05   3.547529e+05
  -1.688831e+05   4.084755e+05
  -1.958121e+05   2.435483e+05
   2.171948e+05   1.867772e+04
   4.462132e+05  -3.629918e+04
   8.855974e+04   1.916054e+05
  -5.318182e+05   4.837809e+05
  -7.808549e+05   4.348347e+05
  -4.620249e+05  -5.673112e+04
   4.463872e+04  -5.624962e+05
   2.996132e+05  -5.655003e+05
   2.286271e+05  -8.231883e+04
   2.222906e+04   3.397539e+05
  -1.574895e+05   2.695355e+05
  -2.424247e+05  -1.339746e+05
  -1.783524e+05  -3.801466e+05
   3.612424e+04  -2.449051e+05
   2.603889e+05   3.914018e+04
   3.088341e+05   1.423755e+05
   1.637508e+05   2.904103e+04
  -3.603054e+03  -6.355895e+04
  -5.497092e+04   4.767223e+04
  -4.561272e+04   2.656460e+05
  -1.088851e+05   3.190897e+05
  -2.365651e+05   7.133634e+04
  -2.558842e+05  -2.956534e+05
  -4.115372e+04  -4.360061e+05
   2.874081e+05  -1.985217e+05
   4.206735e+05   1.992707e+05
   1.615619e+05   3.945352e+05
  -3.151991e+05   2.506845e+05
  -5.641389e+05  -4.751410e+04
  -3.162338e+05  -2.404725e+05
   1.856810e+05  -2.407772e+05
   4.084948e+05  -1.272151e+05
   1.310248e+05  -1.127718e+04
  -2.794873e+05   1.866234e+04
  -2.937983e+05  -8.231345e+04
   1.449744e+05  -2.295607e+05
   5.558399e+05  -1.997011e+05
