
 $NMID
 id='ANONYMOUS ', fmtdat='(2E16.6)'
 volume=1.0
 tramp=1.0
 $END
  -2.817697e+07  -1.086590e+06
  -1.786393e+07  -1.480888e+07
   1.497017e+06  -1.804493e+07
   1.289211e+07  -1.044251e+07
   9.808208e+06   1.232922e+05
  -5.077972e+03   4.990106e+06
  -5.613016e+06   1.729317e+06
  -3.576286e+06  -4.714139e+06
   1.911213e+06  -7.105582e+06
   5.299074e+06  -2.813837e+06
   4.263197e+06   3.713347e+06
   3.608259e+05   5.654930e+06
  -2.657822e+06   1.181338e+06
  -1.896589e+06  -4.571679e+06
   1.865787e+06  -5.257478e+06
   4.599961e+06  -1.512876e+05
   3.089980e+06   5.592903e+06
  -1.638509e+06   6.788723e+06
  -5.471613e+06   3.091755e+06
  -5.449906e+06  -1.732879e+06
  -2.382145e+06  -4.049063e+06
   4.159204e+05  -3.360827e+06
   4.876428e+05  -1.910433e+06
  -1.424124e+06  -1.985295e+06
  -2.100462e+06  -3.533443e+06
   6.995174e+05  -4.305023e+06
   5.261905e+06  -2.478595e+06
   7.131466e+06   1.054914e+06
   3.980544e+06   3.477591e+06
  -1.366687e+06   2.993085e+06
  -3.796219e+06   4.651907e+05
  -1.500298e+06  -1.743769e+06
   2.391408e+06  -1.871980e+06
   3.754271e+06   1.757432e+05
   1.817375e+06   2.834742e+06
  -8.866226e+05   3.751646e+06
  -1.844906e+06   1.788094e+06
  -8.720263e+05  -1.257444e+06
   4.280704e+05  -2.011517e+06
   5.297893e+05   4.620994e+05
  -7.172645e+05   2.996099e+06
  -2.027167e+06   2.047988e+06
  -1.794946e+06  -1.542551e+06
   2.609144e+05  -3.329647e+06
   2.418514e+06  -8.909124e+05
   2.334157e+06   3.084267e+06
  -5.286511e+05   4.144337e+06
  -3.955117e+06   1.226617e+06
  -4.801819e+06  -2.663931e+06
  -2.001185e+06  -4.124673e+06
   2.215004e+06  -2.482340e+06
   4.250507e+06   3.807525e+05
   2.537186e+06   2.110007e+06
  -9.547556e+05   1.658904e+06
  -2.761584e+06  -1.280813e+05
  -1.500131e+06  -1.345172e+06
   8.793563e+05  -8.506467e+05
   1.526856e+06   5.773465e+05
  -4.230029e+04   1.190282e+06
  -1.604032e+06   3.014458e+05
  -1.004779e+06  -1.049242e+06
   1.317176e+06  -1.378298e+06
   2.843837e+06  -1.894431e+05
   1.692313e+06   1.817850e+06
  -1.484347e+06   3.304098e+06
  -4.191685e+06   2.974310e+06
  -4.448725e+06   5.214611e+05
  -2.462686e+06  -2.661507e+06
  -1.430325e+05  -4.332445e+06
   8.977531e+05  -3.585802e+06
   7.639835e+05  -1.820336e+06
   7.292773e+05  -9.540990e+05
   1.535653e+06  -1.060806e+06
   2.547463e+06  -5.993371e+05
   2.566252e+06   1.124885e+06
   1.168922e+06   2.706194e+06
  -8.520905e+05   2.288498e+06
  -2.115221e+06  -9.666076e+04
  -1.643504e+06  -2.413633e+06
   3.684475e+05  -2.686041e+06
   2.482379e+06  -8.117430e+05
   3.021643e+06   1.584848e+06
   1.611847e+06   2.775807e+06
  -3.673632e+05   2.362843e+06
  -1.267380e+06   1.320506e+06
  -1.042629e+06   7.865143e+05
  -1.136547e+06   8.721873e+05
  -2.392433e+06   6.973936e+05
  -3.657626e+06  -4.783102e+05
  -2.991754e+06  -2.321383e+06
  -8.635177e+04  -3.629218e+06
   3.045603e+06  -3.345729e+06
   3.971179e+06  -1.446317e+06
   2.223608e+06   9.136231e+05
  -3.352072e+05   2.129846e+06
  -1.415888e+06   1.446277e+06
  -4.429101e+05  -2.189494e+05
   1.147822e+06  -1.044114e+06
   1.580201e+06  -2.421355e+05
   5.506470e+05   1.005495e+06
  -6.533467e+05   9.898369e+05
  -6.729674e+05  -3.099871e+05
   5.056462e+05  -1.077454e+06
   1.634655e+06   1.031984e+05
   1.452356e+06   2.388985e+06
  -2.277538e+05   3.494033e+06
  -2.385016e+06   2.149503e+06
  -3.514641e+06  -6.341576e+05
  -2.729004e+06  -2.687421e+06
  -5.654503e+05  -2.735906e+06
   1.300255e+06  -1.331946e+06
   1.526199e+06  -5.181511e+04
   4.452129e+05   5.618350e+04
  -3.174747e+05  -6.744597e+05
   2.833413e+05  -1.074826e+06
   1.494381e+06  -4.664877e+05
   1.703107e+06   6.278734e+05
   4.317356e+05   1.118383e+06
  -1.008461e+06   5.598076e+05
  -9.709232e+05  -4.073198e+05
   6.522248e+05  -7.508216e+05
   2.221241e+06  -2.668854e+04
   2.004961e+06   1.264465e+06
  -4.051197e+04   2.089953e+06
  -2.177513e+06   1.689641e+06
  -2.568579e+06   2.602513e+05
  -1.050637e+06  -1.062016e+06
   7.778819e+05  -1.161718e+06
   1.204847e+06  -9.709606e+04
   4.911633e+04   8.645977e+05
  -1.340250e+06   5.906638e+05
  -1.555281e+06  -6.432484e+05
  -4.573604e+05  -1.481491e+06
   8.553051e+05  -1.054562e+06
   1.193010e+06   7.669549e+04
   3.810877e+05   6.383751e+05
  -6.076436e+05   7.297147e+04
  -5.921585e+05  -9.325798e+05
   6.017825e+05  -1.234411e+06
   1.841017e+06  -3.721378e+05
   1.774883e+06   1.030743e+06
   2.963801e+05   1.850541e+06
  -1.265471e+06   1.450229e+06
  -1.536471e+06   2.276162e+05
  -5.155202e+05  -7.570773e+05
   5.709032e+05  -7.654954e+05
   6.839904e+05  -4.315657e+04
  -2.680212e+04   5.203460e+05
  -6.102962e+05   3.768171e+05
  -4.249642e+05  -1.223219e+05
   2.478232e+05  -1.986400e+05
   5.557888e+05   3.994629e+05
  -5.181500e+04   1.036037e+06
  -1.212835e+06   8.277774e+05
  -1.876478e+06  -3.892438e+05
  -1.273866e+06  -1.781743e+06
   2.572671e+05  -2.238875e+06
   1.532100e+06  -1.395020e+06
   1.687439e+06   4.283307e+04
   9.809992e+05   9.785458e+05
   3.364616e+05   9.390433e+05
   2.491633e+05   4.141961e+05
   3.547774e+05   2.159919e+05
   3.866590e+04   5.582039e+05
  -7.497510e+05   8.415617e+05
  -1.371013e+06   3.783907e+05
  -1.097237e+06  -7.236117e+05
   1.611395e+05  -1.505936e+06
   1.616778e+06  -1.069365e+06
   2.114499e+06   4.556039e+05
   1.094376e+06   1.908130e+06
  -8.095957e+05   2.127372e+06
  -2.221592e+06   1.005713e+06
  -2.217796e+06  -4.778665e+05
  -1.090567e+06  -1.240818e+06
   8.018025e+04  -1.072873e+06
   5.205666e+05  -6.479585e+05
   3.603381e+05  -6.545197e+05
   2.552250e+05  -1.018730e+06
   5.927239e+05  -1.034183e+06
   1.100778e+06  -2.201008e+05
   1.153302e+06   1.035861e+06
   4.385987e+05   1.754704e+06
  -6.289005e+05   1.297160e+06
  -1.193321e+06   1.323053e+03
  -7.614004e+05  -1.112351e+06
   2.585773e+05  -1.255523e+06
   9.234234e+05  -5.024484e+05
   7.116508e+05   4.160026e+05
   3.105674e+04   8.493418e+05
  -2.999003e+05   7.357984e+05
  -4.714089e+03   4.651277e+05
   3.467690e+05   3.629133e+05
   1.876766e+04   3.701031e+05
  -9.816678e+05   1.930442e+05
  -1.774393e+06  -3.076646e+05
  -1.451657e+06  -9.138525e+05
  -6.162402e+04  -1.214803e+06
   1.326130e+06  -9.629165e+05
   1.627341e+06  -3.047303e+05
   8.020643e+05   3.006828e+05
  -1.816970e+05   4.344369e+05
  -4.237920e+05   8.993629e+04
   3.291060e+04  -2.807995e+05
   4.665155e+05  -1.916756e+05
   4.100635e+05   3.287887e+05
   8.358392e+04   7.008334e+05
  -4.486608e+04   4.460545e+05
   1.451032e+05  -1.701527e+05
   3.639981e+05  -3.660158e+05
   2.704950e+05   2.059541e+05
  -2.196367e+05   9.400847e+05
  -8.441075e+05   9.271558e+05
  -1.099590e+06   4.361105e+04
  -6.059783e+05  -8.605940e+05
   4.080628e+05  -9.127284e+05
   1.071466e+06  -1.543460e+05
   6.347534e+05   5.856018e+05
  -6.290826e+05   6.018792e+05
  -1.512626e+06  -6.107590e+04
  -1.069499e+06  -7.905700e+05
   3.501001e+05  -1.004199e+06
   1.429426e+06  -5.772884e+05
   1.245907e+06   1.182666e+05
   1.742427e+05   5.085626e+05
  -5.915738e+05   2.913106e+05
  -3.062944e+05  -2.401862e+05
   6.093992e+05  -4.012159e+05
   1.071032e+06   2.015785e+05
   4.682193e+05   1.151549e+06
  -7.265648e+05   1.498554e+06
  -1.457009e+06   6.839395e+05
  -1.128382e+06  -7.872084e+05
  -1.116701e+05  -1.693903e+06
   7.325079e+05  -1.242240e+06
   8.791137e+05   1.170276e+05
   4.444194e+05   1.112740e+06
  -1.343065e+05   9.555398e+05
  -4.959760e+05   1.055354e+05
  -4.951613e+05  -3.855193e+05
  -2.288547e+05  -1.624612e+05
  -1.767569e+04   1.139486e+05
  -1.353763e+05  -2.221544e+05
  -4.002068e+05  -8.882034e+05
  -2.420423e+05  -1.031320e+06
   5.643106e+05  -3.675858e+05
   1.373699e+06   4.829528e+05
   1.257480e+06   8.224499e+05
   1.620685e+05   6.361700e+05
  -8.873989e+05   3.496773e+05
  -9.526987e+05   1.673867e+05
  -2.676805e+05  -1.021073e+04
   1.739541e+05  -1.950998e+05
  -5.245560e+04  -2.404532e+05
  -3.409238e+05  -1.551104e+05
  -2.888796e+03  -1.300337e+05
   7.282652e+05  -1.520134e+05
   9.561648e+05   8.059533e+04
   2.290061e+05   6.361948e+05
  -9.181411e+05   9.948980e+05
  -1.535094e+06   5.629792e+05
  -1.165852e+06  -5.074638e+05
  -1.586272e+05  -1.329253e+06
   7.385909e+05  -1.211387e+06
   9.892535e+05  -3.895833e+05
   6.095487e+05   2.965572e+05
   6.753196e+04   3.340818e+05
  -1.492794e+05  -1.502577e+03
   4.713765e+04  -7.870689e+04
   3.092703e+05   3.252933e+05
   2.346261e+05   7.594079e+05
  -2.126055e+05   6.003288e+05
  -6.418620e+05  -2.046823e+05
  -5.861458e+05  -9.719082e+05
   3.834473e+04  -9.456972e+05
   7.595740e+05  -1.074057e+05
   8.945348e+05   7.917842e+05
   2.167251e+05   1.016097e+06
  -7.011190e+05   5.292664e+05
  -9.863913e+05  -1.414413e+05
  -4.166131e+05  -5.264309e+05
   2.854960e+05  -5.339862e+05
   2.927619e+05  -3.075313e+05
  -3.076764e+05  -5.314255e+04
  -6.234129e+05  -5.418831e+03
  -9.507622e+04  -2.746862e+05
   7.933146e+05  -6.039709e+05
   1.121732e+06  -5.089370e+05
   6.197976e+05   1.308002e+05
  -1.326662e+05   7.678781e+05
  -4.764672e+05   7.378587e+05
  -3.188902e+05   7.620703e+04
   1.470080e+04  -4.771026e+05
   2.538912e+05  -3.484467e+05
   3.213108e+05   2.227055e+05
   1.982860e+05   5.475992e+05
  -8.456866e+04   3.270378e+05
  -3.555134e+05  -8.978324e+04
  -4.042930e+05  -2.298858e+05
  -2.208492e+05  -5.523973e+04
  -8.959040e+03   8.315302e+04
   7.746898e+04  -7.215849e+04
   1.053224e+05  -3.699997e+05
   2.085289e+05  -4.233799e+05
   3.453280e+05  -5.614533e+04
   3.091607e+05   4.529707e+05
  -1.101900e+04   6.130613e+05
  -4.268397e+05   2.359260e+05
  -5.525730e+05  -3.343242e+05
  -1.712060e+05  -5.694124e+05
   4.641656e+05  -3.052202e+05
   7.694691e+05   1.405734e+05
   4.045935e+05   3.721411e+05
  -2.881423e+05   3.034040e+05
  -5.800410e+05   1.169330e+05
  -1.763444e+05  -4.007504e+03
   3.993701e+05   1.249439e+04
   4.020277e+05   1.580313e+05
  -2.341928e+05   3.069258e+05
  -8.045001e+05   2.105679e+05
