
 $NMID
 id='ANONYMOUS ', fmtdat='(2E16.6)'
 volume=1.0
 tramp=1.0
 $END
  -6.942253e+06   2.797349e+06
  -7.002936e+06  -6.869108e+05
  -2.805523e+06  -4.654690e+06
   2.096495e+06  -5.431972e+06
   3.557222e+06  -2.128435e+06
   1.151243e+06   1.619394e+06
  -1.804989e+06   1.839786e+06
  -2.272623e+06  -1.021294e+06
  -4.285099e+05  -3.055983e+06
   1.430419e+06  -1.918977e+06
   1.686386e+06   7.379076e+05
   5.486398e+05   1.831159e+06
  -7.161657e+05   4.442590e+05
  -9.357153e+05  -1.652849e+06
   1.337110e+05  -2.241213e+06
   1.491589e+06  -7.865936e+05
   1.682711e+06   1.323893e+06
   3.717965e+05   2.244359e+06
  -1.150498e+06   1.420468e+06
  -1.465851e+06  -2.055660e+04
  -7.059824e+05  -6.694123e+05
  -1.939408e+05  -4.153812e+05
  -6.421324e+05  -2.922088e+05
  -1.333320e+06  -9.293891e+05
  -1.106045e+06  -1.748215e+06
   3.032398e+05  -1.809323e+06
   1.959794e+06  -9.405662e+05
   2.503331e+06   2.278601e+05
   1.344252e+06   9.508047e+05
  -5.787457e+05   8.278893e+05
  -1.438333e+06  -2.926638e+04
  -3.923469e+05  -9.154409e+05
   1.336481e+06  -9.165310e+05
   1.815938e+06   1.594857e+05
   7.108298e+05   1.352789e+06
  -4.892338e+05   1.475326e+06
  -5.517279e+05   4.671235e+05
   9.121842e+04  -5.124847e+05
   3.488862e+05  -4.100491e+05
   6.762028e+03   5.812881e+05
  -4.154496e+05   1.315749e+06
  -6.815789e+05   9.456665e+05
  -8.463715e+05  -2.345252e+05
  -6.404928e+05  -1.104090e+06
   1.751245e+05  -8.245786e+05
   9.359255e+05   3.061327e+05
   5.472469e+05   1.117354e+06
  -9.186416e+05   7.544978e+05
  -1.916646e+06  -4.437250e+05
  -1.205598e+06  -1.346407e+06
   5.959816e+05  -1.210423e+06
   1.738477e+06  -3.010983e+05
   1.301159e+06   5.553162e+05
  -3.107663e+04   7.680945e+05
  -9.297983e+05   3.461468e+05
  -7.267907e+05  -2.269894e+05
   1.461583e+05  -3.734082e+05
   6.724008e+05   8.386686e+04
   2.387006e+05   6.596168e+05
  -6.801510e+05   6.325200e+05
  -9.534881e+05  -1.085158e+05
  -1.286363e+05  -8.152107e+05
   8.904311e+05  -6.730409e+05
   8.596306e+05   2.687773e+05
  -2.796693e+05   1.145945e+06
  -1.365202e+06   1.174472e+06
  -1.462877e+06   3.298637e+05
  -8.218181e+05  -7.709368e+05
  -2.477630e+05  -1.445647e+06
  -3.576435e+04  -1.431162e+06
   1.192821e+05  -9.957034e+05
   4.698139e+05  -6.070857e+05
   8.960984e+05  -4.029382e+05
   1.131010e+06  -7.078690e+04
   9.825984e+05   5.959517e+05
   3.926206e+05   1.170011e+06
  -4.348475e+05   9.614731e+05
  -9.776842e+05  -5.254294e+04
  -7.650161e+05  -1.013702e+06
   9.031456e+04  -1.081526e+06
   9.016090e+05  -3.209678e+05
   1.059804e+06   5.005231e+05
   5.937870e+05   8.070315e+05
   3.472666e+04   6.605907e+05
  -1.905513e+05   4.471299e+05
  -1.697921e+05   4.122106e+05
  -3.376875e+05   5.089197e+05
  -9.069079e+05   4.803349e+05
  -1.473780e+06   5.715251e+04
  -1.316742e+06  -7.404379e+05
  -2.223938e+05  -1.444966e+06
   1.078606e+06  -1.462911e+06
   1.534048e+06  -6.770286e+05
   8.641921e+05   3.471428e+05
  -1.539942e+05   8.491446e+05
  -5.563431e+05   5.600670e+05
  -1.598315e+05  -9.681262e+04
   4.317370e+05  -4.384069e+05
   5.877323e+05  -1.683701e+05
   2.254963e+05   3.362082e+05
  -2.487548e+05   4.136751e+05
  -3.487593e+05  -1.084135e+05
   9.864690e+04  -5.930968e+05
   7.551784e+05  -2.575811e+05
   9.543386e+05   8.209361e+05
   2.918557e+05   1.621122e+06
  -8.706059e+05   1.264516e+06
  -1.624834e+06   9.933361e+03
  -1.362506e+06  -1.049898e+06
  -3.665569e+05  -1.170336e+06
   4.955107e+05  -5.922322e+05
   6.218067e+05  -5.946449e+04
   1.819507e+05   2.571968e+03
  -1.623311e+05  -2.549101e+05
   2.825120e+04  -4.298769e+05
   5.286961e+05  -2.755547e+05
   7.101350e+05   1.178087e+05
   2.646055e+05   4.042985e+05
  -3.723740e+05   2.917242e+05
  -4.479264e+05  -1.293017e+05
   2.283969e+05  -4.053533e+05
   9.789367e+05  -1.665730e+05
   9.614349e+05   4.562692e+05
   1.006448e+05   9.288321e+05
  -8.311268e+05   8.283961e+05
  -1.040392e+06   2.356631e+05
  -4.780144e+05  -3.536960e+05
   2.251914e+05  -4.751455e+05
   4.332271e+05  -1.058925e+05
   4.785401e+04   3.114944e+05
  -4.981670e+05   2.957084e+05
  -6.690559e+05  -1.664842e+05
  -2.948933e+05  -5.872792e+05
   2.797782e+05  -5.190082e+05
   5.173580e+05  -6.846314e+04
   2.265609e+05   2.387192e+05
  -2.207974e+05   7.577968e+04
  -2.739640e+05  -3.360034e+05
   1.919515e+05  -5.119135e+05
   7.201979e+05  -2.186644e+05
   7.504648e+05   3.359328e+05
   2.079610e+05   7.234465e+05
  -4.256235e+05   6.489535e+05
  -6.082817e+05   1.826632e+05
  -2.636159e+05  -2.788213e+05
   1.893543e+05  -3.496134e+05
   2.946473e+05  -3.720154e+04
   1.405412e+04   2.595253e+05
  -2.798621e+05   2.070940e+05
  -2.373166e+05  -7.060433e+04
   8.327307e+04  -1.637765e+05
   2.840317e+05   9.837619e+04
   6.429304e+04   4.276696e+05
  -4.424147e+05   4.055907e+05
  -7.775080e+05  -6.279746e+04
  -5.954057e+05  -6.555831e+05
   5.219885e+03  -9.244065e+05
   5.737172e+05  -6.622998e+05
   7.255110e+05  -7.031583e+04
   4.753348e+05   3.994122e+05
   1.627155e+05   4.400542e+05
   6.441562e+04   1.825361e+05
   1.173361e+05   3.534103e+04
   4.818756e+04   1.928150e+05
  -2.539300e+05   3.898530e+05
  -5.570734e+05   2.363326e+05
  -5.066087e+05  -2.652143e+05
  -8.760109e+03  -6.636511e+05
   6.215595e+05  -5.322337e+05
   8.954686e+05   8.644253e+04
   5.557285e+05   7.243682e+05
  -1.947604e+05   9.107198e+05
  -8.380671e+05   5.451922e+05
  -9.532022e+05  -6.216689e+04
  -5.503958e+05  -4.733396e+05
  -2.483635e+04  -4.940032e+05
   2.299367e+05  -3.123913e+05
   1.697410e+05  -2.508285e+05
   6.868086e+04  -3.764513e+05
   1.710435e+05  -4.234764e+05
   4.133997e+05  -1.385513e+05
   5.032643e+05   3.665567e+05
   2.510140e+05   6.901363e+05
  -2.010026e+05   5.508490e+05
  -4.897073e+05   6.017009e+04
  -3.761104e+05  -4.033468e+05
   1.912827e+04  -5.292727e+05
   3.339459e+05  -2.918019e+05
   3.255204e+05   8.469635e+04
   9.804184e+04   3.300686e+05
  -4.730033e+04   3.369483e+05
   2.896841e+04   2.139560e+05
   1.443010e+05   1.371979e+05
   1.717404e+04   1.506125e+05
  -3.760012e+05   1.351960e+05
  -7.148092e+05  -2.553554e+04
  -6.351195e+05  -2.888468e+05
  -1.157604e+05  -4.803271e+05
   4.572200e+05  -4.546778e+05
   6.419753e+05  -2.218349e+05
   3.642682e+05   5.394279e+04
  -3.201108e+04   1.736819e+05
  -1.644607e+05   7.461686e+04
   1.921568e+03  -8.870249e+04
   1.888412e+05  -8.678797e+04
   1.758776e+05   1.135063e+05
   3.481915e+04   2.754696e+05
  -2.422824e+04   1.729502e+05
   6.255920e+04  -9.243927e+04
   1.620129e+05  -1.778689e+05
   1.252448e+05   7.086056e+04
  -6.458119e+04   3.936087e+05
  -2.970260e+05   4.080891e+05
  -4.036733e+05   6.246117e+04
  -2.512470e+05  -3.084290e+05
   1.136807e+05  -3.621369e+05
   3.969585e+05  -9.185101e+04
   2.744869e+05   2.158594e+05
  -2.235891e+05   2.802581e+05
  -6.344937e+05   5.212737e+04
  -5.077718e+05  -2.821407e+05
   8.116270e+04  -4.571659e+05
   5.788030e+05  -3.322357e+05
   5.442583e+05  -1.598578e+04
   1.042439e+05   2.114403e+05
  -2.297933e+05   1.586827e+05
  -1.297968e+05  -7.152487e+04
   2.363562e+05  -1.700964e+05
   4.308908e+05   5.467674e+04
   2.096405e+05   4.459675e+05
  -2.550694e+05   6.147160e+05
  -5.674013e+05   3.141249e+05
  -4.848651e+05  -2.817676e+05
  -1.096024e+05  -6.880758e+05
   2.528404e+05  -5.499831e+05
   3.753286e+05  -3.847350e+03
   2.464224e+05   4.400202e+05
   2.069095e+03   4.177743e+05
  -1.951752e+05   7.647002e+04
  -2.325024e+05  -1.476556e+05
  -1.155318e+05  -7.080680e+04
   2.035705e+03   5.604800e+04
  -4.383871e+04  -6.018942e+04
  -1.925732e+05  -3.349152e+05
  -1.619167e+05  -4.240849e+05
   1.908837e+05  -1.889288e+05
   5.828823e+05   1.419033e+05
   5.673189e+05   2.921835e+05
   9.706479e+04   2.490314e+05
  -3.641236e+05   1.685195e+05
  -3.910035e+05   1.114233e+05
  -9.887257e+04   2.497873e+04
   6.902694e+04  -8.124123e+04
  -4.803209e+04  -1.164238e+05
  -1.623648e+05  -7.230048e+04
   3.398284e+03  -5.007636e+04
   3.104821e+05  -7.064056e+04
   3.847206e+05   6.281021e+02
   8.538308e+04   2.296704e+05
  -3.488111e+05   4.152772e+05
  -5.763015e+05   2.780721e+05
  -4.572362e+05  -1.604115e+05
  -1.050738e+05  -5.321043e+05
   2.421734e+05  -5.143062e+05
   3.778889e+05  -1.805371e+05
   2.558983e+05   1.109193e+05
   3.037858e+04   1.278023e+05
  -7.454138e+04  -1.739163e+04
   1.546973e+04  -5.271523e+04
   1.517485e+05   1.174127e+05
   1.338204e+05   3.022201e+05
  -6.538310e+04   2.440142e+05
  -2.651644e+05  -7.572039e+04
  -2.538719e+05  -3.798855e+05
   3.482417e+03  -3.703412e+05
   3.071519e+05  -4.463103e+04
   3.755221e+05   3.032018e+05
   1.119563e+05   3.949086e+05
  -2.598040e+05   2.223826e+05
  -3.902085e+05  -2.151235e+04
  -1.821945e+05  -1.763360e+05
   8.490410e+04  -2.070750e+05
   8.640208e+04  -1.384567e+05
  -1.430139e+05  -2.624531e+04
  -2.560602e+05   1.581897e+04
  -4.355844e+04  -1.005116e+05
   2.989454e+05  -2.770040e+05
   4.234585e+05  -2.708883e+05
   2.422733e+05   4.835647e+03
  -2.289362e+04   3.065005e+05
  -1.434732e+05   3.155574e+05
  -9.961622e+04   3.694051e+04
   2.273827e+03  -1.970026e+05
   8.859763e+04  -1.377094e+05
   1.315371e+05   9.637272e+04
   9.739123e+04   2.132347e+05
  -1.971436e+04   1.166169e+05
  -1.426952e+05  -3.061800e+04
  -1.709425e+05  -6.237213e+04
  -9.595067e+04  -2.645387e+03
  -3.570536e+03   1.575933e+04
   4.095734e+04  -6.159223e+04
   5.902168e+04  -1.541644e+05
   9.573069e+04  -1.433246e+05
   1.345775e+05   2.679387e+03
   1.080455e+05   1.827525e+05
  -1.542418e+04   2.369100e+05
  -1.690253e+05   9.790652e+04
  -2.178750e+05  -1.215851e+05
  -7.743018e+04  -2.268991e+05
   1.694610e+05  -1.398592e+05
   3.012454e+05   3.212900e+04
   1.712263e+05   1.334602e+05
  -9.927555e+04   1.191839e+05
  -2.175718e+05   5.361357e+04
  -5.562555e+04   8.053704e+03
   1.754323e+05   1.390039e+04
   1.671167e+05   7.303506e+04
  -1.050593e+05   1.376038e+05
  -3.437228e+05   1.019448e+05
