
 $NMID
 id='ANONYMOUS ', fmtdat='(2E16.6)'
 volume=1.0
 tramp=1.0
 $END
  -4.832898e+07   6.237275e+05
  -2.982301e+07  -2.874840e+07
   5.250727e+06  -3.256210e+07
   2.320270e+07  -1.375438e+07
   1.461292e+07   4.924046e+06
  -2.287453e+06   8.127224e+06
  -8.609050e+06  -3.197074e+05
  -3.069531e+06  -8.283829e+06
   4.868533e+06  -8.695724e+06
   8.352277e+06  -2.310328e+06
   6.287880e+06   5.352584e+06
   8.338673e+05   7.694878e+06
  -3.541366e+06   2.376020e+06
  -2.494958e+06  -5.070739e+06
   3.112115e+06  -6.157991e+06
   6.932053e+06   8.196782e+05
   4.187019e+06   8.798933e+06
  -2.990477e+06   1.039578e+07
  -8.675024e+06   5.265207e+06
  -9.321054e+06  -1.756286e+06
  -5.580305e+06  -6.394465e+06
  -5.468334e+05  -7.180133e+06
   2.170854e+06  -4.967937e+06
   9.755549e+05  -2.486918e+06
  -1.370899e+06  -2.420387e+06
  -9.763796e+04  -4.119509e+06
   5.182298e+06  -3.940918e+06
   8.845713e+06  -2.808132e+05
   6.231176e+06   3.766516e+06
  -5.927220e+04   4.458991e+06
  -3.622297e+06   2.079586e+06
  -2.196296e+06  -3.701750e+05
   1.005295e+06  -1.168337e+06
   2.587320e+06  -3.706562e+05
   2.095234e+06   1.704767e+06
   3.704831e+05   3.803839e+06
  -1.712748e+06   3.308430e+06
  -2.600443e+06  -3.324187e+05
  -1.216849e+06  -3.144470e+06
   6.754756e+05  -1.317367e+06
   1.272530e+05   2.539241e+06
  -2.263401e+06   2.240850e+06
  -2.291916e+06  -2.684334e+06
   1.748067e+06  -5.361102e+06
   5.684051e+06  -1.072590e+06
   4.446434e+06   5.766695e+06
  -1.397756e+06   7.314774e+06
  -6.391037e+06   2.199825e+06
  -6.363061e+06  -3.807477e+06
  -1.950627e+06  -5.414181e+06
   3.052215e+06  -2.662203e+06
   4.935694e+06   1.125103e+06
   2.465068e+06   3.039628e+06
  -1.973407e+06   2.061489e+06
  -4.021012e+06  -6.351359e+05
  -1.846743e+06  -2.297301e+06
   1.456028e+06  -1.244468e+06
   1.672357e+06   8.666649e+05
  -9.638332e+05   9.883081e+05
  -2.240298e+06  -1.171271e+06
   1.493306e+05  -2.790829e+06
   3.690090e+06  -1.809773e+06
   4.614886e+06   8.608658e+05
   2.184587e+06   3.329498e+06
  -1.602862e+06   4.715647e+06
  -4.634058e+06   4.381899e+06
  -5.622952e+06   1.519218e+06
  -4.031684e+06  -2.901956e+06
  -8.356152e+05  -5.592401e+06
   1.507548e+06  -4.423078e+06
   1.461076e+06  -1.377027e+06
   3.021328e+05  -5.629812e+04
   3.409442e+05  -9.887518e+05
   1.781933e+06  -1.498974e+06
   2.707716e+06   4.976515e+04
   1.823361e+06   2.057494e+06
  -1.504812e+05   2.151414e+06
  -1.666666e+06   1.598279e+05
  -1.685044e+06  -2.096936e+06
   3.458200e+04  -2.830104e+06
   2.625057e+06  -1.470992e+06
   4.064747e+06   1.190933e+06
   2.837465e+06   3.400991e+06
  -4.624808e+04   3.699702e+06
  -1.944816e+06   2.366943e+06
  -1.883520e+06   1.069718e+06
  -1.620386e+06   7.500689e+05
  -2.754255e+06   5.767479e+05
  -4.128311e+06  -6.058765e+05
  -3.362100e+06  -2.557955e+06
  -1.882175e+05  -3.945772e+06
   3.056513e+06  -3.766801e+06
   4.032001e+06  -2.000247e+06
   2.524081e+06   4.894249e+05
   1.628342e+05   2.176492e+06
  -1.129574e+06   1.810515e+06
  -5.281654e+05  -7.002307e+04
   1.066386e+06  -1.247594e+06
   1.797030e+06  -3.880415e+05
   8.408069e+05   1.126447e+06
  -5.246680e+05   1.079424e+06
  -4.880479e+05  -3.577158e+05
   9.053303e+05  -7.962038e+05
   1.797893e+06   9.555723e+05
   8.863152e+05   3.163770e+06
  -1.186529e+06   3.408067e+06
  -2.896433e+06   1.395495e+06
  -3.334597e+06  -1.176856e+06
  -2.397014e+06  -2.667485e+06
  -5.168911e+05  -2.597530e+06
   1.214881e+06  -1.434691e+06
   1.542335e+06  -2.098047e+05
   4.764361e+05   3.974407e+04
  -3.563597e+05  -7.193745e+05
   3.575590e+05  -1.269865e+06
   1.780329e+06  -5.756145e+05
   1.946985e+06   7.857697e+05
   4.128732e+05   1.325442e+06
  -1.111962e+06   5.796173e+05
  -9.035548e+05  -4.255228e+05
   7.864395e+05  -5.784003e+05
   2.167267e+06   2.052471e+05
   1.801298e+06   1.292369e+06
  -1.690465e+05   1.976355e+06
  -2.224972e+06   1.676436e+06
  -2.689292e+06   3.094826e+05
  -1.184442e+06  -1.186051e+06
   8.535043e+05  -1.422104e+06
   1.459254e+06  -1.907436e+05
   1.815551e+05   1.016647e+06
  -1.448279e+06   7.188917e+05
  -1.673441e+06  -7.161905e+05
  -3.838034e+05  -1.589897e+06
   1.012790e+06  -9.974921e+05
   1.232323e+06   2.390671e+05
   2.830261e+05   7.375158e+05
  -7.455481e+05   6.967323e+04
  -7.126363e+05  -1.003790e+06
   5.528152e+05  -1.375243e+06
   1.939537e+06  -5.304352e+05
   1.971335e+06   1.002142e+06
   3.918704e+05   1.995951e+06
  -1.360805e+06   1.603330e+06
  -1.661723e+06   2.367540e+05
  -5.114650e+05  -8.270538e+05
   6.202764e+05  -7.950195e+05
   6.351064e+05  -7.791763e+04
  -9.244156e+04   3.914669e+05
  -5.072211e+05   2.487242e+05
  -1.858315e+05  -7.468662e+04
   4.011906e+05   1.131807e+04
   5.287940e+05   5.984785e+05
  -1.542098e+05   1.143146e+06
  -1.316130e+06   8.901015e+05
  -2.018547e+06  -3.727898e+05
  -1.435650e+06  -1.863227e+06
   1.859408e+05  -2.355371e+06
   1.555783e+06  -1.414809e+06
   1.669085e+06   8.188763e+04
   8.857150e+05   8.890210e+05
   3.272912e+05   6.987478e+05
   4.267869e+05   2.503899e+05
   5.665343e+05   2.797836e+05
   9.004556e+04   7.100618e+05
  -8.252737e+05   8.896955e+05
  -1.408411e+06   3.528555e+05
  -1.056302e+06  -6.975481e+05
   2.068517e+05  -1.453618e+06
   1.661646e+06  -1.083120e+06
   2.198012e+06   4.380355e+05
   1.141669e+06   2.016093e+06
  -9.203484e+05   2.300342e+06
  -2.427688e+06   1.049928e+06
  -2.302045e+06  -5.785963e+05
  -9.906490e+05  -1.286553e+06
   1.633003e+05  -9.621828e+05
   4.032628e+05  -5.377459e+05
   1.238767e+05  -7.245435e+05
   1.136071e+05  -1.232265e+06
   6.262695e+05  -1.229432e+06
   1.232284e+06  -3.138535e+05
   1.298895e+06   1.036470e+06
   5.543843e+05   1.832377e+06
  -5.929695e+05   1.399155e+06
  -1.249651e+06   1.795728e+04
  -8.102272e+05  -1.219297e+06
   3.376491e+05  -1.354529e+06
   1.092304e+06  -4.368304e+05
   7.901431e+05   6.189599e+05
  -7.445203e+04   1.016967e+06
  -4.698105e+05   7.699074e+05
  -6.139468e+04   4.213519e+05
   4.154591e+05   3.299519e+05
   5.689009e+04   3.745712e+05
  -1.096488e+06   2.211183e+05
  -1.982464e+06  -2.916085e+05
  -1.577816e+06  -9.735452e+05
  -3.919705e+03  -1.372024e+06
   1.498122e+06  -1.113821e+06
   1.761677e+06  -3.067886e+05
   8.231000e+05   4.367105e+05
  -2.333193e+05   5.386658e+05
  -4.867734e+05   5.191252e+04
  -2.441786e+04  -3.876774e+05
   4.370515e+05  -2.491562e+05
   4.666243e+05   3.269079e+05
   2.295832e+05   7.044375e+05
   7.605142e+04   4.646137e+05
   1.352360e+05  -1.095059e+05
   2.862707e+05  -3.060923e+05
   2.739806e+05   2.198495e+05
  -1.381309e+05   9.655759e+05
  -8.590477e+05   1.039010e+06
  -1.291413e+06   1.703543e+05
  -8.097430e+05  -8.775208e+05
   3.894332e+05  -1.088379e+06
   1.200313e+06  -3.201884e+05
   7.144386e+05   5.545844e+05
  -6.686104e+05   6.410702e+05
  -1.551881e+06  -6.447694e+04
  -1.013673e+06  -8.222371e+05
   4.390882e+05  -9.831345e+05
   1.456132e+06  -5.097208e+05
   1.218193e+06   1.576453e+05
   1.461836e+05   5.029779e+05
  -6.256875e+05   2.780354e+05
  -3.701864e+05  -2.749252e+05
   5.707962e+05  -5.045341e+05
   1.147975e+06   7.828135e+04
   6.497914e+05   1.145868e+06
  -5.709807e+05   1.654570e+06
  -1.440069e+06   8.671395e+05
  -1.229513e+06  -7.278299e+05
  -2.159568e+05  -1.744397e+06
   7.061049e+05  -1.276795e+06
   9.059267e+05   1.513605e+05
   4.436160e+05   1.154225e+06
  -1.904812e+05   9.534411e+05
  -5.426711e+05   9.368552e+04
  -4.667778e+05  -3.646152e+05
  -1.702136e+05  -1.354517e+05
  -4.272555e+04   9.650102e+04
  -2.626807e+05  -2.770793e+05
  -5.026981e+05  -9.316425e+05
  -2.093903e+05  -1.050259e+06
   6.786705e+05  -3.954740e+05
   1.443297e+06   4.354779e+05
   1.266105e+06   7.998472e+05
   1.897825e+05   6.759337e+05
  -8.334302e+05   4.175482e+05
  -9.590742e+05   1.923220e+05
  -3.458670e+05  -4.243942e+04
   1.416343e+05  -2.206646e+05
   2.419321e+04  -2.047191e+05
  -2.672674e+05  -9.349992e+04
  -4.789597e+04  -1.293256e+05
   6.493667e+05  -2.352940e+05
   1.018359e+06  -8.552245e+02
   4.203508e+05   6.664074e+05
  -8.096959e+05   1.154003e+06
  -1.639866e+06   7.555537e+05
  -1.372175e+06  -4.033540e+05
  -2.853268e+05  -1.366416e+06
   7.258795e+05  -1.348614e+06
   1.014117e+06  -5.353606e+05
   6.422637e+05   2.198588e+05
   1.332290e+05   3.468747e+05
  -7.182144e+04   6.242614e+04
   7.743803e+04  -2.098074e+04
   3.002396e+05   3.526040e+05
   2.541993e+05   7.837903e+05
  -1.652869e+05   6.632345e+05
  -6.658292e+05  -1.098994e+05
  -7.323061e+05  -9.171448e+05
  -1.257389e+05  -1.002034e+06
   7.306616e+05  -2.507774e+05
   1.018458e+06   6.870175e+05
   3.555548e+05   1.055105e+06
  -6.835851e+05   6.698275e+05
  -1.089440e+06  -5.497386e+04
  -5.266178e+05  -5.862384e+05
   2.680949e+05  -6.633013e+05
   3.618526e+05  -3.642621e+05
  -2.425259e+05  -5.745852e+03
  -6.322988e+05   4.854092e+04
  -1.473889e+05  -2.972383e+05
   7.931444e+05  -6.745778e+05
   1.216996e+06  -5.474513e+05
   7.443296e+05   1.592718e+05
  -7.962661e+04   8.477786e+05
  -5.228241e+05   8.427072e+05
  -4.108025e+05   1.644146e+05
  -5.987797e+04  -4.658812e+05
   2.255541e+05  -4.277318e+05
   3.451744e+05   1.376979e+05
   2.572953e+05   5.579296e+05
  -4.379014e+04   4.167646e+05
  -3.814505e+05  -3.675871e+04
  -4.682065e+05  -2.649780e+05
  -2.380162e+05  -8.970961e+04
   3.624192e+04   1.454122e+05
   8.183505e+04   4.071149e+04
  -1.770895e+04  -3.435880e+05
   3.828655e+04  -5.362348e+05
   3.060583e+05  -2.187307e+05
   4.531252e+05   3.603893e+05
   1.649858e+05   6.274411e+05
  -3.915363e+05   3.138757e+05
  -6.524458e+05  -2.594850e+05
  -2.579513e+05  -5.535392e+05
   4.878956e+05  -3.654730e+05
   8.615015e+05   5.685639e+04
   4.738340e+05   3.590048e+05
  -2.785704e+05   3.960461e+05
  -6.183141e+05   2.349990e+05
  -2.445037e+05   2.293981e+04
   3.343098e+05  -7.367128e+04
   3.972907e+05   5.311738e+04
  -1.573041e+05   2.855944e+05
  -7.168476e+05   2.779319e+05
