
 $NMID
 id='ANONYMOUS ', fmtdat='(2E16.6)'
 volume=1.0
 tramp=1.0
 $END
   2.725017e+07   2.856915e+06
   1.612693e+07   1.499992e+07
  -2.432116e+06   1.696053e+07
  -1.261657e+07   9.499766e+06
  -9.216438e+06  -1.931616e+05
   1.055727e+05  -4.651808e+06
   5.315621e+06  -1.640028e+06
   3.360349e+06   4.492775e+06
  -1.873097e+06   6.841034e+06
  -5.117664e+06   2.628502e+06
  -4.034927e+06  -3.810710e+06
  -1.594744e+05  -5.615450e+06
   2.721841e+06  -1.036382e+06
   1.824768e+06   4.640828e+06
  -1.886076e+06   5.153580e+06
  -4.417787e+06   2.634338e+04
  -2.787170e+06  -5.530473e+06
   1.861240e+06  -6.510880e+06
   5.490920e+06  -2.716888e+06
   5.241150e+06   2.064511e+06
   1.998392e+06   4.188742e+06
  -7.914855e+05   3.211151e+06
  -6.196186e+05   1.590600e+06
   1.561958e+06   1.791089e+06
   2.252650e+06   3.599716e+06
  -7.592541e+05   4.427779e+06
  -5.448417e+06   2.398914e+06
  -7.196390e+06  -1.311110e+06
  -3.839014e+06  -3.682674e+06
   1.594594e+06  -3.023293e+06
   3.977921e+06  -3.617013e+05
   1.571089e+06   1.916494e+06
  -2.464381e+06   2.042870e+06
  -3.919346e+06  -1.341401e+05
  -1.900229e+06  -2.970036e+06
   9.954690e+05  -3.885673e+06
   1.996691e+06  -1.710132e+06
   8.315077e+05   1.470910e+06
  -6.392508e+05   2.082994e+06
  -6.630305e+05  -6.021865e+05
   7.557246e+05  -3.125645e+06
   2.054532e+06  -2.035033e+06
   1.688352e+06   1.524827e+06
  -3.291292e+05   3.112049e+06
  -2.239140e+06   6.281713e+05
  -1.999212e+06  -3.106776e+06
   7.331958e+05  -3.906246e+06
   3.913036e+06  -9.742021e+05
   4.654316e+06   2.750618e+06
   1.916656e+06   4.085114e+06
  -2.203322e+06   2.427196e+06
  -4.193075e+06  -3.985746e+05
  -2.493220e+06  -2.070473e+06
   9.311606e+05  -1.567176e+06
   2.666258e+06   2.003158e+05
   1.415260e+06   1.325227e+06
  -8.827305e+05   7.853014e+05
  -1.509815e+06  -5.792309e+05
  -3.278103e+04  -1.145128e+06
   1.464474e+06  -3.518614e+05
   9.563982e+05   8.543774e+05
  -1.207170e+06   1.176326e+06
  -2.673930e+06   1.187445e+05
  -1.555983e+06  -1.777700e+06
   1.611048e+06  -3.232903e+06
   4.326325e+06  -2.867774e+06
   4.498429e+06  -3.569192e+05
   2.358244e+06   2.803683e+06
  -1.152695e+04   4.349760e+06
  -9.399672e+05   3.519593e+06
  -6.943288e+05   1.815746e+06
  -6.990923e+05   1.058813e+06
  -1.632673e+06   1.167587e+06
  -2.701442e+06   5.974545e+05
  -2.666966e+06  -1.229617e+06
  -1.180523e+06  -2.835767e+06
   9.055650e+05  -2.376032e+06
   2.189668e+06   8.650868e+04
   1.677343e+06   2.470595e+06
  -4.139330e+05   2.731644e+06
  -2.554294e+06   7.581059e+05
  -3.011301e+06  -1.718803e+06
  -1.490864e+06  -2.863982e+06
   5.031891e+05  -2.322382e+06
   1.319981e+06  -1.208457e+06
   1.020956e+06  -7.086216e+05
   1.109345e+06  -8.503444e+05
   2.387929e+06  -6.794569e+05
   3.656773e+06   5.210748e+05
   2.976715e+06   2.368410e+06
   4.631404e+04   3.657600e+06
  -3.121508e+06   3.346895e+06
  -4.059486e+06   1.410076e+06
  -2.258887e+06  -9.823725e+05
   3.825424e+05  -2.188857e+06
   1.483584e+06  -1.456148e+06
   4.526390e+05   2.396271e+05
  -1.185345e+06   1.045164e+06
  -1.595168e+06   2.134891e+05
  -5.246492e+05  -1.032621e+06
   6.792221e+05  -1.002668e+06
   6.883934e+05   2.981431e+05
  -4.655531e+05   1.076459e+06
  -1.576007e+06  -6.354555e+04
  -1.441395e+06  -2.323444e+06
   1.671949e+05  -3.464908e+06
   2.324504e+06  -2.179942e+06
   3.523680e+06   5.991297e+05
   2.777791e+06   2.700731e+06
   5.790049e+05   2.774565e+06
  -1.332367e+06   1.343651e+06
  -1.554863e+06   3.650723e+04
  -4.492400e+05  -6.141241e+04
   3.130310e+05   6.831032e+05
  -2.997929e+05   1.067245e+06
  -1.501749e+06   4.379193e+05
  -1.691693e+06  -6.479754e+05
  -4.183835e+05  -1.116580e+06
   1.016281e+06  -5.536234e+05
   9.839780e+05   4.086535e+05
  -6.396974e+05   7.593277e+05
  -2.233032e+06   4.106824e+04
  -2.036615e+06  -1.266812e+06
   2.896981e+04  -2.111828e+06
   2.202815e+06  -1.700598e+06
   2.594252e+06  -2.437865e+05
   1.040941e+06   1.078728e+06
  -8.049468e+05   1.149085e+06
  -1.208577e+06   6.872245e+04
  -2.623450e+04  -8.744623e+05
   1.359874e+06  -5.765237e+05
   1.557549e+06   6.590595e+05
   4.550900e+05   1.486450e+06
  -8.527583e+05   1.055743e+06
  -1.190944e+06  -7.297976e+04
  -3.822823e+05  -6.323215e+05
   6.055793e+05  -6.134469e+04
   5.828196e+05   9.499075e+05
  -6.265507e+05   1.241598e+06
  -1.869132e+06   3.531767e+05
  -1.781567e+06  -1.064587e+06
  -2.770905e+05  -1.870125e+06
   1.289159e+06  -1.445639e+06
   1.546605e+06  -2.158234e+05
   5.139316e+05   7.618532e+05
  -5.785574e+05   7.665908e+05
  -6.977975e+05   4.293213e+04
   1.444692e+04  -5.301223e+05
   6.158047e+05  -3.961744e+05
   4.496365e+05   1.098686e+05
  -2.247075e+05   2.029934e+05
  -5.479207e+05  -3.898578e+05
   5.627446e+04  -1.032880e+06
   1.226881e+06  -8.221555e+05
   1.888905e+06   4.107310e+05
   1.266708e+06   1.812667e+06
  -2.798686e+05   2.261572e+06
  -1.553187e+06   1.403837e+06
  -1.704858e+06  -4.355290e+04
  -1.003134e+06  -9.907857e+05
  -3.572228e+05  -9.660719e+05
  -2.517521e+05  -4.443706e+05
  -3.392411e+05  -2.314773e+05
  -2.271122e+04  -5.585557e+05
   7.590492e+05  -8.405318e+05
   1.383500e+06  -3.784012e+05
   1.113203e+06   7.332943e+05
  -1.595520e+05   1.523129e+06
  -1.636345e+06   1.073378e+06
  -2.133584e+06  -4.739666e+05
  -1.090446e+06  -1.929458e+06
   8.305199e+05  -2.129552e+06
   2.239348e+06  -9.924812e+05
   2.228499e+06   4.889251e+05
   1.102981e+06   1.247092e+06
  -6.975711e+04   1.086021e+06
  -5.276252e+05   6.705885e+05
  -3.875514e+05   6.746814e+05
  -2.868751e+05   1.026284e+06
  -6.150649e+05   1.028713e+06
  -1.112389e+06   2.032331e+05
  -1.153972e+06  -1.062035e+06
  -4.251807e+05  -1.779762e+06
   6.498942e+05  -1.306283e+06
   1.204541e+06   7.372425e+03
   7.556435e+05   1.123787e+06
  -2.672172e+05   1.256499e+06
  -9.189664e+05   4.971169e+05
  -6.978131e+05  -4.151170e+05
  -2.330488e+04  -8.398081e+05
   2.965769e+05  -7.280576e+05
  -1.172292e+03  -4.689586e+05
  -3.478436e+05  -3.754320e+05
  -1.523449e+04  -3.770715e+05
   9.879536e+05  -1.820612e+05
   1.781413e+06   3.329205e+05
   1.452926e+06   9.339566e+05
   5.076534e+04   1.214018e+06
  -1.344115e+06   9.471003e+05
  -1.637962e+06   2.933673e+05
  -7.985185e+05  -2.988179e+05
   1.895011e+05  -4.280160e+05
   4.217595e+05  -8.757851e+04
  -4.596539e+04   2.811963e+05
  -4.786266e+05   1.911509e+05
  -4.102765e+05  -3.380146e+05
  -7.277298e+04  -7.200509e+05
   5.603372e+04  -4.591078e+05
  -1.431700e+05   1.766160e+05
  -3.698037e+05   3.793417e+05
  -2.719802e+05  -2.084140e+05
   2.319085e+05  -9.550715e+05
   8.639686e+05  -9.271445e+05
   1.109496e+06  -1.802175e+04
   5.958686e+05   8.867007e+05
  -4.299364e+05   9.119253e+05
  -1.088379e+06   1.323781e+05
  -6.376022e+05  -6.021467e+05
   6.382062e+05  -6.014856e+05
   1.526903e+06   6.846404e+04
   1.081024e+06   7.959693e+05
  -3.491132e+05   1.009367e+06
  -1.440328e+06   5.826584e+05
  -1.258725e+06  -1.181210e+05
  -1.772029e+05  -5.130641e+05
   5.958532e+05  -2.913023e+05
   3.022171e+05   2.464291e+05
  -6.280470e+05   4.003213e+05
  -1.087201e+06  -2.208921e+05
  -4.589049e+05  -1.180380e+06
   7.611943e+05  -1.515417e+06
   1.490699e+06  -6.770766e+05
   1.137076e+06   8.108818e+05
   9.771349e+04   1.718245e+06
  -7.485544e+05   1.254297e+06
  -8.844735e+05  -1.204541e+05
  -4.434546e+05  -1.123879e+06
   1.345187e+05  -9.619922e+05
   4.979932e+05  -1.026221e+05
   5.033343e+05   3.904905e+05
   2.370040e+05   1.622454e+05
   1.516338e+04  -1.144068e+05
   1.236563e+05   2.312417e+05
   3.922679e+05   9.044511e+05
   2.427631e+05   1.039976e+06
  -5.663048e+05   3.596254e+05
  -1.387175e+06  -5.006095e+05
  -1.270887e+06  -8.373317e+05
  -1.573821e+05  -6.433889e+05
   9.072694e+05  -3.510225e+05
   9.655549e+05  -1.646621e+05
   2.630620e+05   1.490172e+04
  -1.805593e+05   1.976339e+05
   6.029637e+04   2.397898e+05
   3.540948e+05   1.562333e+05
  -3.465814e+02   1.351066e+05
  -7.486909e+05   1.524089e+05
  -9.690805e+05  -9.425762e+04
  -2.149311e+05  -6.568336e+05
   9.507321e+05  -1.001657e+06
   1.562036e+06  -5.445353e+05
   1.172208e+06   5.391231e+05
   1.456986e+05   1.352192e+06
  -7.616588e+05   1.215238e+06
  -1.011239e+06   3.798844e+05
  -6.195309e+05  -3.091999e+05
  -6.207821e+04  -3.423486e+05
   1.610687e+05   1.776929e+02
  -4.143504e+04   8.098827e+04
  -3.104623e+05  -3.273525e+05
  -2.321044e+05  -7.686549e+05
   2.246610e+05  -6.061091e+05
   6.543972e+05   2.169026e+05
   5.847849e+05   9.995021e+05
  -5.652302e+04   9.653091e+05
  -7.815010e+05   9.933309e+04
  -9.025271e+05  -8.196917e+05
  -2.043290e+05  -1.036402e+06
   7.225256e+05  -5.255258e+05
   9.971664e+05   1.593251e+05
   4.081184e+05   5.380982e+05
  -3.013105e+05   5.321545e+05
  -2.967641e+05   3.011968e+05
   3.190064e+05   5.265330e+04
   6.341191e+05   1.136365e+04
   9.025396e+04   2.806133e+05
  -8.094383e+05   6.041230e+05
  -1.132571e+06   5.019095e+05
  -6.160974e+05  -1.416292e+05
   1.458792e+05  -7.750952e+05
   4.888639e+05  -7.345343e+05
   3.234446e+05  -6.333295e+04
  -2.019299e+04   4.890071e+05
  -2.656909e+05   3.487093e+05
  -3.293698e+05  -2.335597e+05
  -1.944133e+05  -5.582515e+05
   9.600625e+04  -3.277561e+05
   3.617049e+05   9.726392e+04
   4.013703e+05   2.361815e+05
   2.194388e+05   5.548412e+04
   1.707408e+04  -8.344474e+04
  -6.956654e+04   7.992097e+04
  -1.136270e+05   3.851772e+05
  -2.319984e+05   4.332991e+05
  -3.645373e+05   4.812725e+04
  -3.090904e+05  -4.761812e+05
   2.552302e+04  -6.326454e+05
   4.406872e+05  -2.350636e+05
   5.571751e+05   3.522516e+05
   1.671496e+05   5.841238e+05
  -4.733575e+05   3.016835e+05
  -7.782655e+05  -1.568465e+05
  -4.046655e+05  -3.836743e+05
   3.000118e+05  -3.007065e+05
   5.935313e+05  -1.059610e+05
   1.758934e+05   1.154032e+04
  -4.148513e+05  -1.441739e+04
  -4.145832e+05  -1.674973e+05
   2.411488e+05  -3.171396e+05
   8.252547e+05  -2.131253e+05
