
 $NMID
 id='ANONYMOUS ', fmtdat='(2E16.6)'
 volume=1.0
 tramp=1.0
 $END
  -3.485254e+07  -5.992373e+05
  -2.158211e+07  -1.948387e+07
   2.910337e+06  -2.272714e+07
   1.618758e+07  -1.135183e+07
   1.117315e+07   1.751141e+06
  -8.029476e+05   5.927747e+06
  -6.466546e+06   1.004534e+06
  -3.322431e+06  -5.795245e+06
   2.820245e+06  -7.493303e+06
   6.208306e+06  -2.602050e+06
   4.924063e+06   4.211966e+06
   5.648668e+05   6.290881e+06
  -2.943100e+06   1.602199e+06
  -2.152500e+06  -4.662466e+06
   2.196071e+06  -5.490842e+06
   5.307705e+06   1.741373e+05
   3.431043e+06   6.601112e+06
  -2.069524e+06   7.931799e+06
  -6.517271e+06   3.804328e+06
  -6.750762e+06  -1.738141e+06
  -3.460041e+06  -4.866972e+06
   1.389907e+05  -4.679761e+06
   1.130490e+06  -2.895759e+06
  -5.959524e+05  -2.019760e+06
  -1.929000e+06  -3.030432e+06
   3.192687e+05  -4.222535e+06
   5.160920e+06  -3.060855e+06
   7.693476e+06   4.910890e+05
   4.765438e+06   3.525428e+06
  -8.842588e+05   3.531539e+06
  -3.728769e+06   1.100875e+06
  -1.803069e+06  -1.236816e+06
   1.815067e+06  -1.698199e+06
   3.319539e+06  -1.330801e+05
   1.985418e+06   2.375198e+06
  -3.628599e+05   3.778211e+06
  -1.788519e+06   2.332588e+06
  -1.516322e+06  -9.603780e+05
  -1.501170e+05  -2.441322e+06
   6.437209e+05  -1.671269e+05
  -3.375568e+05   2.839577e+06
  -2.045594e+06   2.119645e+06
  -1.934035e+06  -1.897176e+06
   7.754484e+05  -3.941375e+06
   3.505296e+06  -8.779227e+05
   3.004116e+06   3.996954e+06
  -8.479216e+05   5.166908e+06
  -4.753408e+06   1.543500e+06
  -5.291063e+06  -2.979492e+06
  -1.995318e+06  -4.471700e+06
   2.429831e+06  -2.526025e+06
   4.410524e+06   5.705749e+05
   2.487490e+06   2.348039e+06
  -1.274512e+06   1.758777e+06
  -3.144271e+06  -2.894979e+05
  -1.593454e+06  -1.637341e+06
   1.063265e+06  -9.727851e+05
   1.557408e+06   6.433732e+05
  -3.301440e+05   1.072157e+06
  -1.744911e+06  -2.028936e+05
  -5.513291e+05  -1.577943e+06
   2.108589e+06  -1.453468e+06
   3.378096e+06   1.803844e+05
   1.824406e+06   2.299028e+06
  -1.485673e+06   3.773940e+06
  -4.274165e+06   3.491663e+06
  -4.817578e+06   9.107888e+05
  -3.018553e+06  -2.711404e+06
  -4.263633e+05  -4.729577e+06
   1.051999e+06  -3.823118e+06
   9.420765e+05  -1.632854e+06
   5.202200e+05  -6.595588e+05
   1.075965e+06  -1.093974e+06
   2.265634e+06  -9.813013e+05
   2.639630e+06   6.891409e+05
   1.456885e+06   2.442223e+06
  -5.456625e+05   2.250288e+06
  -1.940778e+06   5.194299e+04
  -1.694783e+06  -2.238009e+06
   1.978213e+05  -2.717270e+06
   2.503239e+06  -1.074573e+06
   3.386989e+06   1.400342e+06
   2.049540e+06   2.963005e+06
  -2.485328e+05   2.811956e+06
  -1.493555e+06   1.667649e+06
  -1.313318e+06   8.663006e+05
  -1.266502e+06   8.243328e+05
  -2.466282e+06   6.822054e+05
  -3.775379e+06  -4.574354e+05
  -3.117771e+06  -2.322718e+06
  -1.835730e+05  -3.690146e+06
   2.953224e+06  -3.506922e+06
   3.926383e+06  -1.697175e+06
   2.329831e+06   7.187946e+05
  -1.160945e+05   2.140210e+06
  -1.279732e+06   1.590913e+06
  -4.755899e+05  -1.582623e+05
   1.089393e+06  -1.126106e+06
   1.633232e+06  -3.138277e+05
   6.596614e+05   1.032095e+06
  -5.825120e+05   1.024430e+06
  -6.038574e+05  -3.023860e+05
   6.058140e+05  -9.612497e+05
   1.641286e+06   3.699775e+05
   1.257777e+06   2.575302e+06
  -4.828827e+05   3.386936e+06
  -2.459258e+06   1.889015e+06
  -3.397379e+06  -7.354322e+05
  -2.631302e+06  -2.575701e+06
  -6.013346e+05  -2.636497e+06
   1.228777e+06  -1.378527e+06
   1.514749e+06  -1.365296e+05
   4.514823e+05   4.162216e+04
  -3.386271e+05  -6.755466e+05
   2.901088e+05  -1.130626e+06
   1.566960e+06  -5.182354e+05
   1.771028e+06   6.477146e+05
   4.344844e+05   1.165036e+06
  -1.019718e+06   5.755197e+05
  -9.415416e+05  -3.861643e+05
   6.687417e+05  -6.893295e+05
   2.163237e+06   7.073908e+03
   1.931213e+06   1.208744e+06
  -3.808034e+04   2.017843e+06
  -2.128711e+06   1.704218e+06
  -2.570886e+06   3.218997e+05
  -1.099621e+06  -1.073302e+06
   7.785502e+05  -1.248897e+06
   1.277358e+06  -1.439159e+05
   1.065716e+05   9.087686e+05
  -1.351428e+06   6.503386e+05
  -1.585031e+06  -6.320154e+05
  -4.517731e+05  -1.486453e+06
   8.745526e+05  -1.031829e+06
   1.185789e+06   1.091673e+05
   3.510518e+05   6.527050e+05
  -6.456430e+05   7.822905e+04
  -6.422754e+05  -9.366490e+05
   5.562588e+05  -1.280197e+06
   1.847568e+06  -4.560194e+05
   1.840330e+06   9.770779e+05
   3.580600e+05   1.872400e+06
  -1.256549e+06   1.505538e+06
  -1.553966e+06   2.545891e+05
  -5.197165e+05  -7.600250e+05
   5.655644e+05  -7.747762e+05
   6.576798e+05  -7.003655e+04
  -3.441293e+04   4.667503e+05
  -5.541545e+05   3.430413e+05
  -3.402543e+05  -8.738219e+04
   2.864442e+05  -1.229685e+05
   5.401740e+05   4.506729e+05
  -6.907628e+04   1.056433e+06
  -1.217072e+06   8.591793e+05
  -1.908211e+06  -3.446990e+05
  -1.345842e+06  -1.764773e+06
   1.872214e+05  -2.255730e+06
   1.491093e+06  -1.412798e+06
   1.656968e+06   2.069504e+04
   9.572423e+05   9.103685e+05
   3.560316e+05   8.351896e+05
   3.215070e+05   3.524942e+05
   4.256923e+05   2.351510e+05
   6.230841e+04   6.041812e+05
  -7.499088e+05   8.594148e+05
  -1.356383e+06   3.911446e+05
  -1.083595e+06  -6.806107e+05
   1.421255e+05  -1.468609e+06
   1.588518e+06  -1.090825e+06
   2.123990e+06   4.028532e+05
   1.130730e+06   1.898365e+06
  -7.993893e+05   2.170486e+06
  -2.243190e+06   1.045219e+06
  -2.222324e+06  -4.638750e+05
  -1.064304e+06  -1.213693e+06
   8.227793e+04  -1.018210e+06
   4.555525e+05  -6.152709e+05
   2.622126e+05  -6.851528e+05
   1.890004e+05  -1.088703e+06
   5.816891e+05  -1.098466e+06
   1.129803e+06  -2.675165e+05
   1.208853e+06   1.003089e+06
   5.057748e+05   1.752203e+06
  -5.847125e+05   1.328493e+06
  -1.196764e+06   2.941966e+04
  -7.867181e+05  -1.120161e+06
   2.602592e+05  -1.274942e+06
   9.567389e+05  -4.856438e+05
   7.305376e+05   4.689215e+05
   5.524759e+03   8.915052e+05
  -3.409710e+05   7.376763e+05
  -1.338569e+04   4.415353e+05
   3.743802e+05   3.416185e+05
   3.921848e+04   3.674146e+05
  -1.004899e+06   2.162603e+05
  -1.828823e+06  -2.686802e+05
  -1.491840e+06  -8.965822e+05
  -6.003238e+04  -1.249300e+06
   1.352967e+06  -1.023065e+06
   1.645135e+06  -3.297175e+05
   7.996133e+05   3.281759e+05
  -1.918020e+05   4.665560e+05
  -4.366397e+05   8.196776e+04
   1.036323e+04  -3.166512e+05
   4.477151e+05  -2.195336e+05
   4.307631e+05   3.170449e+05
   1.474027e+05   6.955255e+05
   6.282534e+03   4.512909e+05
   1.340888e+05  -1.500226e+05
   3.224275e+05  -3.501793e+05
   2.717773e+05   2.025341e+05
  -1.698556e+05   9.431668e+05
  -8.224777e+05   9.698900e+05
  -1.154472e+06   1.029779e+05
  -6.853891e+05  -8.490759e+05
   3.832682e+05  -9.700491e+05
   1.103815e+06  -2.273513e+05
   6.665979e+05   5.563730e+05
  -6.230667e+05   6.185724e+05
  -1.506229e+06  -3.186611e+04
  -1.050183e+06  -7.667875e+05
   3.549212e+05  -9.869393e+05
   1.404637e+06  -5.739669e+05
   1.219922e+06   1.039630e+05
   1.725993e+05   4.949989e+05
  -5.887898e+05   2.934834e+05
  -3.279318e+05  -2.448877e+05
   5.828309e+05  -4.452862e+05
   1.091147e+06   1.366891e+05
   5.484913e+05   1.130123e+06
  -6.370416e+05   1.551964e+06
  -1.423003e+06   7.683797e+05
  -1.165831e+06  -7.359523e+05
  -1.792142e+05  -1.689020e+06
   6.889137e+05  -1.252711e+06
   8.773669e+05   1.103271e+05
   4.591909e+05   1.102539e+06
  -1.324582e+05   9.422865e+05
  -5.027688e+05   1.084486e+05
  -4.869346e+05  -3.618204e+05
  -2.094666e+05  -1.441535e+05
  -2.322477e+04   1.057725e+05
  -1.804348e+05  -2.397499e+05
  -4.468698e+05  -8.862282e+05
  -2.476368e+05  -1.017419e+06
   5.896697e+05  -3.797351e+05
   1.390134e+06   4.340485e+05
   1.260409e+06   7.777340e+05
   1.810730e+05   6.387488e+05
  -8.513691e+05   3.883350e+05
  -9.390233e+05   1.929244e+05
  -2.902596e+05  -1.848296e+04
   1.571593e+05  -2.058902e+05
  -3.118418e+04  -2.209592e+05
  -3.158029e+05  -1.220621e+05
  -2.118871e+04  -1.294764e+05
   6.903728e+05  -1.964063e+05
   9.688573e+05   3.377161e+04
   3.043231e+05   6.396624e+05
  -8.526991e+05   1.058734e+06
  -1.545151e+06   6.498252e+05
  -1.235224e+06  -4.473876e+05
  -2.263321e+05  -1.324663e+06
   7.038200e+05  -1.257695e+06
   9.811127e+05  -4.541901e+05
   6.210821e+05   2.544262e+05
   9.581996e+04   3.347478e+05
  -1.224538e+05   2.645174e+04
   5.345631e+04  -5.744977e+04
   3.075035e+05   3.236494e+05
   2.527795e+05   7.531726e+05
  -1.831034e+05   6.197574e+05
  -6.486245e+05  -1.565988e+05
  -6.504544e+05  -9.322960e+05
  -3.663137e+04  -9.584236e+05
   7.415650e+05  -1.722479e+05
   9.448315e+05   7.302277e+05
   2.813877e+05   1.015755e+06
  -6.792008e+05   5.856675e+05
  -1.014287e+06  -9.277577e+04
  -4.577680e+05  -5.351520e+05
   2.689798e+05  -5.779483e+05
   3.084033e+05  -3.265820e+05
  -2.833784e+05  -2.739703e+04
  -6.197343e+05   2.584919e+04
  -1.167907e+05  -2.785318e+05
   7.722467e+05  -6.362561e+05
   1.130126e+06  -5.348237e+05
   6.561547e+05   1.304864e+05
  -9.942465e+04   7.894373e+05
  -4.744630e+05   7.721512e+05
  -3.478657e+05   1.092183e+05
  -2.157155e+04  -4.693526e+05
   2.360684e+05  -3.773090e+05
   3.325511e+05   1.842591e+05
   2.268574e+05   5.414972e+05
  -6.558059e+04   3.568009e+05
  -3.631943e+05  -6.371334e+04
  -4.243624e+05  -2.328204e+05
  -2.236832e+05  -6.254342e+04
   6.471014e+03   1.053840e+05
   7.259184e+04  -3.329281e+04
   5.259200e+04  -3.619588e+05
   1.415700e+05  -4.667702e+05
   3.312087e+05  -1.203188e+05
   3.673167e+05   4.130020e+05
   6.239945e+04   6.156960e+05
  -4.064214e+05   2.696567e+05
  -5.889637e+05  -2.957333e+05
  -2.111488e+05  -5.553858e+05
   4.617617e+05  -3.305745e+05
   7.964474e+05   9.692330e+04
   4.310562e+05   3.564746e+05
  -2.777503e+05   3.375912e+05
  -5.868700e+05   1.668974e+05
  -1.985867e+05   6.706770e+03
   3.743207e+05  -2.800672e+04
   4.015290e+05   1.109571e+05
  -1.971811e+05   3.025843e+05
  -7.607292e+05   2.504312e+05
