
 $NMID
 id='ANONYMOUS ', fmtdat='(2E16.6)'
 volume=1.0
 tramp=1.0
 $END
  -4.350926e+07   1.300945e+06
  -2.742938e+07  -2.542851e+07
   4.136094e+06  -2.947144e+07
   2.075265e+07  -1.283072e+07
   1.336048e+07   4.177493e+06
  -1.909890e+06   7.359032e+06
  -7.812787e+06  -1.798464e+05
  -2.896251e+06  -7.468495e+06
   4.321162e+06  -7.939794e+06
   7.532411e+06  -2.206047e+06
   5.716987e+06   4.724673e+06
   8.379741e+05   6.890650e+06
  -3.113274e+06   2.157035e+06
  -2.234728e+06  -4.555823e+06
   2.785448e+06  -5.606943e+06
   6.295820e+06   6.396968e+05
   3.921753e+06   7.896367e+06
  -2.529683e+06   9.456642e+06
  -7.729974e+06   4.910312e+06
  -8.414555e+06  -1.410141e+06
  -5.128969e+06  -5.629112e+06
  -6.493319e+05  -6.418392e+06
   1.805206e+06  -4.531655e+06
   8.076476e+05  -2.357124e+06
  -1.219597e+06  -2.262800e+06
  -5.627749e+04  -3.718637e+06
   4.659450e+06  -3.535980e+06
   7.936111e+06  -2.824238e+05
   5.601901e+06   3.316899e+06
  -2.975071e+04   3.932903e+06
  -3.210291e+06   1.816698e+06
  -1.904377e+06  -3.388310e+05
   9.705075e+05  -1.004684e+06
   2.345004e+06  -2.792268e+05
   1.864294e+06   1.537689e+06
   3.441064e+05   3.388043e+06
  -1.472770e+06   2.982109e+06
  -2.284820e+06  -2.249327e+05
  -1.120701e+06  -2.755268e+06
   5.387025e+05  -1.171268e+06
   7.906660e+04   2.278572e+06
  -2.046582e+06   2.046700e+06
  -2.111726e+06  -2.390539e+06
   1.496288e+06  -4.887427e+06
   5.107110e+06  -1.091480e+06
   4.097850e+06   5.123773e+06
  -1.150719e+06   6.634986e+06
  -5.738999e+06   2.070656e+06
  -5.797839e+06  -3.395055e+06
  -1.818447e+06  -4.903947e+06
   2.748722e+06  -2.436654e+06
   4.491367e+06   9.886965e+05
   2.272279e+06   2.729291e+06
  -1.749165e+06   1.876243e+06
  -3.630675e+06  -5.264283e+05
  -1.695092e+06  -2.036159e+06
   1.294075e+06  -1.125901e+06
   1.515647e+06   7.721559e+05
  -8.710140e+05   9.184373e+05
  -2.069237e+06  -1.021408e+06
   6.525964e+04  -2.542393e+06
   3.304155e+06  -1.722487e+06
   4.205483e+06   6.928279e+05
   2.039399e+06   2.980687e+06
  -1.391930e+06   4.278517e+06
  -4.144648e+06   3.992600e+06
  -5.053828e+06   1.419652e+06
  -3.652539e+06  -2.566703e+06
  -8.044079e+05  -5.026328e+06
   1.314413e+06  -4.023900e+06
   1.318211e+06  -1.293788e+06
   3.109675e+05  -6.737982e+04
   3.420709e+05  -8.635096e+05
   1.609799e+06  -1.310750e+06
   2.416010e+06   6.942921e+04
   1.608522e+06   1.854488e+06
  -1.602681e+05   1.915905e+06
  -1.502533e+06   1.109863e+05
  -1.503064e+06  -1.908014e+06
   3.636573e+04  -2.545642e+06
   2.351441e+06  -1.324304e+06
   3.656541e+06   1.044982e+06
   2.587048e+06   3.025559e+06
   1.352070e+04   3.327259e+06
  -1.710220e+06   2.169141e+06
  -1.687134e+06   1.011216e+06
  -1.473569e+06   7.075292e+05
  -2.509130e+06   5.387570e+05
  -3.757447e+06  -5.336308e+05
  -3.062218e+06  -2.309203e+06
  -1.769634e+05  -3.579041e+06
   2.768286e+06  -3.417308e+06
   3.641082e+06  -1.808751e+06
   2.263614e+06   4.414056e+05
   1.361119e+05   1.952526e+06
  -1.010596e+06   1.619036e+06
  -4.608648e+05  -6.468887e+04
   9.659253e+05  -1.117408e+06
   1.615245e+06  -3.487273e+05
   7.546811e+05   1.005989e+06
  -4.737493e+05   9.586470e+05
  -4.366039e+05  -3.405663e+05
   8.386319e+05  -7.357005e+05
   1.667895e+06   8.636223e+05
   8.410055e+05   2.892227e+06
  -1.072518e+06   3.133457e+06
  -2.658486e+06   1.296852e+06
  -3.056247e+06  -1.066811e+06
  -2.181246e+06  -2.435217e+06
  -4.630075e+05  -2.364907e+06
   1.100085e+06  -1.300559e+06
   1.390939e+06  -1.905503e+05
   4.302880e+05   3.274400e+04
  -3.199527e+05  -6.532386e+05
   3.232967e+05  -1.150499e+06
   1.609247e+06  -5.237190e+05
   1.761509e+06   7.084669e+05
   3.706024e+05   1.197178e+06
  -1.012606e+06   5.159971e+05
  -8.147788e+05  -4.014720e+05
   7.332336e+05  -5.342493e+05
   1.988200e+06   1.942731e+05
   1.639770e+06   1.191170e+06
  -1.631019e+05   1.804505e+06
  -2.025671e+06   1.521201e+06
  -2.437194e+06   2.820436e+05
  -1.073842e+06  -1.067811e+06
   7.648938e+05  -1.284627e+06
   1.312753e+06  -1.781001e+05
   1.621092e+05   9.130742e+05
  -1.310646e+06   6.480491e+05
  -1.516134e+06  -6.495466e+05
  -3.469375e+05  -1.442492e+06
   9.217365e+05  -9.040313e+05
   1.118444e+06   2.209541e+05
   2.508538e+05   6.714631e+05
  -6.832242e+05   5.862910e+04
  -6.464868e+05  -9.183852e+05
   5.068743e+05  -1.251156e+06
   1.762949e+06  -4.806558e+05
   1.788521e+06   9.085353e+05
   3.570523e+05   1.808570e+06
  -1.229783e+06   1.454801e+06
  -1.502043e+06   2.179650e+05
  -4.593460e+05  -7.463232e+05
   5.648442e+05  -7.150391e+05
   5.705438e+05  -6.098409e+04
  -9.928898e+04   3.611211e+05
  -4.754601e+05   2.180070e+05
  -1.694819e+05  -8.601984e+04
   3.786040e+05  -2.649369e+03
   4.960068e+05   5.455214e+05
  -1.338637e+05   1.048529e+06
  -1.197074e+06   8.159063e+05
  -1.836666e+06  -3.357202e+05
  -1.307162e+06  -1.689650e+06
   1.657438e+05  -2.136054e+06
   1.412010e+06  -1.283299e+06
   1.516151e+06   7.502336e+04
   8.004560e+05   8.077480e+05
   2.885698e+05   6.313053e+05
   3.835479e+05   2.185807e+05
   5.219864e+05   2.462918e+05
   9.317165e+04   6.468242e+05
  -7.473866e+05   8.180858e+05
  -1.287275e+06   3.274478e+05
  -9.665715e+05  -6.364633e+05
   1.888519e+05  -1.328670e+06
   1.514617e+06  -9.898405e+05
   2.000482e+06   3.970021e+05
   1.039036e+06   1.834537e+06
  -8.353735e+05   2.095156e+06
  -2.207057e+06   9.582690e+05
  -2.093568e+06  -5.264142e+05
  -8.976530e+05  -1.173970e+06
   1.557256e+05  -8.762647e+05
   3.711746e+05  -4.823367e+05
   1.085285e+05  -6.478433e+05
   9.369761e+04  -1.113336e+06
   5.614255e+05  -1.117800e+06
   1.116234e+06  -2.894522e+05
   1.178884e+06   9.371506e+05
   5.040380e+05   1.660538e+06
  -5.367055e+05   1.267853e+06
  -1.134457e+06   1.488489e+04
  -7.382537e+05  -1.108897e+06
   3.059672e+05  -1.234094e+06
   9.983550e+05  -4.009365e+05
   7.274906e+05   5.632552e+05
  -6.334043e+04   9.312232e+05
  -4.301874e+05   7.066687e+05
  -5.960147e+04   3.832064e+05
   3.786142e+05   2.953793e+05
   5.427701e+04   3.393909e+05
  -9.976207e+05   2.072245e+05
  -1.805632e+06  -2.569403e+05
  -1.436933e+06  -8.829542e+05
  -5.282950e+03  -1.252617e+06
   1.359894e+06  -1.019106e+06
   1.601396e+06  -2.804846e+05
   7.520209e+05   4.003507e+05
  -2.085975e+05   4.936896e+05
  -4.454570e+05   4.931740e+04
  -3.066896e+04  -3.515777e+05
   3.910154e+05  -2.271906e+05
   4.246679e+05   2.925139e+05
   2.128749e+05   6.319650e+05
   7.247544e+04   4.158925e+05
   1.253808e+05  -9.908329e+04
   2.637946e+05  -2.736926e+05
   2.534916e+05   2.018723e+05
  -1.220679e+05   8.772457e+05
  -7.793555e+05   9.483546e+05
  -1.175127e+06   1.649485e+05
  -7.409604e+05  -7.899748e+05
   3.468075e+05  -9.921054e+05
   1.085837e+06  -3.002218e+05
   6.487598e+05   4.989970e+05
  -6.058493e+05   5.841690e+05
  -1.409215e+06  -5.739703e+04
  -9.201723e+05  -7.503414e+05
   4.017485e+05  -8.962115e+05
   1.326195e+06  -4.611320e+05
   1.107235e+06   1.472060e+05
   1.308231e+05   4.579926e+05
  -5.701865e+05   2.515432e+05
  -3.381016e+05  -2.493166e+05
   5.143360e+05  -4.577930e+05
   1.038410e+06   6.702791e+04
   5.922094e+05   1.032555e+06
  -5.087082e+05   1.497116e+06
  -1.297892e+06   7.892171e+05
  -1.114352e+06  -6.546946e+05
  -1.995352e+05  -1.578987e+06
   6.397887e+05  -1.157487e+06
   8.247061e+05   1.384058e+05
   4.027301e+05   1.050143e+06
  -1.774304e+05   8.682117e+05
  -4.959536e+05   8.561277e+04
  -4.212602e+05  -3.334277e+05
  -1.505628e+05  -1.260355e+05
  -4.028893e+04   8.760145e+04
  -2.443000e+05  -2.478695e+05
  -4.590814e+05  -8.425586e+05
  -1.872871e+05  -9.548237e+05
   6.186511e+05  -3.635686e+05
   1.308160e+06   3.925223e+05
   1.146625e+06   7.264367e+05
   1.745047e+05   6.138109e+05
  -7.514883e+05   3.775014e+05
  -8.696391e+05   1.741940e+05
  -3.180745e+05  -3.606335e+04
   1.261936e+05  -1.985409e+05
   2.567406e+04  -1.879552e+05
  -2.377290e+05  -8.774431e+04
  -4.452001e+04  -1.164821e+05
   5.837879e+05  -2.114786e+05
   9.224561e+05  -4.009703e+03
   3.877262e+05   5.973120e+05
  -7.254675e+05   1.045094e+06
  -1.482999e+06   6.938778e+05
  -1.246033e+06  -3.545482e+05
  -2.628435e+05  -1.235387e+06
   6.540773e+05  -1.227023e+06
   9.158330e+05  -4.902850e+05
   5.804418e+05   1.973503e+05
   1.227469e+05   3.131748e+05
  -6.015176e+04   5.492484e+04
   7.422568e+04  -1.867838e+04
   2.729677e+05   3.223016e+05
   2.303042e+05   7.120954e+05
  -1.476120e+05   6.008311e+05
  -6.001324e+05  -9.773778e+04
  -6.640170e+05  -8.249425e+05
  -1.199305e+05  -9.026955e+05
   6.550632e+05  -2.291477e+05
   9.214413e+05   6.153902e+05
   3.273886e+05   9.522627e+05
  -6.138806e+05   6.105860e+05
  -9.879801e+05  -4.391501e+04
  -4.835711e+05  -5.301460e+05
   2.381584e+05  -6.054000e+05
   3.294373e+05  -3.348348e+05
  -2.152342e+05  -6.490240e+03
  -5.717755e+05   4.553512e+04
  -1.363864e+05  -2.681264e+05
   7.172483e+05  -6.128315e+05
   1.106304e+06  -5.002655e+05
   6.804142e+05   1.405418e+05
  -6.803727e+04   7.687550e+05
  -4.721074e+05   7.694070e+05
  -3.718244e+05   1.562137e+05
  -5.572326e+04  -4.186643e+05
   2.004259e+05  -3.892387e+05
   3.096610e+05   1.212454e+05
   2.350551e+05   5.041030e+05
  -3.463336e+04   3.791000e+05
  -3.441244e+05  -3.103664e+04
  -4.279784e+05  -2.392698e+05
  -2.180240e+05  -8.195112e+04
   3.706946e+04   1.320198e+05
   7.982774e+04   4.070702e+04
  -1.823989e+04  -3.047307e+05
   2.430933e+04  -4.817223e+05
   2.685030e+05  -2.014781e+05
   4.107029e+05   3.173606e+05
   1.553844e+05   5.613088e+05
  -3.507254e+05   2.851441e+05
  -5.914143e+05  -2.290639e+05
  -2.353636e+05  -4.980771e+05
   4.412701e+05  -3.341113e+05
   7.806379e+05   4.583220e+04
   4.308522e+05   3.227595e+05
  -2.485865e+05   3.612423e+05
  -5.565433e+05   2.177747e+05
  -2.225084e+05   2.491857e+04
   2.968386e+05  -6.544297e+04
   3.545505e+05   4.569677e+04
  -1.418632e+05   2.539612e+05
  -6.443708e+05   2.485365e+05
