
 $NMID
 id='ANONYMOUS ', fmtdat='(2E16.6)'
 volume=1.0
 tramp=1.0
 $END
   2.131979e+07   2.285440e+06
   1.304504e+07   1.071887e+07
  -1.021464e+06   1.295414e+07
  -9.469595e+06   8.533069e+06
  -7.692882e+06   1.009731e+06
  -4.858769e+05  -3.735508e+06
   4.352053e+06  -2.072240e+06
   3.358505e+06   3.418731e+06
  -1.016349e+06   6.127040e+06
  -4.117435e+06   2.677305e+06
  -3.432858e+06  -3.125554e+06
  -1.699962e+05  -4.809436e+06
   2.322338e+06  -7.788382e+05
   1.656747e+06   4.186168e+06
  -1.412904e+06   4.667782e+06
  -3.658603e+06   3.246896e+05
  -2.508301e+06  -4.444571e+06
   1.306102e+06  -5.385528e+06
   4.392940e+06  -2.223984e+06
   4.130764e+06   1.780045e+06
   1.313068e+06   3.347787e+06
  -8.249046e+05   2.214196e+06
  -1.635902e+05   8.975927e+05
   1.977928e+06   1.582333e+06
   2.283903e+06   3.559210e+06
  -8.063541e+05   4.163196e+06
  -5.035075e+06   2.018927e+06
  -6.357203e+06  -1.358244e+06
  -3.180683e+06  -3.279921e+06
   1.682557e+06  -2.522777e+06
   3.711048e+06  -6.621646e+04
   1.329700e+06   2.030270e+06
  -2.558668e+06   2.061891e+06
  -3.883429e+06  -1.955527e+05
  -1.741964e+06  -2.965015e+06
   1.123507e+06  -3.606703e+06
   1.838295e+06  -1.313599e+06
   4.318769e+05   1.518752e+06
  -8.805367e+05   1.694826e+06
  -5.693803e+05  -9.104975e+05
   8.362377e+05  -3.003993e+06
   1.833530e+06  -1.892075e+06
   1.513643e+06   1.155886e+06
   7.401745e+04   2.515813e+06
  -1.411143e+06   6.332798e+05
  -1.522568e+06  -2.287365e+06
   3.987940e+05  -3.020952e+06
   3.122289e+06  -8.068867e+05
   4.079665e+06   2.237177e+06
   1.878034e+06   3.517532e+06
  -1.843996e+06   2.271893e+06
  -3.786397e+06  -1.464414e+05
  -2.384537e+06  -1.704405e+06
   6.303059e+05  -1.408887e+06
   2.239843e+06   2.347314e+04
   1.283911e+06   1.014562e+06
  -6.870969e+05   6.741466e+05
  -1.390903e+06  -4.558306e+05
  -2.322002e+05  -1.122116e+06
   1.253295e+06  -6.593637e+05
   1.166140e+06   4.458125e+05
  -6.185353e+05   1.063861e+06
  -2.147225e+06   3.919575e+05
  -1.400668e+06  -1.318833e+06
   1.407122e+06  -2.752747e+06
   3.877779e+06  -2.458960e+06
   3.933453e+06  -2.158303e+05
   1.925206e+06   2.504439e+06
  -6.623338e+04   3.787640e+06
  -6.860883e+05   3.134270e+06
  -4.853523e+05   1.804219e+06
  -7.369954e+05   1.173317e+06
  -1.748420e+06   1.108440e+06
  -2.650268e+06   4.021759e+05
  -2.458256e+06  -1.322392e+06
  -9.995672e+05  -2.746599e+06
   9.528321e+05  -2.244710e+06
   2.128897e+06   1.068443e+05
   1.586881e+06   2.340896e+06
  -4.102194e+05   2.517513e+06
  -2.329813e+06   6.132632e+05
  -2.614377e+06  -1.620400e+06
  -1.193503e+06  -2.500831e+06
   4.783676e+05  -1.895692e+06
   1.058302e+06  -9.443656e+05
   7.659554e+05  -6.315182e+05
   9.250039e+05  -8.415308e+05
   2.143904e+06  -6.990669e+05
   3.322472e+06   3.978080e+05
   2.738372e+06   2.109118e+06
   8.214760e+04   3.342372e+06
  -2.850506e+06   3.080705e+06
  -3.741409e+06   1.263500e+06
  -2.052310e+06  -9.630367e+05
   4.241194e+05  -2.028386e+06
   1.413132e+06  -1.301022e+06
   4.056706e+05   2.452052e+05
  -1.102280e+06   9.491264e+05
  -1.436926e+06   1.967742e+05
  -4.474535e+05  -9.252028e+05
   6.423832e+05  -9.244061e+05
   6.840855e+05   2.605629e+05
  -3.409040e+05   1.073358e+06
  -1.449740e+06   1.399041e+05
  -1.505206e+06  -1.995423e+06
  -8.952155e+04  -3.264313e+06
   2.041788e+06  -2.227700e+06
   3.338360e+06   3.982328e+05
   2.696683e+06   2.484801e+06
   5.889053e+05   2.606186e+06
  -1.237466e+06   1.250149e+06
  -1.442917e+06   2.559907e+04
  -4.130803e+05  -5.330098e+04
   2.947182e+05   6.221539e+05
  -2.452718e+05   9.605591e+05
  -1.333129e+06   4.129058e+05
  -1.539147e+06  -5.425013e+05
  -4.137763e+05  -9.923166e+05
   9.172775e+05  -5.286043e+05
   9.368436e+05   3.634049e+05
  -5.604217e+05   7.541160e+05
  -2.095133e+06   1.177184e+05
  -1.958787e+06  -1.147783e+06
  -2.887335e+04  -1.993702e+06
   2.018148e+06  -1.621346e+06
   2.388929e+06  -2.580297e+05
   9.611633e+05   9.623851e+05
  -7.134323e+05   1.031287e+06
  -1.072137e+06   6.723598e+04
  -1.305851e+04  -7.814938e+05
   1.234705e+06  -5.332799e+05
   1.438576e+06   5.741678e+05
   4.631096e+05   1.357555e+06
  -7.476791e+05   1.010731e+06
  -1.105426e+06  -1.646255e+04
  -3.871868e+05  -5.647305e+05
   5.353644e+05  -6.881192e+04
   5.337833e+05   8.603227e+05
  -5.733225e+05   1.137063e+06
  -1.714338e+06   3.263520e+05
  -1.635993e+06  -9.683570e+05
  -2.691208e+05  -1.707790e+06
   1.158051e+06  -1.337075e+06
   1.412599e+06  -2.245644e+05
   4.923856e+05   6.879973e+05
  -5.170737e+05   7.177995e+05
  -6.588968e+05   4.272888e+04
  -5.680261e+03  -5.212605e+05
   5.908921e+05  -4.026460e+05
   4.683565e+05   1.091279e+05
  -1.786895e+05   2.374549e+05
  -5.251056e+05  -3.153582e+05
   1.466873e+04  -9.434587e+05
   1.109373e+06  -7.735414e+05
   1.737578e+06   3.557785e+05
   1.176125e+06   1.651507e+06
  -2.396350e+05   2.087307e+06
  -1.421415e+06   1.328064e+06
  -1.593976e+06  -7.346793e+03
  -9.678800e+05  -9.280115e+05
  -3.457132e+05  -9.439819e+05
  -2.028026e+05  -4.409774e+05
  -2.776734e+05  -1.945903e+05
  -2.138686e+04  -4.888064e+05
   6.789649e+05  -7.862466e+05
   1.276803e+06  -3.790636e+05
   1.056501e+06   6.729008e+05
  -1.175429e+05   1.433423e+06
  -1.499889e+06   1.022762e+06
  -1.978464e+06  -4.121898e+05
  -1.037187e+06  -1.759342e+06
   7.171031e+05  -1.963736e+06
   2.029723e+06  -9.526784e+05
   2.068724e+06   4.005470e+05
   1.067649e+06   1.137971e+06
  -3.355408e+04   1.036933e+06
  -5.071880e+05   6.534854e+05
  -3.980006e+05   6.168311e+05
  -2.774561e+05   9.153498e+05
  -5.480411e+05   9.288987e+05
  -1.005604e+06   1.890609e+05
  -1.061889e+06  -9.701996e+05
  -4.006191e+05  -1.634848e+06
   5.918565e+05  -1.205941e+06
   1.111021e+06  -8.644794e+03
   7.127750e+05   1.013614e+06
  -2.126911e+05   1.156163e+06
  -8.157542e+05   4.929156e+05
  -6.437061e+05  -3.341168e+05
  -5.820072e+04  -7.499472e+05
   2.305448e+05  -6.785972e+05
  -1.898654e+04  -4.467640e+05
  -3.154460e+05  -3.503937e+05
  -1.218558e+04  -3.497938e+05
   8.944174e+05  -1.805098e+05
   1.622905e+06   2.837978e+05
   1.343425e+06   8.347202e+05
   7.950519e+04   1.099651e+06
  -1.201406e+06   8.747758e+05
  -1.494882e+06   2.995714e+05
  -7.464328e+05  -2.386140e+05
   1.581940e+05  -3.814034e+05
   3.795898e+05  -9.658860e+04
  -4.863425e+04   2.403196e+05
  -4.483577e+05   1.733243e+05
  -3.760147e+05  -3.084137e+05
  -4.912528e+04  -6.671481e+05
   6.955164e+04  -4.231849e+05
  -1.337265e+05   1.789189e+05
  -3.556651e+05   3.700400e+05
  -2.561055e+05  -1.874177e+05
   2.180498e+05  -8.873123e+05
   7.867383e+05  -8.545657e+05
   9.930706e+05  -1.048785e+04
   5.275807e+05   8.110802e+05
  -3.882434e+05   8.204934e+05
  -9.838606e+05   1.079899e+05
  -5.866994e+05  -5.567584e+05
   5.772032e+05  -5.628321e+05
   1.416242e+06   3.961583e+04
   1.031273e+06   7.200646e+05
  -2.925217e+05   9.515992e+05
  -1.329267e+06   5.787429e+05
  -1.181115e+06  -8.365444e+04
  -1.784508e+05  -4.770646e+05
   5.442271e+05  -2.836078e+05
   2.728889e+05   2.171501e+05
  -5.856470e+05   3.609787e+05
  -9.991557e+05  -2.134383e+05
  -4.085155e+05  -1.091708e+06
   7.159226e+05  -1.389892e+06
   1.379915e+06  -6.160568e+05
   1.050585e+06   7.492152e+05
   9.648317e+04   1.588196e+06
  -6.836812e+05   1.172865e+06
  -8.212157e+05  -9.165412e+04
  -4.309142e+05  -1.032419e+06
   9.961571e+04  -8.998204e+05
   4.533049e+05  -1.061632e+05
   4.803862e+05   3.610502e+05
   2.347823e+05   1.539813e+05
   7.580284e+03  -1.107580e+05
   9.371614e+04   2.006699e+05
   3.590287e+05   8.267429e+05
   2.487602e+05   9.622300e+05
  -4.988097e+05   3.396872e+05
  -1.285562e+06  -4.543396e+05
  -1.194958e+06  -7.657749e+05
  -1.512989e+05  -5.888334e+05
   8.502580e+05  -3.262405e+05
   8.957758e+05  -1.629926e+05
   2.300370e+05   2.273660e+03
  -1.714697e+05   1.812567e+05
   7.481455e+04   2.309559e+05
   3.463668e+05   1.538794e+05
  -7.456067e+03   1.254173e+05
  -7.102715e+05   1.352370e+05
  -8.907932e+05  -8.891559e+04
  -1.718404e+05  -6.000249e+05
   8.906867e+05  -9.139856e+05
   1.423601e+06  -4.934648e+05
   1.057277e+06   5.029504e+05
   1.309563e+05   1.248685e+06
  -6.922235e+05   1.116043e+06
  -9.296239e+05   3.400324e+05
  -5.742789e+05  -2.939633e+05
  -4.984443e+04  -3.145867e+05
   1.648829e+05   1.184260e+04
  -3.211239e+04   8.823766e+04
  -2.964784e+05  -2.950404e+05
  -2.242220e+05  -7.076629e+05
   2.089561e+05  -5.547988e+05
   6.068847e+05   2.111955e+05
   5.295879e+05   9.317004e+05
  -7.060448e+04   8.866886e+05
  -7.306178e+05   7.484371e+04
  -8.268213e+05  -7.698122e+05
  -1.784358e+05  -9.529327e+05
   6.670132e+05  -4.719035e+05
   9.096133e+05   1.495519e+05
   3.670121e+05   4.816734e+05
  -2.744945e+05   4.740271e+05
  -2.572414e+05   2.746574e+05
   3.106252e+05   5.482407e+04
   5.885925e+05   1.188283e+04
   7.806180e+04   2.548532e+05
  -7.443295e+05   5.608818e+05
  -1.028155e+06   4.783607e+05
  -5.515166e+05  -1.151643e+05
   1.338989e+05  -7.076138e+05
   4.336768e+05  -6.713595e+05
   2.806023e+05  -4.735272e+04
  -2.674871e+04   4.572473e+05
  -2.469808e+05   3.125145e+05
  -3.044100e+05  -2.296068e+05
  -1.777674e+05  -5.144212e+05
   9.151204e+04  -2.881398e+05
   3.325371e+05   9.558165e+04
   3.651832e+05   2.060521e+05
   2.023780e+05   4.118340e+04
   2.291397e+04  -6.475384e+04
  -6.439663e+04   9.845758e+04
  -1.254254e+05   3.642427e+05
  -2.425549e+05   3.819730e+05
  -3.446079e+05   1.682421e+04
  -2.647093e+05  -4.558125e+05
   4.973366e+04  -5.845309e+05
   4.132105e+05  -2.093890e+05
   5.032532e+05   3.336456e+05
   1.467411e+05   5.438497e+05
  -4.309614e+05   2.764102e+05
  -7.078309e+05  -1.501225e+05
  -3.686848e+05  -3.531606e+05
   2.756804e+05  -2.658513e+05
   5.420975e+05  -8.431014e+04
   1.499098e+05   1.257052e+04
  -3.987649e+05  -2.561462e+04
  -3.883268e+05  -1.711958e+05
   2.358694e+05  -3.023839e+05
   7.827001e+05  -1.960947e+05
