
 $NMID
 id='ANONYMOUS ', fmtdat='(2E16.6)'
 volume=1.0
 tramp=1.0
 $END
   3.721051e+07  -2.952852e+05
   2.347044e+07   2.130067e+07
  -3.223208e+06   2.489695e+07
  -1.769638e+07   1.166511e+07
  -1.189916e+07  -2.780295e+06
   1.248953e+06  -6.437732e+06
   6.949214e+06  -4.644355e+05
   3.066202e+06   6.416327e+06
  -3.466581e+06   7.512307e+06
  -6.652303e+06   2.340725e+06
  -5.069866e+06  -4.326571e+06
  -5.930594e+05  -6.339576e+06
   2.916545e+06  -1.753510e+06
   2.036476e+06   4.493676e+06
  -2.459422e+06   5.364401e+06
  -5.583511e+06  -3.874605e+05
  -3.500035e+06  -6.955694e+06
   2.231970e+06  -8.305241e+06
   6.803196e+06  -4.110171e+06
   7.173068e+06   1.542999e+06
   4.022548e+06   4.965476e+06
   2.497986e+05   5.204270e+06
  -1.314035e+06   3.532944e+06
  -4.918447e+04   2.213193e+06
   1.436065e+06   2.679072e+06
  -2.593266e+05   3.820410e+06
  -4.780223e+06   3.031013e+06
  -7.467439e+06  -2.550076e+05
  -4.893044e+06  -3.338048e+06
   5.116759e+05  -3.514777e+06
   3.345651e+06  -1.278321e+06
   1.700255e+06   8.277192e+05
  -1.470627e+06   1.245019e+06
  -2.775894e+06   5.422624e+04
  -1.750703e+06  -1.985741e+06
   1.560111e+05  -3.424092e+06
   1.592580e+06  -2.471909e+06
   1.725350e+06   5.863776e+05
   5.449741e+05   2.425078e+06
  -5.005879e+05   5.751182e+05
   2.409633e+05  -2.460513e+06
   2.019269e+06  -1.974726e+06
   1.950801e+06   2.069356e+06
  -1.051753e+06   4.257904e+06
  -4.071514e+06   1.004880e+06
  -3.391375e+06  -4.307360e+06
   9.203578e+05  -5.624762e+06
   4.995030e+06  -1.710115e+06
   5.303735e+06   3.105931e+06
   1.803247e+06   4.551416e+06
  -2.537458e+06   2.385032e+06
  -4.318709e+06  -8.033082e+05
  -2.297848e+06  -2.501678e+06
   1.461365e+06  -1.775115e+06
   3.266677e+06   3.972709e+05
   1.590031e+06   1.782057e+06
  -1.132334e+06   1.012363e+06
  -1.488943e+06  -7.100165e+05
   5.820459e+05  -1.012994e+06
   1.890441e+06   5.521347e+05
   3.208749e+05   2.001334e+06
  -2.552919e+06   1.577594e+06
  -3.654498e+06  -3.929775e+05
  -1.863813e+06  -2.529832e+06
   1.426642e+06  -3.820411e+06
   4.096313e+06  -3.490039e+06
   4.727214e+06  -1.024175e+06
   3.123118e+06   2.562152e+06
   5.080877e+05   4.673916e+06
  -1.188116e+06   3.780515e+06
  -1.135088e+06   1.439538e+06
  -4.741180e+05   3.477884e+05
  -7.568970e+05   8.736017e+05
  -1.890128e+06   9.974379e+05
  -2.388795e+06  -4.594147e+05
  -1.384766e+06  -2.118069e+06
   4.252275e+05  -1.992396e+06
   1.683694e+06  -1.050282e+04
   1.491730e+06   2.063967e+06
  -1.825582e+05   2.536190e+06
  -2.352597e+06   1.089683e+06
  -3.333024e+06  -1.240426e+06
  -2.158579e+06  -2.884772e+06
   1.414077e+05  -2.911107e+06
   1.528311e+06  -1.811849e+06
   1.433459e+06  -8.994740e+05
   1.334548e+06  -7.360236e+05
   2.419550e+06  -5.547047e+05
   3.629810e+06   5.443700e+05
   2.939380e+06   2.296722e+06
   9.921616e+04   3.516140e+06
  -2.839311e+06   3.276080e+06
  -3.688873e+06   1.591846e+06
  -2.188165e+06  -6.214413e+05
   5.523984e+04  -1.964309e+06
   1.148406e+06  -1.506527e+06
   4.470909e+05   1.210485e+05
  -1.017789e+06   1.057024e+06
  -1.574588e+06   2.907928e+05
  -6.605030e+05  -9.908479e+05
   5.394413e+05  -9.474720e+05
   5.125841e+05   3.285074e+05
  -7.156467e+05   8.405815e+05
  -1.625756e+06  -5.918293e+05
  -1.013103e+06  -2.675014e+06
   8.000778e+05  -3.198065e+06
   2.538877e+06  -1.539457e+06
   3.143752e+06   9.428403e+05
   2.287507e+06   2.510354e+06
   4.513256e+05   2.449280e+06
  -1.162666e+06   1.263210e+06
  -1.408545e+06   1.166766e+05
  -4.258387e+05  -4.729106e+04
   3.064932e+05   6.491515e+05
  -3.105014e+05   1.098017e+06
  -1.539133e+06   4.805133e+05
  -1.701797e+06  -6.816639e+05
  -3.783458e+05  -1.152690e+06
   9.939250e+05  -5.161145e+05
   8.509307e+05   4.012826e+05
  -6.925114e+05   5.903620e+05
  -2.023009e+06  -1.378611e+05
  -1.714707e+06  -1.213915e+06
   1.419769e+05  -1.863696e+06
   2.054163e+06  -1.519957e+06
   2.433640e+06  -2.367924e+05
   1.032111e+06   1.056735e+06
  -7.651640e+05   1.207848e+06
  -1.250089e+06   1.345805e+05
  -1.132181e+05  -8.774746e+05
   1.298023e+06  -6.014292e+05
   1.491801e+06   6.501629e+05
   3.630041e+05   1.433380e+06
  -8.924624e+05   9.321521e+05
  -1.124817e+06  -1.772512e+05
  -2.899312e+05  -6.523430e+05
   6.386683e+05  -6.193707e+04
   6.032140e+05   9.025754e+05
  -5.379550e+05   1.206108e+06
  -1.749592e+06   4.106295e+05
  -1.729489e+06  -9.495056e+05
  -3.067557e+05  -1.785732e+06
   1.232548e+06  -1.407172e+06
   1.487183e+06  -1.981271e+05
   4.639925e+05   7.433860e+05
  -5.629035e+05   7.149922e+05
  -6.013448e+05   4.789774e+04
   7.356619e+04  -4.086704e+05
   5.136740e+05  -2.628555e+05
   2.532895e+05   1.002271e+05
  -3.247268e+05   6.704130e+04
  -4.983481e+05  -4.880348e+05
   1.152132e+05  -1.016979e+06
   1.183317e+06  -7.846109e+05
   1.801424e+06   3.690174e+05
   1.242657e+06   1.697111e+06
  -2.225274e+05   2.120108e+06
  -1.441458e+06   1.275108e+06
  -1.543339e+06  -8.484631e+04
  -8.325322e+05  -8.665563e+05
  -2.830949e+05  -7.333565e+05
  -3.180350e+05  -2.856112e+05
  -4.454999e+05  -2.317487e+05
  -6.284821e+04  -5.979581e+05
   7.418872e+05  -7.944882e+05
   1.288859e+06  -3.171911e+05
   9.763534e+05   6.671908e+05
  -1.959187e+05   1.356047e+06
  -1.527130e+06   9.721177e+05
  -1.986534e+06  -4.347205e+05
  -1.012139e+06  -1.830190e+06
   8.300833e+05  -2.048705e+06
   2.172922e+06  -9.280157e+05
   2.085810e+06   5.235795e+05
   9.321467e+05   1.186150e+06
  -1.392142e+05   9.269062e+05
  -4.256595e+05   5.229013e+05
  -2.045339e+05   6.284138e+05
  -1.610153e+05   1.049372e+06
  -5.713037e+05   1.055090e+06
  -1.086836e+06   2.453439e+05
  -1.129585e+06  -9.639936e+05
  -4.480623e+05  -1.660488e+06
   5.724178e+05  -1.241549e+06
   1.129518e+06   3.554256e+03
   7.171793e+05   1.092666e+06
  -2.959748e+05   1.210776e+06
  -9.543896e+05   4.190825e+05
  -7.011022e+05  -5.041320e+05
   3.628042e+04  -8.805832e+05
   3.806331e+05  -6.986522e+05
   4.427293e+04  -4.053496e+05
  -3.518303e+05  -3.174352e+05
  -3.406696e+04  -3.419343e+05
   9.697823e+05  -1.845821e+05
   1.745782e+06   2.902700e+05
   1.397126e+06   8.897323e+05
   1.347408e+04   1.209845e+06
  -1.325097e+06   9.598177e+05
  -1.577575e+06   2.644656e+05
  -7.509659e+05  -3.636564e+05
   1.983622e+05  -4.581113e+05
   4.281795e+05  -5.794287e+04
   2.324868e+03   3.160884e+05
  -4.130122e+05   2.014147e+05
  -4.047330e+05  -3.048876e+05
  -1.500349e+05  -6.426417e+05
  -2.161691e+04  -4.158668e+05
  -1.324428e+05   1.200859e+05
  -2.983177e+05   2.953634e+05
  -2.488605e+05  -2.008137e+05
   1.676726e+05  -8.736695e+05
   7.936656e+05  -9.057871e+05
   1.116303e+06  -1.040802e+05
   6.618297e+05   8.022177e+05
  -3.708306e+05   9.330239e+05
  -1.054748e+06   2.260253e+05
  -6.200800e+05  -5.270023e+05
   6.079025e+05  -5.689756e+05
   1.413477e+06   7.708890e+04
   9.432459e+05   7.619076e+05
  -3.867232e+05   9.108225e+05
  -1.340867e+06   4.748290e+05
  -1.130860e+06  -1.489321e+05
  -1.374271e+05  -4.682884e+05
   5.681840e+05  -2.538376e+05
   3.160251e+05   2.425120e+05
  -5.406910e+05   4.179534e+05
  -1.021885e+06  -1.275541e+05
  -5.176431e+05  -1.056196e+06
   5.952978e+05  -1.451592e+06
   1.333732e+06  -7.125047e+05
   1.082650e+06   7.024236e+05
   1.406158e+05   1.584999e+06
  -6.747242e+05   1.151848e+06
  -8.239051e+05  -1.379723e+05
  -3.950627e+05  -1.053566e+06
   1.683616e+05  -8.785557e+05
   4.847588e+05  -8.549641e+04
   4.337196e+05   3.507869e+05
   1.743034e+05   1.395985e+05
   3.262051e+04  -9.567962e+04
   1.955378e+05   2.325783e+05
   4.157623e+05   8.435803e+05
   1.909970e+05   9.643355e+05
  -5.878853e+05   3.506486e+05
  -1.295196e+06  -4.336759e+05
  -1.150148e+06  -7.608419e+05
  -1.577073e+05  -6.090776e+05
   7.883684e+05  -3.461123e+05
   8.817111e+05  -1.554770e+05
   2.915737e+05   2.828548e+04
  -1.435361e+05   1.903876e+05
   4.091171e+02   2.046402e+05
   2.678105e+05   1.153242e+05
   2.633412e+04   1.176794e+05
  -6.246339e+05   1.741626e+05
  -9.110014e+05  -3.880534e+04
  -3.113445e+05  -5.985294e+05
   7.912749e+05  -9.889758e+05
   1.472367e+06  -6.099902e+05
   1.178704e+06   4.162872e+05
   2.009469e+05   1.241717e+06
  -6.838128e+05   1.181917e+06
  -9.243179e+05   4.284553e+05
  -5.726267e+05  -2.366411e+05
  -9.523653e+04  -3.131909e+05
   9.123880e+04  -2.983034e+04
  -6.371727e+04   4.033567e+04
  -2.761628e+05  -3.193377e+05
  -2.176043e+05  -7.151639e+05
   1.747724e+05  -5.833977e+05
   5.979777e+05   1.426749e+05
   6.067596e+05   8.660539e+05
   4.664411e+04   8.955026e+05
  -6.788103e+05   1.684260e+05
  -8.785780e+05  -6.770041e+05
  -2.655608e+05  -9.548899e+05
   6.372453e+05  -5.563343e+05
   9.608577e+05   9.082464e+04
   4.406878e+05   5.198080e+05
  -2.553139e+05   5.600021e+05
  -3.105464e+05   3.137121e+05
   2.438259e+05   2.872711e+04
   5.766591e+05  -1.740387e+04
   1.141815e+05   2.648529e+05
  -7.355441e+05   5.849581e+05
  -1.091610e+06   4.784874e+05
  -6.400283e+05  -1.401988e+05
   9.956275e+04  -7.480216e+05
   4.707518e+05  -7.335541e+05
   3.431157e+05  -1.190893e+05
   2.171712e+04   4.297406e+05
  -2.193912e+05   3.609673e+05
  -3.029792e+05  -1.603898e+05
  -2.087863e+05  -5.102702e+05
   5.586538e+04  -3.489845e+05
   3.386285e+05   5.653305e+04
   4.063664e+05   2.344814e+05
   2.134803e+05   7.265240e+04
  -1.849081e+04  -1.098900e+05
  -7.896461e+04   1.765836e+03
  -3.344466e+04   3.195627e+05
  -9.726672e+04   4.441780e+05
  -2.902926e+05   1.373477e+05
  -3.562262e+05  -3.633749e+05
  -8.150776e+04  -5.655818e+05
   3.731552e+05  -2.540536e+05
   5.576245e+05   2.691467e+05
   1.982638e+05   5.141441e+05
  -4.424577e+05   3.095412e+05
  -7.551027e+05  -8.906310e+04
  -4.059256e+05  -3.379612e+05
   2.604267e+05  -3.272833e+05
   5.525960e+05  -1.678561e+05
   1.997049e+05  -1.169219e+04
  -3.274141e+05   2.929898e+04
  -3.612323e+05  -9.182557e+04
   1.770785e+05  -2.643601e+05
   6.912156e+05  -2.176352e+05
