
 $NMID
 id='ANONYMOUS ', fmtdat='(2E16.6)'
 volume=1.0
 tramp=1.0
 $END
  -2.957552e+07   1.088520e+06
  -2.028193e+07  -1.382652e+07
  -2.592337e+05  -1.911468e+07
   1.279103e+07  -1.244693e+07
   1.073135e+07  -9.467828e+05
   5.702735e+05   5.394644e+06
  -5.997888e+06   2.487882e+06
  -4.399518e+06  -4.793643e+06
   1.465351e+06  -7.972947e+06
   5.514215e+06  -3.559213e+06
   4.820652e+06   3.664939e+06
   7.433148e+05   6.047829e+06
  -2.746984e+06   1.389510e+06
  -2.293670e+06  -4.886744e+06
   1.668020e+06  -5.892336e+06
   4.949663e+06  -5.830535e+05
   3.768535e+06   5.730944e+06
  -1.191459e+06   7.378889e+06
  -5.540026e+06   3.685929e+06
  -5.815029e+06  -1.444134e+06
  -2.711891e+06  -4.012678e+06
   1.668364e+05  -3.396134e+06
   1.592620e+05  -1.994829e+06
  -1.873352e+06  -2.213981e+06
  -2.484313e+06  -3.922783e+06
   6.354323e+05  -4.758721e+06
   5.619827e+06  -2.875495e+06
   7.725772e+06   8.318876e+05
   4.408579e+06   3.507468e+06
  -1.385205e+06   3.190262e+06
  -4.095546e+06   5.650360e+05
  -1.614672e+06  -1.918762e+06
   2.690991e+06  -2.160061e+06
   4.211402e+06   1.162201e+05
   2.063028e+06   3.111301e+06
  -8.881672e+05   4.114126e+06
  -1.879621e+06   1.943496e+06
  -8.455423e+05  -1.322712e+06
   4.384232e+05  -2.069589e+06
   5.021676e+05   6.094218e+05
  -7.352749e+05   3.331738e+06
  -2.112410e+06   2.356929e+06
  -2.079079e+06  -1.505418e+06
  -8.904716e+04  -3.616023e+06
   2.375459e+06  -1.258339e+06
   2.709287e+06   2.982964e+06
  -1.537609e+05   4.411772e+06
  -4.076176e+06   1.600052e+06
  -5.373880e+06  -2.544216e+06
  -2.479144e+06  -4.365216e+06
   2.254560e+06  -2.877521e+06
   4.699316e+06   1.250571e+05
   2.957161e+06   2.141746e+06
  -8.767523e+05   1.900109e+06
  -2.987446e+06   9.522654e+04
  -1.745034e+06  -1.323032e+06
   8.660472e+05  -9.817002e+05
   1.717518e+06   5.346510e+05
   6.832605e+04   1.379054e+06
  -1.786435e+06   5.527283e+05
  -1.336869e+06  -1.041186e+06
   1.189346e+06  -1.677895e+06
   3.054862e+06  -5.173732e+05
   1.999241e+06   1.787660e+06
  -1.396828e+06   3.621505e+06
  -4.378353e+06   3.404864e+06
  -4.747366e+06   7.775605e+05
  -2.743339e+06  -2.719647e+06
  -3.813409e+05  -4.646371e+06
   7.289930e+05  -3.972265e+06
   7.271858e+05  -2.116915e+06
   8.385501e+05  -1.133554e+06
   1.737870e+06  -1.187639e+06
   2.793970e+06  -6.762688e+05
   2.820104e+06   1.191895e+06
   1.337079e+06   2.945478e+06
  -8.905590e+05   2.540168e+06
  -2.359395e+06  -4.845673e+04
  -1.910012e+06  -2.607297e+06
   2.952483e+05  -2.954611e+06
   2.656222e+06  -9.736974e+05
   3.313939e+06   1.578920e+06
   1.855169e+06   2.876135e+06
  -2.450926e+05   2.510379e+06
  -1.230283e+06   1.477369e+06
  -1.036188e+06   9.423493e+05
  -1.183831e+06   1.052394e+06
  -2.587993e+06   9.127661e+05
  -4.033701e+06  -3.185368e+05
  -3.399905e+06  -2.382668e+06
  -2.784008e+05  -3.974273e+06
   3.179597e+06  -3.809627e+06
   4.281616e+06  -1.749490e+06
   2.453920e+06   9.177070e+05
  -3.026642e+05   2.337714e+06
  -1.495607e+06   1.622330e+06
  -4.847714e+05  -2.270236e+05
   1.212638e+06  -1.188034e+06
   1.708851e+06  -3.434237e+05
   6.406915e+05   1.059187e+06
  -6.784779e+05   1.110119e+06
  -7.735474e+05  -3.164951e+05
   4.922151e+05  -1.255450e+06
   1.842754e+06  -3.568224e+04
   1.800988e+06   2.540779e+06
  -1.738568e+04   3.925750e+06
  -2.532328e+06   2.570665e+06
  -3.953308e+06  -5.007192e+05
  -3.165795e+06  -2.855291e+06
  -7.518392e+05  -3.006591e+06
   1.372655e+06  -1.521041e+06
   1.672969e+06  -1.196982e+05
   4.910522e+05   4.011262e+04
  -3.821377e+05  -7.241155e+05
   2.457644e+05  -1.189578e+06
   1.600563e+06  -5.933688e+05
   1.900316e+06   5.871290e+05
   5.421542e+05   1.199406e+06
  -1.077959e+06   6.697769e+05
  -1.097050e+06  -4.058549e+05
   6.839321e+05  -8.800989e+05
   2.467902e+06  -1.499024e+05
   2.290916e+06   1.309064e+06
   5.875772e+04   2.324822e+06
  -2.320561e+06   1.973376e+06
  -2.811910e+06   4.132231e+05
  -1.207436e+06  -1.105753e+06
   7.837511e+05  -1.304394e+06
   1.301540e+06  -1.713958e+05
   9.363411e+04   9.337864e+05
  -1.436692e+06   7.123220e+05
  -1.742917e+06  -6.241081e+05
  -5.869818e+05  -1.609450e+06
   8.850770e+05  -1.217545e+06
   1.326190e+06   1.358432e+04
   4.633950e+05   6.842177e+05
  -6.576189e+05   1.166957e+05
  -6.931753e+05  -9.901974e+05
   6.019276e+05  -1.378982e+06
   1.999604e+06  -4.924724e+05
   1.993128e+06   1.044941e+06
   4.164807e+05   2.013236e+06
  -1.312520e+06   1.655508e+06
  -1.675518e+06   3.309662e+05
  -6.092069e+05  -8.059203e+05
   5.884563e+05  -8.725905e+05
   7.545967e+05  -7.503309e+04
  -7.093064e+03   5.887829e+05
  -6.705090e+05   4.490551e+05
  -4.901958e+05  -1.312004e+05
   2.642287e+05  -2.549960e+05
   6.456659e+05   4.013023e+05
   5.705822e+03   1.144247e+06
  -1.288768e+06   9.731590e+05
  -2.079418e+06  -3.336251e+05
  -1.484389e+06  -1.891824e+06
   1.757848e+05  -2.472023e+06
   1.621879e+06  -1.613501e+06
   1.868571e+06  -3.561708e+04
   1.132438e+06   1.044805e+06
   4.046702e+05   1.038682e+06
   2.734329e+05   4.480104e+05
   3.900986e+05   2.056973e+05
   7.390865e+04   6.008510e+05
  -7.794187e+05   9.659565e+05
  -1.494621e+06   4.876227e+05
  -1.248244e+06  -7.505354e+05
   1.050613e+05  -1.677079e+06
   1.730134e+06  -1.259812e+06
   2.349704e+06   3.986339e+05
   1.301969e+06   2.044116e+06
  -7.748674e+05   2.380883e+06
  -2.387339e+06   1.224464e+06
  -2.470696e+06  -4.095324e+05
  -1.273248e+06  -1.319623e+06
   3.688628e+04  -1.200893e+06
   5.581231e+05  -7.422780e+05
   3.800904e+05  -7.223471e+05
   2.320329e+05  -1.113907e+06
   5.920827e+05  -1.157726e+06
   1.190267e+06  -2.958352e+05
   1.312389e+06   1.080737e+06
   5.639330e+05   1.904593e+06
  -6.294976e+05   1.452942e+06
  -1.312477e+06   6.030188e+04
  -8.959934e+05  -1.181353e+06
   2.143788e+05  -1.395564e+06
   9.866539e+05  -6.126529e+05
   8.106805e+05   4.063270e+05
   9.149249e+04   9.296621e+05
  -2.817600e+05   8.332346e+05
   1.890236e+04   5.198926e+05
   3.936504e+05   3.828270e+05
   3.602235e+04   4.054695e+05
  -1.064866e+06   2.642979e+05
  -1.958061e+06  -2.448497e+05
  -1.640587e+06  -9.285109e+05
  -1.386087e+05  -1.329978e+06
   1.397676e+06  -1.124772e+06
   1.772229e+06  -4.213100e+05
   9.055436e+05   2.825925e+05
  -1.705488e+05   4.835559e+05
  -4.610626e+05   1.257189e+05
   2.126935e+04  -3.008714e+05
   5.048913e+05  -2.283853e+05
   4.643566e+05   3.404177e+05
   1.155961e+05   7.618051e+05
  -3.590740e+04   4.868968e+05
   1.559749e+05  -1.987770e+05
   3.932644e+05  -4.218433e+05
   3.091911e+05   2.133706e+05
  -2.019721e+05   1.042552e+06
  -8.807409e+05   1.056934e+06
  -1.191595e+06   1.017470e+05
  -6.965084e+05  -9.092627e+05
   3.989263e+05  -1.013668e+06
   1.157586e+06  -2.166074e+05
   7.215373e+05   6.141482e+05
  -6.607491e+05   6.939656e+05
  -1.670352e+06   7.463296e+03
  -1.224497e+06  -8.222258e+05
   3.330255e+05  -1.131780e+06
   1.552190e+06  -7.122408e+05
   1.385377e+06   6.947995e+04
   2.184843e+05   5.550340e+05
  -6.374288e+05   3.526873e+05
  -3.468491e+05  -2.446864e+05
   6.510182e+05  -4.626647e+05
   1.180135e+06   1.761450e+05
   5.587101e+05   1.239837e+06
  -7.333693e+05   1.669883e+06
  -1.567412e+06   8.108658e+05
  -1.273135e+06  -8.139660e+05
  -1.996634e+05  -1.855701e+06
   7.492753e+05  -1.402781e+06
   9.761212e+05   8.318597e+04
   5.462438e+05   1.204348e+06
  -9.861697e+04   1.064562e+06
  -5.398596e+05   1.435685e+05
  -5.661171e+05  -4.049684e+05
  -2.632289e+05  -1.734704e+05
  -1.314954e+04   1.292084e+05
  -1.538178e+05  -2.281479e+05
  -4.792935e+05  -9.529330e+05
  -3.199773e+05  -1.127375e+06
   5.957129e+05  -4.368760e+05
   1.532281e+06   4.671259e+05
   1.425966e+06   8.489464e+05
   2.095492e+05   6.903123e+05
  -9.633008e+05   4.208986e+05
  -1.042069e+06   2.290140e+05
  -2.921119e+05   8.001749e+03
   1.836633e+05  -2.201721e+05
  -7.311863e+04  -2.695680e+05
  -3.859257e+05  -1.632787e+05
  -6.122835e+03  -1.411687e+05
   7.981131e+05  -1.925886e+05
   1.050790e+06   4.578728e+04
   2.711326e+05   6.791959e+05
  -9.654506e+05   1.125260e+06
  -1.650191e+06   6.867864e+05
  -1.291186e+06  -5.010246e+05
  -2.316918e+05  -1.450660e+06
   7.511197e+05  -1.362349e+06
   1.064133e+06  -4.683575e+05
   6.808341e+05   3.020582e+05
   8.648986e+04   3.612801e+05
  -1.671233e+05  -3.186195e+03
   4.913814e+04  -9.491518e+04
   3.591356e+05   3.428642e+05
   2.952678e+05   8.244386e+05
  -2.061054e+05   6.659484e+05
  -7.117485e+05  -2.008400e+05
  -6.802745e+05  -1.041230e+06
   5.878496e+03  -1.033236e+06
   8.279920e+05  -1.431287e+05
   1.011130e+06   8.323235e+05
   2.800467e+05   1.101341e+06
  -7.425872e+05   6.069248e+05
  -1.083883e+06  -1.096952e+05
  -4.804366e+05  -5.511968e+05
   2.841013e+05  -5.930442e+05
   3.005785e+05  -3.530993e+05
  -3.444310e+05  -5.073032e+04
  -6.850959e+05   2.049127e+04
  -1.155744e+05  -2.943451e+05
   8.432256e+05  -6.997518e+05
   1.205199e+06  -6.178955e+05
   6.831049e+05   1.060987e+05
  -1.092800e+05   8.455963e+05
  -4.818346e+05   8.323837e+05
  -3.371772e+05   9.792775e+04
  -6.905008e+02  -5.243411e+05
   2.614781e+05  -3.896984e+05
   3.592392e+05   2.353331e+05
   2.414690e+05   5.912400e+05
  -7.590465e+04   3.565284e+05
  -3.921502e+05  -8.454070e+04
  -4.546268e+05  -2.285447e+05
  -2.470620e+05  -4.701338e+04
  -5.887665e+03   8.538380e+04
   8.770067e+04  -9.172795e+04
   1.087954e+05  -4.089711e+05
   2.162393e+05  -4.603483e+05
   3.728296e+05  -6.477887e+04
   3.478128e+05   4.843661e+05
   5.319250e+03   6.670903e+05
  -4.583923e+05   2.734778e+05
  -6.149915e+05  -3.427621e+05
  -2.092416e+05  -6.170556e+05
   4.929762e+05  -3.561530e+05
   8.452663e+05   1.195100e+05
   4.588581e+05   3.887835e+05
  -2.994001e+05   3.416101e+05
  -6.258175e+05   1.504167e+05
  -1.885554e+05   5.693819e+03
   4.416620e+05   4.302125e+03
   4.462341e+05   1.630079e+05
  -2.505164e+05   3.475581e+05
  -8.808813e+05   2.615624e+05
