
 $NMID
 id='ANONYMOUS ', fmtdat='(2E16.6)'
 volume=1.0
 tramp=1.0
 $END
   2.864666e+07   2.823866e+06
   1.661241e+07   1.633353e+07
  -3.112777e+06   1.795403e+07
  -1.336381e+07   9.237761e+06
  -9.222953e+06  -9.090140e+05
   4.698157e+05  -4.759496e+06
   5.354906e+06  -1.224228e+06
   3.036730e+06   4.689150e+06
  -2.158917e+06   6.609173e+06
  -5.215895e+06   2.369498e+06
  -4.083365e+06  -3.851507e+06
  -2.117086e+05  -5.604638e+06
   2.723129e+06  -1.147279e+06
   1.842811e+06   4.453932e+06
  -1.928526e+06   4.974804e+06
  -4.467256e+06  -1.386635e+05
  -2.741829e+06  -5.678293e+06
   1.994581e+06  -6.631115e+06
   5.677083e+06  -2.825147e+06
   5.514405e+06   2.023972e+06
   2.303308e+06   4.368566e+06
  -7.040129e+05   3.607560e+06
  -9.036363e+05   1.881002e+06
   1.143982e+06   1.666106e+06
   2.102791e+06   3.196947e+06
  -5.511787e+05   4.192204e+06
  -5.158360e+06   2.533403e+06
  -7.097150e+06  -1.029275e+06
  -3.972744e+06  -3.551526e+06
   1.338765e+06  -3.121964e+06
   3.783306e+06  -6.170396e+05
   1.648061e+06   1.624497e+06
  -2.089216e+06   1.904905e+06
  -3.559856e+06   3.118341e+04
  -1.904233e+06  -2.637002e+06
   7.241167e+05  -3.731380e+06
   1.899606e+06  -1.854460e+06
   1.073782e+06   1.308573e+06
  -3.886815e+05   2.187542e+06
  -7.120458e+05  -3.181475e+05
   5.466535e+05  -2.925654e+06
   1.958129e+06  -1.964528e+06
   1.643914e+06   1.597818e+06
  -5.509203e+05   3.178471e+06
  -2.570244e+06   5.360335e+05
  -2.129571e+06  -3.357054e+06
   8.752966e+05  -4.112421e+06
   4.058280e+06  -1.019138e+06
   4.608013e+06   2.758452e+06
   1.806465e+06   4.016873e+06
  -2.177722e+06   2.315263e+06
  -4.037343e+06  -4.566673e+05
  -2.338055e+06  -2.056245e+06
   1.017769e+06  -1.513947e+06
   2.680553e+06   2.718815e+05
   1.369098e+06   1.380855e+06
  -9.186886e+05   7.878662e+05
  -1.443840e+06  -5.757394e+05
   7.816011e+04  -1.023204e+06
   1.420149e+06  -1.223164e+05
   6.948858e+05   1.001640e+06
  -1.472802e+06   1.106803e+06
  -2.737681e+06  -6.323082e+04
  -1.508637e+06  -1.889663e+06
   1.549742e+06  -3.265370e+06
   4.164359e+06  -2.939024e+06
   4.443154e+06  -4.872574e+05
   2.470077e+06   2.708372e+06
   9.218911e+04   4.308713e+06
  -9.620461e+05   3.432719e+06
  -7.188600e+05   1.638506e+06
  -5.598836e+05   8.968353e+05
  -1.360705e+06   1.150329e+06
  -2.468540e+06   7.449628e+05
  -2.588489e+06  -9.869690e+05
  -1.259444e+06  -2.597312e+06
   7.268675e+05  -2.259010e+06
   2.015697e+06   6.873923e+03
   1.628417e+06   2.272922e+06
  -3.190363e+05   2.616692e+06
  -2.446676e+06   8.318304e+05
  -3.022739e+06  -1.570202e+06
  -1.590638e+06  -2.817280e+06
   4.491344e+05  -2.397014e+06
   1.362957e+06  -1.280017e+06
   1.083572e+06  -6.925226e+05
   1.102282e+06  -7.826275e+05
   2.295182e+06  -6.395058e+05
   3.522215e+06   4.853747e+05
   2.882476e+06   2.250192e+06
   8.787584e+04   3.502833e+06
  -2.927805e+06   3.255040e+06
  -3.846774e+06   1.452353e+06
  -2.201083e+06  -8.539297e+05
   2.692858e+05  -2.095263e+06
   1.357740e+06  -1.452560e+06
   4.471921e+05   2.033441e+05
  -1.103689e+06   1.031707e+06
  -1.539884e+06   2.326547e+05
  -5.437006e+05  -9.962802e+05
   6.155971e+05  -9.717263e+05
   6.263601e+05   2.745195e+05
  -4.743626e+05   9.697882e+05
  -1.484340e+06  -1.668803e+05
  -1.282983e+06  -2.268781e+06
   2.506529e+05  -3.232048e+06
   2.218726e+06  -1.963275e+06
   3.292945e+06   5.970573e+05
   2.608726e+06   2.507451e+06
   5.754498e+05   2.594238e+06
  -1.235572e+06   1.301376e+06
  -1.476210e+06   7.316179e+04
  -4.300689e+05  -5.181530e+04
   3.072661e+05   6.494736e+05
  -2.881953e+05   1.036424e+06
  -1.457518e+06   4.361905e+05
  -1.634386e+06  -6.235281e+05
  -3.982994e+05  -1.078589e+06
   9.690746e+05  -5.337204e+05
   9.241798e+05   3.754325e+05
  -6.089922e+05   6.959088e+05
  -2.094113e+06   3.283655e+04
  -1.908860e+06  -1.171600e+06
   1.824560e+04  -1.975526e+06
   2.068705e+06  -1.627682e+06
   2.466949e+06  -2.618731e+05
   1.010066e+06   1.029455e+06
  -7.669601e+05   1.128465e+06
  -1.179758e+06   8.301011e+04
  -4.797088e+04  -8.514937e+05
   1.297749e+06  -5.740941e+05
   1.493002e+06   6.195357e+05
   4.326233e+05   1.412125e+06
  -8.140964e+05   9.938251e+05
  -1.126195e+06  -7.966171e+04
  -3.513185e+05  -6.037515e+05
   5.904976e+05  -5.964922e+04
   5.755299e+05   9.048916e+05
  -5.760915e+05   1.201175e+06
  -1.781031e+06   3.730965e+05
  -1.723346e+06  -9.886905e+05
  -2.909716e+05  -1.787332e+06
   1.220438e+06  -1.398360e+06
   1.476733e+06  -2.181751e+05
   4.912101e+05   7.237690e+05
  -5.459675e+05   7.332251e+05
  -6.531529e+05   5.481883e+04
   1.263950e+04  -4.808069e+05
   5.587678e+05  -3.666206e+05
   3.942023e+05   8.425799e+04
  -2.245236e+05   1.598373e+05
  -5.115919e+05  -3.892227e+05
   5.966242e+04  -9.880528e+05
   1.166612e+06  -7.955570e+05
   1.809562e+06   3.696676e+05
   1.236667e+06   1.715417e+06
  -2.333936e+05   2.158527e+06
  -1.455991e+06   1.345542e+06
  -1.607479e+06  -2.718133e+04
  -9.484455e+05  -9.094779e+05
  -3.548645e+05  -8.750895e+05
  -2.729420e+05  -4.001593e+05
  -3.504537e+05  -2.309005e+05
  -2.968656e+04  -5.503830e+05
   7.200988e+05  -8.067088e+05
   1.307389e+06  -3.678938e+05
   1.054980e+06   6.756485e+05
  -1.386621e+05   1.432044e+06
  -1.540968e+06   1.032580e+06
  -2.033315e+06  -4.246356e+05
  -1.054582e+06  -1.827587e+06
   7.823613e+05  -2.041659e+06
   2.135046e+06  -9.617838e+05
   2.119384e+06   4.541771e+05
   1.040481e+06   1.169186e+06
  -6.183286e+04   1.008703e+06
  -4.711217e+05   6.279457e+05
  -3.280940e+05   6.593440e+05
  -2.470635e+05   1.007310e+06
  -5.809319e+05   1.004872e+06
  -1.070224e+06   2.130118e+05
  -1.122313e+06  -9.956233e+05
  -4.349415e+05  -1.691554e+06
   5.979865e+05  -1.256811e+06
   1.146568e+06  -6.798253e+03
   7.296200e+05   1.069964e+06
  -2.529048e+05   1.201309e+06
  -8.841319e+05   4.650929e+05
  -6.680918e+05  -4.154013e+05
  -1.101936e+04  -8.130724e+05
   2.969766e+05  -6.902705e+05
   1.461829e+02  -4.351036e+05
  -3.434586e+05  -3.486012e+05
  -2.369458e+04  -3.580060e+05
   9.483905e+05  -1.829944e+05
   1.716334e+06   2.996034e+05
   1.398671e+06   8.789081e+05
   4.810961e+04   1.166450e+06
  -1.288480e+06   9.249935e+05
  -1.563154e+06   2.911086e+05
  -7.561829e+05  -2.931510e+05
   1.849869e+05  -4.192997e+05
   4.050408e+05  -8.000376e+04
  -3.591838e+04   2.830109e+05
  -4.479611e+05   1.948869e+05
  -3.993345e+05  -3.164821e+05
  -9.691671e+04  -6.849182e+05
   3.164886e+04  -4.410233e+05
  -1.299453e+05   1.603250e+05
  -3.323898e+05   3.567141e+05
  -2.592560e+05  -1.959884e+05
   1.981150e+05  -9.111993e+05
   8.118866e+05  -9.005806e+05
   1.079008e+06  -4.051004e+04
   6.005855e+05   8.403588e+05
  -3.994163e+05   8.914442e+05
  -1.050361e+06   1.558864e+05
  -6.212169e+05  -5.602410e+05
   6.031868e+05  -5.795043e+05
   1.448813e+06   4.961910e+04
   1.021357e+06   7.426990e+05
  -3.304222e+05   9.516584e+05
  -1.355932e+06   5.561186e+05
  -1.185429e+06  -1.022736e+05
  -1.693733e+05  -4.810957e+05
   5.640693e+05  -2.788357e+05
   2.960051e+05   2.364500e+05
  -5.870412e+05   4.008405e+05
  -1.044486e+06  -1.820920e+05
  -4.721024e+05  -1.115463e+06
   6.860096e+05  -1.467157e+06
   1.404761e+06  -6.822768e+05
   1.099390e+06   7.487107e+05
   1.241372e+05   1.632919e+06
  -6.908982e+05   1.199079e+06
  -8.396078e+05  -1.097212e+05
  -4.299068e+05  -1.062739e+06
   1.242223e+05  -9.082394e+05
   4.754860e+05  -9.924723e+04
   4.766217e+05   3.595302e+05
   2.184580e+05   1.449520e+05
   1.596671e+04  -1.050058e+05
   1.352804e+05   2.290104e+05
   3.934494e+05   8.596950e+05
   2.356943e+05   9.814818e+05
  -5.479471e+05   3.461179e+05
  -1.327475e+06  -4.533859e+05
  -1.211998e+06  -7.742552e+05
  -1.583333e+05  -6.126287e+05
   8.481104e+05  -3.529326e+05
   9.122022e+05  -1.695017e+05
   2.585278e+05   1.827387e+04
  -1.647688e+05   1.933739e+05
   5.013676e+04   2.183749e+05
   3.280794e+05   1.326694e+05
   7.445550e+03   1.290512e+05
  -6.975044e+05   1.664918e+05
  -9.280409e+05  -6.908842e+04
  -2.359624e+05  -6.288199e+05
   8.774383e+05  -9.826849e+05
   1.490881e+06  -5.550732e+05
   1.145712e+06   4.888342e+05
   1.689944e+05   1.285408e+06
  -7.090407e+05   1.176147e+06
  -9.595890e+05   3.895568e+05
  -5.958782e+05  -2.757161e+05
  -7.114976e+04  -3.267443e+05
   1.435335e+05  -1.309138e+04
  -4.054766e+04   6.792898e+04
  -2.947812e+05  -3.093662e+05
  -2.297056e+05  -7.277329e+05
   2.010749e+05  -5.854924e+05
   6.271908e+05   1.853069e+05
   5.857515e+05   9.351585e+05
  -2.177100e+04   9.260113e+05
  -7.380598e+05   1.234179e+05
  -8.825568e+05  -7.540618e+05
  -2.225335e+05  -9.870496e+05
   6.791228e+05  -5.246743e+05
   9.611568e+05   1.309274e+05
   4.048640e+05   5.159055e+05
  -2.807069e+05   5.247060e+05
  -2.885716e+05   2.934492e+05
   2.945137e+05   3.745586e+04
   6.023086e+05  -3.477669e+03
   9.490335e+04   2.690276e+05
  -7.604534e+05   5.895817e+05
  -1.079107e+06   4.889228e+05
  -6.000704e+05  -1.351319e+05
   1.245516e+05  -7.468535e+05
   4.637412e+05  -7.124724e+05
   3.206475e+05  -7.262186e+04
  -2.921702e+03   4.631894e+05
  -2.458898e+05   3.443938e+05
  -3.199448e+05  -2.060047e+05
  -1.977266e+05  -5.287228e+05
   8.440942e+04  -3.245922e+05
   3.482113e+05   8.138602e+04
   3.895701e+05   2.257385e+05
   2.091896e+05   5.537275e+04
   1.099638e+04  -8.920506e+04
  -6.168690e+04   6.042317e+04
  -8.509442e+04   3.656185e+05
  -1.944827e+05   4.333595e+05
  -3.438623e+05   7.344667e+04
  -3.204377e+05  -4.384216e+05
  -6.895039e+03  -6.059134e+05
   4.114738e+05  -2.389962e+05
   5.467366e+05   3.195863e+05
   1.769864e+05   5.507462e+05
  -4.492327e+05   2.978668e+05
  -7.526789e+05  -1.310166e+05
  -3.966629e+05  -3.585243e+05
   2.819010e+05  -3.006537e+05
   5.688955e+05  -1.218365e+05
   1.767127e+05   7.484088e+03
  -3.859461e+05   5.133083e+03
  -3.964132e+05  -1.389111e+05
   2.129247e+05  -3.019104e+05
   7.674296e+05  -2.227951e+05
