
 $NMID
 id='ANONYMOUS ', fmtdat='(2E16.6)'
 volume=1.0
 tramp=1.0
 $END
   2.220446e+07  -1.302753e+06
   1.558700e+07   1.075046e+07
   1.715118e+05   1.482414e+07
  -9.959407e+06   9.135832e+06
  -8.188963e+06   1.670354e+05
  -2.403998e+05  -4.121910e+06
   4.560004e+06  -1.469445e+06
   3.002050e+06   3.780090e+06
  -1.444164e+06   5.700118e+06
  -4.195130e+06   2.396871e+06
  -3.485276e+06  -2.637709e+06
  -5.400046e+05  -4.282625e+06
   1.868133e+06  -1.053905e+06
   1.462397e+06   3.370372e+06
  -1.406491e+06   4.111435e+06
  -3.707509e+06   2.903426e+05
  -2.732049e+06  -4.304278e+06
   9.367956e+05  -5.508925e+06
   4.100719e+06  -2.835643e+06
   4.363740e+06   8.798359e+05
   2.251793e+06   2.847706e+06
   1.656494e+05   2.655073e+06
  -1.176343e+05   1.812755e+06
   1.001186e+06   1.823224e+06
   1.403232e+06   2.719366e+06
  -5.407186e+05   3.147471e+06
  -3.818203e+06   1.895483e+06
  -5.295270e+06  -5.751457e+05
  -3.116181e+06  -2.377137e+06
   7.964503e+05  -2.133779e+06
   2.630790e+06  -3.726709e+05
   9.785035e+05   1.160998e+06
  -1.810963e+06   1.190714e+06
  -2.703199e+06  -2.465204e+05
  -1.278069e+06  -2.039011e+06
   5.651350e+05  -2.692917e+06
   1.201801e+06  -1.440075e+06
   6.515674e+05   6.742557e+05
  -1.060394e+05   1.378242e+06
  -2.081005e+05  -2.357327e+05
   5.610190e+05  -2.135169e+06
   1.538042e+06  -1.578654e+06
   1.499038e+06   1.166052e+06
  -8.445404e+04   2.770520e+06
  -1.993747e+06   1.014052e+06
  -2.135762e+06  -2.266949e+06
   1.519013e+05  -3.395585e+06
   3.032016e+06  -1.210895e+06
   3.812212e+06   1.946284e+06
   1.620487e+06   3.203727e+06
  -1.698819e+06   1.953648e+06
  -3.310508e+06  -2.734270e+05
  -2.011729e+06  -1.637286e+06
   7.068473e+05  -1.353074e+06
   2.179296e+06  -5.897180e+03
   1.247850e+06   1.001638e+06
  -6.379096e+05   7.004201e+05
  -1.177988e+06  -4.284094e+05
   1.006944e+05  -9.623063e+05
   1.387390e+06  -2.082610e+05
   8.644806e+05   9.962553e+05
  -1.091602e+06   1.302031e+06
  -2.365125e+06   2.659872e+05
  -1.466046e+06  -1.414666e+06
   9.899719e+05  -2.601813e+06
   3.059941e+06  -2.378175e+06
   3.331514e+06  -5.668108e+05
   1.972910e+06   1.863376e+06
   2.779505e+05   3.265468e+06
  -6.190478e+05   2.820545e+06
  -6.598866e+05   1.442868e+06
  -6.345576e+05   6.467949e+05
  -1.124946e+06   6.666613e+05
  -1.797855e+06   3.912108e+05
  -1.816085e+06  -8.003202e+05
  -8.223456e+05  -1.933099e+06
   6.276113e+05  -1.619254e+06
   1.523873e+06   1.255330e+05
   1.180665e+06   1.796384e+06
  -2.548791e+05   1.982641e+06
  -1.803392e+06   6.498622e+05
  -2.288089e+06  -1.069174e+06
  -1.351919e+06  -2.001878e+06
   1.149511e+05  -1.830043e+06
   8.888814e+05  -1.138835e+06
   8.166126e+05  -7.094817e+05
   9.120995e+05  -7.021553e+05
   1.852298e+06  -5.408393e+05
   2.809499e+06   3.452688e+05
   2.298367e+06   1.747485e+06
   8.062535e+04   2.748749e+06
  -2.281109e+06   2.534029e+06
  -2.948381e+06   1.109523e+06
  -1.635111e+06  -6.396146e+05
   2.330335e+05  -1.545971e+06
   1.006439e+06  -1.069081e+06
   3.063040e+05   1.436318e+05
  -8.425789e+05   7.715985e+05
  -1.173740e+06   2.011813e+05
  -4.324577e+05  -7.255606e+05
   4.678218e+05  -7.177249e+05
   4.806415e+05   2.626315e+05
  -4.483590e+05   8.207672e+05
  -1.328903e+06  -1.378179e+05
  -1.127387e+06  -1.923369e+06
   2.582973e+05  -2.729680e+06
   1.926285e+06  -1.617150e+06
   2.703601e+06   5.460399e+05
   2.027691e+06   2.073995e+06
   3.939239e+05   2.065786e+06
  -9.722878e+05   9.999418e+05
  -1.133246e+06   4.801837e+04
  -3.359656e+05  -3.614734e+04
   2.363385e+05   5.079156e+05
  -2.087190e+05   8.206462e+05
  -1.129627e+06   3.715777e+05
  -1.297674e+06  -4.656521e+05
  -3.296936e+05  -8.456026e+05
   7.634037e+05  -4.094902e+05
   7.107941e+05   3.299812e+05
  -5.401267e+05   5.595116e+05
  -1.704211e+06  -2.710749e+04
  -1.491695e+06  -9.984654e+05
   6.988275e+04  -1.583041e+06
   1.658877e+06  -1.262519e+06
   1.937583e+06  -1.986618e+05
   8.054138e+05   7.926866e+05
  -5.654427e+05   8.886069e+05
  -9.055729e+05   1.000610e+05
  -5.111742e+04  -6.390501e+05
   1.003832e+06  -4.489440e+05
   1.176536e+06   4.861482e+05
   3.397013e+05   1.126023e+06
  -6.614195e+05   7.935887e+05
  -9.062878e+05  -7.300619e+04
  -2.762758e+05  -4.905702e+05
   4.698816e+05  -4.892871e+04
   4.464538e+05   7.117378e+05
  -4.577625e+05   9.327053e+05
  -1.389219e+06   2.830118e+05
  -1.342200e+06  -7.713513e+05
  -2.318770e+05  -1.396119e+06
   9.500333e+05  -1.103974e+06
   1.159642e+06  -1.805522e+05
   3.862346e+05   5.675730e+05
  -4.319218e+05   5.695082e+05
  -4.976894e+05   2.144125e+04
   5.474569e+04  -3.854782e+05
   4.760693e+05  -2.502916e+05
   2.942180e+05   1.263798e+05
  -2.323129e+05   1.519012e+05
  -4.441387e+05  -3.285495e+05
   4.307274e+04  -8.090600e+05
   9.285025e+05  -6.356051e+05
   1.426980e+06   2.930905e+05
   9.715132e+05   1.345618e+06
  -1.885967e+05   1.689391e+06
  -1.160243e+06   1.047218e+06
  -1.274434e+06  -4.332404e+04
  -7.222672e+05  -7.407498e+05
  -2.295158e+05  -6.888839e+05
  -1.881921e+05  -2.834413e+05
  -2.949061e+05  -1.530733e+05
  -4.924474e+04  -4.368799e+05
   5.754457e+05  -6.518952e+05
   1.054573e+06  -2.830372e+05
   8.286404e+05   5.604870e+05
  -1.401618e+05   1.145457e+06
  -1.237625e+06   8.066758e+05
  -1.603054e+06  -3.500862e+05
  -8.255440e+05  -1.453718e+06
   6.207793e+05  -1.623689e+06
   1.695048e+06  -7.659853e+05
   1.683755e+06   3.741003e+05
   8.088110e+05   9.536143e+05
  -8.533316e+04   8.058431e+05
  -3.971595e+05   4.648855e+05
  -2.478228e+05   4.746779e+05
  -1.639805e+05   7.708843e+05
  -4.357620e+05   7.958798e+05
  -8.331355e+05   1.798558e+05
  -8.751583e+05  -7.740643e+05
  -3.361733e+05  -1.320363e+06
   4.692471e+05  -9.773638e+05
   9.010139e+05   1.965978e+03
   5.793601e+05   8.492279e+05
  -2.014836e+05   9.604740e+05
  -7.212470e+05   3.810047e+05
  -5.603700e+05  -3.314350e+05
  -2.269298e+04  -6.668315e+05
   2.456561e+05  -5.706323e+05
   1.549892e+04  -3.496187e+05
  -2.665535e+05  -2.661647e+05
  -1.840146e+04  -2.787026e+05
   7.527506e+05  -1.550283e+05
   1.359230e+06   2.229291e+05
   1.106515e+06   6.940631e+05
   4.361783e+04   9.368322e+05
  -1.010548e+06   7.465179e+05
  -1.239084e+06   2.309489e+05
  -6.145762e+05  -2.436874e+05
   1.355655e+05  -3.425243e+05
   3.308416e+05  -6.755779e+04
  -7.291009e+03   2.196324e+05
  -3.421336e+05   1.493808e+05
  -3.149757e+05  -2.423332e+05
  -7.825001e+04  -5.159789e+05
   2.052027e+04  -3.264932e+05
  -1.156164e+05   1.221281e+05
  -2.770867e+05   2.600323e+05
  -2.082686e+05  -1.631832e+05
   1.607358e+05  -7.087166e+05
   6.387607e+05  -7.087020e+05
   8.433375e+05  -5.456193e+04
   4.761565e+05   6.384785e+05
  -2.966430e+05   7.041232e+05
  -8.090356e+05   1.408078e+05
  -4.821778e+05  -4.335571e+05
   4.771053e+05  -4.588117e+05
   1.144126e+06   4.924713e+04
   7.996316e+05   6.096294e+05
  -2.798900e+05   7.617649e+05
  -1.089286e+06   4.227996e+05
  -9.386792e+05  -1.034159e+05
  -1.244904e+05  -3.857756e+05
   4.517340e+05  -2.157970e+05
   2.375177e+05   1.820669e+05
  -4.495203e+05   3.057070e+05
  -8.030389e+05  -1.390721e+05
  -3.653069e+05  -8.536023e+05
   5.236604e+05  -1.128183e+06
   1.081914e+06  -5.272226e+05
   8.520449e+05   5.818360e+05
   9.248349e+04   1.272372e+06
  -5.519227e+05   9.333983e+05
  -6.677333e+05  -9.498682e+04
  -3.311269e+05  -8.460252e+05
   1.153572e+05  -7.229391e+05
   3.818202e+05  -7.765884e+04
   3.648048e+05   2.943772e+05
   1.608045e+05   1.259751e+05
   1.767321e+04  -8.519951e+04
   1.197672e+05   1.641880e+05
   3.109825e+05   6.666779e+05
   1.734043e+05   7.811126e+05
  -4.376118e+05   2.857119e+05
  -1.034744e+06  -3.591855e+05
  -9.409547e+05  -6.223468e+05
  -1.255607e+05  -4.828946e+05
   6.575171e+05  -2.625760e+05
   7.168665e+05  -1.241993e+05
   2.139686e+05   6.392748e+03
  -1.250029e+05   1.456358e+05
   2.714574e+04   1.835711e+05
   2.419576e+05   1.190433e+05
   5.697298e+03   9.547862e+04
  -5.335941e+05   1.133500e+05
  -7.197517e+05  -5.227962e+04
  -1.938028e+05  -4.678836e+05
   6.700362e+05  -7.528571e+05
   1.154519e+06  -4.467051e+05
   8.909123e+05   3.583965e+05
   1.305143e+05   9.954299e+05
  -5.506338e+05   9.236051e+05
  -7.390184e+05   3.067616e+05
  -4.548168e+05  -2.162670e+05
  -5.679901e+04  -2.488486e+05
   9.833704e+04   1.001857e+03
  -4.469460e+04   5.464891e+04
  -2.318150e+05  -2.513532e+05
  -1.751042e+05  -5.743397e+05
   1.535457e+05  -4.528711e+05
   4.760161e+05   1.456923e+05
   4.470721e+05   7.157691e+05
  -1.004224e+04   7.034683e+05
  -5.559609e+05   9.113327e+04
  -6.744950e+05  -5.773693e+05
  -1.775978e+05  -7.588711e+05
   5.168733e+05  -4.101481e+05
   7.472121e+05   9.339053e+04
   3.285403e+05   3.976655e+05
  -2.062609e+05   4.146927e+05
  -2.267165e+05   2.413076e+05
   2.194921e+05   4.027134e+04
   4.663361e+05   1.723835e+02
   7.861413e+04   2.058551e+05
  -5.942794e+05   4.583116e+05
  -8.550360e+05   3.888723e+05
  -4.830059e+05  -9.481071e+04
   9.086930e+04  -5.818939e+05
   3.594945e+05  -5.691366e+05
   2.445448e+05  -7.423786e+04
  -5.257114e+03   3.513938e+05
  -1.830368e+05   2.684791e+05
  -2.366271e+05  -1.568031e+05
  -1.542310e+05  -4.095936e+05
   5.302738e+04  -2.532333e+05
   2.654775e+05   6.093937e+04
   3.133319e+05   1.741013e+05
   1.709035e+05   4.537876e+04
  -3.213487e+03  -6.644624e+04
  -6.856219e+04   4.039096e+04
  -6.855486e+04   2.641411e+05
  -1.289010e+05   3.168399e+05
  -2.415171e+05   5.706438e+04
  -2.399594e+05  -3.189744e+05
  -1.114924e+04  -4.483299e+05
   3.117861e+05  -1.818772e+05
   4.201573e+05   2.373405e+05
   1.348649e+05   4.206260e+05
  -3.491865e+05   2.364528e+05
  -5.825335e+05  -9.249388e+04
  -3.094813e+05  -2.749577e+05
   2.095208e+05  -2.368383e+05
   4.313850e+05  -1.022527e+05
   1.385383e+05  -5.524722e+03
  -2.846978e+05  -7.093692e+03
  -2.915770e+05  -1.085664e+05
   1.703095e+05  -2.199729e+05
   5.896796e+05  -1.544962e+05
