
 $NMID
 id='ANONYMOUS ', fmtdat='(2E16.6)'
 volume=1.0
 tramp=1.0
 $END
   6.309005e+07  -4.156232e+05
   3.778122e+07   3.946267e+07
  -8.697065e+06   4.285420e+07
  -3.094209e+07   1.582305e+07
  -1.805793e+07  -8.450212e+06
   4.003853e+06  -1.034736e+07
   1.080109e+07   1.796047e+06
   2.690361e+06   1.090299e+07
  -7.085303e+06   9.942819e+06
  -1.064906e+07   1.909160e+06
  -7.712323e+06  -6.769694e+06
  -9.938664e+05  -9.349995e+06
   4.327886e+06  -3.147257e+06
   2.899716e+06   5.681301e+06
  -4.140304e+06   6.933224e+06
  -8.658985e+06  -1.620387e+06
  -4.844134e+06  -1.128433e+07
   4.219322e+06  -1.302983e+07
   1.120046e+07  -6.633423e+06
   1.212072e+07   2.106336e+06
   7.648273e+06   8.318678e+06
   9.450605e+05   9.904714e+06
  -3.468828e+06   6.999426e+06
  -2.539599e+06   2.829580e+06
   9.932842e+05   1.857199e+06
   5.377871e+05   4.236031e+06
  -5.489934e+06   4.960025e+06
  -1.037648e+07   9.353457e+05
  -7.854289e+06  -4.285812e+06
  -6.293435e+05  -5.615886e+06
   3.775064e+06  -3.124489e+06
   2.767747e+06  -3.983179e+05
  -2.038650e+05   8.252820e+05
  -2.025122e+06   7.218257e+05
  -2.378472e+06  -1.137876e+06
  -1.100206e+06  -4.068033e+06
   1.810287e+06  -4.380163e+06
   3.808236e+06  -1.259776e+05
   2.203123e+06   4.059705e+06
  -8.702739e+05   2.455302e+06
  -6.276537e+05  -2.413779e+06
   2.556906e+06  -2.430794e+06
   2.637184e+06   3.562140e+06
  -2.878566e+06   6.798399e+06
  -7.980046e+06   1.058990e+06
  -5.795592e+06  -7.816008e+06
   2.194764e+06  -9.567308e+06
   8.254976e+06  -2.740635e+06
   7.544389e+06   4.829911e+06
   1.902177e+06   6.495609e+06
  -3.757685e+06   2.836605e+06
  -5.561176e+06  -1.724906e+06
  -2.472718e+06  -3.791164e+06
   2.735045e+06  -2.352366e+06
   4.966223e+06   1.070412e+06
   2.089447e+06   3.029977e+06
  -1.910045e+06   1.509741e+06
  -1.823797e+06  -1.114427e+06
   1.582073e+06  -8.735853e+05
   2.679672e+06   2.178889e+06
  -9.523353e+05   3.956195e+06
  -5.359902e+06   2.040116e+06
  -5.881203e+06  -1.662912e+06
  -2.501119e+06  -4.462893e+06
   1.863438e+06  -5.784686e+06
   5.237698e+06  -5.379669e+06
   6.669854e+06  -2.089261e+06
   5.141418e+06   3.296584e+06
   1.183257e+06   6.671842e+06
  -2.042339e+06   5.114207e+06
  -1.965547e+06   1.132652e+06
  -3.002221e+04  -4.812193e+05
   3.604584e+05   1.024797e+06
  -1.450580e+06   2.121259e+06
  -2.960335e+06   5.625681e+05
  -2.304741e+06  -1.808925e+06
  -2.445990e+05  -2.194238e+06
   1.486045e+06  -3.150569e+05
   1.774916e+06   2.032628e+06
   1.237303e+05   3.068572e+06
  -2.883186e+06   1.905685e+06
  -4.898605e+06  -1.098013e+06
  -3.659755e+06  -4.028281e+06
  -5.502523e+04  -4.708316e+06
   2.519656e+06  -3.075083e+06
   2.513650e+06  -1.243459e+06
   2.002672e+06  -6.752861e+05
   3.115846e+06  -4.824465e+05
   4.607754e+06   7.854355e+05
   3.711931e+06   2.887225e+06
   1.952985e+05   4.340380e+06
  -3.279774e+06   4.167717e+06
  -4.313832e+06   2.379559e+06
  -2.839093e+06  -2.991113e+05
  -4.433333e+05  -2.330541e+06
   1.047502e+06  -2.115877e+06
   6.104887e+05  -7.405724e+03
  -1.093105e+06   1.421742e+06
  -2.028869e+06   4.650447e+05
  -1.040624e+06  -1.276984e+06
   4.901914e+05  -1.184898e+06
   3.935628e+05   4.055692e+05
  -1.196451e+06   6.397693e+05
  -1.947654e+06  -1.552649e+06
  -5.173673e+05  -3.788668e+06
   1.875460e+06  -3.479256e+06
   3.348825e+06  -9.486929e+05
   3.357130e+06   1.607699e+06
   2.276603e+06   2.811182e+06
   4.808731e+05   2.647647e+06
  -1.246196e+06   1.554083e+06
  -1.636551e+06   2.944931e+05
  -5.191061e+05  -3.940605e+04
   3.866127e+05   7.886111e+05
  -4.439545e+05   1.444914e+06
  -2.054633e+06   6.376686e+05
  -2.177217e+06  -9.555409e+05
  -3.975838e+05  -1.523160e+06
   1.238973e+06  -6.025013e+05
   9.012665e+05   4.678723e+05
  -9.096164e+05   4.869327e+05
  -2.231654e+06  -3.851353e+05
  -1.747589e+06  -1.392116e+06
   2.797371e+05  -1.998794e+06
   2.387192e+06  -1.719246e+06
   2.902341e+06  -3.137741e+05
   1.304754e+06   1.341376e+06
  -9.697884e+05   1.637688e+06
  -1.692731e+06   2.293952e+05
  -2.528744e+05  -1.166659e+06
   1.600013e+06  -8.096787e+05
   1.816669e+06   8.230580e+05
   3.327278e+05   1.738315e+06
  -1.171420e+06   9.936628e+05
  -1.309614e+06  -3.681921e+05
  -2.244146e+05  -8.358024e+05
   8.673661e+05  -5.708538e+04
   8.055965e+05   1.110127e+06
  -5.733223e+05   1.523050e+06
  -2.107737e+06   6.235329e+05
  -2.175905e+06  -1.067615e+06
  -4.374782e+05  -2.192078e+06
   1.513535e+06  -1.754589e+06
   1.824466e+06  -2.270902e+05
   5.210025e+05   9.181117e+05
  -6.931529e+05   8.427538e+05
  -6.392645e+05   9.586105e+04
   1.381572e+05  -3.290380e+05
   4.687795e+05  -1.792600e+05
   4.961959e+04   4.433741e+04
  -5.077984e+05  -1.503503e+05
  -5.238886e+05  -7.559669e+05
   2.435009e+05  -1.259643e+06
   1.458502e+06  -9.506737e+05
   2.200474e+06   4.135590e+05
   1.577094e+06   2.030118e+06
  -1.880320e+05   2.542855e+06
  -1.667831e+06   1.474735e+06
  -1.738451e+06  -1.325615e+05
  -8.618018e+05  -8.882223e+05
  -3.353073e+05  -5.913493e+05
  -5.575616e+05  -1.742814e+05
  -7.177270e+05  -3.467550e+05
  -1.111667e+05  -8.404480e+05
   9.260764e+05  -9.490698e+05
   1.504876e+06  -3.338294e+05
   1.074436e+06   7.296382e+05
  -2.636988e+05   1.489268e+06
  -1.786682e+06   1.120561e+06
  -2.352218e+06  -4.821144e+05
  -1.195897e+06  -2.199127e+06
   1.070591e+06  -2.503776e+06
   2.689689e+06  -1.089068e+06
   2.456638e+06   7.032569e+05
   9.597167e+05   1.389104e+06
  -2.320856e+05   9.377307e+05
  -3.559433e+05   4.951825e+05
   1.867203e+03   8.085864e+05
  -5.657671e+04   1.426278e+06
  -7.008326e+05   1.399740e+06
  -1.380796e+06   3.654661e+05
  -1.437675e+06  -1.110738e+06
  -6.246762e+05  -1.981878e+06
   6.230221e+05  -1.523658e+06
   1.346796e+06  -9.999068e+03
   8.600753e+05   1.357670e+06
  -4.243695e+05   1.475023e+06
  -1.253481e+06   3.983134e+05
  -8.624355e+05  -7.866175e+05
   1.615813e+05  -1.165307e+06
   6.082864e+05  -8.172685e+05
   1.035043e+05  -4.131094e+05
  -4.742012e+05  -3.341329e+05
  -7.748915e+04  -3.977595e+05
   1.224689e+06  -2.303879e+05
   2.203861e+06   3.301577e+05
   1.717612e+06   1.083904e+06
  -5.471508e+04   1.534159e+06
  -1.697189e+06   1.235034e+06
  -1.935331e+06   2.947832e+05
  -8.666780e+05  -5.532680e+05
   2.869660e+05  -6.240395e+05
   5.488350e+05  -2.264574e+04
   5.178882e+04   4.740148e+05
  -4.461179e+05   2.912063e+05
  -5.196845e+05  -3.502873e+05
  -3.198311e+05  -7.492211e+05
  -1.463689e+05  -5.037033e+05
  -1.356314e+05   7.636670e+04
  -2.555101e+05   2.831480e+05
  -2.860563e+05  -2.430085e+05
   1.096088e+05  -1.029361e+06
   9.284524e+05  -1.146176e+06
   1.478288e+06  -2.322531e+05
   9.611924e+05   9.487131e+05
  -4.178266e+05   1.244411e+06
  -1.347739e+06   4.163890e+05
  -7.915887e+05  -5.756227e+05
   7.360147e+05  -6.862301e+05
   1.651839e+06   9.260639e+04
   1.017581e+06   8.947974e+05
  -5.281528e+05   1.010300e+06
  -1.549755e+06   4.728001e+05
  -1.258423e+06  -2.055506e+05
  -1.295436e+05  -5.257493e+05
   6.809891e+05  -2.740888e+05
   4.226321e+05   3.167395e+05
  -5.857207e+05   5.857014e+05
  -1.254420e+06  -2.537685e+04
  -7.767905e+05  -1.213811e+06
   5.324129e+05  -1.828422e+06
   1.518912e+06  -1.002117e+06
   1.343766e+06   7.480638e+05
   2.642875e+05   1.867929e+06
  -7.439452e+05   1.352190e+06
  -9.640812e+05  -1.931763e+05
  -4.478642e+05  -1.242910e+06
   2.472534e+05  -9.951738e+05
   5.989240e+05  -8.221372e+04
   4.682611e+05   3.756039e+05
   1.419618e+05   1.263275e+05
   6.092227e+04  -8.935731e+04
   3.476746e+05   3.317127e+05
   5.757813e+05   1.014431e+06
   1.847809e+05   1.115927e+06
  -7.882939e+05   4.192307e+05
  -1.552723e+06  -4.504211e+05
  -1.323800e+06  -8.437229e+05
  -2.054441e+05  -7.371521e+05
   8.498696e+05  -4.695710e+05
   1.014016e+06  -2.035007e+05
   4.090306e+05   7.131819e+04
  -1.328782e+05   2.462019e+05
  -7.382953e+04   1.905216e+05
   2.362739e+05   6.213131e+04
   7.589324e+04   1.372827e+05
  -6.393775e+05   2.909699e+05
  -1.109226e+06   3.443726e+04
  -5.474438e+05  -7.294748e+05
   8.048004e+05  -1.300116e+06
   1.801364e+06  -8.842601e+05
   1.563338e+06   3.853740e+05
   3.564195e+05   1.464670e+06
  -7.770720e+05   1.489327e+06
  -1.091394e+06   6.357630e+05
  -6.932914e+05  -1.940039e+05
  -1.746207e+05  -3.756738e+05
   3.104464e+04  -1.057375e+05
  -9.826370e+04  -1.507887e+04
  -3.039396e+05  -3.906120e+05
  -2.671419e+05  -8.416637e+05
   1.557909e+05  -7.335970e+05
   7.148158e+05   6.764449e+04
   8.465149e+05   9.439724e+05
   2.161648e+05   1.092787e+06
  -7.571946e+05   3.411502e+05
  -1.138028e+06  -6.753377e+05
  -4.417946e+05  -1.140369e+06
   7.204224e+05  -7.795963e+05
   1.208049e+06   2.336087e+04
   6.097305e+05   6.623306e+05
  -2.839050e+05   7.716742e+05
  -4.285793e+05   4.097778e+05
   2.163018e+05  -2.133840e+04
   6.713927e+05  -7.469415e+04
   1.816987e+05   3.293385e+05
  -8.439568e+05   7.400114e+05
  -1.344175e+06   5.782932e+05
  -8.539803e+05  -1.986013e+05
   6.552400e+04  -9.389917e+05
   5.918691e+05  -9.396739e+05
   4.920380e+05  -2.177386e+05
   1.020510e+05   4.852774e+05
  -2.278606e+05   4.948986e+05
  -3.774663e+05  -9.837161e+04
  -2.978887e+05  -5.972820e+05
   2.966097e+04  -4.926504e+05
   4.172652e+05   1.242271e+04
   5.256070e+05   3.079194e+05
   2.579978e+05   1.189638e+05
  -6.164606e+04  -1.923555e+05
  -8.460180e+04  -1.126423e+05
   8.942418e+04   3.485440e+05
   5.248624e+04   6.360950e+05
  -3.053205e+05   3.253899e+05
  -5.609563e+05  -3.326311e+05
  -2.710493e+05  -6.749429e+05
   3.962273e+05  -3.724803e+05
   7.442249e+05   2.389411e+05
   3.162926e+05   5.775706e+05
  -5.334525e+05   4.127667e+05
  -9.619912e+05  -2.351295e+04
  -5.348896e+05  -3.775226e+05
   2.948835e+05  -4.684857e+05
   6.791427e+05  -3.087292e+05
   2.992417e+05  -3.500199e+04
  -3.149818e+05   1.270566e+05
  -4.165850e+05   2.659673e+03
   1.216895e+05  -2.869524e+05
   7.050632e+05  -3.253802e+05
