
 $NMID
 id='ANONYMOUS ', fmtdat='(2E16.6)'
 volume=1.0
 tramp=1.0
 $END
   4.965366e+07  -1.426498e+06
   3.133064e+07   2.929601e+07
  -4.892364e+06   3.381737e+07
  -2.395709e+07   1.448807e+07
  -1.534220e+07  -5.083518e+06
   2.311425e+06  -8.525313e+06
   9.035550e+06   3.313624e+05
   3.228908e+06   8.664706e+06
  -5.116099e+06   9.042887e+06
  -8.694763e+06   2.408164e+06
  -6.479812e+06  -5.455077e+06
  -8.680823e+05  -7.859152e+06
   3.571332e+06  -2.452470e+06
   2.476346e+06   5.167562e+06
  -3.270877e+06   6.322937e+06
  -7.193520e+06  -8.177796e+05
  -4.377733e+06  -9.047214e+06
   2.997882e+06  -1.073853e+07
   8.845195e+06  -5.515656e+06
   9.562710e+06   1.643233e+06
   5.849490e+06   6.409574e+06
   7.783755e+05   7.352430e+06
  -2.098717e+06   5.263654e+06
  -1.095837e+06   2.745379e+06
   1.197327e+06   2.514448e+06
   1.136162e+04   4.097928e+06
  -5.211226e+06   3.919268e+06
  -8.918727e+06   2.820209e+05
  -6.342156e+06  -3.771245e+06
  -1.963194e+04  -4.454094e+06
   3.565635e+06  -2.066145e+06
   2.115253e+06   3.103899e+05
  -1.061527e+06   1.001503e+06
  -2.536130e+06   2.227991e+05
  -1.986398e+06  -1.710032e+06
  -3.358577e+05  -3.749310e+06
   1.668736e+06  -3.359553e+06
   2.608180e+06   2.011788e+05
   1.328139e+06   3.106995e+06
  -5.541627e+05   1.402453e+06
  -5.612213e+04  -2.480701e+06
   2.341415e+06  -2.247184e+06
   2.386229e+06   2.776117e+06
  -1.769554e+06   5.614925e+06
  -5.901084e+06   1.265582e+06
  -4.705225e+06  -5.861818e+06
   1.329752e+06  -7.590710e+06
   6.538416e+06  -2.343626e+06
   6.529800e+06   3.914087e+06
   1.966112e+06   5.594169e+06
  -3.176694e+06   2.711651e+06
  -5.075804e+06  -1.226305e+06
  -2.510698e+06  -3.186480e+06
   2.054011e+06  -2.154591e+06
   4.159915e+06   6.433719e+05
   1.920146e+06   2.379693e+06
  -1.492705e+06   1.296454e+06
  -1.707954e+06  -9.177116e+05
   1.057139e+06  -1.058447e+06
   2.408146e+06   1.239967e+06
  -9.957979e+04   3.004469e+06
  -3.838409e+06   1.987215e+06
  -4.827977e+06  -8.589980e+05
  -2.296657e+06  -3.442450e+06
   1.611761e+06  -4.809442e+06
   4.690824e+06  -4.427223e+06
   5.691034e+06  -1.553187e+06
   4.101599e+06   2.902491e+06
   8.566902e+05   5.675628e+06
  -1.581844e+06   4.539293e+06
  -1.584705e+06   1.409480e+06
  -3.761398e+05  -2.585275e+04
  -3.303031e+05   8.784156e+05
  -1.729068e+06   1.439109e+06
  -2.648710e+06  -6.172246e+04
  -1.762678e+06  -2.044442e+06
   1.914371e+05  -2.106559e+06
   1.652794e+06  -8.841166e+04
   1.629127e+06   2.152195e+06
  -7.806721e+04   2.843571e+06
  -2.641632e+06   1.466586e+06
  -4.096498e+06  -1.193379e+06
  -2.901282e+06  -3.426901e+06
  -1.717654e+03  -3.772555e+06
   1.957388e+06  -2.457820e+06
   1.942170e+06  -1.129593e+06
   1.692171e+06  -7.622735e+05
   2.833184e+06  -5.471955e+05
   4.202723e+06   6.759028e+05
   3.384144e+06   2.650846e+06
   1.281476e+05   4.009321e+06
  -3.152911e+06   3.763003e+06
  -4.088335e+06   1.957102e+06
  -2.519457e+06  -5.134830e+05
  -1.354312e+05  -2.166124e+06
   1.144557e+06  -1.795441e+06
   5.231826e+05   7.032099e+04
  -1.089889e+06   1.239443e+06
  -1.826911e+06   3.755775e+05
  -8.478245e+05  -1.140449e+06
   5.454180e+05  -1.073166e+06
   4.837460e+05   3.944168e+05
  -9.801415e+05   8.125779e+05
  -1.887628e+06  -1.030839e+06
  -8.730448e+05  -3.314506e+06
   1.332502e+06  -3.515336e+06
   3.063467e+06  -1.363685e+06
   3.397755e+06   1.313583e+06
   2.350891e+06   2.795086e+06
   4.455027e+05   2.646497e+06
  -1.254287e+06   1.421184e+06
  -1.555050e+06   1.825408e+05
  -4.818563e+05  -4.842588e+04
   3.495958e+05   7.365129e+05
  -3.782315e+05   1.293943e+06
  -1.820725e+06   5.715322e+05
  -1.980036e+06  -8.278966e+05
  -4.050799e+05  -1.364534e+06
   1.144434e+06  -5.712791e+05
   9.053337e+05   4.610072e+05
  -8.334069e+05   5.736532e+05
  -2.213210e+06  -2.753155e+05
  -1.790165e+06  -1.375429e+06
   2.356937e+05  -2.008291e+06
   2.300983e+06  -1.649800e+06
   2.735275e+06  -2.612307e+05
   1.189142e+06   1.224220e+06
  -8.788896e+05   1.438734e+06
  -1.485784e+06   1.853494e+05
  -1.787224e+05  -1.029042e+06
   1.478710e+06  -7.088639e+05
   1.691313e+06   7.591693e+05
   3.576369e+05   1.633298e+06
  -1.063408e+06   9.996262e+05
  -1.261109e+06  -2.754138e+05
  -2.745533e+05  -7.683505e+05
   7.637360e+05  -6.548811e+04
   7.098271e+05   1.026936e+06
  -5.790532e+05   1.382264e+06
  -1.969029e+06   5.060607e+05
  -1.979842e+06  -1.044997e+06
  -3.660141e+05  -2.030645e+06
   1.408762e+06  -1.607799e+06
   1.695243e+06  -2.114988e+05
   5.048695e+05   8.546447e+05
  -6.478994e+05   7.970235e+05
  -6.410063e+05   6.004275e+04
   1.181344e+05  -3.962139e+05
   5.288212e+05  -2.252078e+05
   1.729854e+05   1.011911e+05
  -4.324545e+05  -1.476111e+04
  -5.395624e+05  -6.301373e+05
   1.781235e+05  -1.169523e+06
   1.354740e+06  -8.828151e+05
   2.042157e+06   4.134005e+05
   1.424486e+06   1.912765e+06
  -2.325437e+05   2.382123e+06
  -1.611760e+06   1.399801e+06
  -1.693863e+06  -1.273122e+05
  -8.642216e+05  -9.290380e+05
  -2.914887e+05  -7.082667e+05
  -4.179805e+05  -2.411090e+05
  -5.820465e+05  -2.798898e+05
  -9.043224e+04  -7.232898e+05
   8.570867e+05  -8.911717e+05
   1.440920e+06  -3.260144e+05
   1.050181e+06   7.361483e+05
  -2.521142e+05   1.471553e+06
  -1.712257e+06   1.062685e+06
  -2.220192e+06  -4.894995e+05
  -1.120669e+06  -2.072567e+06
   9.777183e+05  -2.327911e+06
   2.491903e+06  -1.026721e+06
   2.333589e+06   6.392524e+05
   9.736914e+05   1.340566e+06
  -2.030318e+05   9.755607e+05
  -4.281782e+05   5.200670e+05
  -1.275910e+05   7.119982e+05
  -1.196380e+05   1.241816e+06
  -6.480760e+05   1.242360e+06
  -1.253736e+06   3.042593e+05
  -1.297702e+06  -1.069290e+06
  -5.292184e+05  -1.864126e+06
   6.246775e+05  -1.405114e+06
   1.268568e+06   6.444951e+03
   8.039905e+05   1.256092e+06
  -3.693321e+05   1.376977e+06
  -1.131443e+06   4.298520e+05
  -8.086669e+05  -6.475415e+05
   8.853990e+04  -1.046231e+06
   4.987360e+05  -7.869448e+05
   7.901391e+04  -4.295877e+05
  -4.127770e+05  -3.369802e+05
  -5.042478e+04  -3.778013e+05
   1.119287e+06  -2.094351e+05
   2.010107e+06   3.238738e+05
   1.587055e+06   1.016415e+06
  -1.688590e+04   1.403353e+06
  -1.539096e+06   1.115258e+06
  -1.799392e+06   2.808230e+05
  -8.379677e+05  -4.664300e+05
   2.418963e+05  -5.495926e+05
   5.010562e+05  -4.526164e+04
   2.768805e+04   3.924094e+05
  -4.427376e+05   2.413351e+05
  -4.672252e+05  -3.375417e+05
  -2.215362e+05  -7.062643e+05
  -7.216859e+04  -4.622534e+05
  -1.452444e+05   1.044549e+05
  -3.005756e+05   2.937230e+05
  -2.739893e+05  -2.298375e+05
   1.581423e+05  -9.691236e+05
   8.866386e+05  -1.038560e+06
   1.309318e+06  -1.644106e+05
   8.092832e+05   8.910561e+05
  -4.041608e+05   1.099373e+06
  -1.214399e+06   3.140412e+05
  -7.111158e+05  -5.712074e+05
   6.916671e+05  -6.390825e+05
   1.574266e+06   9.988732e+04
   1.008808e+06   8.654129e+05
  -4.749412e+05   9.940632e+05
  -1.496918e+06   4.811820e+05
  -1.234410e+06  -1.939743e+05
  -1.343008e+05  -5.162207e+05
   6.440590e+05  -2.693997e+05
   3.745424e+05   2.831814e+05
  -5.799523e+05   4.980465e+05
  -1.153633e+06  -9.544584e+04
  -6.374137e+05  -1.160585e+06
   5.988171e+05  -1.655297e+06
   1.463721e+06  -8.495945e+05
   1.227393e+06   7.564407e+05
   1.850529e+05   1.766554e+06
  -7.432090e+05   1.276480e+06
  -9.194678e+05  -1.745217e+05
  -4.255603e+05  -1.183280e+06
   2.189770e+05  -9.677009e+05
   5.556685e+05  -8.573714e+04
   4.614075e+05   3.831940e+05
   1.644781e+05   1.461519e+05
   4.835665e+04  -9.855107e+04
   2.698195e+05   2.774143e+05
   4.951187e+05   9.491645e+05
   1.871253e+05   1.074276e+06
  -6.998328e+05   3.964895e+05
  -1.451348e+06  -4.686514e+05
  -1.262701e+06  -8.406662e+05
  -1.807777e+05  -6.891160e+05
   8.469867e+05  -4.004831e+05
   9.753460e+05  -1.730888e+05
   3.558697e+05   4.528725e+04
  -1.453900e+05   2.182196e+05
  -3.596098e+04   2.129989e+05
   2.600509e+05   1.060645e+05
   4.709875e+04   1.280094e+05
  -6.533820e+05   2.183749e+05
  -1.027531e+06  -1.502777e+04
  -4.202817e+05  -6.690780e+05
   8.301691e+05  -1.146350e+06
   1.667435e+06  -7.435469e+05
   1.379850e+06   4.190144e+05
   2.642999e+05   1.382221e+06
  -7.557094e+05   1.354133e+06
  -1.028729e+06   5.261342e+05
  -6.399630e+05  -2.326593e+05
  -1.303957e+05  -3.493026e+05
   6.525661e+04  -5.660862e+04
  -8.576054e+04   2.005433e+04
  -2.981454e+05  -3.669326e+05
  -2.416843e+05  -8.003078e+05
   1.760859e+05  -6.665619e+05
   6.644997e+05   1.218614e+05
   7.206443e+05   9.321189e+05
   1.146547e+05   1.005890e+06
  -7.324017e+05   2.391744e+05
  -1.010869e+06  -7.059227e+05
  -3.438181e+05  -1.067101e+06
   6.956422e+05  -6.663525e+05
   1.099341e+06   6.928923e+04
   5.297373e+05   5.993061e+05
  -2.751341e+05   6.695298e+05
  -3.732036e+05   3.694105e+05
   2.387726e+05   1.620563e+04
   6.376841e+05  -3.664684e+04
   1.463763e+05   3.009533e+05
  -8.142679e+05   6.674404e+05
  -1.247816e+06   5.359966e+05
  -7.585871e+05  -1.689931e+05
   9.188399e+04  -8.559322e+05
   5.427292e+05  -8.503936e+05
   4.157966e+05  -1.688942e+05
   5.109387e+04   4.664163e+05
  -2.305794e+05   4.286444e+05
  -3.394883e+05  -1.425682e+05
  -2.505361e+05  -5.669568e+05
   4.447300e+04  -4.211971e+05
   3.819147e+05   4.212045e+04
   4.742187e+05   2.754948e+05
   2.431769e+05   9.652377e+04
  -4.090662e+04  -1.464533e+05
  -9.299533e+04  -4.724635e+04
   1.174205e+04   3.361142e+05
  -3.460909e+04   5.309884e+05
  -2.986953e+05   2.168491e+05
  -4.474260e+05  -3.592869e+05
  -1.601082e+05  -6.241312e+05
   3.959965e+05  -3.083672e+05
   6.520716e+05   2.667448e+05
   2.498723e+05   5.588468e+05
  -4.989767e+05   3.633140e+05
  -8.679388e+05  -6.676793e+04
  -4.731997e+05  -3.686260e+05
   2.830287e+05  -3.975220e+05
   6.230791e+05  -2.313929e+05
   2.486038e+05  -2.483180e+04
  -3.301278e+05   6.359994e+04
  -3.914196e+05  -6.004413e+04
   1.656470e+05  -2.776163e+05
   7.240722e+05  -2.584877e+05
