
 $NMID
 id='ANONYMOUS ', fmtdat='(2E16.6)'
 volume=1.0
 tramp=1.0
 $END
  -2.450578e+03   2.094265e+01
  -1.466586e+03  -1.803883e+03
   4.852875e+02  -1.487597e+03
   1.195735e+03  -5.979281e+02
   5.520345e+02   4.698334e+02
  -2.374908e+02   1.538006e+02
  -4.400883e+02  -2.488169e+02
  -3.307403e+01  -6.960548e+02
   5.965405e+02  -4.238651e+02
   5.513223e+02   8.105016e+01
   3.071492e+02   5.067792e+02
  -1.612978e+02   5.160578e+02
  -3.272609e+02   1.616833e+01
  -1.707742e+02  -4.427539e+02
   1.749163e+02  -4.097856e+02
   3.823279e+02   4.817998e+01
   1.766099e+02   4.273710e+02
  -2.699294e+02   3.779743e+02
  -3.310324e+02   7.627559e+01
  -2.249826e+02  -2.482016e+02
   1.666486e+01  -2.726416e+02
   1.639213e+02  -1.347699e+02
   1.047236e+02   1.909000e+00
  -1.312424e+02  -1.403331e+01
  -1.920026e+02  -1.420413e+02
  -7.098865e+01  -2.267954e+02
   3.722491e+02  -2.077989e+02
   4.576087e+02   6.977158e+01
   1.921001e+02   2.584216e+02
  -3.109848e+02   2.672014e+02
  -4.036736e+02  -8.068304e+01
  -1.234220e+02  -3.818577e+02
   3.013051e+02  -3.079810e+02
   4.304840e+02  -2.816312e+01
   2.450961e+02   1.274460e+02
   4.772909e+00   3.138867e+02
  -1.306359e+02   1.805197e+02
  -4.979015e+01  -1.134458e+02
   9.555337e+01  -2.440735e+02
   2.341697e+02   1.189336e+02
   6.305119e+01   3.762038e+02
  -1.874178e+02   4.312666e+02
  -3.623716e+02  -3.599386e+01
  -1.757602e+02  -3.223079e+02
   1.535486e+02  -1.616009e+02
   1.653114e+02   1.987730e+02
  -9.078389e+01   3.161402e+02
  -3.498328e+02   1.510511e+01
  -4.192760e+02  -3.453578e+02
  -9.995417e+01  -3.754882e+02
   2.985123e+02  -1.798134e+02
   4.335713e+02   1.191869e+01
   2.361330e+02   2.501647e+02
  -1.173795e+02   1.830621e+02
  -2.694775e+02   2.433167e+01
  -1.104642e+02  -7.498766e+01
   6.159587e+01  -2.744482e+01
   7.555305e+01   7.844063e+01
  -9.768989e+01   9.416584e+01
  -2.010760e+02  -3.686953e+01
  -6.307619e+01  -1.927661e+02
   1.397224e+02  -1.342035e+02
   2.433553e+02  -5.214767e+01
   1.432480e+02   5.674691e+00
  -1.102456e+01   1.794684e+02
  -1.946182e+02   2.373478e+02
  -2.666941e+02   1.073844e+02
  -1.578059e+02  -1.235403e+02
  -1.937135e+01  -2.985909e+02
   7.169885e+01  -1.845527e+02
   7.461880e+01  -4.439343e+01
   4.366816e+00  -1.943959e+01
   7.104162e+01  -2.326365e+01
   1.309685e+02  -8.184148e+01
   2.103673e+02   3.197182e+01
   9.236793e+01   2.028501e+02
  -6.136046e+01   1.591126e+02
  -1.629560e+02   4.791335e+00
  -1.001070e+02  -1.451925e+02
   3.685218e+01  -1.885398e+02
   1.879343e+02  -3.854514e+01
   2.164453e+02   1.357179e+02
   1.120090e+02   2.252947e+02
  -4.677471e+01   2.102154e+02
  -1.297157e+02   4.852150e+01
  -9.059769e+01   1.342331e+01
  -9.091722e+01   4.028701e+01
  -1.608210e+02   5.446255e+01
  -2.590802e+02  -1.117738e+02
  -1.739821e+02  -2.103543e+02
   7.503422e+01  -3.042531e+02
   2.766914e+02  -3.121941e+02
   3.514236e+02  -1.256373e+02
   2.155155e+02   1.417537e+02
   1.024476e+00   2.183927e+02
  -5.452825e+01   1.481535e+02
  -6.413660e+01   5.606251e+01
   4.544377e+01  -9.974922e+01
   1.112296e+02   1.874625e+01
   1.143402e+01   1.372712e+02
  -9.670931e+01   1.315677e+02
  -1.043980e+02  -3.431493e+01
   4.026272e+01  -1.028535e+02
   1.244905e+02  -2.016874e+01
   1.064912e+02   1.416034e+02
  -3.097253e+01   2.427998e+02
  -1.650915e+02   1.136083e+02
  -2.150649e+02  -2.248911e+01
  -1.608629e+02  -1.885408e+02
  -4.010589e+01  -1.849525e+02
   9.069451e+01  -6.978481e+01
   1.239448e+02   7.472290e+00
   4.636777e+01   1.555715e-01
  -2.719493e+01  -4.604350e+01
   1.791405e+00  -1.087673e+02
   1.184406e+02  -5.117501e+01
   1.117301e+02  -4.260269e+00
   4.669381e+01   4.866817e+01
  -3.259696e+01   3.999118e+00
  -3.981767e+01  -3.836461e+01
   6.755104e+01  -7.501269e+01
   1.866917e+02   7.054898e+00
   1.459660e+02   1.138124e+02
   1.762373e+01   1.619881e+02
  -1.596099e+02   1.853594e+02
  -2.022943e+02   6.293493e+01
  -1.175895e+02  -6.322764e+01
   2.738234e+01  -5.941823e+01
   1.804140e+01  -4.181169e+00
  -9.517688e+00   4.037333e+01
  -1.455036e+02   6.505598e+00
  -1.362475e+02  -9.576204e+01
  -5.058223e+01  -1.130778e+02
   7.606891e+01  -9.260733e+01
   9.196346e+01   2.880805e+01
   2.502660e+01   1.886368e+01
   1.262532e+01  -1.683652e-01
   1.387079e-01  -7.587843e+01
   5.737150e+01  -9.487993e+01
   1.044345e+02   1.193370e+01
   1.111504e+02   9.035582e+01
  -3.849742e+01   1.344867e+02
  -9.067830e+01   8.304781e+01
  -1.131776e+02  -4.304860e+00
  -5.464627e+01  -7.637681e+01
   6.619628e+01  -9.269352e+01
   6.486291e+01   9.738385e+00
   1.642049e+01   3.182096e+01
  -2.449379e+01  -4.368909e+00
   8.791927e+00  -1.020880e+01
   6.297175e+01   3.147563e+01
   5.190250e+01   6.910033e+01
   2.202806e+00   9.743445e+01
  -1.077030e+02   1.157120e+02
  -1.455266e+02  -7.462906e+00
  -1.390023e+02  -1.255311e+02
  -2.533611e+01  -1.595626e+02
   7.386070e+01  -1.159128e+02
   9.778939e+01  -1.431256e+01
   4.331259e+01   1.268910e+01
   2.654215e+01   2.393694e+01
   1.418362e+01  -4.392732e+01
   6.707657e+01   1.676901e+01
   1.167794e+01   5.685096e+01
  -2.473031e+01   7.862727e+01
  -5.021388e+01   5.150225e+01
  -7.198745e+01  -2.848716e+01
  -1.362544e+01  -7.212919e+01
   1.012587e+02  -3.633616e+01
   1.601851e+02   9.288024e+01
   5.188859e+01   1.496945e+02
  -5.428291e+01   1.559952e+02
  -1.794117e+02   7.548680e+01
  -1.578931e+02  -7.101247e+01
  -6.936847e+01  -9.493765e+01
   4.255372e+01  -1.012297e+02
   7.593861e+01  -4.583944e+01
   6.470027e+01  -4.104353e+01
   7.295977e+01  -5.349866e+01
   5.326698e+01  -4.957360e+01
   8.233646e+01   1.611326e+01
   9.817328e+01   1.066836e+02
   3.505683e+01   1.735628e+02
  -6.677164e+01   8.759283e+01
  -1.300587e+02  -6.942975e+00
  -1.106025e+02  -9.671531e+01
   5.614027e+00  -1.030299e+02
   5.702673e+01  -3.064415e+01
   4.353781e+01   1.630387e+01
  -2.000953e+01   5.241970e+01
  -1.299838e+01   2.353295e+01
   4.752653e+00   1.405683e+01
   2.476488e+01   3.257603e+01
   2.358726e+01   2.676937e+01
  -5.089658e+01   3.446265e+01
  -1.321387e+02  -3.368332e+01
  -1.062445e+02  -6.241078e+01
   2.058036e+00  -9.218424e+01
   8.999173e+01  -3.424341e+01
   1.145264e+02  -6.828140e+00
   2.651399e+01   1.128077e+01
  -7.862239e+01   2.487644e+01
  -5.077932e+01  -2.401912e+01
  -1.802697e+01  -5.053301e+01
   3.484647e+01  -2.532176e+01
   5.182428e+01   1.614481e+01
   2.946929e+01   2.004209e+01
   2.265614e+01   3.331689e+01
   1.356749e+00  -8.532500e+00
   4.921475e+01   1.601042e+01
  -2.967016e+00   4.833891e+01
  -3.202389e+01   1.033115e+02
  -8.020970e+01   6.616207e+01
  -1.075928e+02   3.433327e+01
  -8.583357e+01  -7.407127e+01
   1.703126e+00  -6.903595e+01
   7.227685e+01  -4.942252e+01
   4.201561e+01   1.751040e+01
  -3.341371e+01   2.358955e+01
  -7.237635e+01  -3.458445e+01
  -2.131875e+01  -5.568341e+01
   5.898920e+01  -7.607534e+01
   1.103257e+02  -5.075796e+01
   9.588122e+01   2.981154e+01
   3.447015e+01   4.910107e+01
  -5.280362e+01   3.951287e+01
  -3.760530e+01  -9.787238e+00
   1.186447e+01  -3.720844e+01
   6.360156e+01  -1.911325e+00
   1.318945e+01   8.436900e+01
  -5.030367e+01   1.058466e+02
  -1.413155e+02   4.827378e+01
  -6.943669e+01  -8.159564e+01
  -1.598009e+01  -1.113141e+02
   5.534643e+01  -1.038837e+02
   6.466349e+01   9.327489e+00
   2.341871e+01   7.596518e+01
   1.962014e+00   6.972705e+01
  -3.277424e+00   1.375987e+01
  -3.134518e+01  -1.900714e+01
  -3.569113e+01  -2.580191e+01
   1.564470e+01   1.295730e+01
  -3.060303e+01   6.825828e-01
  -3.271465e+01  -4.912117e+01
  -2.047299e+01  -5.388002e+01
   4.327028e+01  -2.656470e+01
   7.140735e+01   1.173954e+01
   8.745244e+01   3.552682e+01
   7.150736e+00   2.326923e+01
  -7.361772e+01  -4.521969e+00
  -6.097398e+01  -1.032911e+01
   4.669259e+00  -1.348817e+01
   1.999762e+01   5.440377e+00
   1.560420e+01  -2.434682e+01
   2.955205e+00   3.170777e+01
  -3.911084e+00  -9.338447e+00
   4.370874e+01  -6.054470e+00
   7.133733e+01   3.397402e+01
  -7.506690e+00   5.551512e+01
  -7.886416e+01   8.682797e+01
  -1.275193e+02   2.404436e+01
  -1.171713e+02  -6.240149e+01
  -1.842502e+01  -1.165218e+02
   4.888131e+01  -1.050840e+02
   1.334891e+02  -1.398426e+01
   5.902202e+01   2.145374e+01
   4.429622e-01   3.766280e+01
   1.064953e+01  -1.201507e+01
   2.603338e+01   2.681802e+01
   2.698497e+01   2.977102e+01
   2.042360e+01   7.593180e+01
  -4.157644e+01   6.075191e+01
  -4.078629e+01  -2.268604e+01
  -4.481721e+01  -6.622186e+01
  -2.331841e+01  -7.965916e+01
   7.377773e+01  -3.503357e+00
   7.035620e+01   4.131999e+01
   1.273899e+01   7.122770e+01
  -7.731658e+01   4.586017e+01
  -7.281429e+01  -1.684485e+01
  -5.191067e+01  -3.542509e+01
   3.758182e+01  -5.998576e+01
   1.806158e+01  -1.852659e+01
  -6.158884e+00  -6.500960e+00
  -3.989625e+01  -8.818549e+00
  -1.782573e+01  -4.232644e+01
   3.350944e+01  -4.816552e+01
   8.956817e+01  -3.742698e+01
   4.275800e+01   2.087080e+01
  -1.881799e+00   8.253374e+01
  -3.796256e+01   6.263966e+01
  -1.822387e+01   4.366213e+00
   1.768908e+00  -4.870218e+01
   1.011620e+01  -1.505389e+01
   1.320758e+01   1.007120e+01
   1.813582e+01   5.105017e+01
   5.608480e+00   3.616133e+01
  -3.638957e+01  -7.267443e+00
  -3.109374e+01  -3.715677e+01
  -2.651750e+01   7.172381e+00
   4.749846e+00   3.361896e+01
   1.536210e+01   5.515896e+00
   2.676629e+00  -2.094133e+01
   2.251634e+01  -4.216650e+01
   2.225061e+01   2.394959e+00
   2.378111e+01   4.385487e+01
   1.089513e+01   6.541156e+01
  -3.448531e+01  -3.557979e+00
  -1.813174e+01   5.884606e+00
  -1.159934e+01  -4.198870e+01
   4.210130e+01  -7.657484e+00
   7.993694e+01   4.135828e+01
   1.597501e+01   4.660937e+01
  -2.144051e+01   9.446393e+00
  -4.269571e+01   1.881502e+01
  -3.496983e+01   6.269054e+00
   1.526082e+01  -9.797514e+00
   4.859051e+01   1.726648e+01
  -1.952863e+00   7.805682e+00
  -5.316968e+01   1.983999e+01
