
 $NMID
 id='ANONYMOUS ', fmtdat='(2E16.6)'
 volume=1.0
 tramp=1.0
 $END
   2.815963e+03  -1.268187e+02
   1.654821e+03   1.805726e+03
  -2.724343e+00   1.683247e+03
  -1.163451e+03   1.197388e+03
  -8.997670e+02   2.080987e+02
   9.428846e+01  -2.378574e+02
   3.993102e+02   7.902876e+01
   8.204657e+01   4.105334e+02
  -5.337072e+02   5.229721e+02
  -6.508885e+02   3.924830e+00
  -4.326560e+02  -4.604849e+02
  -5.165931e+01  -6.217803e+02
   2.575785e+02  -1.591024e+02
   1.102298e+02   4.046915e+02
  -1.362848e+02   4.256532e+02
  -4.667038e+02   2.332933e+01
  -2.124884e+02  -4.440628e+02
   1.325488e+02  -5.524609e+02
   3.950693e+02  -3.109521e+02
   3.481842e+02   2.013228e+02
   1.210119e+02   3.416252e+02
  -1.624916e+02   1.916910e+02
  -6.465714e+01   1.859711e+01
   1.965886e+02   8.880731e+01
   2.347738e+02   3.126846e+02
  -3.021398e+01   3.473453e+02
  -5.251658e+02   1.315945e+02
  -6.346149e+02  -2.110034e+02
  -2.537307e+02  -3.135522e+02
   3.771659e+02  -2.002894e+02
   5.231737e+02   1.499067e+02
   1.463187e+02   3.695436e+02
  -2.897099e+02   3.067631e+02
  -5.328864e+02   7.788417e+01
  -2.859349e+02  -1.077936e+02
  -5.096914e+01  -3.057360e+02
   4.376037e+01  -1.936437e+02
  -3.784925e+01   9.292156e+01
  -1.506708e+02   1.417122e+02
  -1.975610e+02  -1.185759e+02
  -4.499258e+01  -5.131653e+02
   2.960486e+02  -4.823349e+02
   3.367871e+02  -1.320240e+01
   1.291536e+02   2.837671e+02
  -1.943953e+02   1.642947e+02
  -2.074074e+02  -2.477874e+02
   1.377350e+02  -3.944408e+02
   3.914143e+02  -1.014613e+02
   4.331112e+02   3.892581e+02
   1.639282e+02   4.720254e+02
  -2.998899e+02   2.282249e+02
  -4.959651e+02  -9.415915e+01
  -2.664269e+02  -2.650684e+02
   9.151927e+01  -2.557665e+02
   2.734697e+02  -5.879785e+01
   2.386196e+02   1.167581e+01
  -1.286560e+01   1.177345e+01
  -2.011063e+01  -8.227809e+01
   1.099216e+02  -3.198513e+01
   2.337455e+02   1.038257e+01
   1.027104e+02   1.625192e+02
  -1.657673e+02   1.946175e+02
  -3.097897e+02   1.113745e+02
  -2.277859e+02  -7.448255e+01
   9.839935e+00  -3.447913e+02
   2.768247e+02  -3.642293e+02
   3.740832e+02  -1.523574e+02
   2.206329e+02   1.747067e+02
   7.801965e+01   3.493887e+02
  -2.615163e+01   3.163249e+02
  -3.798990e+01   1.279871e+02
  -2.020985e+01   7.432797e+01
  -1.213213e+02   1.082199e+02
  -2.077826e+02   4.577396e+01
  -2.312538e+02  -9.719791e+01
  -9.705858e+01  -2.523381e+02
   1.002101e+02  -1.626764e+02
   1.827914e+02   3.601658e+01
   1.378051e+02   2.066632e+02
  -2.759743e+01   2.202798e+02
  -2.449000e+02   5.747293e+01
  -3.016123e+02  -2.118995e+02
  -1.852030e+02  -2.544141e+02
   3.237453e+01  -2.430208e+02
   1.217932e+02  -1.485650e+02
   1.536420e+02  -8.908399e+01
   1.332887e+02  -8.812871e+01
   2.381947e+02   3.389579e+00
   4.054034e+02   1.628555e+02
   3.155977e+02   2.926661e+02
  -8.700479e+01   4.078958e+02
  -3.747987e+02   4.226702e+02
  -4.227110e+02   1.666102e+02
  -2.782704e+02  -1.145063e+02
  -1.593238e+01  -2.549568e+02
   8.498729e+01  -1.705739e+02
  -3.396495e+01  -1.645106e+01
  -9.780735e+01   3.578126e+01
  -1.170716e+02  -2.348303e+01
  -1.787661e+01  -1.345992e+02
   8.871955e+01  -1.294449e+02
   1.181203e+02   8.902892e+01
  -3.868336e+01   1.391769e+02
  -1.376252e+02   2.661893e+01
  -1.564013e+02  -2.144140e+02
   5.101161e+01  -3.006126e+02
   2.518583e+02  -1.801990e+02
   3.061013e+02   4.277035e+01
   2.398500e+02   2.805767e+02
   4.717448e+01   2.818463e+02
  -1.306953e+02   1.104519e+02
  -1.176011e+02  -2.151158e+01
  -1.119203e+01   1.130009e+01
   6.185917e+01   6.820828e+01
  -2.908464e+01   1.223165e+02
  -1.291169e+02   5.204406e+01
  -1.225490e+02  -2.480212e+01
  -3.666801e+01  -4.019488e+01
   6.291302e+01   1.539645e+01
   5.445309e+01   1.044139e+02
  -1.139430e+02   5.973897e+01
  -2.541027e+02  -5.820102e+01
  -2.895871e+02  -1.936716e+02
  -6.427249e+01  -2.314598e+02
   1.956638e+02  -2.166283e+02
   2.530154e+02  -9.846203e+01
   1.610243e+02   4.146711e+01
  -3.960180e+01   6.608244e+01
  -6.578964e+01  -3.864616e+00
   4.017757e+01  -8.930584e+01
   1.794724e+02   1.334918e+01
   1.759364e+02   1.189442e+02
   5.418225e+01   1.598948e+02
  -8.127545e+01   1.414978e+02
  -1.353451e+02   7.748099e+00
  -3.923582e+01  -1.312331e+01
   4.807538e+00   1.947081e+01
   4.807480e+01   1.165458e+02
  -1.242565e+02   1.056787e+02
  -1.810537e+02   3.551405e+01
  -1.965068e+02  -1.181154e+02
   2.776299e+01  -2.008570e+02
   1.792267e+02  -1.131311e+02
   1.565291e+02   1.188541e+01
   3.252949e+01   9.467550e+01
  -8.223631e+01   9.765076e+01
  -6.797331e+01   3.365842e+01
   1.193945e+01  -3.432564e+01
   3.693381e+01  -1.611039e+01
   3.589035e-02   1.813558e+01
  -9.744662e+01  -2.112384e+00
  -1.056066e+02  -9.952619e+01
  -1.842000e+01  -1.413540e+02
   1.342453e+02  -1.280164e+02
   2.269106e+02   7.241781e+00
   1.633245e+02   1.682240e+02
   1.562384e+01   2.413943e+02
  -1.016115e+02   1.529090e+02
  -1.071908e+02   2.555486e+01
  -6.111400e+01  -3.285657e+01
  -6.644557e+01  -6.954998e+01
  -8.130040e+01   4.489044e+01
  -6.667264e+01  -7.453725e+00
  -4.154494e+01  -6.873917e+01
   3.480113e+01  -8.281914e+01
   1.191361e+02  -3.814987e+01
   1.294613e+02   5.874775e+01
  -1.944900e+01   1.196367e+02
  -1.400583e+02   6.992223e+01
  -2.111187e+02  -9.658615e+01
  -4.877060e+01  -2.226822e+02
   8.457565e+01  -2.041208e+02
   2.667219e+02  -8.684512e+01
   2.147914e+02   1.270816e+02
   9.834793e+01   1.416082e+02
  -5.542307e+01   1.466212e+02
  -1.026297e+02   6.025268e+01
  -7.551213e+01   7.180995e+01
  -6.670640e+01   8.505806e+01
  -8.604110e+01   6.629324e+01
  -1.364388e+02  -1.353846e+01
  -1.224979e+02  -1.531796e+02
  -3.759519e+01  -1.860253e+02
   9.760165e+01  -1.231933e+02
   1.120870e+02   2.941774e+01
   1.258543e+02   1.316511e+02
  -1.166631e+01   1.231913e+02
  -4.054830e+01   4.219010e+01
  -5.157000e+01  -2.180289e+01
   5.483778e-01  -1.752477e+01
   1.862336e+01  -5.675624e+01
  -2.908470e+01   2.046977e+01
  -8.812564e+01  -3.062695e+01
  -6.470540e+01  -7.695544e+01
   8.870869e+01  -3.183984e+01
   1.657827e+02   8.615828e+00
   1.245189e+02   8.003851e+01
  -1.899827e+01   9.712665e+01
  -1.381928e+02   5.405741e+01
  -1.566849e+02  -5.280491e+00
  -6.749722e+01  -5.362299e+01
   5.632435e+01  -1.835110e+01
   6.106433e+01   8.271718e+00
  -2.530320e+01   8.297559e+01
  -4.777056e+01   5.032769e+01
  -7.782126e+01  -1.077557e+01
  -3.803419e+01  -2.669261e+01
  -4.761327e+01  -7.778046e+01
  -4.837037e+01  -9.483065e+00
  -3.461622e+01  -1.265480e+01
  -4.451770e+01  -5.431823e+01
  -2.542253e-01  -1.692094e+02
   1.146366e+02  -1.478396e+02
   1.441053e+02  -4.664264e+01
   1.337091e+02   8.783624e+01
  -3.702708e+00   1.257127e+02
  -7.782641e+01   4.829547e+01
  -5.887996e+01  -1.861489e+01
   8.029056e+01  -2.113759e+01
   1.317520e+02   1.595397e+01
   9.178755e+01   9.838667e+01
  -6.683847e+01   1.158526e+02
  -1.974928e+02   2.328175e+01
  -1.919639e+02  -3.682996e+01
  -4.457027e+01  -8.592368e+01
   5.606402e+01  -5.446863e+01
   5.403412e+01   1.280306e+01
  -5.894248e+01   8.048488e+00
  -9.270045e+01  -5.094464e+01
  -3.101315e+01  -1.071210e+02
   1.005844e+02  -1.758733e+02
   1.561666e+02  -1.982124e+01
   1.179177e+02   9.985679e+01
   5.648323e+00   1.832821e+02
  -7.316048e+01   1.228092e+02
  -8.000021e+01  -1.002887e+01
  -1.264804e+01  -8.975179e+01
   3.390529e+01  -1.225323e+02
   8.411869e+01  -2.368158e+01
   4.012663e+01   2.855416e+01
  -7.073242e+00   1.436943e+01
  -2.421620e+00  -1.248026e+01
   2.934028e+01   2.821397e-01
   5.048701e+01   1.082081e+02
   3.866704e+01   9.171656e+01
  -7.249259e+01   7.974383e+00
  -1.306826e+02  -5.268784e+01
  -1.221655e+02  -8.795836e+01
  -2.907321e+01  -4.972685e+01
   6.447824e+01  -1.018685e+01
   9.321753e+01   1.833742e+01
   1.098830e+01   2.819069e+01
  -8.804775e+00  -8.373760e+00
  -2.221366e+01   3.535314e+01
  -2.454578e+01  -2.788638e+01
   1.075073e+01  -1.951497e+01
  -6.274923e+01   1.921044e+01
  -1.223388e+02  -1.665569e+01
  -2.324536e+01  -7.417175e+01
   1.072122e+02  -8.646411e+01
   1.594446e+02  -6.641570e+01
   1.321783e+02   7.435767e+01
   1.764831e+01   1.447719e+02
  -6.927525e+01   1.514677e+02
  -1.274313e+02   6.769989e+01
  -7.211977e+01  -1.690939e+01
  -1.402246e+00  -3.789417e+01
  -5.485147e-01  -2.880253e+01
   1.664871e+00   1.057074e+01
  -2.460738e+01  -6.137085e+01
   2.170705e+01  -7.654748e+01
   4.326174e+01  -4.644772e+01
   7.101002e+01   7.016875e+00
   6.188059e+01   1.241310e+02
   2.548733e+01   1.355474e+02
  -5.006505e+01   5.933021e+01
  -1.022434e+02  -6.758862e+01
  -4.633769e+01  -1.061323e+02
   5.300297e+01  -4.751532e+01
   8.536638e+01  -2.078733e+01
   3.950356e+01   5.585897e+01
  -1.944572e+00   5.155189e+01
  -5.882362e+01   4.208328e+01
   3.463407e+01  -9.689021e+00
   6.554185e+01   3.722076e+00
   1.892544e+01   4.368014e+01
  -6.620476e+01   4.435486e+01
  -8.918355e+01   2.805275e+01
  -7.586714e+01  -1.783006e+01
   8.909319e+00  -8.313405e+01
   5.032802e+01  -7.451206e+01
   2.302105e+01   6.630549e+00
   2.163689e+01   4.550490e+01
  -2.585153e+01   6.035171e+01
  -4.637377e+01  -2.847918e+01
  -2.327994e+01  -4.817736e+01
  -1.947030e+01  -4.653670e+01
   4.481798e+01   2.595320e+01
   6.643632e+00   2.982090e+01
   5.807560e+00   2.207521e+01
  -1.403098e+01  -1.787656e+01
  -1.045741e+01   5.344639e+00
  -8.227673e-01   9.296994e+00
   4.548748e+00   2.738804e+01
  -5.052824e+01  -1.368003e+01
  -7.100175e+01  -2.397572e+01
   5.054498e-01  -4.194901e+01
   5.079586e+01  -1.914583e+01
   8.843828e+01   5.125614e+01
   9.150047e+00   6.673779e+01
  -5.086201e+01   5.215407e+01
  -7.564655e+01  -2.873821e+00
  -5.495246e+01  -2.478045e+01
   2.637985e+01  -6.042379e+01
   6.087489e+01  -1.924353e+01
   3.954869e+01  -3.474521e+01
  -3.393861e+01   2.155705e+01
  -3.345229e+01   2.423730e+01
   3.211050e+01  -2.124442e+01
   7.085518e+01  -2.094796e+01
