
 $NMID
 id='ANONYMOUS ', fmtdat='(2E16.6)'
 volume=1.0
 tramp=1.0
 $END
   2.692611e+03   1.874736e+02
   1.967412e+03   1.856562e+03
   1.097677e+01   2.200242e+03
  -1.186740e+03   1.129632e+03
  -8.226971e+02  -2.480991e+01
  -6.063471e+01  -1.642399e+02
   3.271860e+02   1.257732e+02
   1.686770e+02   5.800423e+02
  -4.975532e+02   5.050679e+02
  -5.643783e+02  -1.007872e+01
  -4.296700e+02  -4.101801e+02
   2.164510e+01  -5.455090e+02
   2.201910e+02  -1.539217e+02
   2.829174e+02   5.028366e+02
  -6.496377e+01   5.265296e+02
  -3.760676e+02   4.516589e+01
  -3.043095e+02  -4.721218e+02
   1.049957e+02  -5.325448e+02
   4.801919e+02  -3.045095e+02
   4.540762e+02   1.938181e+02
   5.550826e+01   3.605604e+02
  -1.247251e+02   1.730355e+02
  -6.133874e+01   3.347591e+01
   1.420424e+02   9.353148e+01
   1.599722e+02   2.589426e+02
  -1.717102e+01   3.133411e+02
  -4.491273e+02   1.779401e+02
  -4.558724e+02  -2.632868e+02
  -2.583511e+02  -2.706133e+02
   4.845758e+02  -1.718098e+02
   4.376427e+02   2.390887e+02
   1.061023e+02   4.312502e+02
  -3.072050e+02   2.973911e+02
  -4.494656e+02   8.856197e+01
  -3.613662e+02  -1.774529e+02
  -1.292481e+02  -3.178473e+02
   7.150342e+01  -1.729112e+02
   3.368053e+01   5.913209e+01
  -1.648201e+02   6.081558e+01
  -1.316713e+02  -1.407611e+02
   1.210959e+01  -4.804661e+02
   1.997316e+02  -4.379726e+02
   3.101950e+02  -3.410169e+01
   1.231189e+02   2.681667e+02
  -1.622633e+02   1.161009e+02
  -1.291816e+02  -2.894783e+02
   1.072140e+02  -3.599001e+02
   4.286089e+02  -2.617216e+01
   5.388769e+02   3.835891e+02
   1.429892e+02   4.683613e+02
  -2.785600e+02   2.722733e+02
  -4.753936e+02  -2.604759e+00
  -2.972966e+02  -2.214894e+02
   7.993113e+01  -1.575234e+02
   2.425689e+02  -1.027474e+02
   1.980653e+02  -1.901200e+01
  -1.342910e+01  -1.432000e+01
  -6.112296e+01  -1.365393e+01
   8.192347e+01  -8.214137e+01
   2.781056e+02   5.337781e+01
   1.060701e+02   2.286498e+02
  -1.744641e+02   2.339335e+02
  -3.343591e+02   1.477813e+02
  -2.161495e+02  -7.843847e+01
   4.731244e+01  -3.353985e+02
   3.412445e+02  -3.116615e+02
   3.085614e+02  -1.264280e+02
   2.374339e+02   1.686023e+02
  -3.130659e+01   3.699585e+02
  -5.794090e+00   2.827015e+02
  -4.395938e+01   1.692064e+02
  -7.689371e+01   8.422695e+01
  -1.450100e+02   4.163679e+01
  -2.738925e+02   5.729114e+01
  -2.100089e+02  -1.534457e+02
  -9.999395e+01  -2.628565e+02
   1.330092e+02  -1.653531e+02
   1.972274e+02   4.890360e+00
   1.248100e+02   2.210911e+02
  -4.930216e+01   2.285933e+02
  -2.209486e+02   4.862453e+01
  -2.365165e+02  -2.024665e+02
  -1.855085e+02  -2.490030e+02
   6.209240e+01  -2.697530e+02
   1.120343e+02  -1.506422e+02
   1.347021e+02  -4.287848e+01
   1.198957e+02  -6.726192e+01
   2.860089e+02  -4.592552e+01
   3.978766e+02   1.566261e+02
   3.054615e+02   2.998825e+02
  -5.483177e+01   3.970226e+02
  -4.293945e+02   3.820445e+02
  -4.577719e+02   1.847577e+02
  -2.718418e+02  -1.350327e+02
   4.057894e+00  -2.554119e+02
   7.770978e+01  -1.499641e+02
   3.127668e+01  -3.603974e+01
  -1.233632e+02   5.161812e+01
  -1.309146e+02  -3.752276e+01
   6.012077e+01  -1.671079e+02
   1.293014e+02  -1.040957e+02
   1.113573e+02   1.733717e+01
  -3.739964e+01   1.225026e+02
  -1.263780e+02   2.190108e-01
  -1.073228e+02  -2.265585e+02
   4.343648e+01  -3.544079e+02
   2.220590e+02  -1.961714e+02
   3.103772e+02   5.940487e+01
   2.602978e+02   2.828577e+02
   4.918354e+01   3.250402e+02
  -1.343959e+02   1.184852e+02
  -1.480626e+02  -2.238138e+01
   8.885047e+00  -2.948783e+01
   5.635558e+01   6.448324e+01
   6.574923e+00   9.741651e+01
  -1.071179e+02   4.941786e+01
  -8.994290e+01  -5.840758e+01
  -5.821204e+01  -7.064022e+01
   7.234569e+01   1.227017e+01
   1.351672e+01   1.007464e+02
  -1.254549e+02   7.760847e+01
  -3.041508e+02  -4.100344e+01
  -2.462942e+02  -2.192299e+02
  -1.785388e+01  -2.495328e+02
   2.063014e+02  -2.120994e+02
   2.472719e+02  -1.244628e+02
   1.722678e+02   6.357745e+01
  -3.590203e+01   7.620035e+01
  -3.967021e+01  -2.625298e+01
   8.784227e+01  -3.707541e+01
   1.834709e+02  -4.089118e+01
   1.708176e+02   1.290625e+02
   3.693828e+01   1.760419e+02
  -8.931777e+01   1.218809e+02
  -9.048978e+01  -1.609837e+00
  -3.024882e+01  -5.375059e+01
   2.443284e+01   2.480624e+01
   3.225429e+01   1.115759e+02
  -9.030329e+01   9.783042e+01
  -1.569018e+02  -1.896122e+00
  -1.469303e+02  -1.654589e+02
   1.769566e+01  -2.123018e+02
   1.408586e+02  -1.314680e+02
   1.533967e+02   1.941571e+01
   4.915706e+01   9.703644e+01
  -7.309820e+01   8.756696e+01
  -7.727409e+01   1.325458e+01
   6.099678e+00  -2.364015e+01
   2.626825e+01   8.681317e+00
  -6.525233e+00   3.074443e+01
  -8.893119e+01  -4.473548e+00
  -8.358262e+01  -1.012718e+02
   1.595643e+01  -1.602504e+02
   1.604093e+02  -1.321323e+02
   2.303142e+02  -9.565031e+00
   1.928654e+02   1.465299e+02
  -2.625838e-01   2.455325e+02
  -8.427762e+01   1.300058e+02
  -1.372272e+02   2.412639e+01
  -6.431842e+01  -5.186160e+01
  -4.577186e+01  -3.733082e+01
  -6.370211e+01   2.195447e+01
  -6.372509e+01  -5.551324e+00
  -6.992827e+01  -5.989109e+01
   2.367340e+00  -9.952628e+01
   1.241400e+02  -6.839290e+01
   1.033035e+02   5.929843e+01
  -1.863093e+01   1.359520e+02
  -1.551742e+02   7.430867e+01
  -1.778813e+02  -8.604693e+01
  -6.364422e+01  -1.956483e+02
   1.164732e+02  -2.107418e+02
   2.585896e+02  -4.432812e+01
   1.792005e+02   9.292862e+01
   5.821614e+01   1.673056e+02
  -2.157298e+01   1.138187e+02
  -8.878233e+01   7.374373e+01
  -4.985459e+01   3.362986e+01
  -6.661216e+01   8.519936e+01
  -7.637214e+01   6.257481e+01
  -1.364929e+02  -4.314862e+01
  -1.164051e+02  -1.615395e+02
  -2.837850e+00  -2.260869e+02
   1.520930e+02  -1.539580e+02
   1.587051e+02   6.134406e+00
   1.045752e+02   1.157883e+02
  -3.273505e+00   1.274505e+02
  -5.565883e+01   7.017966e+01
  -5.097427e+01  -2.141089e+01
   1.457519e+01  -4.987685e+01
   3.421604e+01  -3.653396e+01
  -2.063003e+01  -1.737089e+01
  -6.719866e+01  -1.116853e+01
  -6.488017e+01  -5.310206e+01
   9.551656e+01  -2.498674e+01
   1.486473e+02  -2.605619e+00
   1.363013e+02   6.918651e+01
   1.846440e+01   8.019793e+01
  -1.277380e+02   6.311703e+01
  -1.260189e+02  -3.066513e+01
  -6.229793e+01  -4.995563e+01
   5.390583e+01  -4.201006e+01
   8.918202e+01   1.348922e+01
  -8.381808e+00   6.598841e+01
  -5.232496e+01   5.336416e+01
  -7.715784e+01  -7.482768e-01
  -4.064023e+01  -2.680971e+01
  -5.330824e+01  -6.625228e+01
  -5.986531e+01  -4.887999e+00
  -4.889090e+01   2.590750e+01
  -5.270171e+01  -8.000704e+01
   6.787397e+01  -1.376956e+02
   1.458642e+02  -1.170969e+02
   1.605887e+02  -9.375656e+00
   9.684069e+01   9.177502e+01
  -2.846662e+01   1.268857e+02
  -5.887224e+01   6.227501e+01
  -5.402308e+01  -2.718868e+01
   6.203662e+01  -1.934347e+01
   8.705473e+01   2.582839e+01
   5.178209e+01   8.240173e+01
  -9.560646e+01   9.124993e+01
  -1.847330e+02   7.357401e+01
  -1.169163e+02  -5.978311e+01
  -1.102456e+01  -8.158404e+01
   4.937906e+01  -6.465564e+01
   9.914551e+00   1.607709e+00
  -2.940776e+01  -2.129663e+00
  -1.132623e+02  -3.271284e+01
  -5.616401e+01  -8.456733e+01
   8.235917e+01  -1.195031e+02
   1.975453e+02  -2.204919e+01
   6.499182e+01   8.102795e+01
   1.503549e+00   1.649423e+02
  -8.953088e+01   1.283819e+02
  -1.028534e+02  -1.639039e+01
  -5.571883e+01  -1.130535e+02
  -6.957799e-01  -1.078638e+02
   4.669194e+01   4.661262e+00
   6.354513e+01   6.462730e+01
   3.848514e+01  -5.163778e-01
  -7.273929e+00  -1.939383e+00
   1.635804e+01   1.202279e+01
   6.374530e+01   6.353361e+01
   1.682577e+01   1.096977e+02
  -6.823786e+01   2.854306e+01
  -1.031680e+02  -3.946588e+01
  -1.146091e+02  -1.141572e+02
  -1.518430e+01  -5.831529e+01
   8.156625e+01  -6.590422e+00
   8.426950e+01  -1.387918e+01
   1.340040e+01  -8.900760e+00
   1.444981e+01   2.437825e+01
  -2.854529e+01   1.125351e+01
   3.925319e+00  -1.706257e+01
   9.764461e+00  -1.339832e+00
  -6.904989e+01  -2.725408e+00
  -7.127634e+01  -4.728424e+01
  -2.552677e+01  -7.090110e+01
   9.194969e+01  -1.073460e+02
   1.677349e+02  -5.793366e+01
   1.567585e+02   4.824260e+01
   3.043605e+01   1.847683e+02
  -6.109959e+01   1.441765e+02
  -1.382252e+02   5.193265e+01
  -9.781989e+01  -3.590664e+01
  -3.610145e+01  -4.921758e+01
   1.611070e+01  -2.925201e+01
  -1.777049e+01  -3.496665e+00
  -2.419486e+01  -3.712764e+01
  -2.341728e+01  -8.386830e+01
   2.088005e+01  -4.241114e+01
   5.994231e+01  -3.885155e+00
   7.249229e+01   1.006301e+02
   4.198662e+00   1.133407e+02
  -6.262821e+01   2.390239e+01
  -8.270717e+01  -5.481061e+01
  -5.222889e+01  -9.341182e+01
   7.540914e+01  -5.801524e+01
   7.540477e+01   3.406994e+01
   4.948476e+01   4.738482e+01
  -1.498750e+01   3.916903e+01
  -1.728726e+01   4.451420e+01
   1.803644e+01   1.681227e+00
   6.181269e+01  -6.022026e+00
   2.519320e+01   6.280250e+00
  -7.354292e+01   6.462486e+01
  -1.310585e+02   6.396520e+01
  -5.679349e+01  -2.132888e+00
  -1.223808e+01  -9.608955e+01
   5.801688e+01  -9.085612e+01
   4.907115e+01   3.160111e+01
   1.039633e+01   5.251826e+01
  -6.300744e+01   5.119492e+01
  -6.591875e+01   3.411646e+00
  -8.723040e+00  -3.801259e+01
  -2.405467e+01  -2.814396e+01
  -1.020571e+00   1.455700e+01
   1.056361e+01   3.582091e+01
   3.309361e+01   2.572173e+01
  -1.992491e+01  -1.027684e+01
  -1.282059e+00  -2.825907e+01
   3.210550e+01   3.258130e+01
  -1.623963e+01   7.025351e+01
  -2.694498e+01   2.169972e+01
  -2.284969e+01  -3.759426e+01
   1.005702e+00  -7.563223e+01
   3.668660e+01  -3.095116e+01
   6.798240e+01   1.790753e+01
  -4.126923e+00   3.299829e+01
  -6.533221e+01   6.785765e+01
  -1.176644e+02  -3.847205e+01
  -5.471738e+01  -3.593259e+01
   1.852333e+01  -3.375368e+01
   6.846755e+01   1.435378e+00
   5.889683e+01  -3.173271e+00
  -3.398310e+01   1.186627e+01
  -4.024139e+01   1.084420e+01
   2.229737e+01  -9.316105e+00
   6.564070e+01   1.117870e+01
