
 $NMID
 id='ANONYMOUS ', fmtdat='(2E16.6)'
 volume=1.0
 tramp=1.0
 $END
  -2.489772e+03   2.227256e+02
  -1.513357e+03  -9.417016e+02
  -1.541371e+02  -1.691241e+03
   7.636865e+02  -1.049258e+03
   9.276939e+02  -3.550172e+02
   2.816870e+02   9.674556e+01
  -2.085534e+02   1.938127e+02
   4.545981e+01  -4.327467e+02
   2.867979e+02  -5.328916e+02
   4.088266e+02  -8.566699e+01
   3.908065e+02   3.550284e+02
   6.154358e+01   4.353525e+02
  -1.292655e+02   1.475017e+02
  -2.454696e+02  -3.335266e+02
   2.155143e+01  -4.454688e+02
   3.100436e+02  -1.425937e+02
   3.410516e+02   3.306884e+02
  -1.142543e+01   5.333429e+02
  -3.689264e+02   2.695084e+02
  -3.509439e+02  -1.051742e+02
  -1.216758e+02  -3.169569e+02
   1.010485e+02  -2.212188e+02
  -2.197462e+01  -6.098120e+01
  -1.754374e+02  -1.348677e+02
  -1.803024e+02  -2.172741e+02
   6.769582e+01  -3.351786e+02
   3.616915e+02  -9.284449e+01
   3.998354e+02   1.545853e+02
   1.358981e+02   2.208036e+02
  -3.061055e+02   1.385633e+02
  -3.682366e+02  -1.539843e+02
  -8.648719e+01  -3.358757e+02
   2.309016e+02  -2.509548e+02
   2.981473e+02  -3.988954e+01
   2.826355e+02   1.696088e+02
   9.537509e+01   2.037298e+02
  -3.578520e+01   1.104608e+02
   6.814436e+01  -1.606742e+01
   1.227252e+02  -3.910152e+01
   3.475577e+01   1.486567e+02
  -7.933964e+01   3.057644e+02
  -1.779980e+02   3.208615e+02
  -2.504373e+02  -4.327715e-01
  -3.271091e+00  -2.493555e+02
   6.217968e+01  -1.553023e+01
   2.014482e+01   1.961985e+02
  -1.055424e+02   2.608067e+02
  -3.404862e+02   6.766485e+01
  -4.283783e+02  -3.760247e+02
  -1.129079e+02  -4.399240e+02
   2.095950e+02  -2.176256e+02
   4.143046e+02   8.828123e+00
   3.233466e+02   2.015450e+02
  -6.082659e+01   1.609616e+02
  -1.954251e+02   5.093285e+01
  -1.727638e+02   2.737790e+01
  -2.986379e+01   3.988177e+01
   4.371901e+01   4.385991e+01
  -4.400370e+01   7.192305e+01
  -1.816542e+02  -7.503244e+01
  -1.101476e+02  -1.688033e+02
   1.359794e+02  -2.261590e+02
   3.626293e+02  -1.232012e+02
   2.248026e+02   1.047417e+02
   6.150615e+00   3.205820e+02
  -3.509179e+02   3.070762e+02
  -3.006519e+02   1.198027e+02
  -2.323764e+02  -1.274805e+02
  -3.193811e+00  -2.978279e+02
  -3.392407e+00  -2.740155e+02
  -3.730063e+01  -1.327923e+02
   5.157115e+01  -1.388920e+02
   1.468715e+02  -8.220958e+01
   2.336832e+02  -6.877763e+01
   2.245879e+02   1.431027e+02
   1.055078e+02   1.844861e+02
  -9.327039e+01   1.332025e+02
  -1.493970e+02  -1.520885e+00
  -1.395948e+02  -1.896973e+02
   6.128418e+01  -2.363263e+02
   2.197640e+02  -9.732817e-01
   2.270086e+02   1.567705e+02
   1.445039e+02   2.447275e+02
  -3.471310e+01   2.101431e+02
  -9.995308e+01   1.612994e+02
  -1.369876e+02   1.422116e+02
  -1.468210e+02   6.616866e+01
  -2.809198e+02   1.339886e+00
  -2.842838e+02  -5.559731e+01
  -2.444379e+02  -3.095042e+02
   2.188691e+01  -3.354143e+02
   3.302495e+02  -3.291881e+02
   3.800748e+02  -1.678183e+02
   1.970302e+02   6.429670e+01
   4.382084e+01   2.351924e+02
  -3.607027e+01   1.423836e+02
  -1.455162e+01   3.777449e+01
   1.084011e+02  -3.760059e+01
   6.999716e+01   2.007205e+01
  -1.894829e+01   1.080408e+02
  -4.893327e+01   5.475267e+01
  -5.689955e+01  -4.118418e+01
   4.652814e+01  -8.126066e+01
   1.261663e+02  -1.501796e+00
   1.176027e+02   2.156039e+02
  -5.558692e+01   3.039164e+02
  -1.660599e+02   2.040142e+02
  -3.406342e+02  -1.606101e+01
  -2.542665e+02  -2.508248e+02
  -3.202237e+01  -2.819643e+02
   1.178948e+02  -1.199318e+02
   1.250803e+02   1.550939e+01
   3.377917e+01  -1.780038e+01
  -2.021810e+01  -6.628863e+01
  -8.868670e+00  -9.230477e+01
   1.129599e+02  -3.005547e+01
   1.380998e+02   5.003249e+01
   5.335137e+01   3.575414e+01
  -3.713844e+01   8.344087e-02
  -2.173608e+01  -6.006688e+01
   1.183256e+02  -7.031037e+01
   2.466756e+02   3.314579e+01
   2.139679e+02   1.516247e+02
   1.445079e+01   2.494627e+02
  -1.803385e+02   1.905204e+02
  -2.658333e+02   8.931471e+01
  -7.876099e+01  -6.084894e+01
   2.588514e+01  -6.378949e+01
   5.412918e+01   2.678776e+01
  -8.710390e+01   4.246038e+01
  -1.598424e+02   2.951146e+01
  -1.441787e+02  -7.970487e+01
  -5.611153e+01  -1.488956e+02
   5.456350e+01  -8.761276e+01
   8.326598e+01   2.242497e+01
   3.869216e+01   3.879488e+01
  -5.873207e+01  -3.472754e+01
  -1.059732e+01  -1.074186e+02
   9.820566e+01  -1.069641e+02
   1.755301e+02  -1.831070e+01
   1.606416e+02   1.223400e+02
  -1.491019e+01   1.477654e+02
  -1.471978e+02   1.446723e+02
  -1.408283e+02   1.947844e+01
  -4.004132e+01  -7.419043e+01
   6.265412e+01  -1.012322e+02
   6.415619e+01  -8.819936e+00
   2.520163e+00   1.176654e+01
  -4.250679e+01  -5.152066e+00
  -2.383479e+00  -3.202259e+01
   7.397337e+01   2.115193e+01
   7.648218e+01   1.155955e+02
  -7.967765e+00   1.364459e+02
  -1.302190e+02   1.121241e+02
  -2.183828e+02   2.216482e+01
  -1.828926e+02  -1.144350e+02
  -4.046280e+01  -1.845977e+02
   4.648971e+01  -1.311748e+02
   1.178015e+02  -8.397665e+00
   6.119106e+01   3.186894e+01
   9.000763e+00  -6.180670e-01
   6.307758e+01   2.853669e+01
   7.074991e+01  -2.691222e+01
   4.683910e+01   7.499907e+01
  -4.429375e+01   1.206434e+02
  -1.225060e+02   9.371454e+01
  -1.115291e+02  -3.307973e+01
   1.733784e+01  -1.128117e+02
   1.403234e+02  -9.154595e+01
   1.592249e+02   9.136097e+01
   2.483502e+01   1.642300e+02
  -1.054850e+02   1.761769e+02
  -2.154917e+02   4.241690e+01
  -2.140558e+02  -9.306567e+01
  -6.973946e+01  -1.818893e+02
   1.729410e+01  -1.196481e+02
   4.880871e+01  -5.346313e+01
   4.832450e+01  -6.613977e+01
   5.806755e+01  -6.497294e+01
   6.919769e+01  -8.192105e+01
   9.855202e+01   3.059487e+01
   1.266750e+02   1.484833e+02
   6.895969e+00   2.130601e+02
  -7.344874e+01   1.152574e+02
  -1.378927e+02  -1.869963e+01
  -6.852979e+01  -9.514233e+01
  -5.804050e+00  -1.544370e+02
   5.782053e+01  -7.133645e+01
   6.941173e+01  -1.178366e+01
  -1.884198e+01   5.050627e+01
  -1.019050e+01   2.675581e+01
   1.199987e+01   9.946488e+00
   5.885771e+01   1.976453e+01
   6.282629e+01   4.216237e+01
  -5.449956e+01   1.626540e+01
  -1.237549e+02  -2.166835e+01
  -1.129326e+02  -4.990562e+01
   1.911616e+01  -7.794876e+01
   9.347862e+01  -5.871234e+01
   1.237603e+02   1.809905e+01
   5.757308e+01   6.753533e+01
  -7.847999e+01   6.593476e+01
  -4.302859e+01  -2.093677e+00
  -1.463355e+01  -5.749793e+01
   5.345294e+01  -8.583827e+01
   5.026412e+01  -1.731210e+01
   3.788151e+01   3.959840e+01
   4.098742e+01   3.490530e+01
   5.392961e+01  -7.466471e+00
   4.886573e+01  -9.082883e+00
   7.343073e+01   6.741428e+01
  -4.403735e+01   1.367251e+02
  -1.049627e+02   1.009811e+02
  -1.457711e+02   2.754304e+01
  -1.206584e+02  -7.531576e+01
   1.218876e+01  -1.173224e+02
   6.969010e+01  -6.797454e+01
   4.116398e+01  -1.102270e+01
  -3.951279e+01   3.135352e+01
  -1.085885e+02  -1.844389e+01
  -5.059868e+01  -7.973844e+01
   6.807778e+01  -1.193627e+02
   1.697199e+02  -3.228308e+01
   1.195593e+02   3.957549e+01
   1.139112e+01   7.472316e+01
  -4.579441e+01   3.321154e+01
  -1.492667e+01  -3.763501e+00
   4.868860e+01  -2.999097e+01
   7.317371e+01   2.210759e+01
   3.909053e+01   8.814497e+01
  -3.509153e+01   1.029778e+02
  -1.336372e+02   5.347159e+01
  -1.116073e+02  -9.615505e+01
  -9.877702e+00  -1.676278e+02
   4.132182e+01  -9.618736e+01
   9.769833e+01   4.578440e+00
   4.534207e+01   1.129154e+02
  -4.568617e+01   7.793383e+01
  -1.803321e+01   9.191669e+00
  -4.476814e+01  -1.329919e+01
  -1.735720e+01   4.726659e+00
  -1.592396e+00  -9.966719e+00
  -3.635938e+01  -2.956763e+01
  -7.055432e+01  -6.940766e+01
  -3.395981e+01  -7.305826e+01
   6.596076e+01  -3.278491e+01
   1.142273e+02   7.949634e+00
   9.591938e+01   3.670642e+01
   2.319158e+01   6.743976e+01
  -7.094876e+01   2.019430e+01
  -4.849771e+01   1.665016e+01
  -3.536633e+00  -6.409811e+00
   2.432734e+01  -4.741322e+01
   1.603599e+00  -4.511242e+00
   2.083824e+01  -4.073242e-01
   2.541798e+00  -1.566349e+01
   4.077395e+01  -3.821261e+00
   8.699827e+01   8.015697e+00
   1.897319e+01   6.018054e+01
  -7.648255e+01   5.751941e+01
  -1.963519e+02   5.779706e+01
  -1.494671e+02  -2.651908e+01
  -9.673630e+00  -1.620027e+02
   8.146946e+01  -1.414731e+02
   1.167700e+02  -4.182399e+01
   6.450382e+01   1.940861e+01
   5.185188e+00   5.522397e+01
  -1.510945e+01   2.546416e+01
   4.195098e-02   2.557351e+01
   1.708422e+01   4.928327e+01
   3.349320e+01   1.093811e+02
  -3.723008e+01   5.129609e+01
  -6.854669e+01  -1.249220e+01
  -5.270738e+01  -8.084323e+01
   3.143599e+01  -9.834088e+01
   5.664282e+01  -5.459791e+01
   1.022165e+02   2.569127e+01
   3.006294e+01   8.771201e+01
  -6.199813e+01   5.774943e+01
  -9.628480e+01  -6.334140e-01
  -3.469701e+01  -5.130197e+01
   2.298721e+01  -4.315776e+01
   2.454250e+01  -6.983998e+00
  -1.025824e+01   8.829306e+00
  -4.122962e+01   2.246786e+01
   1.035252e+01  -2.356757e+00
   4.980443e+01  -6.503523e+01
   1.020443e+02  -3.435266e+01
   6.788201e+01   4.892733e+01
  -1.012770e+01   7.446240e+01
  -7.587518e+01   7.670827e+01
  -5.576606e+01   1.887926e+01
  -3.210821e+00  -4.260133e+01
   2.837316e+01  -1.284561e+01
   4.257428e+01   1.647238e+01
   9.472414e+00   4.840640e+01
   1.489933e+01  -2.496756e-01
  -3.440029e+01  -8.627309e+00
  -3.400216e+01  -4.321542e-01
   4.524466e+00  -2.611204e+01
   1.346853e+01   3.662724e+01
   8.531106e+00  -1.202194e+01
  -1.502836e+01  -2.783531e+01
   2.532271e+01  -5.563900e+01
   4.315993e+01  -4.320099e+01
   4.399448e+01  -9.237834e-01
  -4.932513e-01   7.115076e+01
  -1.762651e+01   2.381109e+01
  -6.913501e+01  -3.942201e+01
  -4.186526e+01  -4.891448e+01
   4.476198e+01  -4.539171e+01
   7.534158e+01   2.014146e+00
   4.627176e+01   4.236059e+01
  -1.341587e+00   5.169885e+01
  -6.009113e+01   4.441837e+01
  -7.168077e+01   2.228454e+01
   2.705983e+01  -9.805632e+00
   2.627645e+01   5.559844e+00
  -6.189258e+00   9.146994e+00
  -5.314999e+01  -2.602218e+00
