
 $NMID
 id='ANONYMOUS ', fmtdat='(2E16.6)'
 volume=1.0
 tramp=1.0
 $END
  -3.147895e+03  -1.281938e+02
  -1.801508e+03  -2.015688e+03
   4.844084e+02  -2.438352e+03
   1.740559e+03  -6.858642e+02
   6.213038e+02   3.349849e+02
  -4.210860e+02   2.316158e+02
  -6.720383e+02  -2.685979e+02
  -3.991267e+00  -8.946903e+02
   7.236634e+02  -5.898177e+02
   6.246528e+02   9.525607e+01
   3.395021e+02   6.648142e+02
  -2.157626e+02   6.154850e+02
  -4.559391e+02   4.499052e+01
  -2.156232e+02  -6.678259e+02
   2.718189e+02  -5.267618e+02
   4.030727e+02   6.185510e+01
   1.938680e+02   5.655559e+02
  -2.078688e+02   4.656841e+02
  -4.322770e+02   1.282290e+02
  -3.036558e+02  -2.991096e+02
  -3.166329e+01  -3.703576e+02
   2.143309e+02  -1.321153e+02
   1.383905e+02  -1.102558e+00
  -8.749233e+01   2.455193e+00
  -3.528061e+02  -1.147464e+02
  -9.554888e+01  -3.536264e+02
   4.139971e+02  -2.871955e+02
   5.628226e+02   6.645721e+01
   2.924713e+02   3.222263e+02
  -3.572135e+02   2.394570e+02
  -4.922702e+02  -7.341473e+01
  -2.542670e+02  -3.816644e+02
   2.919459e+02  -3.572256e+02
   4.703719e+02  -1.424761e+02
   3.337364e+02   2.236253e+02
   1.888815e+01   4.114891e+02
  -8.961740e+01   1.710285e+02
  -8.752063e+01  -1.553545e+02
   1.132288e+02  -2.830702e+02
   3.233828e+02   7.065070e+01
   1.411886e+02   5.082420e+02
  -2.459949e+02   5.179504e+02
  -4.723461e+02  -5.710274e+01
  -1.870701e+02  -3.841933e+02
   1.881732e+02  -2.038849e+02
   2.474303e+02   2.723935e+02
  -5.272696e+01   4.109397e+02
  -4.352540e+02   2.667447e+01
  -5.180469e+02  -3.368170e+02
  -8.961365e+01  -4.562684e+02
   3.132420e+02  -2.216316e+02
   5.839047e+02   8.992981e+01
   2.233632e+02   3.288980e+02
  -1.286984e+02   2.386160e+02
  -3.768728e+02   6.916006e+01
  -1.639066e+02  -1.187116e+02
   6.327306e+01  -6.151798e+01
   8.136117e+01   1.064946e+02
  -1.256507e+02   1.435307e+02
  -2.961225e+02  -3.374757e+01
  -1.313524e+02  -3.115124e+02
   1.223413e+02  -1.850286e+02
   3.082107e+02  -6.443019e+01
   1.519740e+02   2.491913e+01
  -2.457942e+01   2.305863e+02
  -1.682493e+02   2.397472e+02
  -2.620956e+02   1.614713e+02
  -1.601025e+02  -1.657217e+02
  -1.140621e+01  -3.520253e+02
   6.313554e+01  -2.613850e+02
   6.170291e+01  -7.102270e+01
   3.748261e+01   9.444943e+00
   7.188026e+00  -9.075314e+01
   1.555790e+02  -1.136827e+02
   2.487872e+02   7.646149e+01
   8.166636e+01   2.278449e+02
  -1.020776e+02   2.079342e+02
  -1.766487e+02  -7.474649e+00
  -1.396615e+02  -1.666562e+02
   3.883307e+01  -2.645441e+02
   2.098385e+02  -9.327676e+01
   2.631236e+02   1.571733e+02
   1.397537e+02   2.380421e+02
  -3.437517e+01   2.717281e+02
  -1.517296e+02   7.204321e+01
  -1.261321e+02   1.411641e+01
  -8.136207e+01   5.929536e+01
  -2.060969e+02   8.370832e+01
  -3.173288e+02  -6.537575e+01
  -2.427645e+02  -1.933357e+02
  -6.353443e+00  -3.439622e+02
   3.349690e+02  -3.471157e+02
   4.424624e+02  -1.022098e+02
   2.571704e+02   9.692061e+01
   2.563270e+01   2.159814e+02
  -1.032224e+02   1.849409e+02
  -8.824988e+01   2.680574e+01
   1.074518e+02  -7.842319e+01
   1.518794e+02   2.026949e+01
   5.539661e+01   1.294265e+02
  -1.143815e+02   1.162306e+02
  -1.222818e+02  -2.757626e+01
   6.897558e+01  -1.256492e+02
   1.430271e+02   2.021085e+01
   1.329186e+02   1.883477e+02
  -3.359428e+01   3.216588e+02
  -2.141968e+02   1.895794e+02
  -2.705283e+02  -7.774561e+01
  -2.026327e+02  -1.872142e+02
  -6.583054e+01  -2.446355e+02
   7.353158e+01  -9.855584e+01
   1.744464e+02  -3.942809e+00
   4.241818e+01   2.656222e+01
  -6.862249e+01  -4.054277e+01
  -1.289340e+01  -7.376711e+01
   1.097472e+02  -6.767527e+01
   1.208112e+02   6.664350e+00
   7.303802e+01   6.373067e+01
  -6.849698e+01   2.168078e+01
  -6.872632e+01  -7.245704e+01
   1.127828e+02  -2.147297e+01
   2.460342e+02  -1.704658e+01
   2.104473e+02   1.412952e+02
   1.497229e+01   2.008555e+02
  -1.613803e+02   2.050379e+02
  -2.247655e+02   1.328830e+02
  -1.094789e+02  -5.948877e+01
   1.502298e+01  -1.121520e+02
   6.741914e+01  -1.587010e+01
  -3.756863e+01   6.591708e+01
  -1.591775e+02   4.498447e+01
  -1.630599e+02  -1.013771e+02
  -4.447212e+01  -1.655068e+02
   1.032568e+02  -1.316536e+02
   1.014189e+02  -1.002868e+01
   7.708693e+01   6.018431e+01
   1.112713e+01   1.544839e+01
  -3.076635e+01  -8.618046e+01
   2.758916e+01  -1.161980e+02
   1.355803e+02  -3.166480e+01
   1.281444e+02   1.269835e+02
   3.558967e-01   1.778875e+02
  -1.398852e+02   1.431166e+02
  -1.569214e+02   9.866883e+00
  -4.099246e+01  -1.143016e+02
   6.030099e+01  -9.332712e+01
   7.160015e+01  -5.722605e+00
  -1.668136e+01   1.477366e+01
  -2.985885e+01   5.324243e+00
   1.493676e+01  -2.232103e+01
   2.847915e+01   1.343569e+01
   7.475032e+01   8.076700e+01
   1.458354e+01   1.363969e+02
  -9.861994e+01   1.411285e+02
  -2.149944e+02  -3.607662e+00
  -1.578319e+02  -1.244550e+02
  -2.336656e+01  -2.123030e+02
   1.000300e+02  -1.366855e+02
   1.501482e+02  -2.620614e+01
   8.355300e+01   3.303470e+01
   3.548492e+01   2.740522e+01
   5.318439e+01  -1.593386e+01
   6.042474e+01  -1.807458e+01
   3.808170e+01   4.426518e+01
  -3.963271e+01   5.809244e+01
  -8.961650e+01   1.579453e+01
  -8.331330e+01  -4.619629e+01
   1.776470e+00  -1.019281e+02
   1.222219e+02  -5.315777e+01
   1.575411e+02   5.879134e+01
   9.188718e+01   1.604521e+02
  -6.683729e+01   1.986436e+02
  -2.179548e+02   1.266701e+02
  -2.099220e+02  -3.647777e+01
  -1.076233e+02  -1.587240e+02
   1.135485e+01  -1.223269e+02
   6.110913e+01  -8.200276e+01
   8.500502e+01  -4.558136e+01
   5.460011e+01  -6.643184e+01
   6.483201e+01  -4.477020e+01
   1.079189e+02   5.499273e+00
   1.158211e+02   1.128974e+02
   4.140334e+01   1.960815e+02
  -8.129200e+01   1.575357e+02
  -1.909357e+02   1.005920e+01
  -1.347114e+02  -1.084939e+02
   1.280570e+01  -1.417204e+02
   3.950311e+01  -7.131080e+01
   7.376298e+01   9.053434e+00
  -2.341527e+01   4.866446e+01
  -2.300610e+01   1.452196e+01
   4.642725e+01   3.071346e+01
   5.024059e+01   2.663956e+01
   1.847015e+01   3.711931e+01
  -3.704681e+01   3.263757e+01
  -1.450552e+02  -1.670437e+01
  -1.358167e+02  -4.624012e+01
  -2.396514e+01  -9.548411e+01
   8.238320e+01  -5.401527e+01
   1.066277e+02   1.162547e+00
   4.758613e+01   1.771905e+01
  -5.049881e+01   4.210789e+01
  -5.622344e+01  -9.078383e+00
  -2.887006e+00  -7.910706e+01
   3.618510e+01  -3.542956e+01
   3.562771e+01   6.260624e+00
   4.218686e+01   5.128478e+01
   4.091559e+01   7.070673e+01
   4.250689e+01   3.525197e+00
   4.327300e+01   3.236431e+01
   6.463481e+00   3.342978e+01
  -4.690770e+01   1.129546e+02
  -1.264098e+02   8.550071e+01
  -1.728876e+02   2.839967e+01
  -1.050562e+02  -7.224923e+01
   1.542521e+01  -1.188884e+02
   5.220202e+01  -8.731806e+01
   3.796946e+01   6.111346e+00
  -5.816979e+01   3.363638e+01
  -1.157661e+02  -3.063322e+01
  -5.240449e+01  -7.666565e+01
   7.714732e+01  -1.019311e+02
   1.568264e+02  -9.508626e+00
   1.022687e+02   4.087844e+01
   4.064292e+01   6.111100e+01
  -6.491879e+01   5.616921e+01
  -7.455168e+01   1.450917e+00
   1.358267e+01  -1.618141e+01
   5.291980e+01   5.450884e+00
   2.648182e+01   9.418560e+01
  -9.871033e+01   1.057790e+02
  -1.516593e+02   4.723795e+01
  -8.466040e+01  -1.121328e+02
   4.438779e+01  -1.658059e+02
   7.034433e+01  -1.079024e+02
   1.208004e+02   2.471006e+00
   4.106116e+01   1.065593e+02
   1.497742e+01   9.354199e+01
  -4.281017e+01   7.020828e+00
  -2.700810e+01  -3.548880e+01
  -2.502583e+01  -7.298424e+00
   1.630125e+01  -9.509329e+00
  -4.120953e+01  -4.462726e+00
  -2.038146e+01  -9.582631e+01
  -3.988885e+01  -1.073904e+02
   7.471669e+01  -1.036577e+01
   1.115250e+02   1.227615e+01
   1.441971e+02   1.038228e+02
   1.741588e+01   2.896649e+01
  -8.251756e+01  -2.997431e+00
  -7.115426e+01   2.540187e+01
   9.272997e+00  -3.829999e+01
   1.954287e+01  -4.495318e+01
  -5.344165e+00   5.271086e+00
  -1.157768e+01   3.044544e+01
  -1.675282e+01   1.787518e+01
   4.872038e+01   1.837136e+01
   4.665858e+01   3.281968e+01
  -2.562965e+01   7.686859e+01
  -1.152625e+02   1.019602e+02
  -1.436222e+02   3.068579e+01
  -1.404486e+02  -7.286925e+01
  -1.711806e+01  -1.580572e+02
   7.308154e+01  -1.085258e+02
   1.038801e+02  -3.714121e+01
   5.641332e+01   1.215607e+01
   2.900631e+01   2.076042e+01
   9.168034e+00   3.557318e+00
   5.798871e+00   1.411277e+01
   3.587986e+01   1.727013e+01
  -2.090025e+00   8.410507e+01
  -4.146463e+01   6.823535e+01
  -7.560204e+01  -1.100063e+01
  -7.767663e+01  -1.232690e+02
  -2.854772e+00  -8.718949e+01
   8.382534e+01  -2.975930e+01
   6.391631e+01   9.050473e+01
   1.752675e+01   8.879785e+01
  -8.026472e+01   4.805297e+01
  -7.900479e+01  -3.672055e+01
  -1.935606e+01  -4.118332e+01
   1.276251e+01  -4.137776e+01
   7.157067e+00  -2.784013e+01
  -2.702980e+01   3.510245e+01
  -4.902705e+01  -3.245510e-01
   8.961448e+00  -2.750640e+01
   7.266358e+01  -3.247357e+01
   7.828527e+01  -3.678080e+01
   5.377154e+01   1.519402e+01
   4.692661e-01   8.285299e+01
  -8.791553e+01   6.560337e+01
  -1.484220e+01   1.383039e+01
   1.476743e+01  -4.095085e+01
   3.050656e+01  -2.639252e+01
   3.263383e+01   2.005949e+01
   2.616275e+01   2.734991e+01
   1.786024e+01   7.027639e+01
  -2.994106e+01  -6.205983e+00
  -2.202747e+01  -7.389282e+00
  -1.813127e+01   2.653083e+00
   3.159773e+01   2.775009e+01
   1.492438e+01   3.963508e+00
  -1.737698e+01  -1.865943e+01
   1.129688e+01  -5.826363e+01
   3.278537e+01  -8.769824e+00
   4.227664e+01   1.412473e+01
  -2.188678e+01   6.792104e+01
  -3.187285e+01   1.271479e+01
  -6.058683e+01  -4.149784e+01
  -2.033493e+01  -6.676026e+01
   1.504266e+01  -2.432671e+01
   8.141041e+01   1.583116e+01
   5.337196e+01   5.540486e+01
  -3.273013e+01   8.299932e+00
  -5.603212e+01   3.264456e+01
  -2.240430e+01  -1.447197e+01
   2.446335e+01   1.703129e+01
   2.209770e+01   3.788885e+01
  -3.099630e+01   2.631892e+01
  -4.488639e+01   2.561607e+01
