
 $NMID
 id='ANONYMOUS ', fmtdat='(2E16.6)'
 volume=1.0
 tramp=1.0
 $END
  -3.352271e+03   2.069869e+02
  -1.665872e+03  -1.778170e+03
   8.934130e+01  -1.918637e+03
   1.440503e+03  -1.076461e+03
   9.524201e+02   7.580038e+01
  -2.012893e+02   3.987187e+02
  -6.408181e+02  -1.142691e+02
   1.107551e+02  -5.645724e+02
   5.170832e+02  -6.359649e+02
   6.444251e+02  -3.139428e+01
   4.359229e+02   6.268199e+02
   2.017003e+01   6.788505e+02
  -3.326419e+02   1.636315e+02
  -1.270352e+02  -4.462164e+02
   1.535164e+02  -5.401731e+02
   4.118911e+02   2.340378e+01
   2.083851e+02   4.832855e+02
  -1.941164e+02   6.099403e+02
  -4.676803e+02   2.358561e+02
  -3.053652e+02  -2.354408e+02
  -1.213170e+02  -3.632793e+02
   1.851994e+02  -2.355281e+02
   9.564635e+01  -8.984904e+01
  -1.926467e+02  -2.776180e+00
  -3.122168e+02  -2.153910e+02
  -4.648386e+01  -3.242957e+02
   4.211843e+02  -2.738591e+02
   7.601648e+02   1.236768e+02
   3.268957e+02   3.557764e+02
  -3.950057e+02   2.671497e+02
  -6.626049e+02  -1.311998e+02
  -2.420816e+02  -3.618815e+02
   2.362458e+02  -3.610195e+02
   5.024233e+02  -1.847439e+02
   3.216826e+02   8.319675e+01
   7.732539e+01   3.017311e+02
  -1.161789e+02   2.063378e+02
  -2.125167e+01  -1.358682e+02
   1.214495e+02  -2.389273e+02
   2.788819e+02   1.034079e+02
   6.274380e+01   5.888585e+02
  -2.737315e+02   4.809687e+02
  -3.598130e+02   1.594103e+01
  -1.612259e+02  -3.355119e+02
   2.040090e+02  -1.955946e+02
   2.240876e+02   2.534885e+02
  -6.502320e+01   4.205408e+02
  -4.064465e+02   1.321531e+02
  -4.943230e+02  -2.949547e+02
  -1.642477e+02  -5.244896e+02
   3.220307e+02  -2.964765e+02
   5.042348e+02   7.063797e+01
   2.771254e+02   2.939204e+02
  -1.293986e+02   2.552853e+02
  -2.735040e+02   1.039284e+02
  -2.310346e+02  -1.091466e+02
   4.591291e+01  -6.507660e+01
   6.338513e+01   8.630762e+01
  -1.517853e+02   6.031702e+01
  -2.510621e+02  -2.891038e+01
  -1.217987e+02  -1.578504e+02
   1.779561e+02  -1.927129e+02
   3.069607e+02  -8.773068e+01
   2.219999e+02   8.218979e+01
  -5.894706e+00   3.034165e+02
  -2.113040e+02   4.169208e+02
  -3.635787e+02   2.190741e+02
  -2.907655e+02  -1.407381e+02
  -6.730087e+01  -3.753966e+02
   3.722029e+01  -3.393763e+02
   2.702645e+01  -1.132534e+02
   8.194950e+00  -6.367452e+01
   1.067636e+02  -1.239967e+02
   2.137612e+02  -9.392862e+01
   2.644170e+02   7.414323e+01
   1.220751e+02   2.907051e+02
  -6.343176e+01   2.242335e+02
  -2.219468e+02  -2.258008e+01
  -1.548620e+02  -2.377357e+02
   1.031000e+01  -2.487603e+02
   2.402667e+02  -8.881917e+01
   3.211763e+02   1.553291e+02
   1.845051e+02   3.047453e+02
  -1.396042e+01   3.058189e+02
  -1.457266e+02   1.123782e+02
  -1.086393e+02   5.738169e+01
  -1.228015e+02   5.837293e+01
  -2.200286e+02   5.924346e+01
  -4.007827e+02  -1.221871e+02
  -3.224821e+02  -2.544960e+02
   3.421457e+01  -4.114705e+02
   3.577808e+02  -4.306250e+02
   4.118149e+02  -1.521576e+02
   2.882655e+02   1.081813e+02
   4.842466e+01   2.507368e+02
  -1.097469e+02   1.937633e+02
  -1.662940e+01   5.191522e+01
   1.420309e+02  -3.263995e+01
   1.266274e+02   2.641333e+01
   7.056495e+00   1.897774e+02
  -1.345018e+02   1.351484e+02
  -9.892796e+01  -7.922934e+01
   7.423987e+01  -1.751251e+02
   1.728709e+02  -8.976334e+00
   1.647141e+02   2.393253e+02
   6.517745e-01   3.169995e+02
  -2.354698e+02   1.532701e+02
  -3.294076e+02  -3.219913e+01
  -2.308845e+02  -1.882023e+02
  -6.879855e+01  -2.193018e+02
   1.144844e+02  -1.221591e+02
   1.136374e+02   1.969996e+01
   6.307852e+01   1.185949e+01
  -5.617681e+01  -4.690643e+01
  -4.801998e+00  -1.296542e+02
   1.131275e+02  -8.008455e+01
   1.657348e+02  -9.982038e+00
   6.809427e+01   7.293874e+01
  -3.729936e+01  -2.253499e+01
  -4.264577e+01  -8.941717e+01
   1.307880e+02  -9.266860e+01
   2.789514e+02   1.736742e+01
   2.680092e+02   1.338531e+02
   3.616460e+01   2.133544e+02
  -1.502176e+02   2.512656e+02
  -2.276529e+02   1.310248e+02
  -1.305690e+02  -3.400994e+01
   1.715229e+01  -6.702112e+01
   7.138333e+01  -8.531149e+00
  -2.398273e+01   8.694758e+01
  -1.812797e+02   3.530978e+01
  -1.779891e+02  -7.843600e+01
  -7.365097e+01  -2.053015e+02
   9.653228e+01  -1.094043e+02
   1.344497e+02  -4.351144e+01
   2.805388e+01   1.671164e+01
  -3.707693e+01  -4.788740e+00
  -3.908953e+01  -1.039775e+02
   1.067362e+02  -1.109292e+02
   1.613406e+02  -3.859535e+01
   1.916001e+02   1.312157e+02
   1.395066e+01   1.753621e+02
  -1.197849e+02   1.324294e+02
  -2.044386e+02   5.644953e+01
  -6.186254e+01  -1.007826e+02
   9.508513e+01  -9.565769e+01
   4.999887e+01  -1.702168e+01
  -5.020112e+00   2.439087e+01
  -5.740392e+01  -3.138295e+00
   1.640561e+01   2.008907e+01
   7.250888e+01  -3.160153e+00
   8.294981e+01   7.662253e+01
  -5.818422e+00   1.621544e+02
  -1.367584e+02   1.623853e+02
  -2.184222e+02   5.633331e+01
  -1.650756e+02  -1.500898e+02
  -4.546674e+01  -2.098002e+02
   9.632519e+01  -1.501720e+02
   8.509747e+01  -1.261289e+01
   1.036507e+02   2.003103e+01
   5.118223e+01   4.129609e+01
   7.183126e+01  -5.504100e+00
   7.795626e+01  -2.219276e+01
   5.076084e+01   5.908136e+01
  -4.669544e+01   9.032052e+01
  -9.510056e+01   9.757178e+01
  -1.060681e+02  -2.977040e+01
   3.278889e+00  -1.023559e+02
   1.067443e+02  -8.404149e+01
   1.712620e+02   7.118679e+01
   6.275188e+01   2.061582e+02
  -1.507932e+02   1.926424e+02
  -2.716572e+02   1.005814e+02
  -2.334270e+02  -1.172453e+02
  -1.151485e+02  -1.369852e+02
   4.746079e+01  -1.324397e+02
   7.251335e+01  -5.448791e+01
   7.987524e+01  -7.926494e+01
   1.018369e+02  -9.275048e+01
   6.409952e+01  -3.300148e+01
   1.125295e+02  -1.281195e+01
   9.644428e+01   1.337667e+02
   3.883574e+01   1.824397e+02
  -8.716128e+01   1.481244e+02
  -1.603952e+02  -7.914015e-01
  -1.510579e+02  -1.450747e+02
  -4.597484e-01  -1.703452e+02
   6.536681e+01  -6.345084e+01
   4.553751e+01   3.669446e+01
  -2.106923e+01   2.976355e+01
  -2.492556e+00   3.300777e+01
  -2.336051e-01  -1.626376e+01
   8.454313e+01  -1.303545e+01
   4.147456e+01   4.408072e+01
  -9.558038e+01   1.975081e+01
  -1.553455e+02  -1.565518e+01
  -1.296312e+02  -5.226945e+01
  -5.647432e+00  -1.252343e+02
   1.296937e+02  -5.564526e+01
   1.313776e+02  -1.344591e+01
   7.021563e+01   5.895694e+01
  -6.149398e+01   3.934873e+01
  -7.252899e+01  -2.306960e+01
  -1.007983e+01  -7.938592e+01
   6.914149e+01  -5.388602e+01
   4.737729e+01  -1.055231e+01
   4.270097e+01   2.604380e+01
   6.637541e+01   4.082888e+01
   4.021638e+01   1.894813e+00
   3.257216e+01   1.098621e+01
   5.227617e+01   4.137611e+01
  -2.780566e+01   1.415450e+02
  -1.102173e+02   1.289112e+02
  -1.658571e+02   3.068302e+01
  -1.255585e+02  -7.944913e+01
  -1.843707e+01  -1.328521e+02
   8.011136e+01  -6.211970e+01
   6.004696e+01   7.041521e+00
  -5.947724e+01   2.960135e+01
  -1.344137e+02   5.215004e+00
  -7.560150e+01  -9.594681e+01
   7.233082e+01  -1.164827e+02
   1.797034e+02  -5.069041e+01
   1.768077e+02   4.101871e+01
   3.489913e+01   6.803570e+01
  -5.120991e+01   4.300168e+01
  -6.445913e+01   1.281138e+01
   3.599000e+01  -5.986859e+01
   9.416965e+01   1.353012e+01
   6.694647e+01   7.485825e+01
  -8.320298e+01   1.415714e+02
  -1.487936e+02   9.783551e+01
  -9.261902e+01  -8.840390e+01
  -4.114995e+01  -1.900397e+02
   7.955615e+01  -9.217835e+01
   7.518793e+01   4.514283e+00
   6.369672e+01   8.332246e+01
  -2.476596e+01   1.062319e+02
  -3.483603e+01   1.446923e+01
  -6.530672e+01  -4.909583e+01
  -2.588186e+00  -7.683683e+00
   6.439537e+00   2.182737e+01
  -2.461636e+01  -1.750355e+01
  -4.766741e+01  -7.093394e+01
  -4.501261e+01  -1.015110e+02
   4.180899e+01  -5.542750e+01
   1.292979e+02   4.809164e+01
   1.473999e+02   3.357111e+01
   3.909708e+01   5.255770e+01
  -7.992934e+01   1.075037e+01
  -1.036003e+02  -1.834866e+01
  -1.438481e+01  -9.482328e+00
   1.932128e+01  -6.169444e+00
   1.959341e+01  -1.253935e+01
   1.448744e+01   3.194433e+01
  -2.783975e+00  -2.369205e+01
   6.742298e+01  -1.539091e+01
   1.122878e+02   1.387756e+01
   7.326321e+00   7.670558e+01
  -7.405302e+01   1.068511e+02
  -1.755724e+02   8.812214e+01
  -1.085115e+02  -3.403734e+01
  -2.787009e+01  -1.535762e+02
   4.927750e+01  -1.667329e+02
   9.584253e+01  -6.246261e+01
   7.528999e+01  -2.332980e+01
  -8.717819e+00   5.604889e+01
   8.862078e+00  -2.449935e+00
   1.347161e+01   9.931495e+00
   4.196054e+01   5.850057e+01
   5.219027e+00   9.031810e+01
  -1.537422e+01   5.995400e+01
  -7.807910e+01  -1.939957e+01
  -8.546682e+01  -7.835382e+01
  -3.161275e+01  -1.067927e+02
   8.942168e+01  -4.523092e+01
   9.024605e+01   4.748641e+01
   3.175776e+01   8.417523e+01
  -7.965682e+01   5.721688e+01
  -8.302554e+01  -8.990269e+00
  -6.603135e+01  -3.544004e+01
   1.358826e+01  -4.930239e+01
   3.493379e+01  -2.412185e+01
  -2.873238e+01  -6.274598e+00
  -7.404675e+01   2.449303e+01
  -1.462351e+01  -1.864004e+01
   4.682240e+01  -3.563787e+01
   1.023208e+02  -3.502218e+01
   6.344575e+01   1.041564e+01
   8.935621e+00   6.090729e+01
  -6.536549e+01   7.952948e+01
  -2.068274e+01  -8.176014e+00
  -2.535379e+01  -3.024735e+01
   1.576253e+01  -4.293831e+01
   4.446646e+01   2.986168e+01
   1.489136e+01   4.025536e+01
  -3.456532e+00   2.332865e+01
  -4.258997e+01  -4.790216e+00
  -1.931934e+01  -5.134749e+01
  -1.307865e+01  -1.391766e+01
   2.238953e+01   8.469016e+00
   2.045633e+01  -2.604015e+01
  -2.845980e+01  -3.368283e+01
   1.586143e+00  -2.147617e+01
   3.649818e+01  -9.664842e+00
   5.638028e+01   7.384937e+00
   1.251619e+01   6.685004e+01
  -3.044439e+01   6.210078e+00
  -7.234292e+01  -5.736906e+01
  -1.456515e+01  -4.601310e+01
   8.265130e+01  -4.316636e+01
   4.489917e+01   1.148301e+01
   1.946297e+01   2.861742e+01
  -6.711527e+00   2.197410e+01
  -4.394307e+01  -1.104493e+00
  -1.387918e+01   1.612074e+01
   3.658194e+01   1.721448e+01
   2.548891e+01  -2.443142e+01
  -2.893906e+01   2.006891e+01
  -8.842687e+01   3.020146e+00
