
 $NMID
 id='ANONYMOUS ', fmtdat='(2E16.6)'
 volume=1.0
 tramp=1.0
 $END
   2.749714e+03  -2.137774e+02
   1.488705e+03   1.931625e+03
  -2.443514e+02   2.053523e+03
  -1.370735e+03   1.090947e+03
  -7.455904e+02   6.132796e+01
   7.910372e+01  -2.415403e+02
   4.206045e+02   5.091774e+01
   1.645168e+01   5.960100e+02
  -6.042782e+02   5.242900e+02
  -6.219239e+02  -2.984138e+01
  -4.783208e+02  -4.986817e+02
   6.043254e+01  -6.053310e+02
   3.911383e+02  -9.439056e+01
   2.123356e+02   4.410832e+02
  -1.223079e+02   5.118911e+02
  -3.481840e+02  -2.390324e+01
  -2.024752e+02  -4.676185e+02
   1.659146e+02  -5.502891e+02
   3.975447e+02  -2.961845e+02
   2.967520e+02   2.678015e+02
   1.101017e+02   2.874432e+02
  -1.400854e+02   1.661258e+02
  -8.341139e+01   3.548867e+01
   1.511150e+02   5.297991e+01
   2.479755e+02   2.413929e+02
   2.305798e+01   3.221731e+02
  -4.073418e+02   2.320095e+02
  -5.704999e+02  -1.406045e+02
  -2.493941e+02  -3.296579e+02
   3.623200e+02  -1.815801e+02
   4.985647e+02   9.677522e+01
   2.160742e+02   3.167626e+02
  -2.626472e+02   3.306497e+02
  -5.146061e+02   8.535513e+01
  -3.450864e+02  -1.440615e+02
  -6.376667e+00  -3.695810e+02
   8.825773e+01  -1.693717e+02
  -2.094136e+01   1.863570e+02
  -1.151510e+02   2.014790e+02
  -2.469761e+02  -1.266114e+02
  -4.126729e-01  -5.254297e+02
   3.039890e+02  -4.181746e+02
   3.030375e+02  -4.390277e+01
   1.571764e+02   2.574793e+02
  -1.232438e+02   1.397539e+02
  -2.908444e+02  -2.635376e+02
   6.194948e+01  -3.322410e+02
   4.554203e+02  -7.071697e+01
   4.853001e+02   3.433814e+02
   1.597438e+02   4.762650e+02
  -3.157959e+02   2.179139e+02
  -4.311485e+02  -9.477539e+01
  -2.230330e+02  -2.561502e+02
   1.215382e+02  -2.057487e+02
   2.613853e+02  -1.251107e+02
   1.899376e+02   1.003262e+02
  -1.206876e+01   4.115245e+01
  -1.699663e+01  -5.147576e+01
   1.131038e+02  -8.029264e+01
   2.232160e+02   5.031568e+01
   1.335093e+02   2.094143e+02
  -1.740415e+02   1.729638e+02
  -2.999296e+02   7.673416e+01
  -2.154871e+02  -7.147801e+01
  -3.543763e+00  -2.728564e+02
   2.638502e+02  -3.282910e+02
   3.579504e+02  -1.770340e+02
   2.408441e+02   1.808993e+02
   2.137029e+01   3.201369e+02
  -2.935172e+01   3.094780e+02
  -9.606353e+00   9.138639e+01
  -3.565286e+01   5.181026e+01
  -1.608599e+02   6.017886e+01
  -2.260150e+02   7.223401e+01
  -2.364892e+02  -1.000780e+02
  -6.206682e+01  -2.599750e+02
   6.317644e+01  -1.329679e+02
   1.682218e+02   1.583581e+01
   1.216793e+02   2.313757e+02
  -2.932971e+01   2.520457e+02
  -2.678226e+02   7.042570e+01
  -2.485019e+02  -1.377796e+02
  -1.505539e+02  -2.737288e+02
   3.391549e+01  -2.543283e+02
   1.669898e+02  -1.246455e+02
   1.163775e+02  -6.707725e+01
   1.423250e+02  -1.706160e+01
   2.232770e+02  -6.207024e+01
   3.621726e+02   1.309915e+02
   2.663951e+02   2.531891e+02
  -3.646170e+01   3.671042e+02
  -3.475410e+02   4.006903e+02
  -4.483904e+02   9.299162e+01
  -2.398792e+02  -9.832609e+01
  -3.586470e+01  -2.514479e+02
   8.500311e+01  -1.985892e+02
   3.645309e+01  -2.847773e+01
  -1.069351e+02   2.608968e+01
  -1.524260e+02  -1.282808e+01
  -1.213216e+01  -1.453384e+02
   1.083157e+02  -1.237433e+02
   1.098300e+02   4.198875e+01
  -3.089977e+01   1.021505e+02
  -1.586854e+02   4.747316e+00
  -1.185520e+02  -1.779280e+02
   2.899812e+00  -2.924792e+02
   2.564242e+02  -1.347706e+02
   2.925953e+02   3.836118e+01
   2.405191e+02   2.193726e+02
   6.098756e+01   2.216939e+02
  -1.170467e+02   9.484651e+01
  -1.835793e+02  -3.058836e+01
  -2.691605e+01  -2.481631e+01
   5.318441e+01   7.832388e+01
   8.113081e-01   1.203462e+02
  -1.489285e+02   6.754329e+01
  -1.359495e+02   7.312022e+00
  -4.458844e+01  -3.850701e+01
   5.712700e+01   3.024865e+01
   2.201369e+01   8.023075e+01
  -9.772039e+01   4.921750e+01
  -3.085851e+02  -2.390070e+00
  -2.240228e+02  -1.908977e+02
   1.384840e+00  -2.090120e+02
   1.975834e+02  -2.208934e+02
   2.314785e+02  -8.078572e+01
   1.419247e+02   6.155390e+01
  -2.714644e+01   5.779369e+01
  -6.252425e+01  -2.339945e+01
   7.049809e+00  -8.285031e+01
   1.670508e+02  -2.590245e+01
   1.490276e+02   1.017463e+02
   3.247583e+01   1.587243e+02
  -1.349324e+02   1.046111e+02
  -1.157398e+02  -2.911149e+00
  -2.785201e+01  -5.691827e+01
   3.672526e+01   2.339419e+01
   2.788707e+01   9.085742e+01
  -1.019195e+02   1.034579e+02
  -1.810678e+02   2.798004e+01
  -1.312582e+02  -1.414871e+02
   1.281219e+01  -1.707935e+02
   1.192804e+02  -1.204111e+02
   1.713655e+02   2.716650e-01
   3.686315e+01   1.063606e+02
  -5.868144e+01   7.686591e+01
  -6.307713e+01   1.490766e+01
   2.219633e+01  -1.723416e+01
   5.350396e+01  -1.263432e+01
   5.645890e+00   1.323706e+01
  -7.082257e+01  -4.778390e+00
  -8.021252e+01  -7.951579e+01
   7.923607e+00  -1.594108e+02
   1.451175e+02  -1.314304e+02
   2.159226e+02  -3.008674e+01
   1.539456e+02   1.629330e+02
   1.540047e+01   2.462952e+02
  -1.147661e+02   1.119559e+02
  -1.197417e+02  -5.687233e+00
  -8.168045e+01  -5.360375e+01
  -9.523552e+00  -4.550122e+01
  -5.968283e+01   2.795372e+01
  -6.675471e+01  -1.457027e+01
  -6.916396e+01  -5.322086e+01
   3.065778e+01  -7.720655e+01
   8.641930e+01  -7.266270e+01
   9.722532e+01   6.113423e+01
  -1.562221e+01   9.760476e+01
  -1.377634e+02   8.443638e+01
  -1.948438e+02  -6.553026e+01
  -2.782535e+01  -1.750022e+02
   1.137278e+02  -1.891013e+02
   2.506806e+02  -6.759913e+01
   1.698939e+02   9.841143e+01
   1.234649e+02   1.277121e+02
  -1.953805e+01   1.266787e+02
  -8.270759e+01   6.545944e+01
  -4.735748e+01   6.489880e+01
  -6.949240e+01   6.944219e+01
  -6.084672e+01   3.958952e+01
  -1.152135e+02  -2.419619e+01
  -9.311021e+01  -1.352509e+02
  -3.567730e+01  -1.992677e+02
   7.183464e+01  -1.522126e+02
   1.297234e+02   1.874161e+01
   1.188659e+02   1.224032e+02
  -1.738365e+01   1.369665e+02
  -2.182163e+01   6.410322e+01
  -5.228106e+01  -2.432769e+01
   2.774493e+01  -5.235434e+01
   1.455328e+01  -1.149483e+01
  -1.798930e+01  -1.816660e+01
  -7.383150e+01  -2.535392e+01
  -3.442703e+01  -3.364750e+01
   8.079998e+01  -2.906768e+01
   1.663649e+02   1.437439e+01
   1.106980e+02   7.093443e+01
  -3.575382e+01   1.054267e+02
  -1.248523e+02   3.038307e+01
  -9.679083e+01  -2.158027e+01
  -6.229616e+01  -5.160965e+01
   7.793800e+01  -7.261247e+01
   6.354290e+01  -5.855462e+00
  -1.421219e+00   8.547164e+01
  -8.161366e+01   5.115810e+01
  -6.451833e+01  -1.121765e+01
  -5.211561e+01  -3.619023e+01
  -1.779227e+01  -3.527952e+01
  -8.155346e+01   7.562234e+00
  -4.976917e+01  -1.617341e+01
  -4.148111e+01  -6.311840e+01
   6.126126e+01  -9.755428e+01
   1.230947e+02  -1.229779e+02
   1.514886e+02  -5.269133e+01
   1.323737e+02   7.110690e+01
  -9.366335e+00   1.126065e+02
  -8.706109e+01   4.929307e+01
  -7.044686e+01  -3.698963e+01
   5.495130e+01  -1.011225e+01
   9.438263e+01   2.877478e+01
   6.953131e+01   8.828363e+01
  -9.862712e+01   1.145133e+02
  -1.755558e+02   1.032113e+01
  -1.542141e+02  -6.748773e+01
  -7.005287e+01  -9.506341e+01
   5.726677e+01  -4.163030e+01
   4.368812e+01   2.276433e+01
  -1.784214e+01   3.173669e+01
  -1.223632e+02  -4.182722e+01
  -3.590368e+01  -8.154154e+01
   8.699870e+01  -9.472741e+01
   1.752640e+02  -7.563725e+01
   1.106737e+02   6.555085e+01
   4.505641e+01   1.804094e+02
  -4.880498e+01   1.029397e+02
  -8.736024e+01  -1.862875e+01
  -2.708339e+01  -1.082540e+02
   2.172275e+01  -8.149743e+01
   2.920116e+01   5.207431e+00
   3.640683e+01   2.071903e+01
   2.341440e+01   1.115229e+01
  -8.614125e-01   3.469542e+00
   8.351614e+00   7.829419e+00
   2.863296e+01   8.552530e+01
   3.126397e+01   7.409591e+01
  -3.774660e+01   1.618077e+01
  -1.151752e+02  -6.258024e+01
  -7.606646e+01  -8.278504e+01
  -3.468547e+01  -3.475229e+01
   5.344739e+01  -2.005241e+01
   1.086984e+02  -1.046500e+01
   1.360038e+01  -8.399516e+00
  -4.045782e+01   3.656386e+01
  -1.374243e+01   5.021675e+00
   6.123863e-02  -1.547915e+01
   3.505518e+01   2.693520e+01
  -5.075583e+01  -6.385926e-01
  -6.175361e+01  -1.845066e+01
  -5.897404e+00  -6.655974e+01
   1.006151e+02  -8.045492e+01
   1.635147e+02  -6.625526e+01
   1.409106e+02   8.445634e+01
   2.186265e+01   1.321121e+02
  -8.501145e+01   1.641778e+02
  -1.288580e+02   4.270900e+01
  -8.131764e+01  -1.467381e+01
  -5.173375e+01  -3.344436e+01
   1.063917e+00  -5.814886e+01
  -9.792692e+00  -7.339087e+00
  -2.629217e+01  -2.953164e+01
  -1.922135e+00  -7.922649e+01
   4.896028e+01  -4.194731e+01
   9.038517e+01   1.440091e+01
   9.958229e+01   5.373389e+01
   1.501977e+01   9.908981e+01
  -7.025471e+01   4.301177e+01
  -5.021030e+01  -6.762672e+01
  -4.370082e+01  -9.311657e+01
   8.251906e+01  -4.734061e+01
   9.668390e+01   2.715231e+01
   2.778914e+01   4.875400e+01
  -4.291681e+01   3.907974e+01
  -3.382501e+01   2.779782e+01
   3.963026e+01  -6.781304e+00
   6.743302e+01  -1.517162e+01
   1.174742e+01   1.295257e+01
  -7.423582e+01   8.195531e+01
  -1.178122e+02   2.976606e+01
  -4.647806e+01  -3.479116e+00
  -2.305536e-02  -7.570714e+01
   7.996515e+01  -8.297091e+01
   4.135738e+01  -3.944727e+00
   9.764207e+00   4.290626e+01
  -2.354213e+01   1.242331e+01
  -2.412912e+01  -5.140892e+00
  -1.768825e+01  -2.320517e+01
   2.337812e+01  -4.293960e+01
   2.359394e+01   1.051883e+01
   2.211858e+01   1.446990e+01
   2.956407e+01   2.677882e+01
  -4.958268e+01  -6.151044e+00
  -1.416311e+01   2.529532e+01
   2.275069e+01   4.633904e+01
  -2.476610e+01   2.433947e+01
  -1.654639e+01   9.611722e+00
  -1.109287e+01  -1.233298e+01
  -8.717789e+00  -5.554060e+01
   3.588071e+01  -1.824955e+01
   7.466677e+01  -3.811229e+00
   1.899670e+01   3.922099e+01
  -5.615199e+01   4.462724e+01
  -7.538896e+01  -2.713195e+01
  -4.771480e+01  -3.567299e+01
   8.395044e+00  -4.787600e+01
   5.185805e+01  -2.158959e+01
   5.983972e+01  -2.534443e+01
  -3.456695e+01   2.766231e+01
  -6.795829e+01  -1.110603e+01
   8.279786e+00  -2.844826e+01
   7.836728e+01  -1.643367e+01
