
 $NMID
 id='ANONYMOUS ', fmtdat='(2E16.6)'
 volume=1.0
 tramp=1.0
 $END
  -2.156366e+03  -2.632276e+02
  -1.137078e+03  -9.945239e+02
   2.144956e+02  -1.229041e+03
   9.521574e+02  -4.662446e+02
   5.074128e+02   4.614141e+00
  -2.114136e+02   1.228255e+02
  -2.400824e+02  -2.895169e+02
   4.723310e+01  -3.730980e+02
   4.366907e+02  -4.358918e+02
   4.447865e+02   1.140670e+01
   1.892407e+02   2.784376e+02
  -1.002313e+02   4.181708e+02
  -1.630654e+02   2.871181e+01
  -6.939532e+01  -2.304354e+02
   1.498064e+02  -3.725168e+02
   2.685648e+02   4.988621e+01
   1.469026e+02   3.522527e+02
  -8.772810e+01   4.268562e+02
  -3.851152e+02   1.641163e+02
  -3.112867e+02  -1.407750e+02
  -1.051072e+02  -2.755224e+02
   5.169461e+01  -1.480772e+02
   3.131845e+01  -1.000968e+01
  -1.577179e+02  -4.421425e+01
  -2.001093e+02  -2.094211e+02
   3.378072e+01  -3.185178e+02
   2.170265e+02  -1.882137e+02
   5.333812e+02   4.121815e+01
   1.670061e+02   3.360405e+02
  -3.357317e+02   1.913623e+02
  -3.806820e+02  -1.666027e+02
  -8.661637e+01  -3.035436e+02
   2.516258e+02  -2.747124e+02
   3.407812e+02  -1.210503e+02
   2.129536e+02   1.568848e+02
   1.123201e+02   2.459482e+02
  -4.923819e+01   1.089369e+02
   3.877262e+01  -1.451363e+02
   1.571208e+02  -1.230754e+02
   1.828079e+02   1.022382e+02
   2.071014e+01   4.190742e+02
  -3.142090e+02   3.570002e+02
  -2.347833e+02  -1.446642e+02
   3.886096e+01  -2.639939e+02
   1.558162e+02  -1.632926e+02
   9.993423e+01   1.944306e+02
  -8.424099e+01   2.877109e+02
  -3.491018e+02   6.501820e+00
  -2.672515e+02  -1.982223e+02
  -1.542996e+01  -3.471475e+02
   2.117884e+02  -2.004045e+02
   3.553423e+02   3.454992e+01
   2.592248e+02   1.875826e+02
  -1.036564e+02   1.874763e+02
  -1.969632e+02   1.394796e+01
  -9.939540e+01  -6.355324e+01
   4.633639e+01  -6.698664e+00
   8.821415e+00   6.771797e+01
  -9.525619e+01   2.770729e+01
  -1.471539e+02  -7.023262e+01
  -9.336512e+01  -1.388736e+02
   1.590190e+02  -1.623387e+02
   2.351471e+02  -6.543730e+01
   1.771676e+02   6.836623e+01
   4.556872e+00   2.143420e+02
  -1.494665e+02   3.216007e+02
  -2.864070e+02   1.350291e+02
  -1.914499e+02  -1.489822e+02
   6.652127e+00  -3.006216e+02
   8.071616e+01  -1.965867e+02
   1.890351e+01  -1.257278e+02
   2.573402e+00  -6.177411e+01
   1.043287e+02  -1.286306e+02
   2.042283e+02  -6.518799e+01
   1.866425e+02   1.569500e+02
   5.186313e+01   1.660242e+02
  -6.259851e+01   1.712483e+02
  -1.204430e+02   2.410028e+01
  -1.368449e+02  -2.145552e+02
   6.745730e+01  -2.272505e+02
   1.858084e+02  -4.620454e+01
   2.454396e+02   1.369751e+02
   1.428234e+02   2.110657e+02
  -1.061153e+02   1.755179e+02
  -1.307218e+02   7.717586e+01
  -8.304251e+01   6.472510e+01
  -1.021123e+02   4.349984e+01
  -2.074049e+02   4.313587e+01
  -3.323987e+02  -3.332085e+01
  -2.584087e+02  -1.790828e+02
   1.168405e+01  -3.602260e+02
   2.646776e+02  -2.932561e+02
   3.570476e+02  -1.052313e+02
   2.089184e+02   8.198489e+01
  -2.846784e+01   1.727350e+02
  -1.058064e+02   1.371210e+02
  -1.768802e+01   2.128622e+01
   9.773274e+01  -3.321656e+01
   1.199396e+02   4.768705e+01
   1.918127e+01   1.238615e+02
  -1.162188e+02   8.084777e+01
  -6.900569e+01  -6.369318e+01
   6.704428e+01  -8.893281e+01
   1.189262e+02  -4.342699e+00
   7.918044e+01   2.106718e+02
  -3.416057e+01   2.338559e+02
  -1.859065e+02   1.328293e+02
  -2.958957e+02  -4.681956e+01
  -2.113523e+02  -1.477935e+02
  -6.798001e+01  -2.181882e+02
   5.624108e+01  -1.191526e+02
   8.179578e+01   1.505766e+01
   4.228063e+01   1.846737e+01
  -5.419551e+01  -4.737033e+01
  -9.483251e+00  -1.110191e+02
   9.914304e+01  -5.792611e+01
   1.320336e+02   2.633615e+01
   1.572928e+01   6.281962e+01
  -6.412218e+01  -2.341113e+00
  -2.085587e+01  -7.747928e+01
   1.006522e+02  -9.581461e+01
   2.086163e+02   2.101597e+01
   2.087218e+02   1.482736e+02
   4.243549e+01   2.156734e+02
  -1.696340e+02   1.515797e+02
  -1.741707e+02   5.103581e+01
  -7.587545e+01  -6.712404e+01
   1.830435e+01  -7.455276e+01
   5.355225e+01   2.388268e+00
  -4.880982e+01   5.395093e+01
  -1.748341e+02   3.658781e+01
  -1.356316e+02  -8.576849e+01
  -4.373362e+01  -1.626930e+02
   6.196859e+01  -1.063828e+02
   9.939184e+01  -1.480674e+01
   1.103144e+01   3.468465e+01
  -3.247897e+01  -1.828524e+01
  -2.444999e+01  -7.172938e+01
   6.064864e+01  -1.060297e+02
   1.758097e+02   2.412823e+01
   1.897191e+02   3.448511e+01
   2.318978e+01   1.564250e+02
  -1.336598e+02   7.908676e+01
  -9.991063e+01  -6.313226e+00
  -4.846308e+01  -4.736376e+01
   4.412262e+01  -6.047577e+01
   4.784881e+01  -2.879962e+01
  -1.781221e+01   1.881276e+01
  -2.969938e+01   2.126628e+01
   6.093940e+00  -8.746306e+00
   7.983468e+01   1.761035e+00
   8.475688e+01   6.655683e+01
  -1.863960e+00   1.257463e+02
  -1.093976e+02   1.123804e+02
  -1.667595e+02   2.080447e+01
  -1.287801e+02  -1.007473e+02
  -1.675864e+01  -1.396916e+02
   8.887808e+01  -1.136089e+02
   9.348396e+01  -3.590305e+01
   3.057674e+01   3.454069e+01
  -3.552239e+00  -6.868962e-01
   3.871993e+01  -4.098675e+01
   1.027845e+02   1.437578e+01
   4.288481e+01   5.055633e+01
  -1.609683e+01   6.041427e+01
  -9.663465e+01   5.391653e+01
  -1.054170e+02  -4.441939e+01
   2.086956e+01  -9.084757e+01
   1.324258e+02  -6.365715e+01
   1.374561e+02  -2.469489e+00
   6.922079e+01   1.369070e+02
  -1.230688e+02   1.852905e+02
  -1.712289e+02   3.098339e+01
  -2.049394e+02  -5.764029e+01
  -2.662071e+01  -1.226006e+02
   2.382186e+01  -1.006555e+02
   4.928718e+01  -4.922870e+01
   9.192506e+01  -3.971680e+01
   3.191541e+01  -4.589280e+01
   3.662519e+01  -3.303003e+01
   9.426698e+01   3.853150e+01
   6.756524e+01   1.492861e+02
   6.234680e+00   1.811207e+02
  -8.961481e+01   1.332404e+02
  -1.484743e+02   5.880864e+00
  -8.484744e+01  -1.228269e+02
  -1.354355e+01  -1.075236e+02
   5.182242e+01  -5.580875e+01
   4.265955e+01   2.712733e+01
   4.912680e+00   2.068248e+01
  -1.089831e+01   4.211395e+01
   1.105056e+01   1.058605e+01
   7.087263e+01   3.496408e+01
   1.493200e+01   1.917005e+01
  -2.520097e+01   4.502499e+01
  -1.243134e+02   1.835532e+01
  -1.046807e+02  -3.477758e+01
  -3.045172e+01  -7.932022e+01
   1.053068e+02  -5.337363e+01
   1.077351e+02   1.014910e+01
   3.690709e+01   5.205982e+01
  -5.046330e+01   4.422769e+01
  -6.965930e+01  -1.870275e+01
  -3.880490e+01  -5.464572e+01
   2.100310e+01  -5.682690e+01
   6.513589e+01  -1.183575e+01
   2.794191e+01   3.636771e+01
   3.180287e+01   4.449644e+01
   3.048544e+01  -4.185316e+01
   4.378416e+01  -1.288150e+01
   2.552362e+01   3.151290e+01
  -2.701956e+01   1.220284e+02
  -8.125047e+01   1.019839e+02
  -1.340110e+02   1.674312e+01
  -1.044407e+02  -1.017036e+02
  -3.551454e+01  -5.079964e+01
   6.292002e+01  -5.662899e+01
   5.061173e+01   1.532510e+01
  -4.711648e+01   1.371528e+00
  -1.067583e+02  -5.112919e+01
  -6.325488e+01  -8.952423e+01
   6.658412e+01  -7.567143e+01
   1.174193e+02  -3.514932e+01
   9.481919e+01   7.091774e+01
   2.746727e+01   5.586863e+01
  -5.400028e+01   6.376470e+01
  -4.123878e+01  -3.060964e+01
   1.995071e+01  -2.980426e+01
   5.266378e+01   2.169112e+00
   1.193665e+01   9.905414e+01
  -4.635575e+01   1.193082e+02
  -1.071528e+02   4.496931e+01
  -5.851315e+01  -8.926124e+01
  -2.488257e+01  -1.353545e+02
   4.531217e+01  -8.330299e+01
   5.214766e+01   3.215826e+01
   3.065973e+01   9.553582e+01
   1.654397e+00   6.467141e+01
  -2.981011e+01  -1.579635e+01
  -3.826588e+01  -1.727003e+01
  -2.836730e+00   1.837517e+00
  -1.012933e+01   5.027046e+00
  -3.456331e+01   2.462010e+01
  -1.038248e+01  -9.387591e+01
  -2.527464e+01  -8.150819e+01
   5.985943e+01  -2.589629e+01
   1.082407e+02   4.090360e+01
   5.845680e+01   7.463811e+01
   1.190070e+01   2.618504e+01
  -5.487557e+01  -9.182772e+00
  -4.035454e+01   2.957367e+01
  -3.862281e+01   2.379079e+01
   2.461279e+01  -3.705545e+01
   1.289697e+01  -1.135877e+01
  -1.911370e+01  -6.425319e+00
   1.142413e+01   1.682293e+01
   2.763018e+01  -2.571292e-02
   9.614960e+01   2.755508e+01
   4.439553e+01   4.059311e+01
  -8.315601e+01   8.921779e+01
  -1.387995e+02   3.920269e+01
  -1.062696e+02   1.380216e+00
   9.615089e+00  -1.257304e+02
   4.024459e+01  -1.003729e+02
   8.686039e+01  -5.829144e+01
   7.697822e+01   2.574479e+01
   8.114756e+00   2.822866e+01
   2.551153e+01   1.452644e+01
   1.884978e+01  -1.258041e+01
   3.707957e+01   3.283156e+01
  -4.433717e+00   7.477561e+01
  -2.885463e+01   5.343249e+01
  -6.385370e+01  -1.385720e+01
  -4.755674e+01  -8.086120e+01
  -3.676730e-01  -8.086878e+01
   3.231939e+01   6.473289e-01
   1.083459e+02   7.184684e+01
  -2.200800e+01   1.051386e+02
  -6.363406e+01   4.249435e+01
  -7.629671e+01  -2.329935e+01
  -4.599167e+01  -2.660777e+01
   4.204730e+01  -5.095254e+01
   3.923729e+01   1.952741e+01
  -2.157531e+01   1.258360e+01
  -3.214864e+01   1.320409e+01
  -2.966731e+01  -5.945135e+00
   3.977146e+01  -3.414929e+01
   1.121123e+02  -3.593643e+01
   6.084856e+01   1.401008e+01
  -6.189526e+00   4.497447e+01
  -4.295113e+01   7.332306e+01
  -3.350238e+01   4.406221e+01
  -9.120991e+00  -3.083008e+01
   2.301732e+01  -5.418247e+01
   2.505369e+00  -2.034222e+01
   3.971952e+01   5.932691e+01
   1.170153e+01   2.948151e+01
  -3.551433e+01  -5.177139e+00
  -2.272789e+01  -1.189034e+01
  -1.738640e+01   8.970100e-01
   2.073179e+01   1.617649e+01
   8.812723e+00   5.326359e+00
   1.593998e+01  -2.963953e+01
  -5.225233e+00  -2.642114e+01
   2.222866e+01  -2.106881e+01
   3.494422e+01   1.714111e+01
   8.620965e+00   5.583391e+01
  -2.753935e+01   2.248802e+01
  -3.196768e+01   4.281282e-01
  -2.104380e+00  -6.010648e+01
   3.339948e+01  -4.276022e+01
   6.371087e+01   1.677810e+01
   1.884841e+01   2.265930e+01
  -1.559761e+01   1.256826e+01
  -1.716979e+01   2.600223e+01
  -3.656700e+00   2.089657e+00
   2.337756e+01   1.979619e+00
   4.788838e+01   3.323265e+01
  -2.796941e+01   1.041219e+01
  -6.398571e+01  -5.642705e+00
