
 $NMID
 id='ANONYMOUS ', fmtdat='(2E16.6)'
 volume=1.0
 tramp=1.0
 $END
   3.491961e+03  -7.522319e+00
   1.808069e+03   1.776731e+03
  -5.825318e+02   2.141189e+03
  -1.673203e+03   7.539061e+02
  -4.587271e+02  -5.682043e+02
   4.715589e+02  -3.223924e+02
   8.001454e+02   4.620815e+02
   3.579966e+01   8.378291e+02
  -8.264963e+02   5.491493e+02
  -6.572867e+02  -1.104180e+02
  -4.294600e+02  -6.274929e+02
   2.238063e+02  -6.443220e+02
   5.667416e+02   2.635887e+01
   1.887264e+02   5.793577e+02
  -3.499586e+02   5.930388e+02
  -4.952725e+02  -2.589545e+01
  -1.189961e+02  -5.891873e+02
   2.347519e+02  -4.372742e+02
   4.501345e+02  -1.457461e+01
   2.796067e+02   3.300406e+02
   4.491707e+01   3.703712e+02
  -2.093290e+02   1.506789e+02
  -1.489459e+02  -2.408180e+01
   8.879363e+01  -3.629567e+01
   3.381373e+02   1.011600e+02
   1.464809e+02   3.305719e+02
  -3.860806e+02   2.881181e+02
  -5.449017e+02  -1.418216e+02
  -3.711944e+02  -4.233621e+02
   3.500710e+02  -3.128463e+02
   5.718352e+02   1.173398e+02
   1.932395e+02   3.474866e+02
  -2.489501e+02   3.724283e+02
  -4.304971e+02   9.748885e+01
  -3.073943e+02  -1.557726e+02
  -4.309915e+01  -4.114059e+02
   1.195252e+02  -2.372119e+02
   1.421328e+02   1.939576e+02
  -1.643713e+02   3.475210e+02
  -3.775570e+02  -6.726021e+01
  -1.261281e+02  -5.200058e+02
   2.730291e+02  -5.238216e+02
   4.577545e+02   5.041677e+01
   2.046892e+02   3.670355e+02
  -2.405301e+02   2.367353e+02
  -3.385981e+02  -3.101131e+02
   5.110942e+01  -4.146123e+02
   4.697403e+02  -9.700297e+01
   4.683044e+02   3.243849e+02
   1.285861e+02   4.555850e+02
  -4.072100e+02   2.620226e+02
  -5.990120e+02  -8.009384e+01
  -2.277473e+02  -3.508539e+02
   1.350872e+02  -2.340268e+02
   3.547992e+02  -7.986196e+01
   1.825875e+02   1.882032e+02
  -4.486116e+01   2.618080e+01
  -1.092734e+02  -1.176499e+02
   1.417221e+02  -1.182200e+02
   3.019039e+02   3.917176e+01
   1.136497e+02   2.860648e+02
  -1.763098e+02   2.030185e+02
  -2.327076e+02   3.868026e+01
  -1.674407e+02  -4.155921e+01
   1.629401e+01  -1.929632e+02
   1.974931e+02  -2.195763e+02
   2.705104e+02  -1.387183e+02
   2.676283e+02   1.057616e+02
   6.632350e+01   3.103461e+02
  -9.733653e+01   2.793818e+02
  -7.518078e+01   6.553398e+01
  -1.136098e+01  -4.185434e+01
  -1.245581e+01   1.071024e+02
  -1.306185e+02   1.130539e+02
  -2.298953e+02  -6.122014e+01
  -1.568938e+02  -2.398542e+02
   4.354703e+01  -1.751531e+02
   1.830161e+02  -1.748983e+01
   1.592747e+02   1.934077e+02
   4.078759e+00   2.217265e+02
  -1.943526e+02   6.091674e+01
  -2.445822e+02  -1.675022e+02
  -1.918192e+02  -2.351876e+02
   7.007756e+01  -2.494665e+02
   1.610623e+02  -9.662784e+01
   9.848482e+01  -1.295365e+01
   7.778380e+01  -3.940814e+00
   1.891774e+02  -6.481461e+01
   3.388314e+02   1.333038e+01
   2.585115e+02   1.848597e+02
   3.667459e+01   3.805960e+02
  -2.719342e+02   2.657854e+02
  -3.843354e+02   1.228428e+02
  -2.203095e+02  -4.796164e+01
  -2.788353e+01  -2.215544e+02
   1.309837e+02  -2.091008e+02
   5.152960e+01  -5.112485e+01
  -6.334469e+01   8.159966e+01
  -1.668515e+02   6.548446e+00
  -2.430920e+01  -1.460864e+02
   1.166527e+02  -9.301767e+01
   1.653486e+02   4.515412e+01
  -1.615883e+01   1.506633e+02
  -1.387551e+02   6.418143e+00
  -1.038320e+02  -1.859071e+02
   6.491761e+01  -2.332534e+02
   2.028796e+02  -1.440531e+02
   2.541818e+02   5.283801e+01
   1.531887e+02   2.255056e+02
   6.782820e+01   2.086501e+02
  -1.113793e+02   9.323019e+01
  -1.813393e+02  -1.258440e+01
  -4.787737e+01  -2.042011e+01
   2.791143e+01   4.087706e+01
   2.629864e+01   1.120636e+02
  -8.344128e+01   8.332445e+01
  -1.438025e+02  -8.595520e-01
  -4.505963e+01  -4.462312e+01
   7.002125e+01   1.980963e+01
   5.533052e+01   6.915902e+01
  -1.153930e+02   4.350691e+01
  -2.248494e+02   2.401531e+01
  -2.021422e+02  -1.283060e+02
  -6.583359e+01  -2.252020e+02
   1.525049e+02  -1.684492e+02
   1.875696e+02  -8.649693e+01
   1.166066e+02   5.217218e+01
  -3.569749e+00   6.244416e+01
  -6.178123e+01   1.529799e+01
   3.873791e+01  -1.020507e+02
   1.321595e+02  -5.162918e+01
   1.490933e+02   9.238438e+01
   1.658798e+01   1.711571e+02
  -6.151536e+01   1.136311e+02
  -1.351849e+02   3.230544e+01
  -6.563791e+01  -3.938542e+01
   1.245715e+01  -2.422282e+01
   4.881591e+01   6.391623e+01
  -3.542572e+01   8.442586e+01
  -1.585932e+02   3.623423e+01
  -1.139725e+02  -9.181317e+01
  -1.823159e+01  -1.692769e+02
   1.421319e+02  -1.320456e+02
   1.602197e+02  -4.614470e+01
   5.071276e+01   1.154064e+02
  -6.957259e+01   8.474150e+01
  -4.805354e+01   2.323941e+01
   4.921723e+00  -3.351146e+01
   1.125119e+01  -1.073222e+01
  -7.648456e+00  -9.818927e+00
  -6.897217e+01  -3.607347e+01
  -7.199361e+01  -7.236851e+01
  -2.775130e+01  -1.195119e+02
   1.075547e+02  -1.395096e+02
   2.053896e+02   9.493815e+00
   1.516249e+02   1.091286e+02
   1.581803e+01   1.890446e+02
  -8.114059e+01   1.228384e+02
  -1.283213e+02   5.374535e+01
  -4.800147e+01  -1.219098e+01
  -1.040665e+00  -2.574658e+01
  -5.680062e+01  -9.519343e+00
  -9.706795e+01  -8.219475e+00
  -1.903826e+01  -2.491112e+01
   1.021171e+01  -5.480143e+01
   5.776367e+01  -3.603056e+01
   7.650837e+01   2.795492e+01
  -7.452514e-01   9.805303e+01
  -1.309707e+02   1.024080e+02
  -1.408707e+02  -4.673567e+01
  -7.126215e+01  -1.320057e+02
   1.017684e+02  -1.371356e+02
   2.061773e+02  -6.940755e+01
   1.998543e+02   6.967708e+01
   8.053958e+01   1.551768e+02
  -2.507951e+01   1.134726e+02
  -8.142527e+01   1.042277e+02
  -4.017946e+01   6.595866e+01
  -6.187897e+01   6.475263e+01
  -8.841757e+01   7.793380e+01
  -1.179653e+02  -3.515121e+01
  -8.662334e+01  -9.218021e+01
  -3.054414e+01  -1.820752e+02
   1.051141e+02  -1.521877e+02
   1.459640e+02   2.608435e+01
   9.764701e+01   1.212638e+02
  -1.514958e+01   1.372016e+02
  -3.610279e+01   6.629812e+01
  -6.316146e+01  -2.408043e+00
  -1.234404e+01  -5.236331e+01
   1.631082e+01  -1.953389e+01
  -4.358611e+01  -2.413288e+01
  -3.280745e+01  -2.449544e+01
  -2.650193e+01  -2.078185e+01
   6.601001e+01  -1.690221e+01
   1.588599e+02   8.930507e+00
   1.178730e+02   5.492843e+01
  -2.280648e+01   7.176353e+01
  -9.945915e+01   6.320293e+01
  -1.212222e+02  -3.327673e+01
  -5.387591e+01  -1.796162e+01
   8.048829e+01  -2.384136e+01
   6.602918e+01   8.165578e-01
   6.124668e+00   5.324597e+01
  -4.929944e+01   3.645714e+01
  -4.218936e+01  -1.464102e+01
  -4.102573e+01  -1.824749e+01
  -3.677158e+01  -2.699332e+01
  -4.195774e+01   4.228819e+00
  -1.452124e+01  -3.318627e+01
  -2.020236e+01  -3.270977e+01
   4.244862e+01  -8.121761e+01
   1.014345e+02  -1.274943e+02
   1.496084e+02  -5.251551e+01
   1.283249e+02   8.422266e+01
  -2.901891e+01   1.210657e+02
  -6.604179e+01   5.129357e+01
  -3.391265e+01  -9.477914e+00
   3.334435e+01  -2.357545e+01
   9.098268e+01   3.577768e+01
   6.481220e+01   8.186605e+01
  -9.112992e+01   8.670049e+01
  -1.570056e+02   4.336334e+01
  -9.106233e+01  -2.398759e+01
  -3.346198e+01  -7.370072e+01
   6.487722e+01  -4.156806e+01
   6.909068e+01  -9.308510e+00
  -3.059660e+01   1.827360e+01
  -5.593950e+01  -1.700132e+00
  -3.325582e+01  -6.335504e+01
   6.786089e+01  -1.162623e+02
   1.102743e+02  -2.138239e+01
   7.226891e+01   9.351447e+01
  -3.342508e+01   1.663067e+02
  -5.638062e+01   1.180297e+02
  -1.083973e+02  -2.044532e+01
  -3.017332e+01  -9.922513e+01
   1.916867e+01  -9.724507e+01
   1.989170e+01  -1.704223e+01
   2.753347e+01   2.747228e+01
   7.279065e+00   1.317204e+01
   1.559223e+01   1.827683e+01
   1.668707e+01   1.553284e+01
   3.545003e+01   9.223205e+01
   3.408107e+01   9.527530e+01
  -1.022607e+01   4.503806e+01
  -1.233400e+02  -1.822113e+01
  -1.336923e+02  -7.665156e+01
  -3.082511e+00  -2.008905e+00
   7.120221e+01  -2.629254e+01
   7.059744e+01  -8.894616e+00
   8.215281e+00   1.189125e+01
  -3.910090e+01   5.258920e+00
   9.315816e-01   1.144271e+01
   2.184004e+01   7.368306e+00
   1.117972e+01   5.054658e+00
  -3.736202e+01   5.195837e+00
  -5.639195e+01  -2.208362e+01
   1.125903e+01  -8.335708e+01
   1.130116e+02  -7.742964e+01
   1.583377e+02  -5.745474e+01
   1.212324e+02   1.234597e+02
   5.518367e+01   1.054519e+02
  -3.913215e+01   8.827897e+01
  -8.893022e+01   4.960204e+01
  -7.667526e+01  -2.070685e+01
  -9.027432e+00  -1.464242e+01
  -3.639038e+00  -3.088540e-01
  -4.100657e+01  -7.167129e+00
  -2.715556e+01  -3.476311e+01
   1.260447e+01  -6.656859e+01
   1.516437e+01  -6.079573e+01
   6.165925e+01   1.378150e+01
   2.342640e+01   9.217979e+01
  -1.055709e+01   7.950184e+01
  -6.974184e+01  -6.259835e+00
  -6.832492e+01  -5.821669e+01
  -1.899033e+01  -1.124333e+02
   8.097761e+01  -1.715424e+01
   9.934468e+01   2.709068e+01
   1.896793e+01   5.090577e+01
  -3.280040e+01   4.517400e+01
  -1.678709e+01   1.711283e+01
   3.022315e+00  -4.127128e+00
   4.415934e+01  -3.109067e+00
   3.252493e+00   1.459639e+00
  -7.410918e+01   3.450077e+01
  -7.736666e+01   5.011336e+01
  -4.931051e+01  -1.795553e+01
  -1.193453e+00  -6.365147e+01
   6.605357e+01  -5.513428e+01
   3.628412e+00  -2.148247e+00
  -2.874676e+00   5.045836e+01
   5.768790e+00   3.404278e+01
  -5.043662e+01  -1.391147e+01
  -2.355273e+01  -2.246732e+01
  -9.920779e+00  -3.950780e+01
  -8.072877e+00  -1.548068e+01
   4.429296e+01   1.418982e+01
   2.757374e+01   2.948306e+00
  -7.448994e+00  -3.952238e+00
  -2.936358e+01   4.791846e+00
   2.362798e+01   3.479123e+01
  -1.960080e+01   1.931237e+01
  -3.418530e+01  -3.199682e+01
  -1.504137e+01  -1.431306e+01
   2.414274e+01  -3.984374e+01
   4.031297e+01  -9.268548e+00
   3.806204e+01   2.273399e+01
   2.087329e-01   6.015134e+01
  -2.826893e+01   2.475260e+00
  -9.247983e+01   7.950406e+00
  -2.013169e+01  -3.520037e+01
   3.583235e+01  -3.573225e+01
   7.122920e+01  -2.620188e+01
   5.494048e+01  -4.050197e+00
  -1.517146e+01  -2.432677e+01
  -4.903433e+01  -2.262965e+01
   2.756792e+01  -4.293701e+01
   5.012826e+01  -1.424376e+01
