
 $NMID
 id='ANONYMOUS ', fmtdat='(2E16.6)'
 volume=1.0
 tramp=1.0
 $END
  -4.044646e+03  -1.012047e+02
  -2.081314e+03  -2.512858e+03
   9.931376e+02  -2.544722e+03
   1.902059e+03  -7.174837e+02
   6.160126e+02   5.437361e+02
  -5.171836e+02   4.088268e+02
  -7.619634e+02  -5.188165e+02
  -5.746834e+01  -9.174243e+02
   8.504107e+02  -5.813892e+02
   7.902807e+02   1.569932e+02
   4.856434e+02   8.018874e+02
  -1.791281e+02   7.491523e+02
  -4.768190e+02   6.194866e+01
  -3.056258e+02  -7.205667e+02
   3.397308e+02  -6.067466e+02
   5.396460e+02   1.514006e+01
   1.512632e+02   7.007630e+02
  -2.321814e+02   5.085675e+02
  -4.676285e+02   5.220235e+01
  -3.146349e+02  -3.349001e+02
   2.025068e+01  -4.679516e+02
   2.143794e+02  -2.396881e+02
   1.786463e+02   1.891463e+01
  -1.109111e+02   7.551730e+01
  -4.169981e+02  -8.922757e+01
  -2.098436e+02  -3.918371e+02
   3.968292e+02  -3.522724e+02
   7.016542e+02   5.074813e+01
   4.028841e+02   5.253959e+02
  -3.477872e+02   4.178622e+02
  -6.454168e+02  -2.623821e+01
  -2.600984e+02  -4.377503e+02
   2.927731e+02  -3.900693e+02
   5.697464e+02  -1.397639e+02
   4.076096e+02   1.987403e+02
   7.683648e+01   4.399025e+02
  -1.840510e+02   2.618855e+02
  -1.622190e+02  -1.869655e+02
   1.776438e+02  -4.171735e+02
   3.643286e+02   2.636874e+01
   1.631006e+02   5.260911e+02
  -2.953898e+02   5.892206e+02
  -5.389500e+02  -1.803488e+01
  -1.754405e+02  -5.230168e+02
   2.725827e+02  -2.743517e+02
   3.362746e+02   3.302754e+02
  -1.034534e+02   5.171599e+02
  -4.503386e+02   1.045455e+02
  -5.635914e+02  -4.186383e+02
  -1.297501e+02  -5.010943e+02
   3.996518e+02  -2.434321e+02
   5.948974e+02   1.372909e+02
   2.938072e+02   4.138285e+02
  -8.655986e+01   2.807839e+02
  -4.608706e+02   6.811527e+01
  -1.912549e+02  -1.876581e+02
   8.360200e+01  -7.301143e+01
   1.234038e+02   1.617006e+02
  -1.772590e+02   1.564652e+02
  -3.319783e+02  -3.542970e+01
  -1.137150e+02  -2.803019e+02
   1.922486e+02  -2.202048e+02
   2.845383e+02  -7.447870e+01
   2.043852e+02   9.362375e+01
  -2.712241e+01   1.717279e+02
  -1.884355e+02   2.584255e+02
  -3.223849e+02   1.731140e+02
  -2.535084e+02  -9.141709e+01
  -1.160972e+02  -3.117219e+02
   1.390708e+02  -3.493054e+02
   8.994445e+01  -8.392667e+01
   2.864590e+01   1.938421e+01
   3.907372e+01  -7.733163e+01
   1.351923e+02  -1.201158e+02
   2.473242e+02   9.860709e+01
   1.332482e+02   2.275479e+02
  -7.756387e+01   2.025734e+02
  -1.972371e+02  -1.686606e+01
  -1.395419e+02  -2.145806e+02
   1.839398e+01  -2.352158e+02
   2.429625e+02  -4.465335e+01
   3.242718e+02   2.032558e+02
   1.906445e+02   2.867653e+02
  -7.734030e+01   3.028188e+02
  -2.048291e+02   1.039881e+02
  -1.453082e+02  -1.977633e+01
  -8.499413e+01   3.834633e+01
  -2.070735e+02   6.227999e+01
  -3.447434e+02  -3.433446e+01
  -2.405317e+02  -2.665450e+02
  -2.164252e+01  -3.660983e+02
   3.063229e+02  -3.059017e+02
   4.619877e+02  -2.063517e+02
   2.574810e+02   4.546714e+01
   6.469759e+01   2.633361e+02
  -1.451561e+02   2.173432e+02
  -4.335981e+01   4.807881e+01
   9.507316e+01  -1.030483e+02
   2.082131e+02   3.730250e+01
   1.849013e+01   1.445547e+02
  -1.529272e+02   1.934818e+02
  -1.708874e+02  -9.682843e+01
   2.162747e+01  -1.424644e+02
   1.298308e+02  -2.893644e+01
   1.690780e+02   2.227249e+02
  -1.534309e+01   3.096616e+02
  -2.617673e+02   1.797683e+02
  -2.576869e+02  -6.845215e+01
  -1.893219e+02  -2.119521e+02
  -4.155660e+01  -2.332703e+02
   1.354136e+02  -1.274295e+02
   1.524435e+02   1.827469e+01
   7.560572e+01   4.104695e+01
  -6.416324e+01  -2.235565e+01
  -1.041844e+01  -7.959166e+01
   9.094246e+01  -7.999829e+01
   1.650724e+02   4.155247e+01
   2.477916e+01   5.949794e+01
  -7.749482e+01   8.148511e+00
  -8.592098e+01  -9.674279e+01
   1.000988e+02  -5.947593e+01
   2.622341e+02  -3.092767e+00
   2.161236e+02   1.283481e+02
   5.232667e+01   2.164735e+02
  -1.668961e+02   2.316752e+02
  -2.614959e+02   7.870830e+01
  -1.560767e+02  -4.785914e+01
   3.631389e+01  -9.688047e+01
   7.865023e+01  -2.659479e+01
  -4.537771e+01   9.677271e+01
  -1.878358e+02   4.999572e+01
  -1.773404e+02  -1.108736e+02
  -4.420731e+01  -2.018725e+02
   1.157429e+02  -1.842209e+02
   1.035901e+02  -2.068954e+01
   7.000474e+01   2.951356e+01
  -1.400315e+00  -7.513672e+00
  -4.065237e+01  -6.682973e+01
   7.433305e+01  -1.092245e+02
   1.909441e+02  -2.704882e+01
   1.389992e+02   1.109527e+02
   5.380010e+01   1.905494e+02
  -1.674277e+02   1.550638e+02
  -1.705508e+02   4.571057e+00
  -5.489717e+01  -1.004853e+02
   5.852778e+01  -8.365844e+01
   6.243621e+01  -3.779298e+01
   1.792572e+01   1.033889e+01
  -1.293096e+01   8.762111e+00
  -6.107753e+00   5.999382e+00
   5.706302e+01   7.405768e+00
   8.052246e+01   8.049900e+01
   2.708181e+01   1.562419e+02
  -1.128815e+02   1.354636e+02
  -1.851180e+02   2.358545e+01
  -1.715695e+02  -1.483579e+02
  -4.441153e+01  -2.191625e+02
   1.064648e+02  -1.424625e+02
   1.263649e+02  -4.426803e+01
   5.818035e+01   2.929719e+01
   2.861326e+01   3.764111e+01
   6.133072e+01  -2.168510e+01
   7.846731e+01   3.630644e+00
   4.353706e+01   5.330827e+01
  -2.617825e+01   1.004059e+02
  -7.744462e+01   4.172494e+01
  -7.195231e+01  -5.073126e+01
   1.042551e+01  -9.597979e+01
   1.504788e+02  -9.230785e+01
   1.550469e+02   6.708454e+01
   7.355002e+01   1.614990e+02
  -9.771804e+01   1.977334e+02
  -2.371854e+02   8.812542e+01
  -2.329663e+02  -7.222375e+01
  -1.045275e+02  -2.062075e+02
   4.936770e+01  -1.362027e+02
   7.017698e+01  -8.558216e+01
   5.789453e+01  -7.973216e+01
   3.057170e+01  -8.450760e+01
   9.912011e+01  -8.224003e+01
   1.220634e+02   5.467829e+01
   1.029151e+02   1.253733e+02
   3.291459e+01   1.975447e+02
  -1.254947e+02   1.610510e+02
  -1.718840e+02   1.408924e+00
  -1.205602e+02  -1.181318e+02
  -2.030645e+01  -1.469758e+02
   7.835223e+01  -8.014965e+01
   4.809115e+01   2.430964e+01
   3.741258e+01   5.104783e+01
   7.031768e+00   2.909505e+01
   1.746834e+01   3.299228e+01
   6.312544e+01   3.394302e+01
  -6.659878e-01   4.169434e+01
  -2.530272e+01   5.675892e+01
  -1.506816e+02   2.284652e+01
  -1.305871e+02  -4.615909e+01
  -4.300029e+01  -6.855808e+01
   1.211297e+02  -3.945300e+01
   1.394621e+02  -4.129583e+00
   7.570699e+01   3.215429e+01
  -7.103526e+01   3.816422e+01
  -4.573797e+01   1.071236e+01
   2.678656e+01  -6.703705e+01
   4.687056e+01  -4.208332e+01
   7.005048e+01   2.123512e+01
   5.033576e+01   4.589500e+01
   3.523658e+01   3.654821e+01
   6.236790e+01   1.157000e+01
   6.452470e+01   8.031097e+00
   7.537337e-01   4.886478e+01
  -1.786030e+01   1.348444e+02
  -7.546669e+01   1.251583e+02
  -1.466032e+02   2.375103e+01
  -1.212074e+02  -7.300307e+01
   1.488675e+01  -1.181480e+02
   7.554770e+01  -6.900651e+01
   1.842415e+01  -4.978164e+00
  -4.107304e+01  -2.388435e+01
  -1.034601e+02  -2.840764e+01
  -7.215217e+01  -1.066458e+02
   7.273835e+01  -8.666017e+01
   1.639402e+02  -5.040102e+01
   1.345572e+02   4.077515e+01
   5.230871e+01   9.547299e+01
  -5.673322e+01   6.132130e+01
  -6.067741e+01   1.272827e+01
   4.490430e+01  -2.746281e+01
   5.264436e+01   4.229815e-01
   4.305639e+01   9.506452e+01
  -6.455100e+01   1.071455e+02
  -1.543125e+02   5.275164e+01
  -9.501765e+01  -8.947422e+01
   2.116908e+01  -2.087978e+02
   7.832811e+01  -1.703507e+02
   1.308511e+02   1.912520e-01
   8.047107e+01   1.021954e+02
   1.644131e-02   8.741748e+01
  -1.233702e+01   2.244270e+01
  -4.465822e+01  -3.430231e+01
  -2.893349e+01  -8.202570e+00
   7.871767e-01  -1.735043e+01
  -2.351239e+01  -5.671395e+00
  -4.687432e+01  -9.164431e+01
  -1.771901e+01  -1.212734e+02
   3.205490e+01  -4.897841e+01
   1.329345e+02   4.729721e+01
   1.075860e+02   7.375686e+01
   1.808131e+01   5.938562e+01
  -6.807265e+01   4.366312e+01
  -9.773466e+01  -6.846243e+00
  -1.313368e+01  -4.122694e+01
   2.935939e+01  -2.027522e+01
   1.264108e+01  -1.053054e+01
  -2.938130e-01   6.095943e+00
  -7.190183e+00  -1.582340e+01
   5.733032e+01   2.167693e+01
   9.271149e+01   3.041432e+01
   1.043312e+01   5.624160e+01
  -1.491093e+02   1.102068e+02
  -1.438434e+02   4.071736e+01
  -1.466080e+02  -9.686962e+01
  -2.837199e+01  -1.501717e+02
   5.238651e+01  -1.430213e+02
   1.085290e+02  -6.235989e+01
   6.907962e+01   2.648836e+01
   1.643457e+01   1.546249e+01
  -1.066449e+01   2.396916e+01
   3.062753e+01   6.855947e+00
   1.460079e+01   2.929985e+01
   1.816098e+01   8.265178e+01
  -2.279351e+01   7.548517e+01
  -8.840633e+01   1.008534e+01
  -6.071313e+01  -9.036741e+01
   2.814559e+01  -1.003051e+02
   7.934373e+01  -1.298857e+01
   1.095656e+02   5.270844e+01
   4.829629e+01   1.024922e+02
  -6.991427e+01   5.114873e+01
  -1.002255e+02  -2.585088e+01
  -3.299067e+01  -5.940695e+01
   2.771699e+01  -4.402080e+01
   3.020048e+00  -2.748509e+01
  -6.193569e+00   8.979629e+00
  -5.843535e+01   1.355830e+01
  -4.042684e+00  -1.616405e+01
   9.638250e+01  -3.523610e+01
   1.098518e+02  -5.872809e+01
   5.098944e+01   2.429999e+01
  -1.590616e+01   6.909925e+01
  -5.855864e+01   6.237756e+01
  -5.142114e+01   4.630394e+00
  -9.065775e+00  -6.684860e+01
  -3.589995e+00  -2.470587e+01
   4.969968e+01   6.895329e+00
   3.649298e+01   2.447612e+01
   7.297754e+00   2.274710e+01
  -5.002223e+01   1.086129e+01
  -2.487516e+01  -4.475339e+01
  -1.179244e+01   6.504517e+00
  -1.028209e+01   1.528872e+01
   9.141630e+00  -8.041578e+00
  -1.316345e+01  -4.591341e+01
   1.276410e+01  -2.439375e+01
   2.388779e+01   2.379819e+01
   2.111231e+01   3.678515e+01
  -1.347257e+01   3.260322e+01
  -5.200028e+01   2.137895e+01
  -6.578434e+01  -3.698459e+01
  -1.851821e+01  -3.877629e+01
   4.048470e+01  -3.089113e+00
   5.628111e+01   1.463993e+01
   2.006971e+01   1.508028e+01
  -4.665517e+01   3.243910e+01
  -7.084727e+01   2.122107e+01
  -1.551628e+01   2.190597e+01
   4.003268e+01   1.403647e+01
   4.122587e+01  -1.210531e+01
  -3.275463e+01   2.611554e+01
  -7.415903e+01   1.537424e+01
