
 $NMID
 id='ANONYMOUS ', fmtdat='(2E16.6)'
 volume=1.0
 tramp=1.0
 $END
   3.981797e+03   4.787682e+02
   2.185949e+03   2.651508e+03
  -8.605554e+02   2.374753e+03
  -1.700594e+03   6.364551e+02
  -7.849583e+02  -5.149558e+02
   4.146628e+02  -3.089715e+02
   6.065443e+02   3.527137e+02
  -1.429688e+02   9.529114e+02
  -7.228136e+02   5.515507e+02
  -7.977242e+02  -9.521112e+01
  -4.256476e+02  -9.661197e+02
   2.012987e+02  -7.145634e+02
   4.755524e+02  -9.466731e+01
   3.244285e+02   7.335695e+02
  -2.724976e+02   6.541784e+02
  -4.666408e+02  -1.170810e+01
  -1.907426e+02  -6.013253e+02
   1.853180e+02  -6.447039e+02
   4.749525e+02  -1.175856e+02
   3.562929e+02   2.709900e+02
   5.182206e+00   3.834697e+02
  -2.093809e+02   2.790392e+02
  -1.221677e+02   1.294748e+01
   1.244087e+02  -4.254043e+01
   3.543282e+02   1.543409e+02
   1.233829e+02   4.515080e+02
  -4.102383e+02   3.507414e+02
  -7.190426e+02  -3.143244e+01
  -3.466442e+02  -5.166816e+02
   3.375552e+02  -3.573025e+02
   7.002840e+02   9.194863e+01
   2.771520e+02   5.036163e+02
  -2.772447e+02   4.447603e+02
  -5.030957e+02   1.897398e+02
  -4.189908e+02  -2.491781e+02
  -8.312519e+01  -4.355785e+02
   1.368704e+02  -2.479675e+02
   1.150550e+02   1.820655e+02
  -1.539636e+02   3.361772e+02
  -3.263249e+02   1.546127e+01
  -1.466527e+02  -5.968086e+02
   3.042388e+02  -5.620171e+02
   5.649500e+02   3.353574e+01
   1.963159e+02   5.583335e+02
  -2.336461e+02   3.071092e+02
  -2.637257e+02  -3.215916e+02
   8.836913e+01  -5.217036e+02
   4.634115e+02  -8.895321e+01
   5.854123e+02   4.717394e+02
   1.091616e+02   5.423241e+02
  -3.591469e+02   3.244872e+02
  -5.574850e+02  -6.696096e+01
  -3.526047e+02  -3.387211e+02
   1.445650e+02  -2.903644e+02
   4.426194e+02  -8.360084e+00
   1.609524e+02   1.600065e+02
  -6.109611e+01   7.741695e+01
  -1.051597e+02  -1.105194e+02
   2.029895e+02  -1.353566e+02
   3.306545e+02   4.786889e+01
   1.033177e+02   2.580678e+02
  -1.895382e+02   2.860247e+02
  -3.198616e+02   1.146916e+02
  -2.286494e+02  -4.582842e+01
   3.079745e+01  -1.957422e+02
   1.921293e+02  -2.779495e+02
   3.598188e+02  -2.003274e+02
   2.400379e+02   1.164347e+02
   4.766593e+01   3.574484e+02
  -1.135435e+02   3.376634e+02
  -1.009272e+02   1.035850e+02
   8.720863e+00  -2.445923e+01
  -5.750056e+01   9.333922e+01
  -2.204081e+02   9.796271e+01
  -2.115263e+02  -7.128266e+01
  -1.330725e+02  -2.571845e+02
   7.784470e+01  -2.392582e+02
   1.963684e+02   1.083565e+01
   1.397765e+02   2.227807e+02
  -3.094210e+01   2.658028e+02
  -2.647836e+02   6.051722e+01
  -3.152635e+02  -1.381261e+02
  -1.846553e+02  -3.301448e+02
   6.624711e+01  -2.812773e+02
   2.150729e+02  -1.148005e+02
   1.301205e+02  -1.959393e+01
   1.309185e+02  -1.565686e+01
   2.270910e+02  -6.828348e+01
   3.930735e+02   1.247515e+02
   2.766223e+02   2.403620e+02
  -1.515325e+01   4.298832e+02
  -3.589411e+02   3.036903e+02
  -4.558413e+02   1.735646e+02
  -2.981463e+02  -8.028104e+01
  -4.048693e+01  -2.584468e+02
   1.430698e+02  -2.017980e+02
   5.255182e+01  -6.197472e+01
  -1.036198e+02   8.018010e+01
  -1.912949e+02  -3.989365e+01
  -2.530484e+01  -1.698194e+02
   1.240186e+02  -1.673991e+02
   1.446287e+02   6.971615e+01
  -2.835193e+01   1.575346e+02
  -1.296952e+02   2.224245e+01
  -1.527686e+02  -2.815165e+02
   2.431491e+01  -3.821907e+02
   2.670985e+02  -1.723747e+02
   3.264835e+02   1.062286e+02
   2.478141e+02   2.119605e+02
   5.684693e+01   2.253623e+02
  -1.352262e+02   1.149788e+02
  -1.621271e+02  -2.259047e+01
  -3.227831e+01  -4.881453e+01
   6.262235e+01   3.127315e+01
   9.248370e+00   8.991646e+01
  -8.651783e+01   9.824510e+01
  -1.678513e+02  -4.515967e+01
  -3.835081e+01  -7.898980e+01
   1.023997e+02   1.631395e-01
   9.403558e+01   5.509388e+01
  -1.622115e+02   7.275676e+01
  -2.796479e+02   1.434094e+01
  -2.505580e+02  -9.556530e+01
  -3.843406e+01  -2.538572e+02
   1.733453e+02  -2.556184e+02
   2.703352e+02  -1.242201e+02
   1.709562e+02   7.817721e+01
  -1.279518e+01   6.915617e+01
  -9.682872e+01  -1.114369e+01
   3.041630e+01  -6.326765e+01
   1.625001e+02  -2.973454e+01
   1.833478e+02   7.478828e+01
   2.865280e+00   1.780592e+02
  -1.282486e+02   1.591844e+02
  -1.657922e+02   2.145484e+01
  -3.895740e+01  -2.179402e+01
   2.169943e+01   2.510659e+00
   3.415321e+01   6.258980e+01
  -7.452679e+01   9.506465e+01
  -1.799138e+02   3.765063e+00
  -1.953247e+02  -1.034102e+02
  -1.805655e+01  -2.164491e+02
   1.550062e+02  -1.153113e+02
   1.596404e+02   5.143895e+00
   6.278025e+01   1.113517e+02
  -5.721704e+01   1.105229e+02
  -7.415106e+01   2.923198e+01
   1.645887e+01  -2.358204e+01
   3.546063e+01  -9.799476e+00
   4.147189e+00  -1.623842e+00
  -8.091780e+01  -1.482209e+01
  -8.911753e+01  -1.063225e+02
  -2.426458e+01  -1.322764e+02
   1.460496e+02  -1.475242e+02
   2.076347e+02  -3.152712e+01
   1.562715e+02   1.661941e+02
   2.175213e+01   2.340097e+02
  -1.091386e+02   1.194740e+02
  -1.161650e+02   2.295687e+01
  -6.930869e+01  -6.334244e+01
  -3.243035e+01  -3.176021e+01
  -6.718299e+01   3.056657e+01
  -9.127810e+01   1.806474e+01
  -3.634135e+01  -7.074519e+01
   7.087981e+01  -7.650389e+01
   1.142920e+02  -5.980235e+01
   8.279441e+01   6.588793e+01
  -1.375653e+01   9.713209e+01
  -1.637783e+02   7.534060e+01
  -2.129383e+02  -5.965148e+01
  -5.610212e+01  -1.873835e+02
   1.251178e+02  -2.253467e+02
   2.369086e+02  -5.821764e+01
   2.518742e+02   8.810733e+01
   1.064001e+02   1.813614e+02
  -4.944902e+01   1.506214e+02
  -6.419210e+01   8.999937e+01
  -5.548543e+01   8.909616e+01
  -4.260993e+01   8.492413e+01
  -1.184829e+02   7.804511e+01
  -1.273921e+02  -2.019439e+01
  -1.006457e+02  -1.284154e+02
  -3.831076e+01  -1.975367e+02
   8.675228e+01  -1.661263e+02
   1.759148e+02  -1.660782e+01
   1.247461e+02   1.096657e+02
   4.778254e+00   1.611049e+02
  -5.400234e+01   8.722115e+01
  -8.048940e+01  -2.905278e+01
  -3.038098e+01  -4.080590e+01
   1.643855e+01  -3.827534e+01
  -3.154016e+01  -5.184008e+01
  -6.844881e+01  -3.692913e+01
  -3.989689e+01  -2.688639e+01
   4.898578e+01  -1.789670e+01
   1.527334e+02  -2.163973e+01
   1.834682e+02   5.081134e+01
   2.093499e+01   1.022243e+02
  -1.354303e+02   7.273628e+01
  -1.557276e+02   2.594070e+01
  -6.575668e+01  -5.188976e+01
   8.615465e+01  -4.450658e+01
   5.530357e+01   2.085635e+01
   1.950775e+01   6.722316e+01
  -3.988525e+01   5.489738e+01
  -3.758522e+01  -1.550934e+01
  -5.047740e+01  -7.766586e+01
  -5.702942e+01  -2.551788e+01
  -7.504749e+01  -2.346327e+01
  -7.446365e+01  -1.918351e+01
  -2.360511e+01  -6.927486e+01
   2.199901e+01  -1.441405e+02
   1.017091e+02  -1.161118e+02
   1.491681e+02  -3.906126e+01
   1.258821e+02   8.598011e+01
  -2.700759e+01   1.167878e+02
  -9.015568e+01   6.424529e+01
  -3.312211e+01  -1.666886e+01
   4.114074e+01  -2.327813e+01
   1.601634e+02   4.463896e+01
   9.874109e+01   1.057722e+02
  -9.708854e+01   1.179238e+02
  -1.732835e+02   4.951451e+01
  -1.744154e+02  -3.792619e+01
  -2.314830e+01  -8.682587e+01
   7.805195e+01  -5.868273e+01
   6.425317e+01   1.061540e+01
  -4.020641e+01   3.032525e+01
  -5.894253e+01  -8.310157e+00
  -5.165139e+01  -1.128807e+02
   9.252019e+01  -1.770024e+02
   1.574620e+02  -4.623308e+01
   9.060867e+01   8.956142e+01
  -5.522831e+00   2.050340e+02
  -1.042679e+02   1.377858e+02
  -9.095231e+01  -1.567184e+01
  -6.530705e+01  -1.263316e+02
  -9.366832e+00  -1.252289e+02
   6.867645e+01  -1.450981e+01
   4.529989e+01   2.699309e+01
   3.355119e+01   1.583089e+01
   2.786584e+01  -3.314678e+00
   1.684228e+01   4.461481e+01
   3.997989e+01   6.195387e+01
   7.186029e+01   1.116865e+02
  -1.818389e+01   4.882775e+01
  -1.042725e+02  -7.236068e+01
  -9.729365e+01  -1.014577e+02
  -2.438828e+01  -6.344337e+01
   8.076980e+01  -3.466224e+01
   1.126784e+02   1.849821e+01
  -8.732661e+00   2.308240e+01
  -4.464801e+01  -3.651620e-01
   1.344225e-01   5.219219e+01
   2.411574e+00  -2.243788e+01
   4.960096e+00   2.816957e+01
  -6.573785e+01   1.234536e+00
  -1.033520e+02  -1.660478e+01
  -1.149297e+01  -7.287832e+01
   9.631602e+01  -7.695268e+01
   1.710719e+02  -3.422868e+01
   1.406084e+02   5.987537e+01
   4.347300e+01   1.499513e+02
  -4.597111e+01   1.530988e+02
  -1.061117e+02   5.737306e+01
  -8.307320e+01  -7.986083e+00
  -4.323000e-01  -3.440661e+01
  -2.186420e+00  -4.704841e+00
  -2.436385e+00   2.193418e+01
  -2.549807e+01  -4.696528e+01
  -3.121086e+01  -6.469427e+01
   2.559080e+01  -6.864158e+01
   8.787862e+01   2.184171e+01
   7.736942e+01   7.829451e+01
  -3.632919e+00   9.944455e+01
  -7.422273e+01   1.384865e+01
  -8.134833e+01  -4.918692e+01
  -2.207416e+01  -8.933806e+01
   4.237484e+01  -5.648417e+01
   9.824847e+01  -1.542609e+01
   5.415737e+01   6.526450e+01
  -6.053703e+01   6.609297e+01
  -2.593531e+01   1.213147e+01
   4.411563e+01  -1.561854e+00
   7.098527e+01   2.108680e+01
   4.160752e+01   2.008148e+01
  -8.964937e+01   5.009215e+01
  -1.079870e+02   3.893429e+01
  -6.555371e+01  -3.767730e+00
  -6.040839e+00  -8.404481e+01
   8.389740e+01  -3.432571e+01
   5.979792e+01  -1.887431e+01
  -1.970723e+01   5.417707e+01
  -2.956329e+00   5.045997e+01
  -4.672077e+01  -2.497637e+01
  -2.571140e+01  -6.036670e+01
  -2.516786e+01  -5.344285e+01
   3.002428e+01  -8.377251e+00
   1.089783e+01   1.895875e+01
   2.186077e+01   1.462627e+01
  -5.624900e+00  -1.123687e+01
  -2.251516e+01   5.907920e+00
  -8.447917e+00   5.430594e+01
  -1.174680e+01   5.223344e+01
  -5.334574e+01  -1.055583e+01
  -5.275449e+01  -3.917113e+01
   1.322294e+01  -2.245675e+01
   5.998976e+01  -1.100838e+01
   6.286871e+01   3.938161e+01
   3.873930e+00   4.909428e+01
  -5.384093e+01   1.895863e+01
  -8.658965e+01  -1.258761e+01
  -4.372852e+01  -3.937597e+01
   2.816214e+01  -3.992332e+01
   5.470405e+01  -3.418664e+01
   3.401523e+01   1.599763e+01
   2.192191e+00   3.488837e-01
  -4.275357e+01  -2.248614e+01
   3.165369e+01  -2.192456e+01
   8.370104e+01  -1.146330e+01
