
 $NMID
 id='ANONYMOUS ', fmtdat='(2E16.6)'
 volume=1.0
 tramp=1.0
 $END
   3.108853e+03   6.141855e+01
   1.721414e+03   1.402241e+03
   4.337948e+01   1.630307e+03
  -1.348702e+03   8.922941e+02
  -7.662312e+02  -4.798109e+01
   2.351280e+02  -2.669162e+02
   5.653577e+02   2.156807e+02
  -3.480017e+01   5.241993e+02
  -4.160542e+02   4.397499e+02
  -6.631757e+02   1.718646e+00
  -3.355754e+02  -5.511989e+02
   1.042340e+02  -6.837704e+02
   3.283770e+02  -1.161760e+02
   2.180649e+02   3.614740e+02
  -1.094745e+02   5.295613e+02
  -2.877876e+02   7.558505e+01
  -2.337434e+02  -4.387147e+02
   2.311654e+02  -5.328031e+02
   4.812658e+02  -2.069795e+02
   3.273054e+02   1.551476e+02
   7.168240e+01   2.490151e+02
  -1.550256e+02   1.986762e+02
  -9.645394e+01   5.031344e+01
   1.569284e+02  -4.563102e+00
   2.852694e+02   1.471547e+02
   1.155149e+01   3.035355e+02
  -4.238946e+02   2.110420e+02
  -6.860286e+02  -1.179721e+02
  -3.202549e+02  -4.285350e+02
   3.062655e+02  -1.589475e+02
   5.476212e+02   3.036074e+01
   1.768408e+02   3.085182e+02
  -2.324120e+02   3.650417e+02
  -4.288863e+02   1.709554e+02
  -2.222167e+02  -1.054109e+02
  -4.206599e+01  -2.175817e+02
   8.757743e+01  -1.424360e+02
   5.577233e+01   1.187662e+02
  -9.419571e+01   2.295803e+02
  -2.477351e+02  -8.800139e+01
  -5.736238e+01  -5.340120e+02
   1.414959e+02  -4.375877e+02
   3.904830e+02   6.096613e+00
   1.270990e+02   2.716582e+02
  -1.835699e+02   2.203031e+02
  -2.320648e+02  -2.286684e+02
   5.780105e+01  -3.782655e+02
   4.586028e+02  -7.400741e+01
   3.943398e+02   2.346257e+02
   1.999365e+02   5.033108e+02
  -3.113312e+02   2.459666e+02
  -4.299442e+02  -5.773483e+01
  -3.083195e+02  -2.332641e+02
   9.795337e+01  -1.873908e+02
   2.106584e+02  -9.725467e+01
   1.623024e+02   8.536905e+01
  -2.034164e+01  -1.325043e+01
  -6.273723e+01  -5.182862e+01
   8.909285e+01  -1.186941e+02
   1.569976e+02   4.204138e+01
   9.563237e+01   1.438750e+02
  -1.194035e+02   1.702492e+02
  -2.487588e+02   1.017845e+02
  -2.082572e+02  -8.141618e+01
  -1.191643e+00  -2.688422e+02
   2.437119e+02  -3.005017e+02
   3.364186e+02  -1.701413e+02
   2.439682e+02   1.201544e+02
   1.145641e+01   3.490385e+02
  -2.274752e+01   2.882556e+02
  -2.865506e+01   1.010412e+02
  -1.602094e+01   7.315590e+01
  -1.001753e+02   1.270694e+02
  -1.883204e+02   9.870901e+01
  -2.200925e+02  -8.986660e+01
  -1.130148e+02  -2.204578e+02
   8.233729e+01  -2.110504e+02
   1.850179e+02   1.795907e+01
   1.421072e+02   2.337101e+02
   1.291901e+01   2.356401e+02
  -2.375210e+02   9.323752e+01
  -2.418345e+02  -1.503148e+02
  -1.174861e+02  -2.346133e+02
   3.703203e+01  -2.181700e+02
   1.638509e+02  -1.320185e+02
   1.187006e+02  -6.350971e+01
   1.526662e+02  -5.996431e+01
   2.073682e+02  -5.418690e+01
   3.116396e+02   7.988476e+01
   1.944948e+02   2.178905e+02
   7.243519e+00   3.580785e+02
  -3.052785e+02   3.081004e+02
  -3.921676e+02   1.394242e+02
  -2.183267e+02  -7.394225e+01
  -4.445568e+01  -1.944652e+02
   7.722994e+01  -1.703765e+02
   3.565522e+01  -3.433204e+01
  -7.969910e+01   4.207760e+01
  -1.137302e+02   1.473404e+01
  -4.571580e+00  -1.087144e+02
   1.135914e+02  -8.055259e+01
   9.918090e+01   2.523862e+01
  -7.329861e+01   1.415990e+02
  -1.432073e+02   2.905074e+00
  -9.909146e+01  -1.983647e+02
   3.474030e+01  -2.613434e+02
   1.830706e+02  -1.605576e+02
   2.875442e+02   4.854838e+01
   2.077963e+02   1.633345e+02
   5.663050e+01   2.034872e+02
  -1.145149e+02   1.479151e+02
  -9.820384e+01   1.025021e+01
  -5.920036e+01   5.673647e+00
   3.929384e+01   6.699616e+01
   1.806106e+01   8.579101e+01
  -1.430828e+02   9.435792e+01
  -1.589055e+02  -3.677060e+01
  -4.513286e+01  -9.328508e+01
   4.107576e+01   1.965541e+01
   2.590825e+01   5.798530e+01
  -1.134212e+02   8.364878e+01
  -2.625759e+02   6.811315e+00
  -2.188422e+02  -1.365966e+02
  -2.616783e+00  -2.462010e+02
   1.337935e+02  -2.236255e+02
   1.635718e+02  -3.799155e+01
   1.160709e+02   4.442954e+01
  -1.426742e+01   7.752208e+01
  -8.051189e+01   2.222655e+01
   3.648864e+01  -4.223033e+01
   1.589327e+02  -5.017104e+01
   1.764379e+02   6.867000e+01
   6.419658e+01   1.729504e+02
  -8.607192e+01   9.758375e+01
  -1.271203e+02   1.223825e+01
  -1.278048e+01  -2.357952e+01
   4.504070e+01   1.606693e+01
   3.742991e+01   8.902069e+01
  -5.297880e+01   1.149374e+02
  -1.753299e+02   2.679409e+01
  -1.698201e+02  -1.285094e+02
  -2.017724e+01  -1.391732e+02
   7.556240e+01  -1.153907e+02
   1.887222e+02  -2.344877e+01
   3.675451e+01   1.053730e+02
  -7.489629e+01   5.595039e+01
  -5.309547e+01   1.826318e+01
   1.684059e+01  -4.007121e+01
   4.775105e+01  -1.020851e+01
  -5.537074e+00  -2.603003e+01
  -4.925679e+01  -2.024962e+01
  -9.569636e+01  -8.243829e+01
  -7.404575e+00  -1.499910e+02
   1.080312e+02  -1.086236e+02
   2.140999e+02  -5.428608e+01
   1.644769e+02   1.394855e+02
   5.252100e+01   1.849653e+02
  -8.551684e+01   1.160162e+02
  -9.447434e+01   2.856169e+01
  -6.081336e+01  -3.510637e+01
  -4.901959e+01  -3.541943e+01
  -8.098372e+01   3.429784e+01
  -6.263507e+01  -2.348609e+00
  -6.407048e+00  -5.735547e+01
   2.868857e+01  -7.674456e+01
   7.084858e+01  -5.109268e+01
   6.850424e+01   4.036193e+01
  -2.957621e+01   5.989866e+01
  -1.031745e+02   9.440989e+01
  -1.929285e+02  -5.591984e+01
  -3.913057e+01  -2.105718e+02
   1.057152e+02  -1.519853e+02
   2.246192e+02  -5.805961e+01
   1.991086e+02   6.984857e+01
   8.215741e+01   1.149463e+02
  -3.551603e+01   1.096626e+02
  -9.738284e+01   3.487404e+01
  -4.257576e+01   3.224221e+01
  -1.080298e+02   7.045036e+01
  -6.793898e+01   6.331807e+01
  -1.021637e+02  -2.224226e+01
  -8.988669e+01  -1.251669e+02
  -7.401971e+00  -1.546144e+02
   8.112811e+01  -1.391403e+02
   1.208162e+02  -2.314358e+01
   9.365590e+01   1.117959e+02
   5.225681e+00   1.537439e+02
  -6.458794e+01   5.959547e+01
  -5.031135e+01  -3.858409e+01
   3.042775e+01  -6.199972e+00
   2.519147e+01  -2.825698e+01
  -2.441577e+00   1.494344e+01
  -6.318572e+01   1.434717e+01
  -3.343566e+01  -3.839289e+01
   9.336905e+01  -1.005083e+01
   1.363799e+02   3.681663e+00
   1.346033e+02   2.416870e+01
   3.448503e+01   7.942927e+01
  -1.154682e+02   8.403098e+01
  -1.185539e+02   4.774662e+00
  -1.883942e+01  -4.310430e+01
   6.740012e+01  -5.537268e+01
   6.725077e+01  -7.003598e+00
   2.131388e+01   6.925353e+01
  -6.379944e+01   5.237984e+01
  -3.386892e+01  -2.171104e+01
  -3.052448e+01  -1.923459e+01
  -4.540334e+01  -5.185459e+01
  -5.562610e+01   4.390190e-01
  -3.509576e+01   2.198109e+00
  -5.288635e+01  -5.542997e+01
  -5.548156e+00  -1.475522e+02
   8.943312e+01  -9.440201e+01
   1.505858e+02  -3.340530e+01
   1.246627e+02   5.660324e+01
   2.046278e+01   1.168763e+02
  -1.018123e+02   7.342352e+01
  -5.304363e+01  -2.026615e+01
   3.432351e+01   9.979627e+00
   1.125063e+02   9.177151e+00
   7.532782e+01   6.598511e+01
  -5.847158e+01   1.291505e+02
  -1.286220e+02   4.182192e+01
  -1.708306e+02  -1.959464e+01
  -2.549135e+01  -7.145863e+01
   7.223039e+01  -5.155024e+01
   3.209567e+01  -1.668834e+01
  -4.823431e+01   8.761201e+00
  -8.542462e+01  -9.549785e+00
  -2.283251e+01  -8.041524e+01
   8.073144e+01  -1.218135e+02
   1.271428e+02  -4.225991e+01
   6.506734e+01   8.042321e+01
   2.033347e+01   1.818289e+02
  -6.822465e+01   9.212960e+01
  -4.727016e+01  -3.609640e+01
  -3.478771e+01  -6.947215e+01
  -3.984530e+00  -7.022081e+01
   6.455385e+01  -1.618003e+01
   3.563280e+01   7.437507e+01
  -1.829768e+01   1.135569e+01
   1.713523e+01  -1.005661e+01
   1.867887e+01  -1.234019e+01
   4.522953e+01   7.219494e+01
   4.495443e+01   8.636118e+01
  -3.547262e+01   1.963694e+01
  -1.289667e+02  -3.484982e+01
  -1.113172e+02  -8.498106e+01
  -1.302643e+01  -4.763332e+01
   6.620460e+01  -1.985260e+01
   6.277308e+01  -2.072767e+01
   3.212759e+01   4.913673e+01
  -2.259470e+01   2.849475e+01
  -5.237915e+00   1.807648e+01
  -8.773028e+00   6.253269e+00
   2.556722e+00   6.029862e+00
  -7.843814e+01   2.224259e+01
  -9.213449e+01   2.498915e+00
  -2.006763e+01  -7.029875e+01
   1.019012e+02  -8.587348e+01
   1.483460e+02  -5.344888e+01
   1.178769e+02   1.683124e+01
   2.319646e+01   1.342032e+02
  -6.335429e+01   1.383427e+02
  -8.748294e+01   2.427286e+01
  -6.287596e+01  -1.241113e+01
  -1.953531e+01  -3.272863e+01
   8.306078e+00  -9.026957e+00
  -3.561609e+00  -8.616728e+00
  -3.902187e+01  -2.954461e+01
  -6.899900e+00  -1.016880e+02
   3.325052e+00  -6.783792e+01
   7.595910e+01   9.645508e+00
   8.305916e+01   4.309441e+01
   1.961168e+01   8.147225e+01
  -7.110912e+01   8.304159e+00
  -6.992467e+01  -5.988924e+01
  -1.244756e+01  -8.741388e+01
   7.770596e+01  -3.470713e+01
   8.468045e+01   5.646864e+00
   3.842681e+01   4.556956e+01
  -1.190579e+01   5.623207e+01
  -5.401662e+01   5.025273e+01
   3.176870e+01  -1.765599e+01
   6.281196e+01   1.039212e+00
   2.734258e+01   2.188508e+01
  -4.813558e+01   3.808469e+01
  -1.262159e+02   3.169930e+01
  -6.972092e+01   1.127737e+01
  -4.697960e+00  -6.931912e+01
   5.697384e+01  -5.471785e+01
   3.033695e+01  -2.692258e+01
  -6.927103e+00   5.833079e+01
  -2.137170e+01   6.504719e+01
  -4.781829e+01  -7.656088e+00
  -4.394753e+00  -4.680202e+01
   3.340537e+01  -5.578865e+01
   2.643618e+01   1.250003e+01
   5.147974e+01   4.463350e+01
   4.254605e+00  -1.408738e+01
   1.202864e+01  -1.206231e+01
   3.041695e+00  -8.083499e+00
   5.243063e+01   3.152291e+01
   1.259489e+00   5.060053e+01
  -1.532074e+01   3.937188e+01
  -2.362595e+01  -4.761202e+00
   3.203045e+00  -3.928678e+01
   3.466235e+01  -2.537493e+01
   4.710983e+01   1.641201e+00
   2.614170e+01   3.513780e+01
  -6.298219e+01   4.430661e+01
  -7.134287e+01  -1.937030e+01
  -3.227193e+01  -7.483681e+01
   2.365426e+01  -3.095725e+01
   1.545726e+01  -2.180198e+01
   1.746820e+01  -1.600198e+01
  -1.484789e+01  -3.371816e+00
  -4.811260e+01   1.722934e+01
   1.341039e+01  -4.008167e+01
   7.967656e+01  -3.732820e+01
