
 $NMID
 id='ANONYMOUS ', fmtdat='(2E16.6)'
 volume=1.0
 tramp=1.0
 $END
   3.293459e+03   2.441579e+02
   2.260277e+03   1.764200e+03
  -3.795039e+02   2.066872e+03
  -1.236147e+03   1.294028e+03
  -8.302778e+02   3.107104e+01
   8.391819e+01  -1.184210e+02
   4.799037e+02   3.430819e+02
  -1.097993e+02   7.298036e+02
  -5.122555e+02   5.000952e+02
  -6.240018e+02   5.361939e+01
  -4.070363e+02  -7.105386e+02
   1.099326e+02  -5.394575e+02
   2.897387e+02  -2.061094e+02
   2.879084e+02   6.044449e+02
  -1.468349e+02   5.266591e+02
  -4.042374e+02   2.812369e+01
  -2.874091e+02  -5.663743e+02
   1.320206e+02  -6.237873e+02
   3.572483e+02  -1.438096e+02
   3.603139e+02   1.537703e+02
   6.016082e+01   3.788766e+02
  -1.372990e+02   2.161891e+02
  -8.140163e+01   3.483237e+01
   1.847048e+02   2.967441e+01
   3.441744e+02   2.067580e+02
   1.172483e+01   3.866141e+02
  -4.340226e+02   2.140727e+02
  -6.356931e+02  -8.017334e+01
  -2.610061e+02  -3.710313e+02
   2.790075e+02  -2.808272e+02
   4.818128e+02   1.052582e+02
   2.115119e+02   4.090946e+02
  -2.665173e+02   3.719099e+02
  -4.550611e+02   2.292381e+02
  -3.242428e+02  -1.720180e+02
  -7.576581e+01  -3.535925e+02
   8.086049e+01  -1.399339e+02
  -3.346016e+01   1.417151e+02
  -1.489732e+02   1.605145e+02
  -2.629901e+02  -6.112740e+01
  -2.290348e+01  -5.140494e+02
   2.429276e+02  -4.261489e+02
   3.447582e+02   7.853662e+00
   1.514416e+02   4.180135e+02
  -1.516248e+02   1.873760e+02
  -2.267486e+02  -3.391440e+02
   1.058438e+02  -4.459135e+02
   3.938660e+02   8.989346e+00
   4.165189e+02   3.680708e+02
   1.486298e+02   4.955896e+02
  -3.051990e+02   2.529801e+02
  -5.129471e+02  -4.465070e+01
  -2.982122e+02  -2.506547e+02
   6.288759e+01  -2.449700e+02
   3.176216e+02  -3.831345e+01
   1.604780e+02   6.401999e+01
   2.675880e+01   4.635976e+01
  -5.117390e+01  -5.388721e+01
   1.340176e+02  -7.671243e+01
   2.653951e+02   6.249344e+01
   1.001153e+02   1.646874e+02
  -1.484716e+02   2.518994e+02
  -3.072159e+02   1.319166e+02
  -2.577418e+02  -8.104081e+01
   1.872614e+01  -2.882477e+02
   2.414327e+02  -2.896496e+02
   3.504717e+02  -8.011392e+01
   1.942853e+02   1.364512e+02
   4.979452e+01   3.133091e+02
  -9.487365e+01   2.555859e+02
  -3.428844e+01   1.431318e+02
  -3.930829e+01   3.288345e+01
  -5.483513e+01   6.142906e+01
  -2.254604e+02   8.442264e+01
  -2.532368e+02  -1.025765e+02
  -1.069389e+02  -2.167819e+02
   5.766711e+01  -2.409917e+02
   1.797110e+02   6.412194e+01
   1.100233e+02   2.287751e+02
  -6.342572e+01   2.223176e+02
  -2.394296e+02   3.498891e+01
  -2.877889e+02  -1.579018e+02
  -1.905753e+02  -2.573246e+02
   6.966343e+01  -2.814112e+02
   1.641568e+02  -1.210525e+02
   1.298992e+02  -6.167773e+01
   1.447205e+02  -6.158227e+01
   2.218798e+02  -2.196927e+01
   3.789509e+02   1.150017e+02
   2.797384e+02   2.577925e+02
  -3.561056e+01   3.918043e+02
  -3.729572e+02   3.750643e+02
  -4.760337e+02   1.219781e+02
  -3.000646e+02  -6.918423e+01
  -7.751348e+00  -2.424676e+02
   1.365623e+02  -2.051817e+02
   1.461540e+01  -5.954629e+00
  -1.104757e+02   3.697645e+01
  -1.609896e+02  -1.841464e+01
  -4.324696e+01  -1.515360e+02
   1.644091e+02  -1.525373e+02
   1.189203e+02   7.541234e+01
  -1.259899e+01   1.063670e+02
  -1.513365e+02  -3.570519e+01
  -1.185723e+02  -2.026176e+02
   2.425738e+01  -3.099855e+02
   2.617457e+02  -2.020449e+02
   3.477904e+02   5.534517e+01
   2.450441e+02   2.556851e+02
   3.270226e+01   2.495264e+02
  -1.085103e+02   1.380310e+02
  -1.195258e+02  -1.040828e+01
  -8.374500e+00  -2.426078e+01
   5.792568e+01   4.541256e+01
  -3.862698e+01   1.196536e+02
  -1.177198e+02   6.695527e+01
  -1.437593e+02  -4.081132e+00
  -2.855190e+01  -4.892581e+01
   9.824725e+01  -2.579304e+01
   3.443951e+01   1.030721e+02
  -1.647523e+02   7.966607e+01
  -2.380535e+02  -2.351565e+00
  -2.651101e+02  -1.378998e+02
  -1.245704e+01  -2.403361e+02
   1.597023e+02  -2.393045e+02
   2.638525e+02  -1.075202e+02
   1.702441e+02   7.390387e+01
  -3.551603e+01   8.420827e+01
  -7.576196e+01  -2.329393e+01
   1.366524e+01  -5.332321e+01
   1.588188e+02  -5.976384e+01
   1.562373e+02   9.648096e+01
   3.986789e+01   1.809080e+02
  -1.114421e+02   1.263083e+02
  -1.177800e+02   1.624561e+01
  -6.152039e+01  -4.373414e+01
   2.110847e+01  -4.734187e+00
   6.014222e+01   9.700981e+01
  -6.513548e+01   8.667897e+01
  -1.752139e+02   7.539422e+00
  -1.630148e+02  -8.858782e+01
  -2.907523e+01  -1.888291e+02
   1.488487e+02  -1.229041e+02
   1.083988e+02   1.714645e+01
   4.757286e+01   8.302260e+01
  -4.834195e+01   9.453425e+01
  -9.335818e+01   9.060827e+00
  -6.064112e+00  -2.152789e+01
   1.457978e+01  -3.711242e+01
  -1.273750e+01  -2.087867e+00
  -7.385145e+01  -3.801117e+00
  -9.238870e+01  -7.062727e+01
   5.544233e+00  -1.506011e+02
   1.271728e+02  -1.346135e+02
   2.011036e+02  -9.044376e+00
   1.590001e+02   1.495030e+02
   6.518132e+01   2.202536e+02
  -1.120497e+02   1.381842e+02
  -8.849099e+01   1.380838e+01
  -8.745429e+01  -2.584716e+01
  -3.689763e+01  -4.722626e+01
  -4.107307e+01   1.966778e+01
  -9.872060e+01   2.758659e+01
  -2.394706e+01  -5.577976e+01
   4.677403e+01  -7.361362e+01
   1.002411e+02  -4.509198e+01
   9.581931e+01   3.762204e+01
  -1.746834e+01   1.240129e+02
  -1.462455e+02   8.200942e+01
  -1.475761e+02  -4.211761e+01
  -1.097366e+02  -1.783802e+02
   1.012251e+02  -1.653402e+02
   2.298258e+02  -5.858056e+01
   2.463701e+02   6.763117e+01
   7.185965e+01   1.414469e+02
  -3.813967e+01   1.178515e+02
  -7.323835e+01   6.820300e+01
  -7.143522e+01   7.828185e+01
  -5.782778e+01   1.053835e+02
  -4.972154e+01   5.374288e+01
  -1.097682e+02  -3.739240e+01
  -1.214719e+02  -1.629154e+02
  -3.519662e+01  -2.252503e+02
   8.120950e+01  -1.514842e+02
   1.578292e+02  -1.081982e+01
   1.188049e+02   1.052567e+02
   1.771535e+01   1.471842e+02
  -7.464875e+01   1.007810e+02
  -7.572087e+01  -3.552205e+01
  -8.504424e+00  -3.236440e+01
   4.064136e+01  -2.224635e+01
  -2.594111e+00  -5.277947e+01
  -7.599701e+01  -2.067800e+01
  -6.543406e+01  -5.001261e+01
   4.778008e+01  -6.149924e+01
   1.369524e+02  -1.221455e+01
   1.336966e+02   3.781740e+01
   2.345849e+01   7.169912e+01
  -1.174792e+02   4.680945e+01
  -1.011775e+02   3.228165e+01
  -5.585304e+01  -3.989317e+01
   3.093689e+01  -3.097438e+01
   6.692033e+01   4.576913e+01
   3.907026e+01   6.895612e+01
  -6.664785e+01   3.844050e+01
  -6.340399e+01  -1.790843e+01
  -6.442540e+01  -7.625008e+01
  -4.909481e+01  -2.962862e+01
  -6.485364e+01   3.228319e+01
  -7.139846e+01   2.188232e+01
  -5.005933e+01  -5.769382e+01
   3.436788e+01  -1.190226e+02
   1.126466e+02  -1.029120e+02
   1.464073e+02  -4.931846e+01
   1.041269e+02   5.966905e+01
   2.610420e+01   1.015871e+02
  -1.059938e+02   1.608092e+01
  -4.896392e+01  -3.423532e+01
   4.094533e+01   1.188090e+01
   1.159520e+02   2.854121e+01
   6.185648e+01   9.604455e+01
  -7.879812e+01   6.408784e+01
  -1.798103e+02   5.506898e+01
  -1.571105e+02  -4.757165e+01
  -2.901982e+01  -8.856146e+01
   6.492630e+01  -7.822513e+01
   6.011800e+01   2.264031e+01
  -3.339386e+01   2.161525e+01
  -5.688561e+01  -3.120431e+01
  -4.508441e+01  -1.084350e+02
   8.973923e+01  -1.569210e+02
   1.556471e+02  -8.679522e+01
   1.212123e+02   6.878137e+01
  -4.283829e-01   1.692328e+02
  -9.584567e+01   9.920805e+01
  -1.057209e+02  -1.414836e+01
  -5.063735e+01  -1.254442e+02
   2.386790e+01  -8.087420e+01
   1.863974e+01  -3.227690e+01
   2.507366e+01   1.442119e+01
   1.419421e+01   3.159448e+01
   1.681727e+01  -1.572601e+00
   1.720018e+01  -1.058135e+01
   7.041295e+01   6.071766e+01
   7.748441e-01   9.499708e+01
  -2.433685e+01   1.937755e+01
  -1.160891e+02  -3.801297e+01
  -1.176357e+02  -8.273094e+01
  -2.109399e+01  -3.869034e+01
   7.632715e+01  -2.003833e+01
   9.703805e+01  -3.431074e+01
   4.552396e+01  -2.520499e+01
  -2.490206e+01   2.578081e+01
  -2.133820e+01   2.611041e+01
  -2.542413e+00   3.623087e+01
   1.968324e+01  -1.110752e+01
  -6.503728e+01  -2.455709e+01
  -1.072277e+02  -3.083716e+01
  -1.636947e+01  -6.405618e+01
   1.047390e+02  -8.799226e+01
   1.596473e+02  -2.755146e+01
   1.492594e+02   5.100668e+01
   2.465648e+01   1.488190e+02
  -6.281220e+01   1.184349e+02
  -9.314238e+01   5.437724e+01
  -6.828196e+01  -1.945854e+01
   3.963073e+00  -5.808544e+01
  -2.396444e+01  -1.235944e+01
   9.133267e+00  -1.294966e+01
  -4.711469e+01  -1.079957e+01
  -1.030317e+01  -7.200837e+01
   4.481456e+01  -3.136866e+01
   8.107379e+01   2.712169e-01
   6.302585e+01   7.660407e+01
  -2.214665e-01   1.161686e+02
  -4.556606e+01   2.575683e+01
  -7.782821e+01  -5.972752e+01
  -1.440400e+01  -7.806937e+01
   7.186759e+01  -5.115341e+01
   8.920317e+01   2.479942e+01
   4.088787e+01   7.489531e+01
  -1.665823e+01   4.925874e+01
  -5.265764e+01   1.293888e+01
  -6.255780e+00  -1.183430e+01
   5.325957e+01  -2.372632e+01
   1.549475e+01   3.046341e+01
  -1.036135e+02   5.844981e+01
  -1.081577e+02   2.947621e+01
  -5.323374e+01  -2.065110e+01
  -2.011674e+01  -6.469889e+01
   6.171479e+01  -3.776018e+01
   5.519973e+01  -7.304927e+00
   2.038857e+01   4.926414e+01
  -4.674433e+01   6.589752e+01
  -3.581276e+01  -2.880290e+00
  -9.135002e+00  -4.560881e+01
   1.017379e+01  -4.267722e+01
   2.666805e+01   2.211891e+01
   2.847353e+01   1.568023e+01
   1.694512e+01  -2.167193e+00
  -1.038278e+01  -4.494236e+01
   7.648492e+00  -4.233584e+00
   9.164057e+00   8.233951e+00
   8.500605e-01   4.065248e+01
  -3.790513e+01   1.029326e+00
  -4.185527e+01  -4.237859e+01
  -1.419921e+01  -6.202605e+01
   4.837703e+01  -4.480213e+01
   4.629915e+01   1.939218e+01
   2.191172e+01   5.407333e+01
  -4.469784e+01   3.537923e+01
  -6.728344e+01   2.545094e+00
  -4.503110e+01  -5.531881e+01
   4.638339e+01  -6.146564e+01
   6.605854e+01  -2.060766e+01
   3.287124e+01   1.117602e+00
  -1.626329e+01  -2.241242e+01
  -2.085230e+01  -5.645438e+00
   1.678871e+01  -1.603154e+01
   6.903340e+01  -2.707414e+01
