
 $NMID
 id='ANONYMOUS ', fmtdat='(2E16.6)'
 volume=1.0
 tramp=1.0
 $END
  -4.620747e+03  -1.397801e+02
  -2.776559e+03  -2.988469e+03
   9.320527e+02  -2.717815e+03
   2.103524e+03  -8.296242e+02
   1.016227e+03   7.964750e+02
  -6.935186e+02   5.075383e+02
  -8.335278e+02  -3.904420e+02
  -2.125126e+01  -1.186630e+03
   8.738151e+02  -5.789085e+02
   8.975505e+02   1.633534e+02
   4.969305e+02   1.000486e+03
  -2.872882e+02   8.456351e+02
  -6.146292e+02   1.005904e+02
  -3.288420e+02  -8.626188e+02
   3.175330e+02  -6.943927e+02
   6.886215e+02   3.177273e+01
   2.099727e+02   7.385905e+02
  -3.529103e+02   6.091705e+02
  -6.377996e+02   5.402709e+01
  -3.720324e+02  -3.483097e+02
   3.767352e+01  -4.378210e+02
   2.789828e+02  -2.850523e+02
   2.221772e+02  -4.334982e+00
  -9.584224e+01   7.669469e+01
  -3.621536e+02  -1.400333e+02
  -2.439002e+02  -4.146909e+02
   4.459303e+02  -4.529641e+02
   8.784593e+02   1.029337e+02
   4.964084e+02   6.774783e+02
  -3.895718e+02   5.848173e+02
  -7.129903e+02  -3.721832e+01
  -3.255175e+02  -5.141509e+02
   3.176568e+02  -5.674264e+02
   5.730210e+02  -2.019278e+02
   4.311628e+02   2.672769e+02
   4.719029e+01   4.538684e+02
  -2.226869e+02   3.172903e+02
  -1.390343e+02  -1.952680e+02
   1.531862e+02  -4.283383e+02
   5.137007e+02   3.786765e+01
   2.599852e+02   6.968936e+02
  -2.152106e+02   7.231657e+02
  -6.676900e+02   2.385487e+01
  -3.327888e+02  -5.999666e+02
   2.497251e+02  -3.645671e+02
   3.869176e+02   3.193857e+02
  -9.202063e+01   5.265570e+02
  -5.373406e+02   1.674351e+02
  -6.576855e+02  -4.935981e+02
  -2.026377e+02  -6.091281e+02
   4.453627e+02  -3.029120e+02
   6.320314e+02   7.400812e+01
   3.422062e+02   4.209084e+02
  -1.663883e+02   3.604712e+02
  -4.472721e+02   2.992482e+01
  -2.367928e+02  -2.216079e+02
   1.277415e+02  -1.071733e+02
   1.364503e+02   1.459232e+02
  -1.560296e+02   2.221793e+02
  -3.934277e+02  -8.328546e+01
  -1.156166e+02  -3.114976e+02
   1.785672e+02  -2.866739e+02
   3.158798e+02  -8.800825e+01
   1.948576e+02   6.269094e+01
  -7.577632e+01   2.013623e+02
  -2.361257e+02   3.025574e+02
  -3.368130e+02   2.171891e+02
  -3.223660e+02  -9.060907e+01
  -9.686180e+01  -4.622657e+02
   1.059803e+02  -4.042001e+02
   1.385495e+02  -7.834276e+01
   3.504835e+01   1.593031e+01
   4.520099e+01  -6.341885e+01
   1.791423e+02  -1.385905e+02
   2.417751e+02   5.816844e+01
   1.184373e+02   2.566555e+02
  -5.206792e+01   2.640905e+02
  -2.130267e+02  -2.238430e+01
  -2.028514e+02  -2.465208e+02
  -1.773794e+01  -2.985002e+02
   2.648851e+02  -1.260954e+02
   3.222698e+02   2.291132e+02
   1.956077e+02   3.553268e+02
  -1.259079e+02   3.028404e+02
  -2.354872e+02   1.636955e+02
  -1.459089e+02   2.455544e+01
  -1.127005e+02   2.338519e+01
  -2.262473e+02   7.673059e+01
  -3.894606e+02  -6.133170e+01
  -2.994943e+02  -2.756275e+02
   5.689795e+01  -4.374191e+02
   3.626216e+02  -3.583355e+02
   5.416166e+02  -1.963026e+02
   3.276767e+02   8.250045e+01
   4.258413e+01   2.603689e+02
  -1.264524e+02   2.452146e+02
  -8.170505e+01   9.130181e+00
   1.215116e+02  -1.288289e+02
   2.295191e+02   3.360747e+01
   7.997464e+01   1.978464e+02
  -1.676581e+02   2.166940e+02
  -1.968171e+02  -4.843600e+01
   1.250667e+01  -1.851419e+02
   1.698099e+02  -2.873914e+01
   1.823981e+02   2.866004e+02
  -4.479525e+01   3.422428e+02
  -2.711237e+02   1.536988e+02
  -2.837135e+02  -9.285131e+01
  -2.818190e+02  -2.138850e+02
  -5.951654e+01  -2.245094e+02
   9.638658e+01  -1.707103e+02
   1.531793e+02  -7.333704e+00
   5.358700e+01   4.245087e+01
  -3.770910e+01  -3.185347e+01
   4.813317e+00  -1.096063e+02
   1.254851e+02  -9.791916e+01
   1.742093e+02   1.947917e+00
   6.352557e+01   5.949353e+01
  -7.713898e+01  -6.245870e+00
  -4.572981e+01  -6.772586e+01
   1.478302e+02  -9.560243e+01
   2.698692e+02  -2.632997e+01
   2.655229e+02   1.031435e+02
   5.285960e+01   2.560099e+02
  -1.926914e+02   2.244045e+02
  -2.861867e+02   1.573519e+02
  -1.920077e+02  -7.101469e+01
   2.512019e+01  -1.325170e+02
   1.068301e+02  -9.755471e-01
  -3.555552e+00   9.192947e+01
  -1.608476e+02   5.785742e+01
  -1.895543e+02  -9.947229e+01
  -6.314472e+01  -2.119409e+02
   9.984188e+01  -1.640712e+02
   1.208705e+02  -3.861603e+01
   4.012860e+01   5.877606e+01
  -1.368751e+01   3.972182e+00
  -4.454408e+01  -5.422593e+01
   5.169695e+01  -8.935266e+01
   2.098453e+02  -2.982608e+01
   1.556879e+02   1.241323e+02
   1.044415e+00   2.463422e+02
  -1.928627e+02   1.137882e+02
  -2.021011e+02   8.216579e+00
  -7.890116e+01  -1.070835e+02
   4.985305e+01  -1.545203e+02
   8.701494e+01  -3.465638e+01
   1.968656e+01   2.104581e+01
  -1.223223e+01   2.175558e+01
   5.036309e+00  -1.003357e+01
   5.811829e+01   1.185133e+01
   5.057206e+01   7.975393e+01
   3.091102e+00   1.506143e+02
  -1.159484e+02   1.550954e+02
  -2.149632e+02   2.170817e+01
  -1.975281e+02  -1.312341e+02
  -2.087764e-01  -2.174410e+02
   1.285840e+02  -1.345453e+02
   1.588197e+02  -3.056027e+01
   8.813876e+01   5.632420e+01
   3.445112e+01   5.671725e+01
   6.128581e+01  -3.754750e+01
   7.534763e+01  -1.415404e+00
   5.084742e+01   4.332675e+01
  -4.806798e+01   4.523595e+01
  -9.905902e+01   5.794590e+01
  -4.755970e+01  -4.505673e+01
   3.107795e+01  -1.142937e+02
   1.404808e+02  -4.796020e+01
   2.282145e+02   6.172119e+01
   6.625350e+01   2.023265e+02
  -1.118010e+02   2.279481e+02
  -2.251937e+02   1.000219e+02
  -2.374910e+02  -1.155831e+02
  -1.110076e+02  -1.773989e+02
   4.613309e+01  -1.670047e+02
   9.146965e+01  -7.989901e+01
   6.986731e+01  -7.375010e+01
   7.425495e+01  -1.054485e+02
   8.130076e+01  -6.440696e+01
   1.293975e+02   3.966414e+01
   1.250565e+02   1.710358e+02
   1.421708e+01   1.909064e+02
  -9.261794e+01   1.707104e+02
  -1.316890e+02  -5.979422e+00
  -9.808448e+01  -1.193994e+02
  -2.012030e+01  -1.668438e+02
   8.173033e+01  -9.293966e+01
   3.964619e+01  -2.440564e+00
  -2.070791e+01   5.092757e+01
  -2.248241e+01   4.781692e+01
   9.065381e+00   2.822031e+01
   7.100177e+01   1.671043e+01
   6.013629e+01   3.095285e+01
  -3.162031e+01   5.611636e+01
  -1.419276e+02  -2.318108e+01
  -1.508021e+02  -6.279362e+01
  -2.027856e+01  -1.178958e+02
   1.165860e+02  -6.610200e+01
   1.868702e+02  -3.179193e+01
   5.911185e+01   5.998395e+01
  -7.543567e+01   4.244521e+01
  -2.836348e+01  -8.638131e+00
   8.909712e-01  -5.866658e+01
   4.543850e+01  -7.438299e+01
   5.622269e+01   2.121312e+01
   2.579550e+01   8.110210e+01
   9.586826e+01   3.982327e+01
   9.151194e+01   2.022249e+01
   6.522661e+01  -6.935668e+00
   3.481332e+01   7.800494e+01
  -3.237135e+01   1.538928e+02
  -9.820038e+01   1.545789e+02
  -1.492177e+02   2.087154e+01
  -1.193629e+02  -7.257900e+01
   3.443188e+01  -1.139261e+02
   1.056835e+02  -6.442570e+01
   5.244028e+01   1.316286e+01
  -6.590967e+01   8.428571e+00
  -1.395803e+02  -4.852715e+01
  -4.491880e+01  -1.168889e+02
   5.644728e+01  -1.205627e+02
   1.835448e+02  -1.059963e+01
   1.695577e+02   3.539621e+01
   3.884637e+01   9.985931e+01
  -7.844374e+01   4.298850e+01
  -6.721592e+01  -1.316789e+01
   1.375295e+01  -4.620672e+01
   8.560501e+01   7.154713e+00
   4.088980e+01   1.443286e+02
  -1.120386e+02   1.614198e+02
  -1.265623e+02   7.360526e+01
  -1.157529e+02  -9.176354e+01
   1.250787e+01  -2.298848e+02
   1.159737e+02  -1.246225e+02
   1.202887e+02   3.391053e+01
   5.426442e+01   1.096152e+02
   1.014485e+01   1.263075e+02
  -5.708603e+01   4.816257e+01
  -3.402587e+01  -2.622441e+01
  -4.708555e+01  -1.890220e+01
   8.025692e+00   1.795189e+01
  -2.811493e+01  -1.967050e+01
  -7.817652e+01  -1.135588e+02
  -2.732472e+01  -1.128012e+02
   7.371576e+01  -3.780019e+01
   1.022621e+02   5.064991e+01
   8.482758e+01   6.272547e+01
   2.016284e+01   5.706299e+01
  -7.901757e+01   2.807864e+01
  -1.024078e+02  -1.157931e+01
  -1.096295e+01  -1.447661e+01
   5.011449e+01   9.983716e-01
   1.272499e+01  -2.327210e+01
  -2.187466e+01   1.268277e+01
  -1.583615e+01   2.389288e+01
   8.061671e+01   7.346419e+00
   9.322791e+01   3.766531e+01
   1.473433e+01   7.044358e+01
  -1.074092e+02   1.122554e+02
  -2.118097e+02   3.923224e+01
  -1.262219e+02  -7.786421e+01
  -1.567142e+01  -1.670671e+02
   9.336278e+01  -1.460913e+02
   1.418793e+02  -7.841056e+01
   7.319026e+01   3.438250e+01
   1.394301e+01   4.428465e+01
  -1.594875e+01  -9.409385e-01
   3.205313e+00  -2.034524e+01
   2.633059e+01   3.949519e+01
   1.629067e+01   7.292159e+01
  -3.787626e+01   8.211275e+01
  -9.813233e+01  -5.426537e+01
  -6.953509e+01  -1.139152e+02
   4.037595e+01  -9.876603e+01
   8.294748e+01  -1.727946e+01
   8.441177e+01   5.539333e+01
   3.066455e+01   1.036275e+02
  -5.771473e+01   3.126825e+01
  -8.444760e+01   1.920553e+01
  -5.485975e+01  -5.305570e+01
   3.607419e+01  -5.016866e+01
   2.011331e+01   8.336469e+00
  -5.945278e+01   9.916612e+00
  -7.174543e+01   4.597469e+00
  -5.457528e-01  -2.233351e+01
   8.928741e+01  -5.410814e+01
   9.769555e+01  -2.705745e+01
   5.370780e+01   1.020972e+01
  -2.835749e+01   1.091152e+02
  -8.226915e+01   8.514420e+01
  -1.257591e+00  -9.639051e+00
  -1.266582e+00  -2.409581e+01
   4.910938e+01  -5.852085e+01
   3.281337e+01   1.724133e+01
   1.336741e+01   8.828590e+01
   1.719842e+01   3.425006e+01
  -2.578875e+01  -9.724847e+00
  -7.367527e-01  -3.218432e+01
   7.788621e+00   1.833191e+01
   3.462748e+00   3.070365e+01
  -1.928572e+00  -1.061530e+01
  -2.292835e+01  -4.449507e+01
   8.220074e+00  -4.316981e+01
   2.289803e+01   5.780648e+00
   5.365793e+01   5.253147e+01
  -1.125351e+01   4.904443e+01
  -7.663213e+01   3.807838e+00
  -7.334411e+01  -4.222953e+01
   1.144387e+01  -3.056042e+01
   4.672742e+01  -4.812499e+01
   8.507908e+01   9.838149e+00
   4.316824e+01   4.002078e+01
  -3.153662e+01   4.729727e+01
  -7.647498e+01   2.364621e+01
  -5.310228e+01  -1.104332e+01
   2.501091e+01   4.885268e-01
   3.024022e+01   3.990139e+01
  -3.741008e+01   3.147313e+01
  -8.376451e+01   2.430664e+01
