
 $NMID
 id='ANONYMOUS ', fmtdat='(2E16.6)'
 volume=1.0
 tramp=1.0
 $END
  -3.543538e+03   2.369271e+02
  -2.433680e+03  -2.248098e+03
   4.594955e+02  -2.628900e+03
   1.791661e+03  -9.533609e+02
   1.029847e+03   4.479714e+02
  -4.144757e+02   4.192761e+02
  -9.814392e+02  -2.076286e+02
   1.572127e+00  -8.260277e+02
   5.334325e+02  -9.336245e+02
   9.339548e+02  -2.673835e+01
   3.997206e+02   8.557117e+02
  -1.385671e+02   7.985294e+02
  -5.734553e+02   1.506320e+02
  -3.915089e+02  -5.515088e+02
   2.143811e+02  -6.447282e+02
   6.114970e+02  -3.773011e+01
   3.650306e+02   6.117903e+02
  -2.529275e+02   6.461039e+02
  -5.474457e+02   1.706993e+02
  -4.440117e+02  -3.686433e+02
  -6.159835e+01  -4.377507e+02
   1.886332e+02  -3.121105e+02
   1.731021e+02  -1.016821e+02
  -1.048706e+02   3.489016e+01
  -4.124174e+02  -8.577470e+01
  -1.457873e+02  -3.114786e+02
   4.432637e+02  -4.318530e+02
   8.187920e+02   7.764708e+01
   3.798846e+02   5.587746e+02
  -3.875041e+02   4.398323e+02
  -6.041981e+02   8.981889e+00
  -3.239466e+02  -4.081796e+02
   3.131303e+02  -5.129271e+02
   5.630278e+02  -2.041187e+02
   3.951962e+02   2.034695e+02
   1.296431e+02   5.419265e+02
  -1.356974e+02   2.693162e+02
  -9.557918e+01  -1.756855e+02
   8.558167e+01  -3.734079e+02
   4.577051e+02  -2.724433e+01
   2.323682e+02   5.313541e+02
  -2.948924e+02   6.178745e+02
  -5.491254e+02  -7.423735e-01
  -2.719372e+02  -5.084315e+02
   2.827774e+02  -2.991397e+02
   3.851013e+02   2.641029e+02
  -7.039618e+01   5.066735e+02
  -5.120873e+02   1.944332e+02
  -5.842458e+02  -3.319740e+02
  -1.444456e+02  -5.782851e+02
   3.414550e+02  -4.641369e+02
   6.874078e+02   1.817094e+01
   4.061078e+02   3.079450e+02
  -1.037698e+02   3.059087e+02
  -3.777168e+02   9.083624e+01
  -2.572396e+02  -1.415487e+02
   9.764889e+01  -8.106362e+01
   9.856117e+01   1.118002e+02
  -1.199936e+02   1.701048e+02
  -3.727872e+02  -1.039619e+02
  -1.768624e+02  -2.825837e+02
   2.155872e+02  -3.231904e+02
   3.365588e+02  -1.436753e+02
   1.767476e+02   5.660865e+01
  -9.515721e+00   2.641779e+02
  -2.087572e+02   3.491818e+02
  -2.913810e+02   2.490409e+02
  -3.270829e+02  -8.490265e+01
  -1.627617e+02  -4.250426e+02
   8.006043e+01  -3.269112e+02
   4.809628e+01  -1.536866e+02
   5.122405e+01  -1.317710e+01
   3.831122e+01  -8.876963e+01
   2.069551e+02  -8.380821e+01
   2.678570e+02   2.526265e+01
   1.971117e+02   2.488928e+02
  -3.474637e+01   2.579290e+02
  -2.098430e+02   3.172353e+01
  -1.793858e+02  -2.413694e+02
  -2.777153e+01  -2.976754e+02
   2.259836e+02  -1.012364e+02
   3.808919e+02   1.662671e+02
   2.087608e+02   3.587508e+02
  -1.126671e+02   2.877315e+02
  -1.747113e+02   1.532044e+02
  -1.764452e+02   3.104626e+01
  -1.035983e+02   3.846866e+01
  -2.845215e+02   7.565794e+01
  -3.951898e+02  -6.585313e+01
  -3.763118e+02  -2.931578e+02
  -1.747937e+01  -4.498739e+02
   3.657736e+02  -4.132235e+02
   4.635257e+02  -3.040403e+02
   3.403472e+02   1.022719e+02
   6.332194e+01   3.242894e+02
  -8.931610e+01   2.255339e+02
  -3.924396e+01   5.284346e+01
   9.633557e+01  -7.510899e+01
   1.987487e+02  -2.740618e+01
   6.877922e+01   1.865489e+02
  -1.670112e+02   1.756007e+02
  -1.701875e+02  -6.102794e+01
   9.364514e+00  -1.682721e+02
   1.520063e+02  -4.288219e+01
   1.827162e+02   2.391365e+02
  -5.020593e+01   3.748470e+02
  -1.980087e+02   2.534987e+02
  -3.753443e+02  -3.474666e+01
  -3.004882e+02  -2.445095e+02
  -1.248534e+02  -2.546643e+02
   1.339576e+02  -1.487682e+02
   1.543515e+02  -2.327328e+01
   6.607153e+01   8.334240e+00
  -7.554429e+01  -1.994893e+01
  -1.930647e+01  -1.222818e+02
   1.117749e+02  -9.751735e+01
   1.327216e+02   3.182549e+01
   7.332677e+01   4.486191e+01
  -6.054890e+01  -1.653061e+01
  -6.766154e+01  -7.803875e+01
   1.444873e+02  -8.965017e+01
   2.511335e+02  -5.235514e+01
   2.860227e+02   1.617796e+02
   6.638789e+01   2.295387e+02
  -1.156513e+02   2.942290e+02
  -3.267254e+02   1.004986e+02
  -1.859319e+02  -2.908318e+01
   1.353863e+01  -9.764093e+01
   6.919731e+01  -2.506584e+01
  -3.992558e+01   9.955361e+01
  -1.865968e+02   3.015598e+01
  -1.888106e+02  -6.760765e+01
  -5.208053e+01  -1.959924e+02
   9.285394e+01  -1.627974e+02
   1.367795e+02  -2.665889e+01
   9.710907e+01   2.420613e+01
  -1.252253e+01  -1.055760e+01
  -6.072595e+01  -8.685558e+01
   8.279739e+01  -9.884159e+01
   1.943213e+02  -3.774071e+01
   2.255714e+02   1.475049e+02
   3.453059e+00   1.977232e+02
  -1.531959e+02   1.354647e+02
  -1.747523e+02   1.332310e+01
  -1.182410e+02  -1.097832e+02
   2.797830e+01  -1.162077e+02
   6.293772e+01  -2.573321e+01
   2.678174e+00   3.357541e+01
  -4.261795e+01   3.925410e+01
   4.731345e+01  -8.479712e+00
   7.154462e+01   6.797954e+00
   6.622716e+01   6.519516e+01
   1.927289e+01   1.640143e+02
  -1.256976e+02   1.433376e+02
  -2.258062e+02   1.611911e+01
  -2.175440e+02  -1.691679e+02
  -8.689912e+01  -2.233784e+02
   6.453178e+01  -1.831818e+02
   1.394889e+02  -5.780336e+01
   4.761048e+01   6.342884e+01
   5.631691e+01   5.218391e+01
   3.418606e+01  -1.388832e+01
   9.164076e+01  -2.186097e+01
   3.606095e+01   4.972368e+01
  -3.514979e+01   8.214656e+01
  -1.158843e+02   6.357127e+01
  -9.281506e+01  -4.186915e+01
  -2.683337e+00  -9.417103e+01
   1.318047e+02  -1.080792e+02
   2.218106e+02   2.395868e+01
   8.632569e+01   2.030728e+02
  -7.898262e+01   2.625752e+02
  -2.260972e+02   1.151758e+02
  -2.169944e+02  -9.661330e+01
  -1.375759e+02  -1.834624e+02
   1.948903e+01  -1.683877e+02
   1.093293e+02  -8.418935e+01
   1.059457e+02  -7.350138e+01
   4.827479e+01  -1.077769e+02
   8.350220e+01  -8.630420e+01
   1.133621e+02   1.759955e+01
   1.228868e+02   1.178255e+02
   2.077984e+01   2.481004e+02
  -1.064518e+02   1.522139e+02
  -1.868567e+02   3.244819e+01
  -1.108304e+02  -1.045469e+02
  -4.530926e+01  -1.544873e+02
   7.400056e+01  -9.814781e+01
   1.323309e+01   9.180215e+00
   6.044171e+00   4.029492e+01
  -1.996544e+01   4.976212e+01
   2.662501e+01   1.096818e-01
   7.937132e+01   2.476934e+01
   5.308320e+01   3.156823e+01
  -6.601942e+01   3.850594e+01
  -1.619564e+02   1.596145e+01
  -1.369336e+02  -3.775469e+01
  -2.461036e+01  -1.056924e+02
   1.206200e+02  -8.570921e+01
   1.599882e+02  -1.549765e+00
   4.186617e+01   4.553609e+01
  -7.018110e+01   6.978151e+01
  -8.480851e+01  -3.841049e+01
  -2.021937e+01  -6.755945e+01
   3.500405e+01  -9.788333e+01
   7.324057e+01   7.011936e+00
   6.358093e+01   4.279209e+01
   7.649386e+01   7.030195e+01
   7.543606e+01  -6.964827e+00
   4.526389e+01   1.926248e+01
   2.750305e+01   7.023199e+01
   1.225768e+01   1.665267e+02
  -1.227360e+02   1.565036e+02
  -1.938597e+02   6.698530e+01
  -1.056021e+02  -1.035938e+02
  -1.356555e+01  -1.201845e+02
   8.111663e+01  -6.743315e+01
   7.376999e+01  -1.286034e+01
  -4.357850e+01   1.687348e+01
  -1.114789e+02  -6.341262e+01
  -9.565478e+01  -9.503202e+01
   8.207742e+01  -1.388757e+02
   1.909757e+02  -3.359882e+01
   1.650477e+02   3.975591e+01
   9.596031e+01   9.329328e+01
  -6.120568e+01   6.152534e+01
  -4.034955e+01   9.388691e+00
   2.611743e+01  -2.894497e+01
   9.863345e+01   2.902898e+01
   4.052716e+01   1.148744e+02
  -9.581960e+01   1.780688e+02
  -1.746189e+02   5.022938e+01
  -1.356238e+02  -6.620055e+01
  -6.319645e+01  -1.973879e+02
   6.192885e+01  -1.891211e+02
   9.342486e+01  -2.828380e+00
   6.811392e+01   1.017106e+02
   1.734335e+01   1.197051e+02
  -4.993722e+01   8.171788e-01
  -4.483492e+01   1.154645e+01
  -1.679407e+01   2.642939e+00
  -5.729186e+00   2.389162e+01
  -9.671669e+00   1.363453e+01
  -7.164530e+01  -9.536197e+01
  -4.138744e+01  -1.050833e+02
   6.253709e+01  -5.028099e+01
   1.341575e+02   3.916084e+01
   1.481601e+02   2.594817e+01
   1.491919e+01   6.703282e+01
  -8.608515e+01   1.632788e+01
  -8.695163e+01   2.236619e+01
  -2.480994e+01  -2.705242e+01
   4.019444e+01   2.085653e+00
   1.628717e+01  -1.633598e+01
  -8.148502e+00   3.930509e+00
   1.084770e+01   6.417328e+00
   8.145695e+01  -2.304467e+01
   1.105756e+02   1.230573e+01
   2.072479e+01   7.124401e+01
  -1.065005e+02   1.155168e+02
  -2.082575e+02   6.683797e+01
  -1.347111e+02  -6.878829e+01
  -2.669749e+01  -1.487950e+02
   9.065823e+01  -1.636140e+02
   1.209167e+02  -5.174221e+01
   8.417001e+01   3.026361e+01
   1.394192e+01   3.685943e+01
   1.852731e+01   1.808264e+01
   1.161432e+01  -1.032000e+01
   4.919336e+01   4.521406e+01
   2.576307e+01   8.934109e+01
  -2.068279e+01   5.878727e+01
  -7.102377e+01  -6.984968e-01
  -8.505686e+01  -9.741233e+01
  -2.100922e+01  -1.424862e+02
   7.025882e+01  -6.928271e+01
   1.121621e+02   5.718775e+01
   4.783939e+01   8.935726e+01
  -6.187795e+01   8.395170e+01
  -1.088430e+02   1.367338e+01
  -3.022451e+01  -4.928872e+01
   3.622869e+01  -5.919251e+01
   4.036925e+01  -2.016523e+01
  -3.414616e+01   1.011935e+01
  -9.821984e+01   1.526902e+01
  -1.629033e+01  -2.625916e+01
   7.590680e+01  -6.781311e+01
   9.093395e+01  -5.786070e+01
   8.464945e+01   2.142620e+01
  -2.197080e+00   9.057892e+01
  -6.133037e+01   9.869938e+01
  -2.946455e+01  -4.819527e+00
  -2.072222e+01  -4.282117e+01
   3.875760e+01  -5.564157e+01
   2.719890e+01  -6.967980e+00
   2.305681e+01   5.505183e+01
  -2.752901e+01   5.311410e+01
  -4.179718e+01  -8.418001e+00
  -4.525957e+01  -2.592625e+01
  -6.579193e+00   1.607971e+01
  -1.117972e+01   2.069817e+01
   6.415180e+00   4.986447e+00
   6.193265e+00  -4.676317e+01
   4.702261e+01  -4.467145e+01
   2.944426e+01   1.001963e+00
   3.652464e+01   5.965340e+01
   3.584037e+00   6.469477e+01
  -5.717453e+01   3.796145e+01
  -6.596475e+01  -1.370863e+01
   7.574043e+00  -6.762621e+01
   2.786376e+01  -2.020671e+01
   8.455349e+01   2.918553e+01
   4.040754e+01   3.032104e+01
  -2.909286e+01   5.939498e+01
  -6.673207e+01   2.380864e+01
  -3.403519e+01   4.487932e+00
   2.426304e+01  -1.451947e+01
   4.364304e+01  -3.731925e+00
  -3.048457e+01   5.350280e+01
  -8.622134e+01   3.533020e+00
