
 $NMID
 id='ANONYMOUS ', fmtdat='(2E16.6)'
 volume=1.0
 tramp=1.0
 $END
  -2.926144e+03   3.213491e+01
  -2.149574e+03  -1.407902e+03
  -6.984922e+01  -1.788694e+03
   1.308151e+03  -7.855219e+02
   7.582827e+02  -1.402536e+01
  -1.760706e+02   2.636374e+02
  -5.644994e+02  -4.090786e+02
  -8.581573e+01  -5.443833e+02
   5.343529e+02  -4.997455e+02
   6.289217e+02  -6.127239e+01
   2.494021e+02   6.149854e+02
  -5.580754e+01   6.936479e+02
  -3.350203e+02   1.122544e+02
  -2.916217e+02  -4.054956e+02
   5.590097e+01  -5.658701e+02
   3.620778e+02  -8.698179e+01
   2.674945e+02   4.782721e+02
  -2.215178e+02   5.834003e+02
  -5.113527e+02   1.919730e+02
  -4.148298e+02  -2.156097e+02
  -8.721961e+01  -2.988463e+02
   1.243146e+02  -2.487321e+02
   1.037342e+02  -4.539273e+01
  -1.435638e+02  -3.484059e+01
  -3.451062e+02  -1.800003e+02
  -6.967239e+01  -2.951806e+02
   4.191966e+02  -2.915293e+02
   6.306554e+02   1.469445e+02
   2.372136e+02   3.802380e+02
  -2.632506e+02   1.682452e+02
  -5.515928e+02  -1.834879e+01
  -2.481880e+02  -4.242663e+02
   3.069853e+02  -3.633746e+02
   4.829379e+02  -1.955708e+02
   2.640052e+02   1.157292e+02
   8.399241e+01   2.806205e+02
  -7.003275e+01   1.752199e+02
  -6.698703e+01  -1.747038e+02
   1.521277e+02  -2.946929e+02
   2.842988e+02   1.990242e+01
   3.134660e+01   4.983296e+02
  -1.726199e+02   4.748883e+02
  -3.871944e+02  -6.753448e+01
  -1.287473e+02  -3.703448e+02
   2.228021e+02  -1.887081e+02
   2.806071e+02   2.887446e+02
  -7.151519e+01   4.464552e+02
  -4.883651e+02   5.275656e+01
  -4.474306e+02  -2.503832e+02
  -1.183849e+02  -5.107456e+02
   3.219106e+02  -2.762581e+02
   4.976802e+02   7.500178e+01
   3.664551e+02   1.786459e+02
  -7.753206e+01   2.171258e+02
  -2.784505e+02   7.325665e+01
  -1.860787e+02  -7.922246e+01
   4.788418e+01  -3.699591e+01
   6.107358e+01   3.657213e+01
  -6.636059e+01   1.419448e+02
  -2.573693e+02  -5.932813e+01
  -8.597195e+01  -1.960594e+02
   1.260816e+02  -2.343960e+02
   3.005680e+02  -9.490672e+01
   2.093445e+02   8.379242e+01
  -1.532851e+01   2.654871e+02
  -2.408176e+02   3.430085e+02
  -3.175163e+02   1.810495e+02
  -2.354729e+02  -1.256449e+02
  -1.837320e+01  -3.598426e+02
   1.484746e+01  -2.931927e+02
   2.570597e+01  -1.202396e+02
  -2.564174e+00  -3.204320e+01
   6.549347e+01  -1.355051e+02
   1.818112e+02  -8.899703e+01
   2.262753e+02   1.156630e+02
   1.439796e+02   2.329453e+02
  -1.109002e+02   2.244573e+02
  -1.881899e+02  -5.101451e+00
  -1.385303e+02  -2.389921e+02
   2.175512e+01  -2.549608e+02
   2.604049e+02  -1.052077e+02
   2.633589e+02   1.419362e+02
   1.178573e+02   2.578600e+02
  -5.556354e+01   2.549880e+02
  -1.380799e+02   1.110895e+02
  -1.520980e+02   7.992711e+01
  -1.208407e+02   5.784561e+01
  -2.379645e+02   2.591451e+01
  -3.302663e+02  -6.748925e+01
  -2.449956e+02  -2.646963e+02
  -7.319524e+00  -3.678736e+02
   3.674805e+02  -3.116151e+02
   4.365349e+02  -2.155929e+02
   2.917325e+02   7.476757e+01
   1.183301e+01   2.495411e+02
  -8.702231e+01   2.237021e+02
  -4.469646e+01   3.733329e+01
   6.640646e+01  -4.587922e+01
   1.345080e+02   6.090763e+00
  -1.101359e+01   1.456852e+02
  -1.235343e+02   1.308879e+02
  -9.074903e+01  -4.585911e+00
   5.828682e+01  -1.448780e+02
   1.684557e+02  -9.892530e+00
   1.425869e+02   1.874671e+02
  -6.545122e+01   3.201726e+02
  -1.838798e+02   2.148664e+02
  -3.221037e+02  -3.210695e+01
  -2.673190e+02  -1.890558e+02
  -7.704590e+01  -1.979126e+02
   1.246027e+02  -1.633705e+02
   1.180639e+02  -2.976964e+01
   7.026068e+01   1.460357e+01
  -7.791023e+01  -5.678873e+01
  -2.676953e+01  -1.070864e+02
   1.414806e+02  -7.808191e+01
   1.250193e+02   1.995118e+01
   4.759293e+01   7.878143e+01
  -8.228759e+01  -6.176382e+00
  -6.064716e+01  -6.712534e+01
   1.077081e+02  -6.848693e+01
   2.586221e+02   4.833244e+00
   2.261645e+02   1.211390e+02
   1.072862e+01   2.475868e+02
  -1.693009e+02   2.113069e+02
  -2.273688e+02   7.622086e+01
  -1.212864e+02  -5.294650e+01
  -1.420480e+00  -6.072538e+01
   6.393355e+01  -1.731946e+00
  -3.542148e+01   5.097460e+01
  -1.589523e+02   5.599231e+01
  -1.844077e+02  -5.933572e+01
  -6.733733e+01  -1.707580e+02
   6.385409e+01  -1.043361e+02
   9.823555e+01  -1.741303e+01
   7.226404e+00   8.793347e+00
  -4.589108e+01  -2.954014e+01
  -2.494793e+01  -1.141527e+02
   5.983475e+01  -8.896904e+01
   2.016416e+02  -4.480667e+00
   1.809689e+02   1.176989e+02
  -3.801066e-01   1.878634e+02
  -1.155838e+02   1.293984e+02
  -1.667544e+02   1.236517e+01
  -3.554342e+01  -8.072064e+01
   4.519377e+01  -6.510396e+01
   7.423408e+01  -1.557573e+01
   1.412647e+00   1.780585e+00
  -4.280741e+01  -2.940225e+00
   6.681136e+00  -3.503541e+01
   8.080824e+01  -3.456717e+01
   8.279256e+01   5.979964e+01
   4.537848e+00   1.279031e+02
  -1.109383e+02   1.203292e+02
  -2.284935e+02   4.421705e+01
  -1.904412e+02  -1.552995e+02
  -8.678270e+01  -2.105647e+02
   1.021942e+02  -1.243370e+02
   9.849567e+01  -2.274682e+01
   7.671286e+01   4.316793e+01
   3.444610e+01   3.139032e+01
   4.742173e+01   1.165406e+01
   5.291637e+01   1.518667e+01
   2.732476e+01   3.372859e+01
  -4.976385e+01   8.457959e+01
  -9.413390e+01   1.114530e+01
  -1.050811e+02  -2.776174e+01
   2.122889e+01  -1.002986e+02
   1.350391e+02  -6.671419e+01
   2.142060e+02   3.770505e+01
   9.031900e+01   2.054081e+02
  -1.180181e+02   2.259604e+02
  -2.710025e+02   5.686734e+01
  -2.407760e+02  -7.638772e+01
  -8.649496e+01  -1.244145e+02
   6.401467e+01  -1.405095e+02
   7.166065e+01  -5.476780e+01
   7.628210e+01  -5.489420e+01
   6.438484e+01  -9.399270e+01
   9.026134e+01  -5.391789e+01
   1.085747e+02  -2.200375e+01
   1.186019e+02   1.423354e+02
   4.880158e+00   1.689634e+02
  -1.120125e+02   1.596285e+02
  -1.571081e+02   3.828710e+01
  -1.406272e+02  -8.571547e+01
  -3.347046e+01  -1.324154e+02
   3.904535e+01  -8.994743e+01
   6.321293e+01   1.456714e+01
  -4.488172e+00   2.069189e+01
  -1.296783e+01   2.673100e+01
   3.168167e+01   2.187596e+01
   6.958533e+01   4.155389e+01
   5.253727e+01   4.403148e+01
  -6.143130e+01   5.194163e+01
  -1.627173e+02   4.434731e+01
  -1.247734e+02  -8.740677e+00
  -1.318571e+01  -1.018056e+02
   1.388425e+02  -7.498142e+01
   1.316776e+02   1.342693e+01
   4.141263e+01   4.129111e+01
  -6.212439e+01   5.818845e+01
  -5.808359e+01  -6.875651e+00
  -1.304151e+01  -6.265419e+01
   2.919349e+01  -7.586462e+01
   6.608050e+01   2.759679e+01
   3.049530e+01   3.102769e+01
   6.542298e+01   3.902196e+01
   4.376744e+01  -4.493568e+00
   4.569298e+01   2.434880e+01
   8.835303e+01   4.050769e+01
  -1.229181e+01   1.257335e+02
  -8.688459e+01   1.223623e+02
  -1.173123e+02   7.389258e+00
  -1.206796e+02  -7.463556e+01
  -1.970737e+01  -1.157750e+02
   9.345542e+01  -5.973878e+01
   4.988365e+01   1.301664e+01
  -3.977025e+01   1.808542e+01
  -8.461971e+01  -4.094643e+01
  -8.686324e+01  -8.633942e+01
   5.279920e+01  -1.008705e+02
   1.574371e+02  -4.614357e+01
   1.385431e+02   6.592330e+01
   6.183274e+01   9.367029e+01
  -5.150077e+01   4.569631e+01
  -2.722336e+01   1.158969e+01
   3.367064e+01  -8.746679e+00
   9.865706e+01   2.214499e+01
   5.016972e+01   1.087394e+02
  -6.396743e+01   1.538378e+02
  -1.415320e+02   5.873600e+01
  -1.175925e+02  -7.781872e+01
  -1.054606e+01  -1.618698e+02
   5.322560e+01  -1.285440e+02
   7.180723e+01  -7.138096e+00
   7.412410e+01   9.801044e+01
   1.717158e+00   1.230365e+02
  -3.163299e+01   1.326453e+01
  -3.497641e+01  -5.356646e+01
  -6.003352e+00   1.231659e+01
   6.725075e+00   2.620592e+01
  -2.001414e+01  -1.598040e+01
  -4.565252e+01  -5.727846e+01
  -3.189041e+01  -8.498627e+01
   5.702392e+01  -3.607144e+01
   1.308629e+02   3.279227e+01
   1.225518e+02   6.466390e+01
  -1.114833e+00   3.602450e+01
  -7.439503e+01  -9.270525e+00
  -7.646660e+01   2.048948e+01
  -2.864660e+01  -2.155875e+01
   2.917635e+01  -1.447982e+01
  -5.100915e+00  -3.734744e+00
  -4.588523e+00  -5.312374e+00
   1.628838e+01   1.361093e+01
   6.673843e+01  -5.306660e+00
   7.307212e+01   2.029925e+01
   4.358806e+01   7.514503e+01
  -8.055388e+01   4.193052e+01
  -1.808845e+02   4.131605e+01
  -1.487381e+02  -3.430246e+01
  -3.527352e+01  -1.011263e+02
   4.089559e+01  -1.613689e+02
   9.340392e+01  -2.322452e+01
   8.344932e+01   2.536252e+01
   8.671525e+00   3.340921e+01
  -1.278365e+01  -1.721624e+01
  -2.109406e+01   1.019343e+01
   2.312800e+01   3.282276e+01
   2.032174e+01   6.758086e+01
  -6.001625e+00   6.149761e+01
  -1.016671e+02  -9.484200e+00
  -7.499957e+01  -4.951664e+01
   1.103400e+01  -1.033251e+02
   4.790892e+01  -8.369640e+00
   1.042330e+02   5.277435e+01
   4.346949e+01   1.123943e+02
  -5.430424e+01   5.215931e+01
  -5.679565e+01   1.532518e+00
  -4.684579e+01  -8.148253e+01
   2.726472e+01  -8.153014e+01
   4.325454e+01  -2.486505e+01
  -3.836927e+01  -1.499350e+01
  -8.018370e+01  -2.096863e+01
   1.461473e+00  -3.742864e+01
   6.339543e+01  -9.326665e+01
   1.073147e+02  -3.918326e+01
   4.452517e+01   1.837529e+01
  -2.998910e+00   7.074053e+01
  -4.464375e+01   8.885749e+01
  -2.750448e+01   8.627798e+00
  -3.531647e+00  -6.750235e+01
   2.686279e+01  -4.261644e+01
   2.636650e+01  -1.102002e+01
   4.351068e+01   2.463629e+01
   6.464083e-02   5.746664e+01
  -3.770225e+01   2.600314e-01
  -3.180653e+01  -4.015457e+01
  -5.376674e+00  -1.003325e+01
  -6.991226e+00   2.184694e+01
   3.135012e+00   6.328974e+00
  -2.692041e+01  -3.351401e+01
  -9.920347e-02  -2.261622e+01
   2.589243e+01  -2.292159e+01
   3.158446e+01   3.771248e+01
   3.438354e+01   3.515127e+01
  -4.682957e+01   3.548116e+01
  -6.212100e+01  -1.640483e+01
  -2.235391e+01  -4.946395e+01
   4.464360e+01  -2.608102e+01
   6.951223e+01   4.024727e+01
   3.292205e+01   4.359066e+01
  -2.715910e+01   3.465504e+01
  -5.614183e+01   1.494745e+01
  -1.888962e+01   6.382840e+00
   1.049575e+01  -1.521536e+00
   1.599144e+01   1.247532e+00
  -2.042632e+01   3.314654e+01
  -7.568479e+01   1.318055e+01
