
 $NMID
 id='ANONYMOUS ', fmtdat='(2E16.6)'
 volume=1.0
 tramp=1.0
 $END
  -4.491630e+03  -2.237407e+02
  -2.589581e+03  -2.997364e+03
   8.135681e+02  -2.933786e+03
   2.079647e+03  -9.114120e+02
   1.057352e+03   7.436275e+02
  -7.480883e+02   7.738824e+02
  -8.653217e+02  -5.558865e+02
  -4.226254e+01  -1.241423e+03
   9.009647e+02  -7.980809e+02
   9.910175e+02   1.926070e+02
   4.741523e+02   1.021326e+03
  -2.243658e+02   9.391538e+02
  -6.324530e+02   1.319434e+02
  -2.818195e+02  -8.209161e+02
   2.496873e+02  -7.794440e+02
   6.823064e+02   8.792922e+00
   2.563977e+02   8.025194e+02
  -4.890320e+02   6.787040e+02
  -6.411606e+02   8.470173e+00
  -3.919481e+02  -4.264177e+02
   2.486815e+01  -3.777106e+02
   2.506683e+02  -2.936024e+02
   2.434035e+02   3.094300e+01
  -1.131169e+02   1.075133e+02
  -3.938603e+02  -1.411051e+02
  -2.773848e+02  -4.407415e+02
   4.947437e+02  -3.961549e+02
   9.416921e+02   2.932521e+01
   4.606639e+02   6.584281e+02
  -3.831487e+02   4.741955e+02
  -7.712268e+02   6.326794e+00
  -3.090426e+02  -4.798986e+02
   3.063465e+02  -6.059599e+02
   6.526976e+02  -1.619500e+02
   4.186514e+02   2.225971e+02
   2.678304e+01   5.211313e+02
  -2.751918e+02   2.550956e+02
  -2.051047e+02  -2.277939e+02
   1.096339e+02  -4.948369e+02
   5.376402e+02  -1.933116e+01
   2.743444e+02   7.176969e+02
  -2.976175e+02   7.219458e+02
  -6.273085e+02   8.009848e+01
  -2.773286e+02  -5.920550e+02
   3.622191e+02  -3.777202e+02
   4.130866e+02   3.644395e+02
  -6.021705e+01   5.221000e+02
  -5.865347e+02   1.320635e+02
  -6.138345e+02  -4.016652e+02
  -1.157731e+02  -5.715046e+02
   4.691237e+02  -2.637321e+02
   6.156352e+02   2.167475e+02
   3.221313e+02   4.025652e+02
  -1.613212e+02   4.380935e+02
  -4.518318e+02   3.303382e+01
  -2.635405e+02  -2.475121e+02
   1.246394e+02  -1.447043e+02
   1.948498e+02   1.719923e+02
  -1.887441e+02   2.377593e+02
  -3.997977e+02  -1.118429e+02
  -1.267249e+02  -2.847206e+02
   2.484461e+02  -2.188995e+02
   2.849169e+02   1.779075e+01
   1.797993e+02   8.245118e+01
   1.698411e+00   1.883409e+02
  -2.250512e+02   3.314675e+02
  -3.111938e+02   2.147480e+02
  -3.014473e+02  -1.627512e+02
  -7.396330e+01  -4.927002e+02
   1.399505e+02  -4.143967e+02
   1.650296e+02  -8.530185e+01
   3.365846e+01   4.964948e+00
   4.267259e+01  -8.396621e+01
   1.558099e+02  -1.653728e+02
   2.858364e+02   8.008245e+01
   1.085424e+02   2.704346e+02
  -7.119878e+01   2.606583e+02
  -2.316788e+02   1.902599e+01
  -2.427485e+02  -2.186834e+02
   1.812189e+01  -3.088764e+02
   2.933188e+02  -7.961557e+01
   3.649848e+02   2.137362e+02
   1.837987e+02   4.432518e+02
  -1.012067e+02   3.273505e+02
  -2.455754e+02   1.297852e+02
  -1.565009e+02  -1.178081e+00
  -1.104345e+02   2.071464e+01
  -2.095202e+02   2.791193e+01
  -4.094779e+02  -3.751741e+01
  -2.781410e+02  -3.049676e+02
   4.636486e+01  -4.306467e+02
   2.703379e+02  -4.097398e+02
   5.211047e+02  -1.495172e+02
   3.964846e+02   1.416668e+02
   5.271601e+01   3.249713e+02
  -1.880377e+02   2.917255e+02
  -1.013061e+02   3.042956e+01
   1.005674e+02  -1.238608e+02
   2.116797e+02   7.672883e+01
   4.851015e+01   2.195346e+02
  -1.317140e+02   2.009450e+02
  -2.056917e+02  -6.222331e+01
   4.112676e+01  -2.443718e+02
   1.785831e+02  -4.828904e+01
   1.781871e+02   2.429069e+02
  -5.189706e+00   3.360109e+02
  -2.498487e+02   1.620332e+02
  -3.194106e+02  -8.710277e+01
  -2.399438e+02  -2.143219e+02
  -8.417784e+01  -2.542751e+02
   7.513159e+01  -1.817408e+02
   2.029044e+02  -8.167569e+00
   8.231603e+01   4.484735e+01
  -6.064483e+01  -3.259130e+01
  -1.970383e+01  -1.130572e+02
   1.383653e+02  -1.019876e+02
   1.607323e+02   1.780609e+01
   7.068144e+01   3.724227e+01
  -9.185902e+01   2.005356e+01
  -3.207183e+01  -3.828371e+01
   1.277084e+02  -9.593384e+01
   2.369382e+02   2.239074e+01
   2.350083e+02   9.842706e+01
   2.667320e+01   2.421495e+02
  -1.949128e+02   2.224488e+02
  -3.072019e+02   1.486047e+02
  -1.546684e+02  -6.357972e+01
  -1.078401e+01  -1.177693e+02
   7.420520e+01   2.249722e+00
  -3.388503e+01   1.099314e+02
  -1.831211e+02   4.233657e+01
  -1.960579e+02  -1.168258e+02
  -6.773909e+01  -2.106635e+02
   1.177835e+02  -1.605256e+02
   1.341069e+02  -1.460518e+01
   3.038660e+01   4.924110e+01
  -9.014299e+00   1.822723e+01
  -6.429394e+00  -6.959610e+01
   8.494321e+01  -1.132091e+02
   2.056176e+02  -2.015594e+01
   1.898725e+02   1.228412e+02
   1.026891e+01   2.142865e+02
  -1.786246e+02   1.688742e+02
  -1.907133e+02  -2.321872e+01
  -6.043915e+01  -9.822799e+01
   7.794837e+01  -1.019987e+02
   3.633527e+01  -5.885104e+00
   1.402125e+01   1.537140e+01
  -3.229726e+01   1.364203e+00
   1.427331e+01   2.766028e+01
   8.502305e+01   2.401964e+01
   4.847218e+01   1.134255e+02
   1.963236e+01   1.518922e+02
  -1.109134e+02   1.370439e+02
  -2.272516e+02   2.227013e+01
  -2.140664e+02  -1.075562e+02
   4.963427e+00  -2.011526e+02
   1.018738e+02  -1.568360e+02
   1.831410e+02  -3.930786e+00
   6.963271e+01   4.663925e+01
   3.381059e+01   3.685141e+01
   4.775745e+01   1.194400e+01
   9.582771e+01   1.063611e+01
   3.805576e+01   6.399553e+01
  -4.103358e+01   5.005445e+01
  -9.525659e+01   3.149893e+01
  -8.978105e+01  -5.269766e+01
   2.708184e+01  -1.287703e+02
   1.436640e+02  -7.209039e+01
   1.869600e+02   4.572973e+01
   8.711599e+01   1.858988e+02
  -1.110237e+02   2.341864e+02
  -2.718219e+02   9.331269e+01
  -2.566529e+02  -7.451104e+01
  -6.380934e+01  -2.049384e+02
   5.299203e+01  -1.443558e+02
   7.330578e+01  -8.082867e+01
   8.052847e+01  -9.814567e+01
   6.533750e+01  -1.007797e+02
   8.848027e+01  -5.868741e+01
   1.106416e+02   1.105232e+01
   8.698991e+01   1.381060e+02
   6.921237e+00   1.796814e+02
  -1.253687e+02   1.400421e+02
  -1.820215e+02   2.508523e+01
  -1.263658e+02  -1.223898e+02
  -2.843700e+01  -1.378588e+02
   1.014293e+02  -1.002863e+02
   4.687127e+01   1.935617e+01
   2.021224e+01   2.499097e+01
   1.734249e+01   4.182363e+01
   5.198334e+01   4.255246e+01
   7.170662e+01   1.107508e+01
   2.722403e+01   4.280113e+01
  -5.293031e+01   5.181530e+01
  -1.780450e+02   8.887504e+00
  -1.204385e+02  -5.978639e+01
  -9.403573e+00  -9.082410e+01
   1.393583e+02  -2.021772e+01
   1.393825e+02   5.936735e+00
   4.058054e+01   3.118361e+01
  -4.939049e+01   3.458651e-01
  -7.639383e+01  -3.659420e+01
   1.568210e+01  -5.257738e+01
   3.564661e+01  -5.811215e+01
   6.993870e+01   1.527469e+01
   1.085297e+01   5.877045e+01
   3.132106e+01   2.241027e+01
   9.074103e+01   3.194181e+01
   8.785983e+01  -8.661182e+00
   1.154342e+01   6.412640e+01
  -7.235657e+01   1.672240e+02
  -1.064342e+02   1.664366e+02
  -1.576973e+02   1.654742e+01
  -1.369109e+02  -8.920994e+01
  -1.019866e+01  -1.044371e+02
   1.079407e+02  -5.764244e+01
   8.436856e+01   3.975415e+00
  -3.205061e+01  -1.130039e+01
  -1.399171e+02  -2.809227e+01
  -7.038524e+01  -1.224670e+02
   8.763811e+01  -6.015521e+01
   1.545162e+02  -3.587683e+01
   1.852537e+02   5.927553e+01
   1.883604e+01   4.272759e+01
  -7.697399e+01   5.417608e+01
  -2.817697e+01   2.654755e+00
   1.406241e+01  -2.274134e+01
   8.626957e+01   1.034746e+01
   2.069374e+00   1.190768e+02
  -1.042839e+02   1.607374e+02
  -1.571189e+02   6.103317e+01
  -1.072973e+02  -1.266236e+02
   1.956024e+01  -1.766637e+02
   9.450275e+01  -1.344583e+02
   9.651799e+01   4.614184e+00
   6.748170e+01   9.678060e+01
   2.121746e+01   9.992570e+01
  -4.711560e+01   2.162014e+01
  -8.891745e+01  -5.580057e+01
  -3.386243e+01  -1.265861e+01
  -6.243933e+00   1.229721e+01
  -2.244202e+01  -1.121687e+00
  -4.576365e+01  -9.303213e+01
  -4.455897e+01  -1.105746e+02
   2.645567e+01  -1.754731e+01
   1.520224e+02   5.451586e+01
   9.128881e+01   4.313770e+01
   3.662053e+01   3.427287e+01
  -1.017728e+02   4.599995e+01
  -1.063799e+02   1.139100e+01
   3.089297e+00   2.826825e+01
   3.974638e+01  -1.607456e+01
  -1.718258e+01  -2.916972e+01
   1.076323e+00  -6.419534e+00
   1.082753e+01   7.391246e+00
   8.768067e+01  -2.548911e+00
   6.538375e+01   1.238025e+01
  -6.174637e+00   8.665705e+01
  -1.168956e+02   1.079824e+02
  -1.992858e+02   8.675622e+00
  -1.509858e+02  -4.788237e+01
  -2.496407e+01  -1.628476e+02
   9.306832e+01  -1.480301e+02
   1.193386e+02  -6.630376e+01
   8.496474e+01   2.383432e+01
   1.343722e+01   2.399952e+01
   6.638942e+00   6.960195e+00
   1.745408e+01  -7.076884e+00
   2.505701e+01   4.162761e+01
   7.621628e+00   1.040937e+02
  -3.877268e+01   5.952025e+01
  -8.763107e+01  -1.508733e+01
  -7.681103e+01  -1.031604e+02
   7.105377e+00  -9.084032e+01
   1.064913e+02  -2.711799e+01
   9.563554e+01   6.829574e+01
   2.217587e+01   1.087074e+02
  -6.393369e+01   3.356289e+01
  -8.830184e+01   8.178565e+00
  -1.496109e+01  -6.619855e+01
   1.446693e+00  -3.966630e+01
   6.191162e+01  -2.241209e+01
  -5.204885e+01  -4.682842e+00
  -6.730042e+01   1.919219e+01
   2.340469e+01  -2.791319e+01
   5.734247e+01  -5.666402e+01
   8.932693e+01  -3.806972e+01
   6.000973e+01  -1.445726e+01
  -1.248840e+01   9.892478e+01
  -7.066007e+01   8.364383e+01
  -3.776810e+01  -3.176286e+01
  -1.457729e+00  -1.871743e+01
   2.463586e+01  -1.776653e+01
   4.752784e+01   3.297913e+00
   1.691985e+01   5.034785e+01
  -9.940051e+00   3.849543e+01
  -4.523463e+01  -1.619012e+01
  -1.275787e+01  -1.536799e+01
  -1.875457e+01   3.341354e+00
  -6.311675e+00   5.327807e+00
  -3.666908e+00  -1.784119e+01
  -7.672924e+00  -5.052399e+01
  -8.209681e-01  -3.422038e+00
   5.902895e+01  -8.364296e+00
   2.245151e+01   5.587212e+01
   2.040469e+00   6.090412e+01
  -5.153241e+01   2.979418e+00
  -6.253705e+01  -5.657263e+01
  -6.804572e+00  -5.011561e+01
   7.685868e+01  -1.587731e+01
   5.206288e+01   3.332848e+01
   3.552469e+01   5.182032e+01
  -3.018584e+01   2.572937e+01
  -6.205650e+01   6.978265e+00
  -3.837455e+01  -3.847795e+00
   3.006983e+01   4.132535e+01
   4.359094e+01   6.585054e+00
  -4.649451e+01   3.469658e+01
  -1.197788e+02   2.853061e+01
