
 $NMID
 id='ANONYMOUS ', fmtdat='(2E16.6)'
 volume=1.0
 tramp=1.0
 $END
  -3.506671e+03  -4.270300e+01
  -2.335436e+03  -2.075242e+03
   3.855495e+02  -2.506067e+03
   1.951170e+03  -1.715348e+03
   1.140798e+03   3.813016e+02
  -4.382853e+02   6.524896e+02
  -8.255752e+02  -2.294027e+02
  -1.261059e+02  -9.248812e+02
   7.326114e+02  -9.165750e+02
   8.212956e+02  -4.619529e+01
   5.238606e+02   7.692464e+02
   1.073751e+01   8.520928e+02
  -5.180836e+02   3.396681e+02
  -3.540322e+02  -6.354765e+02
   1.739171e+02  -7.675500e+02
   5.475664e+02   1.103340e+01
   3.302697e+02   6.320749e+02
  -2.191476e+02   6.120526e+02
  -5.334435e+02   2.083088e+02
  -4.545961e+02  -2.845050e+02
  -7.012039e+01  -4.263861e+02
   2.143580e+02  -2.974526e+02
   1.871377e+02  -8.019888e+01
  -8.275497e+01   1.078309e+01
  -3.831420e+02  -5.519915e+01
  -1.298260e+02  -3.321355e+02
   3.791403e+02  -3.527311e+02
   7.311650e+02   5.233600e+01
   2.771032e+02   4.163915e+02
  -3.536674e+02   3.991295e+02
  -7.163539e+02   4.212209e+01
  -4.195017e+02  -3.581178e+02
   1.436369e+02  -4.550560e+02
   5.731773e+02  -1.964795e+02
   4.205328e+02   2.202876e+02
   4.579744e+01   4.324905e+02
  -1.154620e+02   3.443386e+02
  -1.311788e+02  -9.378366e+01
   1.228896e+02  -4.369842e+02
   3.409165e+02   3.454626e+01
   1.455272e+02   4.693354e+02
  -1.820581e+02   7.078567e+02
  -5.231087e+02   1.575675e+02
  -3.225282e+02  -3.947391e+02
   2.517144e+02  -3.223027e+02
   2.994115e+02   2.445563e+02
  -3.412567e+01   5.720782e+02
  -4.779739e+02   1.544977e+02
  -5.481654e+02  -3.688938e+02
  -2.858107e+02  -5.736191e+02
   3.932333e+02  -3.445653e+02
   6.796771e+02  -2.556106e+00
   4.555975e+02   3.850374e+02
  -7.459912e+01   3.130226e+02
  -4.171009e+02   1.014053e+02
  -3.195620e+02  -1.012121e+02
   3.584374e+01  -1.420032e+02
   1.665340e+02   1.137791e+02
  -1.360474e+02   1.577968e+02
  -2.881264e+02  -5.529264e+01
  -2.048286e+02  -2.930925e+02
   1.299864e+02  -2.426573e+02
   3.779714e+02  -1.179744e+02
   1.905668e+02   1.484156e+02
  -2.358471e+01   2.567928e+02
  -2.313903e+02   3.049487e+02
  -3.393975e+02   1.999739e+02
  -2.984370e+02  -1.363424e+02
  -7.457643e+01  -3.837644e+02
   6.936389e+01  -3.685131e+02
   1.201573e+02  -1.591399e+02
   6.002584e+01  -1.200211e+01
   1.239565e+02  -4.059063e+01
   2.084883e+02  -1.256061e+02
   2.593956e+02   4.894052e+01
   1.907292e+02   2.850214e+02
  -5.184803e+01   2.675017e+02
  -2.103455e+02  -8.841699e+00
  -1.701009e+02  -2.151249e+02
   6.530207e+00  -2.685337e+02
   2.523467e+02  -1.385349e+02
   3.205293e+02   1.414771e+02
   1.095596e+02   3.027894e+02
  -7.918424e+01   3.136180e+02
  -1.784944e+02   1.777533e+02
  -1.705672e+02   5.019913e+01
  -1.069629e+02   1.543803e+01
  -1.901431e+02   7.152143e+01
  -3.897675e+02  -4.368117e+01
  -3.090217e+02  -2.736115e+02
  -4.309028e+00  -4.300387e+02
   3.211427e+02  -4.147060e+02
   4.532246e+02  -1.885783e+02
   2.752707e+02   1.835122e+01
   7.561725e+01   2.499992e+02
  -1.165199e+02   1.955946e+02
  -6.104519e+01   4.368402e+01
   1.219208e+02  -1.008260e+02
   1.864390e+02  -2.687057e+00
   3.842225e+01   1.258218e+02
  -1.161346e+02   1.773958e+02
  -1.212506e+02  -4.257871e+01
   4.319747e+00  -1.892139e+02
   1.994924e+02  -3.418436e+01
   1.300574e+02   2.336111e+02
  -2.839756e+01   3.150931e+02
  -2.715254e+02   1.648084e+02
  -3.176767e+02  -9.600129e+01
  -2.700235e+02  -2.070511e+02
  -8.335644e+01  -3.130019e+02
   6.797833e+01  -1.496130e+02
   1.632560e+02  -1.711688e+01
   2.643622e+01   1.383028e+01
  -3.514629e+01  -2.576222e+01
  -1.632246e+01  -1.272060e+02
   1.315867e+02  -9.125647e+01
   1.840356e+02   2.047224e+01
   3.585669e+01   4.908820e+01
  -6.938500e+01   3.113626e+01
  -4.761670e+01  -5.725740e+01
   1.373375e+02  -5.174078e+01
   2.728127e+02  -7.684486e+00
   2.719738e+02   1.510154e+02
   5.599562e+01   2.271408e+02
  -1.722250e+02   2.103056e+02
  -2.713594e+02   1.003520e+02
  -1.386652e+02  -4.032038e+01
   2.919020e+01  -6.292876e+01
   7.055535e+01  -2.717282e+01
  -8.209515e+01   1.468110e+02
  -1.828591e+02   6.025810e+01
  -2.381170e+02  -8.080323e+01
  -8.796612e+01  -2.263679e+02
   9.892720e+01  -1.405549e+02
   1.303503e+02  -3.232077e+01
   4.262073e+01   2.268302e+01
  -4.834742e+01  -7.539781e+00
  -3.211322e+01  -8.659227e+01
   1.009486e+02  -1.015104e+02
   1.969014e+02   1.360677e+01
   1.566715e+02   1.058356e+02
   4.818904e+01   2.306417e+02
  -1.355589e+02   1.543710e+02
  -1.760697e+02   4.036999e+01
  -7.968829e+01  -1.095701e+02
   4.932419e+01  -1.077823e+02
   7.986851e+01  -3.465623e+01
   6.489409e+00   1.487118e+01
  -3.711316e+01  -2.374129e+00
   1.784688e+01  -2.051031e+00
   1.003248e+02  -6.234379e+00
   8.983114e+01   1.111050e+02
   3.327643e+01   1.533493e+02
  -1.598119e+02   1.769052e+02
  -2.124661e+02   1.570639e+01
  -1.976050e+02  -9.979925e+01
  -9.176541e+00  -2.012797e+02
   1.012044e+02  -1.648133e+02
   1.383442e+02  -3.458000e+01
   6.944462e+01   6.873575e+01
  -9.654874e-01   5.320020e+01
   7.958551e+01  -2.779323e+01
   6.275463e+01   3.440171e+00
   4.958891e+01   3.954317e+01
  -4.321352e+01   8.598000e+01
  -1.331641e+02   4.821401e+01
  -9.783869e+01  -4.323119e+01
   4.039375e+01  -1.025537e+02
   1.394791e+02  -7.385456e+01
   1.836768e+02   7.167065e+01
   1.235212e+02   1.868703e+02
  -1.442986e+02   2.344144e+02
  -2.347848e+02   1.210517e+02
  -2.664319e+02  -7.815269e+01
  -8.093171e+01  -1.636039e+02
   4.909914e+01  -1.209958e+02
   1.251279e+02  -7.702275e+01
   6.961517e+01  -8.506295e+01
   5.440877e+01  -9.288222e+01
   1.221815e+02  -7.761036e+01
   1.064168e+02   2.706667e+01
   7.636761e+01   1.731390e+02
   6.448413e+00   2.230762e+02
  -7.433688e+01   1.707261e+02
  -2.037284e+02   3.535349e+01
  -1.692711e+02  -1.019699e+02
  -2.381248e+01  -1.586707e+02
   7.002051e+01  -9.392020e+01
   7.135390e+01  -1.953643e+01
   1.768440e+01   2.811751e+01
  -7.267946e+00  -1.586101e+01
   3.619510e+01   5.522659e+00
   7.867962e+01   2.913614e+01
   2.701125e+01   6.021213e+01
  -8.091023e+01   2.056064e+01
  -1.678849e+02   7.070563e+00
  -1.622729e+02  -3.857626e+01
   9.174901e+00  -9.357858e+01
   1.307139e+02  -9.565198e+01
   1.468182e+02   1.222092e+00
   3.425315e+01   4.591675e+01
  -6.289581e+01   1.976205e+01
  -7.296003e+01  -3.926679e+01
  -1.076057e+01  -5.831807e+01
   4.662189e+01  -8.096384e+01
   7.453034e+01  -9.030638e+00
   3.553723e+01   6.961237e+01
   6.303092e+01   3.797911e+01
   5.371790e+01  -1.074984e+01
   6.292742e+01  -2.957688e+01
  -2.366383e+00   6.874931e+01
  -4.935360e+01   1.409271e+02
  -1.143911e+02   1.724032e+02
  -1.902625e+02   3.102968e+01
  -1.264042e+02  -9.862496e+01
   1.302787e+01  -1.152260e+02
   6.761094e+01  -4.513003e+01
   6.071337e+01   1.080251e+01
  -5.807535e+01  -4.596063e+00
  -1.301592e+02  -5.221766e+01
  -7.481854e+01  -1.121105e+02
   6.767180e+01  -1.195470e+02
   1.793984e+02  -6.697260e+01
   1.336506e+02   1.129667e+01
   7.315138e+01   7.707640e+01
  -5.135159e+01   3.148457e+01
  -4.416790e+01  -2.596759e+00
   2.600830e+01  -3.140770e+00
   6.595352e+01   3.456994e+01
   5.142488e+01   1.255539e+02
  -9.485636e+01   1.519610e+02
  -1.883255e+02   1.420290e+02
  -1.277120e+02  -7.130233e+01
  -6.054599e+00  -1.770872e+02
   4.159264e+01  -1.602103e+02
   9.492395e+01   1.204326e+01
   4.883674e+01   1.053694e+02
   2.437893e+00   1.323356e+02
  -5.189786e+01  -2.866124e+01
  -5.423335e+01  -5.982533e+01
  -4.320583e+01   1.076831e+01
  -1.834113e+01   1.710413e+01
  -2.887337e+01   1.035800e+01
  -7.418321e+01  -8.405116e+01
  -4.621945e+01  -1.018268e+02
   5.253781e+01  -3.417677e+01
   1.550890e+02   4.832378e+01
   9.508772e+01   4.718851e+01
  -1.803613e+01   3.391278e+01
  -1.054221e+02   3.530707e+01
  -6.205246e+01   1.730486e+01
  -2.548567e+01   2.116110e+01
   5.468488e+01  -3.197473e+01
   1.148288e+01   3.000626e+01
   3.133885e+00   6.520353e+00
   2.640782e+01   2.946097e+01
   6.496397e+01  -4.375312e+00
   9.417238e+01   3.419602e+01
   2.546023e+01   6.345917e+01
  -1.229603e+02   1.041808e+02
  -2.118414e+02   3.986539e+01
  -1.322834e+02  -7.010130e+01
  -5.018284e+01  -2.001924e+02
   5.474957e+01  -1.596054e+02
   1.113737e+02  -5.837526e+01
   8.319415e+01   2.130914e+01
   2.672216e+01   4.417284e+01
   3.856077e-01  -5.938924e+00
   6.682346e+00  -8.848062e+00
   2.640990e+01   3.960582e+01
   3.250515e+01   7.316859e+01
  -1.785306e+01   8.257183e+01
  -1.005353e+02   2.799403e+01
  -1.007307e+02  -1.238590e+02
  -5.886444e+00  -1.328872e+02
   7.797509e+01  -1.924903e+01
   9.961588e+01   7.214883e+01
   1.997474e+01   1.227111e+02
  -7.679452e+01   8.241540e+01
  -8.282411e+01   1.531423e+01
  -3.328375e+01  -4.671443e+01
   4.489346e+01  -7.141474e+01
   3.478515e+01  -9.930449e+00
  -1.638182e+01  -1.637242e+01
  -7.410498e+01   1.729003e+01
   4.689698e-01  -2.676617e+01
   8.185633e+01  -6.317668e+01
   1.213097e+02  -6.401723e+01
   7.864799e+01   3.518225e+01
  -1.277827e+01   1.356435e+02
  -3.794565e+01   9.298546e+01
  -3.754911e+01  -1.532061e+01
   1.511373e+00  -5.655268e+01
   2.655337e+01  -4.484194e+01
   3.975925e+01   2.822933e+01
   2.161555e+01   3.159690e+01
  -1.692796e+01   2.454747e+01
  -1.106785e+01   1.150602e+01
  -5.579809e+01  -2.074934e+01
  -1.505526e+01  -4.353969e+00
  -3.947416e+00  -8.980457e+00
   3.391066e-01   4.781728e+00
  -4.711307e-01  -6.877973e+00
   4.720935e+01  -4.308735e+01
   5.031016e+01  -8.796741e+00
   4.024314e+01   7.137616e+01
  -1.615213e+00   6.389059e+01
  -1.820740e+01   4.245550e+01
  -5.461631e+01  -4.409828e+01
  -4.008449e+00  -7.523241e+01
   5.449082e+01  -1.036783e+01
   4.069636e+01   6.530455e+00
   2.720268e+01   4.836772e+01
  -4.035958e+01   5.543395e+01
  -5.332534e+01   5.347746e+01
  -1.080195e+01   1.407578e+01
   3.141478e+01   1.909589e+01
   2.540331e+01   1.081329e+01
  -2.333942e+01   1.955495e+01
  -1.004514e+02   2.071608e+01
