
 $NMID
 id='ANONYMOUS ', fmtdat='(2E16.6)'
 volume=1.0
 tramp=1.0
 $END
  -3.827340e+03   1.917017e+02
  -2.475176e+03  -2.019056e+03
   4.991786e+02  -2.519025e+03
   2.070025e+03  -5.714791e+02
   9.816657e+02   4.726420e+02
  -4.774502e+02   3.656524e+02
  -7.670826e+02  -3.588759e+02
   4.459375e+01  -8.441035e+02
   8.952493e+02  -8.176563e+02
   8.519778e+02   7.434736e+01
   2.934539e+02   7.490490e+02
  -1.972427e+02   8.147603e+02
  -6.308162e+02   1.050311e+02
  -3.845962e+02  -6.133204e+02
   2.634565e+02  -6.808505e+02
   4.796195e+02  -5.644404e+01
   3.178887e+02   6.165465e+02
  -2.704211e+02   6.498679e+02
  -5.219999e+02   5.345192e+01
  -3.535100e+02  -3.362036e+02
  -2.648310e+01  -4.212247e+02
   2.491612e+02  -2.605817e+02
   1.915755e+02  -1.566757e+01
  -1.236366e+02   5.206636e+01
  -3.371022e+02  -2.029613e+02
  -1.283242e+02  -3.661128e+02
   5.099103e+02  -4.105062e+02
   7.274228e+02   1.281235e+02
   3.373715e+02   4.909012e+02
  -3.652759e+02   4.377877e+02
  -6.931344e+02  -5.592221e+01
  -2.841600e+02  -4.865168e+02
   2.075806e+02  -4.285073e+02
   5.408634e+02  -2.142510e+02
   3.825013e+02   2.169203e+02
   1.081319e+02   4.342801e+02
  -2.321029e+02   2.338011e+02
  -9.828879e+01  -1.566556e+02
   2.824928e+02  -4.317290e+02
   3.492248e+02   5.118032e+01
   2.398602e+02   5.971777e+02
  -4.477347e+02   5.973912e+02
  -5.923690e+02  -8.553446e+00
  -1.734132e+02  -4.231058e+02
   2.522510e+02  -2.578243e+02
   3.231029e+02   3.749933e+02
  -1.605474e+02   5.982612e+02
  -4.982037e+02   1.037469e+02
  -5.827531e+02  -3.977137e+02
  -1.118634e+02  -5.473569e+02
   4.017116e+02  -3.285853e+02
   5.886694e+02   5.653235e+01
   3.343128e+02   3.469039e+02
  -1.898461e+01   3.514236e+02
  -4.348323e+02   4.907871e+01
  -2.300465e+02  -1.795730e+02
   8.137996e+01  -7.154010e+01
   1.310124e+02   1.163051e+02
  -1.515222e+02   1.761090e+02
  -2.712212e+02  -9.012898e+01
  -1.570274e+02  -3.138695e+02
   2.007344e+02  -2.750602e+02
   3.453530e+02  -8.840729e+01
   1.487124e+02   3.986216e+01
  -3.042995e+01   2.598196e+02
  -2.155048e+02   3.075284e+02
  -3.577436e+02   2.494178e+02
  -2.530494e+02  -1.488389e+02
  -6.032381e+01  -3.638275e+02
   1.341128e+02  -3.457596e+02
   7.015529e+01  -1.188912e+02
   6.377563e+00  -2.197093e+01
   2.696259e+01  -1.015378e+02
   1.660235e+02  -9.713895e+01
   2.763672e+02   5.276250e+01
   1.566399e+02   2.726088e+02
  -4.032670e+01   2.494493e+02
  -2.354816e+02  -2.664566e+01
  -2.033134e+02  -2.556826e+02
  -1.668546e+01  -3.249413e+02
   2.537490e+02  -1.018433e+02
   3.147215e+02   1.307595e+02
   1.677324e+02   2.820061e+02
  -9.521013e+01   2.855645e+02
  -2.048622e+02   9.711131e+01
  -1.431401e+02   8.709705e+00
  -8.861448e+01   2.723887e+01
  -2.357286e+02   3.339642e+01
  -3.916214e+02  -8.191953e+01
  -3.222180e+02  -2.657433e+02
   1.896739e+01  -4.083455e+02
   3.674775e+02  -3.514392e+02
   4.581379e+02  -2.237183e+02
   3.113038e+02   7.153101e+01
   2.345365e+01   2.800192e+02
  -1.121097e+02   2.071575e+02
  -5.999035e+01   5.924288e+01
   9.399987e+01  -8.073300e+01
   2.018837e+02   2.012524e+01
   3.285251e+01   2.121859e+02
  -1.413872e+02   1.653561e+02
  -1.682046e+02  -4.882070e+01
   1.842447e+01  -1.853979e+02
   2.068494e+02  -1.616844e+01
   1.017503e+02   2.107153e+02
  -2.449546e+01   3.375676e+02
  -2.620127e+02   1.645462e+02
  -3.131904e+02  -9.504594e+01
  -2.579437e+02  -2.277222e+02
  -1.061997e+02  -2.441610e+02
   1.140559e+02  -1.220492e+02
   1.612699e+02  -3.270339e+01
   1.946315e+01   1.220400e+01
  -2.653268e+01  -3.084427e+01
  -4.299644e+01  -1.458307e+02
   1.597714e+02  -8.190789e+01
   1.938056e+02  -4.924279e+00
   7.179749e+01   7.483256e+01
  -5.792409e+01  -3.019094e+01
  -6.169590e+01  -1.156597e+02
   1.368164e+02  -4.930806e+01
   2.867646e+02  -1.365331e+01
   2.411929e+02   1.616427e+02
   2.850094e+01   2.227015e+02
  -1.579272e+02   2.860721e+02
  -2.353747e+02   1.210873e+02
  -1.331677e+02  -4.550474e+01
  -1.005410e+01  -8.474090e+01
   9.466915e+01  -8.676141e+00
  -5.759358e+01   9.598955e+01
  -2.120902e+02   3.618184e+01
  -1.733791e+02  -1.009467e+02
  -8.340973e+01  -1.924585e+02
   1.032110e+02  -1.293026e+02
   1.199369e+02  -1.245734e+01
   6.268304e+01   4.321155e+01
  -4.337320e+01   8.563949e+00
  -3.181146e+01  -9.021434e+01
   9.560931e+01  -1.212382e+02
   1.954104e+02  -4.433553e+01
   1.761790e+02   8.755766e+01
   4.736665e+01   2.043466e+02
  -1.233391e+02   1.332344e+02
  -1.734429e+02   1.316360e+01
  -4.340023e+01  -1.172629e+02
   5.187767e+01  -4.809564e+01
   5.423058e+01  -2.861200e+01
   1.440778e+01   3.507363e+01
  -2.582077e+01   3.091338e-01
   2.731607e+01   3.084805e+00
   5.596259e+01   1.275554e+01
   8.982469e+01   8.142620e+01
   9.550859e-01   1.989947e+02
  -1.544729e+02   1.340584e+02
  -2.315579e+02   1.125633e+01
  -1.684195e+02  -1.374458e+02
  -6.238347e+01  -2.482660e+02
   9.897904e+01  -1.892011e+02
   1.475114e+02  -3.163790e+01
   6.002539e+01   5.976072e+01
   5.463820e+00   4.942919e+01
   5.608369e+01  -3.175870e+01
   9.689507e+01   1.561169e+00
   3.678084e+01   3.445455e+01
  -6.103860e+01   1.101770e+02
  -9.785376e+01   4.189131e+01
  -6.245415e+01  -1.588420e+01
   2.673752e+01  -8.909462e+01
   1.015772e+02  -9.465964e+01
   1.718103e+02   5.216747e+01
   9.441069e+01   1.708811e+02
  -1.242981e+02   1.934523e+02
  -2.837370e+02   5.999275e+01
  -2.237929e+02  -8.155708e+01
  -1.016269e+02  -1.884172e+02
   1.955722e+01  -1.778467e+02
   8.364550e+01  -6.324514e+01
   7.820066e+01  -1.032011e+02
   5.311033e+01  -1.171761e+02
   1.104041e+02  -7.200591e+01
   1.196257e+02   2.714781e+01
   1.229935e+02   1.264050e+02
   1.544968e+01   2.078435e+02
  -9.121998e+01   1.745001e+02
  -1.472057e+02   1.450439e+01
  -1.319631e+02  -1.374811e+02
  -2.745258e+01  -1.626532e+02
   6.701635e+01  -9.189585e+01
   9.525195e+01  -1.359873e+00
   2.083081e+01   5.524865e+01
  -1.078664e+01   2.385663e+01
   3.677502e+01   1.989368e+01
   9.428098e+01   2.154744e+01
   1.556436e+01   1.761481e+01
  -6.981368e+01   2.855618e+01
  -1.480436e+02  -8.605325e+00
  -1.548260e+02  -6.002024e+01
   3.364831e+00  -7.418835e+01
   1.201559e+02  -5.348846e+01
   1.188348e+02  -5.600275e+01
   5.546132e+01   2.569692e+01
  -5.335054e+01   3.887252e+01
  -7.561369e+01   3.561231e+00
  -6.040053e+00  -7.213413e+01
   3.329193e+01  -7.686697e+01
   6.049741e+01   1.221668e+00
   3.331723e+01   7.235656e+01
   3.193862e+01   4.762168e+01
   4.246015e+01   4.663154e+00
   5.578112e+01   1.242157e+01
   3.732953e+01   6.979837e+01
  -4.851214e+01   1.301842e+02
  -1.199677e+02   1.348941e+02
  -1.671609e+02   3.603115e+01
  -1.337670e+02  -9.153920e+01
   1.463348e+01  -1.348148e+02
   8.498327e+01  -5.731329e+01
   6.516475e+01   2.178777e+01
  -9.119436e+01   4.531194e+01
  -1.329400e+02  -3.357278e+01
  -6.551413e+01  -1.075405e+02
   8.279399e+01  -8.088707e+01
   1.904336e+02  -3.595829e+01
   1.251153e+02   2.054315e+01
   2.200642e+01   8.719047e+01
  -4.077849e+01   6.607408e+01
  -4.182011e+01  -2.306896e+01
   6.060136e+00  -2.753787e+01
   7.428765e+01   7.060225e+00
   3.469458e+01   9.824797e+01
  -1.126775e+02   1.455148e+02
  -1.385959e+02   6.207882e+01
  -1.414828e+02  -1.116294e+02
   1.270944e+01  -1.905400e+02
   7.467904e+01  -1.273710e+02
   1.191748e+02  -1.874452e+01
   7.650427e+01   1.039068e+02
  -1.459217e+01   9.615559e+01
  -4.006056e+01   3.479153e+01
  -6.326563e+01  -3.855116e+01
  -1.843432e+01   1.146710e+01
  -1.783673e+01   3.943990e+01
  -5.115605e+01  -2.741641e+01
  -6.961108e+01  -9.321741e+01
  -4.105605e+01  -1.109006e+02
   3.616210e+01  -3.793878e+01
   1.328563e+02   3.519120e+01
   1.421486e+02   5.800072e+01
   1.645219e+01   7.800806e+01
  -5.401982e+01   4.000923e+01
  -5.881798e+01   9.137712e+00
  -1.361351e+01  -2.544838e+00
   2.545850e+01  -1.802970e+01
   4.719954e+01  -2.872223e+01
  -2.422297e+01   6.538237e+00
   3.466151e+01   3.888530e+01
   8.552793e+01  -2.072808e+01
   7.682019e+01  -2.875633e+00
  -2.107309e-01   8.612644e+01
  -1.160485e+02   1.022116e+02
  -1.803186e+02   5.185987e+01
  -1.207581e+02  -6.128416e+01
  -2.276179e+01  -1.323099e+02
   7.161517e+01  -1.148297e+02
   8.957494e+01  -8.245608e+01
   6.474382e+01  -2.128743e+01
   3.141931e+01   2.274776e+01
  -7.717660e+00   5.361909e+00
   3.468970e+01  -1.842505e+01
   3.634602e+01   5.655460e+01
   9.410484e+00   7.100847e+01
  -3.773644e+01   6.793737e+01
  -8.603652e+01  -3.384584e+01
  -4.954339e+01  -1.304938e+02
  -9.954840e+00  -9.376618e+01
   8.527050e+01  -1.084832e+01
   8.915796e+01   7.705950e+01
   4.424521e+01   7.192538e+01
  -6.992579e+01   5.939587e+01
  -8.072170e+01  -8.008903e+00
  -4.327062e+01  -8.273467e+01
   4.559902e+01  -5.924444e+01
   4.758421e+01  -3.213688e+01
  -2.651015e+01   1.868962e+01
  -6.319042e+01   2.284226e+01
  -1.018347e+01  -2.834587e+00
   6.240831e+01  -3.748767e+01
   1.026816e+02  -4.915301e+01
   4.487244e+01   9.903369e+00
  -8.166763e+00   8.788611e+01
  -5.280445e+01   5.031430e+01
  -3.478115e+01   1.278859e+01
   1.824122e+01  -5.732490e+01
  -2.359894e+00  -5.759196e+01
   4.153165e+01   1.631205e+01
   2.160764e+01   4.131497e+01
   3.099822e+00   4.955718e+01
  -1.864157e+01  -8.287612e+00
  -3.796503e+01  -2.458196e+01
   1.011308e+00  -1.374166e+01
  -5.399903e+00   1.675256e+01
   4.455141e-02  -2.149305e+01
  -1.336397e+01  -4.630141e+01
  -1.226728e+01  -6.026475e+01
   5.770037e+01  -5.627966e-01
   1.745880e+01   4.531655e+01
   1.769893e+01   2.576678e+01
  -4.303291e+01   6.154399e+00
  -4.213864e+01  -3.130987e+01
  -1.978588e+01  -7.622242e+01
   7.227268e+01  -4.557382e+01
   9.724182e+01  -4.566978e+00
   4.557224e+01   5.765472e+01
  -4.216365e+01   2.786867e+01
  -1.000678e+02   3.844972e+00
   2.620523e+01   3.657702e+01
   1.787728e+01   1.299585e+01
   3.335909e+01  -2.025830e+00
  -1.592840e+01   5.601724e+00
  -8.533260e+01   1.050710e+01
