
 $NMID
 id='ANONYMOUS ', fmtdat='(2E16.6)'
 volume=1.0
 tramp=1.0
 $END
   4.388080e+03  -5.060879e+02
   2.892491e+03   2.785755e+03
  -5.984239e+02   2.705284e+03
  -2.003463e+03   1.635018e+03
  -1.181233e+03  -6.020759e+02
   4.263236e+02  -8.277997e+02
   8.891660e+02   3.423753e+02
   2.394317e+02   1.064028e+03
  -7.817277e+02   7.927422e+02
  -9.675493e+02   7.690902e+01
  -6.415757e+02  -8.908368e+02
   1.332221e+02  -9.434068e+02
   6.146666e+02  -3.090752e+02
   4.228444e+02   6.918989e+02
  -8.080721e+01   8.104992e+02
  -5.590519e+02   6.013941e+00
  -3.151051e+02  -7.402604e+02
   3.310429e+02  -6.435705e+02
   5.804355e+02  -1.618911e+02
   4.371412e+02   3.014155e+02
   1.175667e+02   4.787621e+02
  -2.228360e+02   2.707847e+02
  -2.365243e+02   6.501067e+01
   8.945857e+01   7.506333e+00
   3.279936e+02   3.584811e+01
   1.858575e+02   3.684902e+02
  -3.962630e+02   3.370312e+02
  -8.037007e+02  -2.041839e+01
  -3.775389e+02  -4.859690e+02
   3.537492e+02  -4.532496e+02
   7.576866e+02  -7.606523e+01
   4.897957e+02   3.883223e+02
  -1.883379e+02   4.567866e+02
  -6.220098e+02   2.036629e+02
  -4.468905e+02  -2.645217e+02
  -4.747915e+01  -4.505365e+02
   1.273205e+02  -3.797640e+02
   1.544436e+02   8.907967e+01
  -1.107629e+02   4.095139e+02
  -3.657559e+02  -4.877920e+01
  -2.575416e+02  -6.657809e+02
   1.705869e+02  -7.080587e+02
   5.755188e+02  -1.713460e+02
   2.874683e+02   4.626102e+02
  -2.747967e+02   3.334896e+02
  -4.168940e+02  -2.393490e+02
   5.538389e+00  -5.825656e+02
   5.249593e+02  -1.432865e+02
   6.079043e+02   3.842724e+02
   2.751817e+02   5.393402e+02
  -3.729625e+02   3.786638e+02
  -6.128786e+02  -7.758665e+00
  -4.315737e+02  -3.344135e+02
   6.954989e+01  -4.051558e+02
   4.598649e+02  -1.976916e+02
   3.132408e+02   1.270652e+02
  -4.594935e+01   1.276239e+02
  -2.004482e+02  -1.002004e+02
   1.026404e+02  -2.150473e+02
   3.352193e+02   4.772587e+01
   2.050353e+02   2.994775e+02
  -1.542856e+02   2.524718e+02
  -3.282914e+02   7.784284e+01
  -2.060577e+02  -1.302439e+02
   4.149152e+01  -2.632381e+02
   2.388769e+02  -2.855493e+02
   3.432565e+02  -2.354063e+02
   2.832098e+02   1.034390e+02
   9.693258e+01   4.099905e+02
  -1.209236e+02   3.874192e+02
  -1.448921e+02   1.329882e+02
  -6.529021e+01  -1.404321e+01
  -7.820242e+01   7.106658e+01
  -1.675255e+02   1.359845e+02
  -2.508026e+02  -8.428262e+01
  -1.351936e+02  -2.575617e+02
   3.384658e+01  -2.522918e+02
   1.946846e+02  -3.322918e+01
   1.822484e+02   2.464586e+02
   2.295654e+01   2.558430e+02
  -2.465731e+02   1.363452e+02
  -3.458011e+02  -1.316599e+02
  -1.798335e+02  -3.159376e+02
   1.020662e+02  -3.224369e+02
   2.226941e+02  -1.516020e+02
   1.585163e+02  -1.940237e+01
   1.497075e+02  -2.285073e+01
   1.864206e+02  -7.638159e+01
   3.657627e+02   1.929013e+01
   3.253123e+02   2.606477e+02
   5.529552e+01   3.843200e+02
  -3.182525e+02   4.179242e+02
  -4.628611e+02   1.956877e+02
  -2.870528e+02  -5.980521e+01
  -4.612056e+01  -2.444249e+02
   8.821951e+01  -2.719844e+02
   7.706748e+01  -4.774291e+01
  -1.039741e+02   8.219712e+01
  -1.763137e+02  -2.227038e+01
  -3.782954e+01  -1.848967e+02
   1.621769e+02  -2.210446e+02
   1.801351e+02   6.614161e+01
  -2.176885e+01   2.023639e+02
  -1.606642e+02   8.019498e+01
  -1.116639e+02  -2.877648e+02
  -3.758464e+01  -3.339647e+02
   2.576490e+02  -1.940668e+02
   3.157302e+02   7.018685e+01
   2.572347e+02   2.194542e+02
   7.031633e+01   2.624757e+02
  -1.005697e+02   1.480930e+02
  -1.425169e+02   4.365474e-01
  -4.202604e+01   2.235656e+01
   5.419995e+01   2.538074e+01
   2.383530e+01   6.913507e+01
  -1.362537e+02   1.053791e+02
  -1.762262e+02   1.090506e+01
  -8.402182e+01  -4.441867e+01
   7.314863e+01  -2.055655e+01
   4.393928e+01   2.827719e+01
  -1.249769e+02   8.416340e+01
  -2.939128e+02  -4.702384e+01
  -2.305226e+02  -1.561706e+02
  -5.481188e+01  -2.609364e+02
   2.055132e+02  -2.400878e+02
   2.419401e+02  -1.402654e+02
   1.516798e+02   3.949839e+01
  -2.645214e+01   8.114947e+01
  -1.235019e+02   1.512288e+01
   5.033706e+01  -1.275337e+02
   1.812729e+02  -7.309048e+01
   2.137952e+02   9.189306e+01
   8.739288e+01   2.166273e+02
  -9.018804e+01   1.558432e+02
  -1.421500e+02   1.951936e+00
  -8.176361e+01  -4.969136e+00
   1.674113e+01   6.554781e+00
   1.861640e+01   1.055912e+02
  -7.578779e+01   1.196599e+02
  -1.993593e+02   8.653697e+00
  -1.698228e+02  -1.429699e+02
  -3.955073e+01  -2.532835e+02
   1.331311e+02  -1.326744e+02
   2.162941e+02  -2.015266e+01
   8.313321e+01   7.013976e+01
  -2.850360e+01   1.149223e+02
  -7.990838e+01   4.398272e+01
  -1.683327e+01  -1.190324e+01
   2.212558e+01   8.608681e+00
  -3.725388e+01  -5.202560e+00
  -1.215294e+02  -9.014636e+00
  -8.895134e+01  -8.492976e+01
   2.732698e+00  -1.643490e+02
   1.195807e+02  -1.607301e+02
   2.244275e+02  -2.801052e+01
   2.292644e+02   1.063590e+02
   4.960266e+01   1.850197e+02
  -8.115567e+01   1.559103e+02
  -1.674460e+02   1.145956e+01
  -6.272284e+01  -5.861198e+01
  -5.709104e+00  -4.864479e+01
  -3.807567e+01   1.213244e+01
  -9.697555e+01   2.003027e+01
  -3.412291e+01  -4.621429e+01
   6.789036e+01  -8.751537e+01
   1.164127e+02  -5.771890e+01
   8.551946e+01   3.136107e+01
  -2.392217e+01   9.841694e+01
  -1.605324e+02   1.122248e+02
  -1.853541e+02  -9.372292e+01
  -6.747791e+01  -1.838229e+02
   8.294374e+01  -2.299399e+02
   2.146906e+02  -1.188680e+02
   2.866240e+02   8.302919e+01
   1.327692e+02   1.739925e+02
  -5.474798e+01   1.295573e+02
  -1.256942e+02   7.985676e+01
  -5.924243e+01   8.848926e+01
  -8.318061e+01   9.317919e+01
  -1.108298e+02   7.299349e+01
  -1.554325e+02  -3.625341e+01
  -1.173361e+02  -1.875053e+02
  -2.421236e+01  -2.434567e+02
   9.160387e+01  -1.454417e+02
   1.709189e+02  -2.693378e+01
   1.784643e+02   1.328199e+02
   5.647554e+00   1.389828e+02
  -5.430582e+01   8.625944e+01
  -6.380849e+01   4.649475e+01
   6.880681e+00  -3.646832e+01
  -3.317185e+00  -1.262146e+01
  -4.576183e+01   2.339879e+00
  -6.737785e+01  -1.198817e+00
  -3.692227e+01  -4.965518e+01
   8.262242e+01  -2.916874e+01
   1.578139e+02   9.436594e+00
   1.705212e+02   2.719558e+01
  -2.261052e+01   1.178489e+02
  -1.317833e+02   7.391054e+01
  -1.337439e+02   7.210731e+00
  -3.919366e+01  -7.561072e+01
   5.603805e+01  -2.795608e+01
   4.342251e+01   3.843050e+01
   2.259563e+01   6.600229e+01
  -7.213448e+01   9.109199e+01
  -6.855736e+01  -1.351438e+01
  -6.431034e+01  -4.556577e+01
  -5.236090e+01  -3.188150e+01
  -6.492484e+01  -2.813440e+01
  -8.747414e+01   2.800280e+01
  -2.609297e+01  -9.934144e+01
   2.729687e+01  -1.278253e+02
   9.673194e+01  -1.858749e+02
   2.175499e+02  -2.782716e+01
   1.223920e+02   8.785402e+01
   1.835730e+01   1.422926e+02
  -8.397121e+01   5.737269e+01
  -6.141095e+01  -2.698933e+01
   9.930187e+01  -3.016856e+01
   1.585358e+02   4.226245e+01
   7.255057e+01   9.385157e+01
  -5.485600e+01   1.137341e+02
  -1.845607e+02   8.683068e+01
  -1.545639e+02  -2.106941e+01
  -5.947829e+01  -7.833153e+01
   9.137559e+01  -3.895485e+01
   5.601965e+01   1.281941e+00
  -4.753835e+01   7.214758e+00
  -8.642808e+01  -3.249817e+01
  -4.592937e+01  -1.072985e+02
   9.766619e+01  -1.271357e+02
   1.823675e+02  -1.159948e+02
   1.312528e+02   1.319213e+02
  -1.330299e+01   1.978498e+02
  -6.424229e+01   1.675498e+02
  -1.127164e+02  -7.038956e-01
  -4.899634e+01  -1.063825e+02
  -1.596116e+01  -1.137922e+02
   3.752088e+01  -1.150396e+01
   3.979112e+01   3.391203e+01
   1.709504e+01  -2.673559e+00
   1.999250e+01   1.396645e+01
   2.529767e+01  -7.124791e+00
   5.063149e+01   1.333166e+02
   3.879119e+01   1.053252e+02
  -6.184646e+01   3.604025e+01
  -1.652772e+02  -2.140796e+01
  -1.240110e+02  -4.345432e+01
  -1.803423e+01  -6.105120e+01
   7.927259e+01  -2.183162e+01
   9.115471e+01  -4.503116e+01
  -2.333023e+01  -1.654165e+01
  -4.799464e+01   3.500976e+01
  -1.153023e+01   7.418787e+00
   2.594658e+01   1.233974e+01
  -3.261800e+01  -2.013936e+01
  -9.160719e+01  -3.558050e+00
  -1.194277e+02  -4.201257e+01
  -3.055887e+01  -7.351501e+01
   1.003390e+02  -1.316147e+02
   2.155059e+02  -6.734218e+01
   1.327339e+02   7.303018e+01
   7.248702e+00   1.786940e+02
  -7.353122e+01   1.371329e+02
  -1.038446e+02   4.577810e+01
  -6.473861e+01   1.029787e+01
  -1.535031e+01  -5.623974e+01
   3.434570e+01  -1.939715e+01
   2.792689e+01  -4.164322e+01
  -1.985431e+01  -5.238205e+01
  -3.801757e+00  -8.174557e+01
   7.291228e+00  -7.210005e+01
   1.123632e+02   2.212065e+00
   9.845835e+01   1.013803e+02
  -1.595423e+00   1.271941e+02
  -8.069837e+01   1.785687e+01
  -9.271215e+01  -9.800665e+01
  -5.511871e+01  -9.164759e+01
   5.793693e+01  -2.812977e+01
   8.031117e+01   1.360150e+01
   4.387392e+01   4.643417e+01
  -2.421312e+01   7.739330e+01
  -2.251378e+01  -2.268150e+00
   4.476214e+01   1.366556e+01
   4.577858e+01  -9.815127e+00
   1.228573e+01   5.241701e+01
  -1.112602e+02   6.556551e+01
  -1.362168e+02   5.922055e+01
  -6.568890e+01  -4.555574e+01
   1.889209e+01  -9.331501e+01
   2.186249e+01  -7.637910e+01
   2.724994e+01   8.837262e+00
  -1.023344e+01   6.614988e+01
  -3.079019e+00   4.643776e+01
  -2.598812e+01   2.061555e+00
   5.754095e+00  -4.168848e+01
  -1.598882e+00  -3.407289e+01
   3.495435e+01   3.638241e+01
   2.797942e+01   3.722470e+01
  -4.368120e+00  -3.831598e+00
  -1.479949e+01   4.657999e+00
   1.708199e+01   2.758868e+01
  -8.751611e+00   2.200493e+01
  -3.166576e+01   2.689515e+01
  -2.968331e+01   2.055640e+01
  -3.008858e+00  -5.764701e+01
  -1.196715e+01  -5.814378e+01
   2.845401e+01  -3.723884e+01
   6.942487e+01   9.155564e+01
   1.205152e+01   4.379016e+01
  -2.237422e+01   1.883930e+01
  -5.769982e+01  -7.348536e-01
  -4.365561e+01  -3.514513e+01
   4.729254e+00  -4.430685e+01
   5.518572e+01  -3.588049e+01
   4.671602e+01  -1.991612e+01
  -8.837355e+00  -2.447112e+01
  -6.677137e+01   2.553441e+01
   2.192810e+01  -2.166184e+01
   1.278176e+02  -2.755443e+01
