
 $NMID
 id='ANONYMOUS ', fmtdat='(2E16.6)'
 volume=1.0
 tramp=1.0
 $END
  -3.076101e+03   4.837156e+02
  -2.265694e+03  -1.726692e+03
   8.781779e+01  -2.041897e+03
   1.593210e+03  -8.079244e+02
   9.291112e+02  -8.499643e+01
  -1.221072e+02   3.511109e+02
  -4.140514e+02  -3.515957e+02
   3.145159e+01  -6.604087e+02
   5.933417e+02  -7.695779e+02
   7.840610e+02  -5.872936e-01
   3.561463e+02   5.315421e+02
  -3.826997e+01   7.023396e+02
  -4.357448e+02   1.576855e+02
  -2.848550e+02  -5.036652e+02
   1.372016e+02  -5.683629e+02
   4.317627e+02  -5.894031e+01
   2.776670e+02   5.454159e+02
  -1.851459e+02   6.266358e+02
  -3.932924e+02   2.129531e+02
  -3.978640e+02  -2.192207e+02
  -3.803152e+01  -4.414307e+02
   1.472307e+02  -2.775158e+02
   1.436437e+02  -6.753409e+01
  -1.436929e+02  -6.021619e+01
  -2.759118e+02  -2.328536e+02
  -1.305625e+01  -3.108179e+02
   4.384458e+02  -2.866068e+02
   6.237385e+02   1.665073e+02
   2.450814e+02   2.727168e+02
  -3.934129e+02   3.659996e+02
  -5.336015e+02  -1.490634e+02
  -2.125361e+02  -4.807855e+02
   2.756812e+02  -3.974043e+02
   4.598627e+02  -1.240887e+02
   3.168896e+02   1.793953e+02
   1.166119e+02   3.658214e+02
  -8.246812e+01   1.825796e+02
  -5.589043e+01  -1.237774e+02
   2.396044e+02  -2.099318e+02
   2.803310e+02   7.625238e+01
   2.192984e+02   4.825016e+02
  -3.638359e+02   5.023963e+02
  -4.490493e+02   9.726448e+00
  -1.417686e+02  -3.736487e+02
   1.835741e+02  -1.089766e+02
   2.601834e+02   4.019970e+02
  -1.643857e+02   4.074662e+02
  -4.309331e+02   8.559545e+01
  -4.834142e+02  -3.142581e+02
  -1.353071e+02  -5.209840e+02
   2.992615e+02  -3.124609e+02
   5.661582e+02   1.322418e+02
   3.208574e+02   2.535551e+02
  -1.721402e+01   2.369599e+02
  -2.935840e+02   6.051979e+01
  -2.344500e+02  -4.513523e+01
   1.290162e+01  -6.981582e+01
   8.714243e+01   5.993943e+01
  -1.102980e+02   5.760872e+01
  -2.355270e+02  -6.805875e+01
  -1.825407e+02  -2.377218e+02
   1.390080e+02  -2.726743e+02
   3.268960e+02  -9.080140e+01
   2.065343e+02   9.608611e+01
  -5.069897e+01   2.669221e+02
  -1.971915e+02   3.081747e+02
  -3.307300e+02   1.655848e+02
  -2.065631e+02  -1.086692e+02
  -5.575912e+01  -3.004348e+02
   3.011141e+01  -3.107431e+02
   5.351240e+01  -1.803817e+02
   7.253323e+01  -8.105177e+01
   8.749455e+01  -1.002812e+02
   2.019689e+02  -6.602760e+01
   3.163167e+02   1.195833e+02
   9.474686e+01   2.817920e+02
  -1.173104e+02   1.820179e+02
  -2.220503e+02  -3.723281e+01
  -1.378461e+02  -2.122741e+02
   2.721531e+01  -2.106591e+02
   2.600272e+02  -7.564674e+01
   2.772841e+02   1.780163e+02
   1.500638e+02   2.765600e+02
  -2.812639e+01   2.597238e+02
  -1.827649e+02   1.135743e+02
  -1.214129e+02   5.748396e+01
  -1.346867e+02   6.039680e+01
  -2.428676e+02   2.458324e+01
  -4.496661e+02  -7.153950e+01
  -3.053544e+02  -2.333645e+02
   5.690245e+01  -4.481099e+02
   3.789681e+02  -3.641584e+02
   4.857741e+02  -1.717608e+02
   2.879160e+02   1.087632e+02
   3.299235e+01   2.364050e+02
  -1.400772e+02   1.965652e+02
   3.432632e+00   2.657679e+01
   8.533439e+01  -5.083664e+01
   1.570794e+02   5.012264e+01
   3.259581e+01   1.704189e+02
  -9.409399e+01   1.567567e+02
  -1.204171e+02  -4.925863e+01
   1.821906e+01  -1.464249e+02
   1.361801e+02  -3.695010e+00
   1.123626e+02   2.266911e+02
  -4.831342e+01   3.236721e+02
  -2.630601e+02   1.852386e+02
  -3.605812e+02  -9.224878e+01
  -2.456478e+02  -2.322695e+02
  -5.585105e+01  -2.560712e+02
   1.520517e+02  -1.363871e+02
   1.793484e+02  -1.998249e+01
   5.279182e+01   4.518529e+01
  -7.033144e+01  -5.844054e+01
  -6.481235e-01  -9.521306e+01
   8.717152e+01  -6.282028e+01
   1.582530e+02   1.821246e+01
   6.265397e+01   9.805643e+01
  -6.522703e+01  -2.516985e+01
  -2.717223e+01  -7.744242e+01
   1.421786e+02  -6.825118e+01
   2.708889e+02  -3.805627e+01
   2.604615e+02   1.652322e+02
   3.952469e+01   2.563304e+02
  -1.727764e+02   2.518346e+02
  -2.511828e+02   9.787023e+01
  -1.396719e+02  -2.982452e+01
   5.369766e+00  -7.704797e+01
   6.211717e+01  -1.137177e+01
  -3.241603e+01   7.141889e+01
  -2.071109e+02   1.447838e+01
  -1.624886e+02  -1.088740e+02
  -7.481794e+01  -1.725166e+02
   6.773290e+01  -1.523050e+02
   1.124457e+02  -7.125415e+00
   4.984995e+01   5.938311e+00
  -2.838155e+01  -4.340469e+01
  -4.517946e+01  -1.150278e+02
   8.486254e+01  -1.139365e+02
   2.067237e+02  -3.341188e+01
   1.801232e+02   9.670477e+01
   2.584190e+01   2.073972e+02
  -1.176748e+02   1.594905e+02
  -1.682884e+02  -6.508889e+00
  -4.258593e+01  -1.331109e+02
   4.319697e+01  -9.255116e+01
   7.780174e+01  -4.925357e+01
   1.540285e+00   1.695486e+01
  -4.696186e+01   3.289319e+01
  -1.050625e+00  -3.721375e-01
   5.539535e+01  -8.735034e-01
   9.591277e+01   9.426536e+01
   3.957960e+01   1.796314e+02
  -1.709708e+02   1.636062e+02
  -2.226537e+02  -3.216370e+01
  -1.507220e+02  -1.569309e+02
  -6.159378e+01  -2.630653e+02
   1.018031e+02  -1.793205e+02
   1.412896e+02  -4.259800e+00
   7.837691e+01   6.680700e+01
   2.326814e+01  -3.173772e+00
   2.700211e+01  -1.572577e+00
   1.059506e+02  -1.017874e+01
   4.558022e+01   5.110835e+01
  -4.930631e+01   9.899114e+01
  -1.140312e+02   3.179227e+01
  -9.682180e+01  -2.297594e+01
   1.848875e+01  -1.191382e+02
   1.012580e+02  -5.863348e+01
   2.049155e+02   6.312655e+01
   1.089414e+02   2.160175e+02
  -1.400224e+02   1.756547e+02
  -2.867403e+02   1.112101e+02
  -1.909888e+02  -8.072682e+01
  -9.550407e+01  -1.685383e+02
   4.846097e+01  -1.372508e+02
   7.838730e+01  -7.232659e+01
   9.108040e+01  -9.261890e+01
   6.776014e+01  -9.435448e+01
   9.462786e+01  -1.014085e+02
   1.109284e+02   4.744802e+01
   1.198233e+02   1.330004e+02
   2.064598e+01   2.048474e+02
  -1.082936e+02   1.578008e+02
  -1.701236e+02  -8.007903e+00
  -6.586706e+01  -1.219432e+02
   1.914920e+01  -1.753829e+02
   5.481267e+01  -8.868241e+01
   5.017824e+01   2.420404e+01
  -1.925609e+01   3.868691e+01
  -2.321105e+01   4.213354e+01
   3.606079e+01   2.821580e+01
   6.231010e+01   2.079620e+01
   2.784809e+01   4.758156e+01
  -7.479488e+01   9.329962e+00
  -1.571144e+02  -2.362963e+01
  -1.118576e+02  -5.321923e+01
  -1.270041e+01  -1.028761e+02
   1.679387e+02  -5.111434e+01
   1.681532e+02  -8.946355e+00
   3.061401e+01   4.159966e+01
  -5.459583e+01   1.598470e+01
  -7.427502e+01  -3.044291e+01
  -5.173617e+00  -8.075687e+01
   1.897333e+01  -6.924891e+01
   8.311349e+01   9.925408e+00
   4.794993e+01   6.961841e+01
   3.777035e+01   4.615620e+01
   5.929089e+01  -3.060752e+01
   6.703029e+01   2.525196e+01
   3.354524e+01   4.571382e+01
  -4.226645e+01   1.117895e+02
  -9.014390e+01   1.274703e+02
  -1.688234e+02   4.305585e+00
  -9.939032e+01  -9.313463e+01
   1.493310e+01  -1.326854e+02
   4.970193e+01  -6.319271e+01
   6.184364e+01  -1.534034e-01
  -4.914686e+01   2.084796e+01
  -1.311920e+02  -2.352121e+01
  -6.294573e+01  -1.119605e+02
   1.259789e+02  -1.005932e+02
   1.960856e+02  -8.018479e+01
   1.528464e+02   5.218996e+01
   2.865174e+01   8.565639e+01
  -5.724335e+01   4.889628e+01
  -2.684868e+01  -1.483002e-01
   5.364364e+01  -2.497531e+01
   7.799405e+01   3.218606e+01
   4.354760e+01   1.229252e+02
  -7.300037e+01   1.284304e+02
  -1.540749e+02   4.076531e+01
  -1.180850e+02  -1.053652e+02
  -5.406083e+00  -2.123543e+02
   5.668037e+01  -1.468026e+02
   1.104555e+02   1.505727e+01
   4.818425e+01   1.106400e+02
  -1.246099e+01   1.373879e+02
  -3.633917e+01  -3.759580e+00
  -3.759971e+01  -1.963194e+01
  -1.406258e+01  -4.026809e+00
   6.674171e+00  -1.251937e+01
  -2.056848e+01  -2.000198e+01
  -3.362243e+01  -7.099043e+01
  -4.646272e+01  -9.106678e+01
   5.039922e+01  -3.706196e+01
   1.399165e+02   7.624589e+01
   1.358417e+02   5.096058e+01
   3.684695e+01   5.997161e+01
  -8.242454e+01   5.847154e+00
  -9.054492e+01   1.422118e+01
  -2.147114e+00   1.271902e+01
   3.730259e+01   1.332936e+00
   3.704733e+01   6.925474e+00
  -2.496152e+01   2.610502e+01
  -1.219652e+01   2.931314e+01
   6.109389e+01  -6.219502e+00
   1.107255e+02   5.686770e+01
  -2.376647e+01   3.490624e+01
  -7.564513e+01   1.077955e+02
  -1.537833e+02   5.817661e+01
  -1.579647e+02  -8.345896e+01
  -5.015096e+00  -1.148809e+02
   6.009887e+01  -1.449882e+02
   1.423548e+02  -4.018886e+01
   4.856240e+01   2.564240e+01
   1.967039e+01   4.105344e+01
   8.090518e+00  -1.258150e+01
   9.735581e+00  -2.193279e+00
   2.221743e+01   2.614779e+01
   3.839338e+01   9.552260e+01
  -3.533179e+01   7.123860e+01
  -1.019997e+02  -8.915635e+00
  -8.090216e+01  -8.241494e+01
  -1.927356e+00  -1.246229e+02
   7.702616e+01  -1.577143e+01
   1.097799e+02   5.504123e+01
   2.590479e+01   1.059254e+02
  -5.170145e+01   6.320074e+01
  -6.829689e+01   3.844079e+01
  -6.467509e+01  -5.602206e+01
   3.655614e+01  -7.184315e+01
   4.267499e+01  -3.287437e+01
  -1.854078e+01  -2.797070e+01
  -7.011397e+01  -1.172189e+01
  -1.702210e+01  -3.417583e+01
   7.948569e+01  -3.778825e+01
   1.293980e+02  -7.865544e+01
   7.922786e+01   2.905200e+01
  -1.841275e+01   8.831612e+01
  -3.936884e+01   7.457500e+01
  -3.762835e+01  -1.683221e+01
  -7.305872e+00  -6.114200e+01
   7.238756e+01  -4.533397e+01
   1.848807e+01  -6.005005e+00
   2.450728e+01   1.306416e+01
  -1.970580e+01   2.386426e+01
  -1.812084e+01  -2.557561e+01
  -5.163906e+01  -3.175725e+01
  -4.878470e+00  -1.283702e+01
   1.996335e+01   3.433616e+01
  -2.763391e+00  -9.844344e+00
   1.226094e+01  -1.788242e+01
   1.973337e+01  -5.783149e+01
  -6.707075e+00  -2.154236e+01
   2.725790e+01   4.257284e+01
  -9.014599e+00   7.129623e+01
  -3.939968e+01   2.203638e+00
  -6.221941e+01  -6.805148e+01
   9.341922e+00  -5.358945e+01
   6.399069e+01  -3.208648e+01
   9.129677e+01   2.107869e+01
   3.110919e+01   4.589938e+01
  -8.362309e+00   5.532352e+01
  -8.949973e+01   1.385969e+01
  -1.394672e+01   2.157477e+01
   6.310430e+01   1.081886e+01
   1.471485e+01   2.509709e-01
  -2.091732e+01   3.796789e+01
  -6.288831e+01   1.091202e+01
