
 $NMID
 id='ANONYMOUS ', fmtdat='(2E16.6)'
 volume=1.0
 tramp=1.0
 $END
   3.628790e+03  -5.005578e+02
   2.462551e+03   1.788781e+03
  -7.479777e+01   2.014640e+03
  -1.702764e+03   8.175163e+02
  -1.038247e+03  -2.414564e+01
   1.995735e+02  -3.058446e+02
   3.641743e+02   5.005962e+02
   3.372804e+01   6.188523e+02
  -6.087179e+02   6.516850e+02
  -9.037251e+02  -5.826047e+01
  -3.658765e+02  -6.192606e+02
   1.701186e+02  -7.458975e+02
   3.439504e+02  -1.432894e+02
   2.889092e+02   4.428713e+02
  -2.380022e+02   5.993079e+02
  -4.951345e+02   4.280512e+01
  -3.202254e+02  -5.183405e+02
   2.575769e+02  -6.117423e+02
   4.423171e+02  -2.450760e+02
   4.288994e+02   2.703121e+02
   2.884006e+01   3.725317e+02
  -1.727362e+02   2.569805e+02
  -1.028346e+02   2.240765e+01
   1.519279e+02   5.660551e+01
   2.899239e+02   3.129062e+02
   8.760991e+01   4.229174e+02
  -4.605125e+02   2.470047e+02
  -6.872746e+02  -1.406658e+02
  -3.261195e+02  -3.565710e+02
   3.427475e+02  -3.395253e+02
   5.876217e+02   1.046965e+02
   1.921102e+02   4.524907e+02
  -2.427953e+02   3.558671e+02
  -5.056925e+02   1.941046e+02
  -3.607998e+02  -2.007830e+02
  -8.595603e+01  -4.145051e+02
   1.649331e+02  -1.811740e+02
   1.598910e+01   1.225515e+02
  -3.168223e+02   2.216824e+02
  -2.835280e+02  -4.060624e+01
  -1.748215e+02  -5.656940e+02
   4.714413e+02  -5.531261e+02
   4.120488e+02   7.053186e+01
   1.202839e+02   3.992812e+02
  -2.335123e+02   1.355708e+02
  -2.112709e+02  -3.474768e+02
   1.846336e+02  -5.330605e+02
   4.547231e+02  -6.148569e+00
   4.737838e+02   3.021717e+02
   8.425735e+01   5.380411e+02
  -3.054493e+02   3.335198e+02
  -5.363212e+02  -1.247171e+02
  -3.855698e+02  -3.096144e+02
   5.307741e+01  -2.516803e+02
   3.631124e+02  -6.421405e+01
   2.147788e+02   7.797603e+01
  -3.466415e+01   6.496393e+01
  -1.268419e+02  -7.978700e+01
   1.335539e+02  -9.133638e+01
   2.774767e+02   6.855579e+01
   1.130726e+02   2.029090e+02
  -1.707555e+02   2.811659e+02
  -3.640819e+02   8.072839e+01
  -2.372693e+02  -1.004313e+02
   4.835810e+01  -2.806189e+02
   2.658512e+02  -3.308363e+02
   3.622331e+02  -1.778169e+02
   2.389595e+02   1.518640e+02
   5.712433e+01   3.608552e+02
  -7.319854e+01   3.379697e+02
  -4.123686e+01   1.574754e+02
  -5.689004e+01   7.564108e+01
  -1.174023e+02   9.239520e+01
  -2.341828e+02   7.708559e+01
  -2.554311e+02  -1.494436e+02
  -9.887958e+01  -3.021354e+02
   1.417470e+02  -2.418464e+02
   2.140555e+02   5.193769e+01
   1.400812e+02   2.601914e+02
  -3.938179e+01   3.123506e+02
  -2.606380e+02   8.641975e+01
  -3.072825e+02  -1.816658e+02
  -1.787627e+02  -3.355494e+02
   6.840007e+01  -3.070836e+02
   1.758956e+02  -1.420084e+02
   1.647574e+02  -5.912160e+01
   1.285151e+02  -7.589623e+01
   2.547042e+02  -3.207107e+01
   4.214747e+02   1.089628e+02
   3.127094e+02   2.775625e+02
  -9.912327e+01   4.759272e+02
  -4.287430e+02   3.953722e+02
  -4.118321e+02   1.451646e+02
  -2.607227e+02  -1.498414e+02
  -5.492254e+01  -2.692745e+02
   1.358008e+02  -1.695204e+02
   3.863015e+01  -4.096909e+01
  -9.431691e+01   7.629508e+01
  -1.459430e+02  -3.608925e+01
  -2.966179e+01  -1.404762e+02
   1.431050e+02  -1.590288e+02
   1.433046e+02   6.407751e+01
  -6.069607e+01   1.589699e+02
  -1.611506e+02   9.201265e+00
  -1.083676e+02  -2.077162e+02
   6.897294e+01  -3.699889e+02
   2.417784e+02  -1.913768e+02
   3.499531e+02   1.060870e+02
   2.482182e+02   2.409830e+02
   1.330681e+01   2.873545e+02
  -1.853478e+02   1.290512e+02
  -1.120360e+02   2.488901e+01
  -3.327250e+01  -4.740610e+01
   5.136366e+01   6.662318e+01
   7.091953e+00   1.353680e+02
  -1.285228e+02   8.897083e+01
  -1.333430e+02  -1.357425e+01
  -4.063492e+01  -8.835871e+01
   7.234261e+01   1.434177e+01
   4.623145e+01   1.128051e+02
  -1.383833e+02   9.879760e+01
  -3.098130e+02  -7.260518e-01
  -2.585531e+02  -1.955250e+02
  -6.485504e+00  -2.364480e+02
   2.224517e+02  -2.477282e+02
   2.927213e+02  -1.078082e+02
   1.590500e+02   4.037447e+01
  -3.578222e+00   7.895051e+01
  -5.738354e+01  -9.889762e+00
   5.974146e+01  -9.819361e+01
   2.076470e+02  -2.573985e+01
   1.929833e+02   1.330442e+02
   3.709729e+01   1.801561e+02
  -1.382334e+02   1.554577e+02
  -1.499803e+02   3.358513e+00
  -4.286564e+01  -1.606434e+01
   4.136642e+01   3.889854e+01
  -7.299055e+00   1.196390e+02
  -9.501547e+01   1.182207e+02
  -1.809103e+02   3.594829e+01
  -2.280242e+02  -1.219527e+02
  -1.778592e+01  -2.030311e+02
   1.732450e+02  -1.593084e+02
   1.708112e+02   1.062829e+01
   5.750934e+01   1.159561e+02
  -5.055745e+01   1.098485e+02
  -8.916294e+01   5.403791e+01
  -2.268335e+01  -2.972178e+01
   5.777388e+01   1.104947e+00
  -1.450965e+01   1.651911e+01
  -9.128632e+01   1.022364e+01
  -1.052890e+02  -9.406437e+01
  -2.010388e+01  -1.717612e+02
   1.710506e+02  -1.164265e+02
   2.406425e+02   3.109380e+01
   1.642790e+02   1.748335e+02
   5.289111e+01   2.459336e+02
  -1.437794e+02   1.647912e+02
  -1.544556e+02   1.849996e+01
  -8.689310e+01  -5.306228e+01
  -2.225089e+01  -4.639964e+01
  -5.503779e+01   1.834961e+01
  -6.652482e+01  -1.324165e+01
  -4.095712e+01  -4.353040e+01
   5.063714e+01  -1.102159e+02
   1.067173e+02  -6.904374e+01
   1.209847e+02   2.651500e+01
  -1.143528e+01   1.094952e+02
  -1.520396e+02   7.679414e+01
  -1.680804e+02  -4.390101e+01
  -5.761328e+01  -2.144232e+02
   1.654100e+02  -1.927207e+02
   3.088554e+02  -6.113964e+01
   2.008561e+02   9.500860e+01
   7.196910e+01   1.775727e+02
  -5.335888e+01   1.528428e+02
  -8.950955e+01   8.711971e+01
  -9.122299e+01   9.305298e+01
  -6.393263e+01   8.981378e+01
  -7.247663e+01   6.283396e+01
  -1.068634e+02  -4.595245e+01
  -1.487340e+02  -1.463309e+02
  -4.028479e+01  -2.538830e+02
   1.276995e+02  -1.445667e+02
   1.623896e+02  -1.507225e+01
   1.038786e+02   1.459550e+02
   2.924481e+01   1.717239e+02
  -7.565857e+01   8.827906e+01
  -5.768343e+01  -3.095823e+01
   5.398907e+00  -5.834759e+01
   4.429251e+01   3.009951e-01
  -6.728393e+00  -2.191768e+01
  -5.788708e+01  -1.687585e+01
  -3.647469e+01  -6.500791e+01
   9.613801e+01  -4.863686e+01
   1.791354e+02   3.167329e+00
   1.218609e+02   5.249360e+01
   8.627079e+00   8.577010e+01
  -1.320648e+02   5.453854e+01
  -1.447042e+02  -6.644171e+00
  -5.403749e+01  -3.753800e+01
   6.552229e+01  -5.344641e+01
   9.869103e+01   1.987459e+01
   3.850501e+01   9.362866e+01
  -6.794419e+01   6.179085e+01
  -6.291531e+01  -4.409530e+01
  -2.853131e+01  -5.804152e+01
  -5.570025e+01  -7.215442e+01
  -5.765589e+01   1.319175e+01
  -4.477236e+01  -6.142748e+01
  -4.864695e+01  -5.904706e+01
   3.677672e+01  -1.224430e+02
   8.650126e+01  -1.403935e+02
   2.013298e+02  -3.109668e+01
   1.378450e+02   9.020124e+01
  -2.650435e+00   1.430931e+02
  -7.796065e+01   5.891546e+01
  -6.473051e+01  -2.433681e+00
   5.360931e+01  -5.759978e+01
   1.470958e+02   3.782465e+01
   4.974998e+01   1.211375e+02
  -1.000006e+02   1.000995e+02
  -1.803008e+02   4.250055e+01
  -1.337187e+02  -3.120782e+01
  -1.707697e+01  -1.022829e+02
   8.289847e+01  -6.474260e+01
   1.329392e+01   1.277202e+01
  -4.971977e+01   4.289986e+01
  -6.664676e+01   4.022535e+00
  -4.001283e+01  -1.276064e+02
   9.784999e+01  -1.197380e+02
   1.811265e+02  -8.227086e+01
   1.488849e+02   1.182557e+02
   7.367811e+00   1.904729e+02
  -7.487844e+01   1.236597e+02
  -1.164720e+02  -2.661694e-01
  -5.181590e+01  -1.273837e+02
   1.421791e+01  -9.991289e+01
   2.896349e+01  -1.541733e+01
   4.194045e+01   3.298644e+01
   3.045314e-01   2.464079e+00
  -1.552503e+01   3.271588e+00
   2.668691e+01   3.029411e+01
   5.510578e+01   1.050375e+02
   2.156622e+01   1.067455e+02
  -6.415065e+01   4.409353e+01
  -1.648944e+02  -4.943732e+01
  -1.141327e+02  -8.107189e+01
   3.837738e+00  -4.708905e+01
   1.076487e+02  -1.196297e+01
   5.615538e+01   1.464897e-01
   1.356715e+01   2.496673e+01
  -5.873109e+01   1.422476e+01
  -2.086187e+01   1.956527e+01
   4.052549e+01   4.314524e+00
   1.820438e+01  -1.827021e+01
  -7.095136e+01  -1.684898e+01
  -6.039077e+01  -3.694193e+01
  -1.702096e+01  -8.052217e+01
   1.178207e+02  -1.271871e+02
   1.744734e+02  -7.533884e+01
   1.458745e+02   1.100180e+02
   2.176648e+01   1.494772e+02
  -9.199439e+01   1.574690e+02
  -1.205785e+02   7.028169e+01
  -5.502709e+01  -5.402762e+01
  -1.692108e+01  -4.574710e+01
  -1.260138e+01   2.529151e+00
  -1.721586e+01  -3.210811e+01
  -3.359825e+01  -6.585934e+01
  -1.788910e+01  -9.395685e+01
   3.574193e+01  -6.012292e+01
   9.267594e+01   1.953618e+01
   6.967647e+01   9.737147e+01
   1.625413e+01   1.117523e+02
  -7.588741e+01   2.526735e+01
  -8.652491e+01  -7.991177e+01
  -3.947381e+01  -7.507662e+01
   5.960490e+01  -8.604009e+01
   8.542409e+01  -2.751801e+01
   2.744203e+01   7.049686e+01
  -1.847052e+01   7.105215e+01
  -5.036343e+01   6.512458e+01
   3.337689e+01   1.883646e+01
   6.484337e+01  -5.468420e+00
   2.951036e+01   1.813590e+01
  -7.059271e+01   8.356291e+01
  -1.197045e+02   6.577042e+01
  -8.358209e+01  -1.655834e+01
   7.820560e+00  -8.166770e+01
   5.764511e+01  -6.961507e+01
   2.781625e+01  -1.638356e+01
   5.737370e+00   4.582350e+01
  -3.017376e+01   2.552467e+01
  -1.622539e+01  -1.254818e+01
  -3.601805e+00  -2.816382e+01
   9.442447e+00  -4.085898e+01
   5.266889e+01   1.890571e+01
   6.594470e+01   3.371171e+01
   2.633780e+01  -4.174580e+00
   1.407484e+01  -2.256551e+01
  -9.595655e+00   1.616583e-01
   3.501560e+00   1.489058e+01
   1.200277e+00   5.899764e+01
  -3.937012e+01   3.624331e+01
  -4.285947e+01  -2.884581e+01
  -1.639015e+00  -5.851272e+01
   3.095156e+01  -1.466876e+01
   4.307494e+01   3.691308e+01
   7.762080e+00   4.359581e+01
  -2.431565e+01   1.105386e+01
  -8.580829e+01  -3.475689e+01
  -1.707390e+01  -6.968786e+01
   1.662757e+01  -4.931950e+01
   6.198852e+01   1.540533e+01
   1.686204e+01  -1.765458e+01
  -3.260799e+01  -1.127407e+01
  -5.314619e+01  -3.661606e+01
   1.520145e+01  -2.727149e+01
   5.600979e+01  -4.999933e+01
