
 $NMID
 id='ANONYMOUS ', fmtdat='(2E16.6)'
 volume=1.0
 tramp=1.0
 $END
  -4.413773e+03  -3.229868e+01
  -2.874831e+03  -2.103310e+03
   1.159901e+02  -2.978025e+03
   1.838501e+03  -1.036589e+03
   1.113275e+03   4.417752e+02
  -3.239313e+02   5.336981e+02
  -5.427108e+02  -3.940040e+02
  -9.694476e+00  -1.002475e+03
   7.829454e+02  -7.715793e+02
   9.548814e+02   1.091277e+02
   3.659768e+02   8.469700e+02
  -2.493852e+02   8.563571e+02
  -5.558205e+02   1.177038e+02
  -4.363717e+02  -5.971514e+02
   2.743677e+02  -8.182663e+02
   6.755306e+02  -1.806546e+01
   3.148484e+02   5.607239e+02
  -3.120776e+02   6.780629e+02
  -5.322686e+02   9.063301e+01
  -4.494311e+02  -2.951230e+02
  -3.905490e+01  -3.922690e+02
   2.149949e+02  -2.349222e+02
   1.762204e+02  -4.211570e+01
  -1.204940e+02  -2.187338e+01
  -3.516940e+02  -2.470188e+02
  -2.129373e+02  -4.665383e+02
   5.152541e+02  -2.471472e+02
   8.260338e+02   4.875165e+01
   3.983771e+02   5.763394e+02
  -4.134189e+02   4.169087e+02
  -6.680354e+02  -6.267232e+01
  -2.562753e+02  -4.836560e+02
   2.659286e+02  -4.668957e+02
   5.462311e+02  -2.128710e+02
   4.535774e+02   2.112030e+02
   2.635445e+01   5.044825e+02
  -1.782752e+02   2.729634e+02
  -1.015101e+02  -2.264085e+02
   2.805546e+02  -3.269414e+02
   3.543891e+02   7.373700e+01
   1.296701e+02   7.017665e+02
  -3.571833e+02   5.940055e+02
  -5.189384e+02  -3.132524e+01
  -1.987124e+02  -4.434725e+02
   3.394126e+02  -2.601041e+02
   2.389442e+02   3.699417e+02
  -1.740533e+02   5.621016e+02
  -5.229566e+02   1.097282e+02
  -4.954482e+02  -3.699242e+02
  -1.167198e+02  -5.614956e+02
   3.658504e+02  -3.101950e+02
   5.846900e+02   1.158381e+02
   3.590590e+02   3.914614e+02
  -1.223187e+02   3.541566e+02
  -4.462657e+02   5.481473e+01
  -2.319522e+02  -1.483281e+02
   5.953660e+01  -6.795433e+01
   9.771656e+01   1.293729e+02
  -1.710330e+02   1.461260e+02
  -3.275319e+02  -5.863587e+01
  -9.768393e+01  -2.475502e+02
   2.230883e+02  -2.646744e+02
   3.255072e+02  -7.095498e+01
   2.850956e+02   1.197394e+02
  -3.025132e+01   2.531592e+02
  -2.654554e+02   3.625216e+02
  -3.790861e+02   2.101554e+02
  -2.866334e+02  -1.788722e+02
  -7.389781e+01  -4.719576e+02
   1.003540e+02  -3.976620e+02
   1.082314e+02  -1.488329e+02
  -6.406806e+00  -6.052100e+01
   8.852138e+01  -1.021378e+02
   2.428966e+02  -1.276570e+02
   2.366880e+02   1.135262e+02
   1.271190e+02   2.245218e+02
  -9.035323e+01   2.544943e+02
  -2.212022e+02  -3.169257e+01
  -2.134600e+02  -2.564880e+02
   3.728905e+01  -3.027600e+02
   3.208456e+02  -7.091763e+01
   3.199183e+02   1.767680e+02
   1.803734e+02   4.267151e+02
  -8.501319e+01   2.797360e+02
  -1.983941e+02   1.323575e+02
  -1.259815e+02   3.654186e+01
  -1.402486e+02   8.677278e+01
  -2.755690e+02   5.709510e+01
  -4.254078e+02  -1.078843e+02
  -2.942509e+02  -3.002042e+02
   3.617699e+01  -4.919809e+02
   4.425352e+02  -4.589652e+02
   4.631718e+02  -1.229103e+02
   2.965126e+02   1.326956e+02
   5.126898e+01   3.029005e+02
  -1.323838e+02   2.090698e+02
  -7.609598e+01   3.137049e+01
   1.169268e+02  -9.202077e+01
   1.268139e+02   2.341055e+01
   4.980475e+01   1.742720e+02
  -1.720495e+02   1.055891e+02
  -1.711731e+02  -4.561748e+01
   5.924543e+01  -1.769558e+02
   1.807009e+02  -1.920435e+01
   1.632773e+02   2.444278e+02
  -6.386224e+01   4.056037e+02
  -2.477075e+02   1.922828e+02
  -3.454859e+02  -8.301695e+01
  -2.430517e+02  -2.442272e+02
  -5.987687e+01  -2.680197e+02
   1.403742e+02  -1.810828e+02
   1.599677e+02   2.953553e+00
   6.256256e+01   2.668742e+01
  -5.935004e+01  -4.187786e+01
   7.139416e+00  -1.064414e+02
   1.705715e+02  -1.299539e+02
   1.622961e+02   4.932152e+01
   4.682794e+01   8.509560e+01
  -9.313321e+01   1.091646e+01
  -3.890302e+01  -8.325772e+01
   1.461520e+02  -1.260901e+02
   2.960188e+02   7.539871e+00
   2.509510e+02   1.490768e+02
   2.017294e+01   2.323479e+02
  -2.121336e+02   2.184914e+02
  -3.336367e+02   1.331049e+02
  -1.461378e+02  -8.613407e+01
   3.660198e+01  -1.614281e+02
   1.058268e+02   3.285269e+01
  -7.167000e+01   1.405262e+02
  -2.028861e+02   7.941120e+01
  -2.223607e+02  -1.530723e+02
  -5.935656e+01  -2.468541e+02
   1.196892e+02  -1.306404e+02
   1.762678e+02  -1.997439e+01
   7.552855e+01   5.186918e+01
  -4.871392e+01   5.949999e+00
  -1.129204e+01  -7.668029e+01
   7.594287e+01  -1.749390e+02
   1.953435e+02  -7.813677e+00
   2.026252e+02   1.463919e+02
   1.204983e+01   2.106029e+02
  -1.280732e+02   1.719976e+02
  -1.793232e+02  -4.490419e-01
  -5.460684e+01  -1.275246e+02
   6.051067e+01  -9.175791e+01
   9.689260e+01  -3.037374e+01
  -8.168431e+00   5.374754e+01
  -1.121612e+01   1.467172e+00
   9.686879e+00  -2.150291e+01
   3.583051e+01   2.701362e+00
   1.195070e+02   6.989362e+01
   3.690514e+01   1.364169e+02
  -1.429348e+02   1.705463e+02
  -2.749069e+02  -3.902458e+00
  -2.049884e+02  -1.593750e+02
  -1.278167e+01  -2.557842e+02
   1.162999e+02  -1.727053e+02
   1.403054e+02  -2.450328e+01
   8.817564e+01   5.802706e+01
   9.934009e+00   3.593357e+01
   7.437005e+01  -4.310468e+01
   7.545575e+01  -1.837188e+01
   4.625623e+01   5.327499e+01
  -3.424312e+01   1.198179e+02
  -1.322077e+02   6.493259e+01
  -9.307807e+01  -4.666272e+01
   1.087567e+01  -1.185630e+02
   1.607485e+02  -9.459465e+01
   2.060369e+02   4.702124e+01
   1.075005e+02   2.234505e+02
  -1.490030e+02   2.446328e+02
  -2.800751e+02   3.852382e+01
  -2.656097e+02  -6.786637e+01
  -6.229771e+01  -1.691954e+02
   6.081362e+01  -1.824963e+02
   7.806327e+01  -9.288194e+01
   7.395235e+01  -7.204620e+01
   8.121272e+01  -1.335291e+02
   4.432503e+01  -7.167477e+01
   1.104382e+02   2.155236e+01
   1.446869e+02   1.541865e+02
   3.828079e+01   2.500639e+02
  -1.199066e+02   1.428539e+02
  -2.005427e+02   3.203248e+01
  -1.255277e+02  -1.486515e+02
  -2.244517e+01  -1.772327e+02
   8.280400e+01  -1.056052e+02
   4.748990e+01   1.893501e+01
  -3.757309e+01   5.876822e+01
  -2.526239e+01   4.304989e+01
   2.160092e+01   2.209073e+01
   5.795774e+01   3.238982e+01
   3.164405e+01   5.321549e+01
  -7.088551e+01   6.005366e+01
  -2.014491e+02   1.342770e+01
  -1.103289e+02  -4.192556e+01
   9.283190e+00  -1.081053e+02
   1.194583e+02  -8.241336e+01
   1.433586e+02   1.079187e+01
   2.698344e+01   3.863178e+01
  -7.157966e+01   1.965359e+01
  -9.470697e+01  -1.632140e+01
  -3.474063e+01  -7.833107e+01
   3.992913e+01  -5.004798e+01
   6.127694e+01  -7.667352e+00
   4.149109e+01   5.481277e+01
   6.870161e+01   4.239195e+01
   6.510996e+01   2.434964e+01
   5.535177e+01   1.393962e+01
   3.160634e+01   6.870136e+01
  -6.215887e+01   1.588029e+02
  -1.453485e+02   1.770627e+02
  -2.000931e+02   4.332584e+00
  -1.393733e+02  -8.704600e+01
   1.462970e+01  -1.343004e+02
   7.602715e+01  -1.112846e+02
   6.935966e+01  -2.508763e+01
  -4.952502e+01   4.721515e+01
  -1.519615e+02  -4.351040e+01
  -7.216414e+01  -1.297292e+02
   5.717665e+01  -6.555897e+01
   1.738353e+02  -1.071965e+01
   1.560143e+02   6.153090e+01
   4.129211e+01   6.207185e+01
  -8.677411e+01   7.591971e+01
  -4.790139e+01   2.232890e+01
   4.763018e+01  -3.159110e+01
   6.231120e+01   2.907229e+01
   2.877535e+01   1.390238e+02
  -1.007681e+02   1.422133e+02
  -1.604185e+02   6.373923e+01
  -1.373810e+02  -1.006261e+02
   2.171132e+00  -1.915303e+02
   9.409934e+01  -1.102623e+02
   1.184713e+02   1.771393e+01
   7.276453e+01   1.366281e+02
  -2.881628e+01   7.940196e+01
  -4.119550e+01   1.754611e+01
  -5.203923e+01  -4.391000e+01
  -4.165391e+01  -4.218581e+00
   1.527062e+01   8.411807e+00
  -2.710633e+01   9.748723e-01
  -5.832826e+01  -1.005776e+02
  -3.588980e+00  -1.137246e+02
   6.074915e+01  -5.159529e+01
   1.512136e+02   4.412539e+01
   9.904535e+01   8.004753e+01
   5.248491e+00   3.467803e+01
  -8.086048e+01   2.113392e+01
  -7.387139e+01  -2.087022e+01
  -1.058641e+01  -2.535069e+01
   5.082085e+01   4.038305e+00
   3.083790e+01  -5.182175e+01
  -3.488975e+01  -1.633014e+00
  -9.900200e+00   1.001468e+01
   3.185366e+01   3.153065e+01
   9.567015e+01   1.300573e+01
   1.038170e+01   9.172759e+01
  -1.352177e+02   1.116990e+02
  -1.789686e+02   7.418959e+01
  -1.394761e+02  -8.008498e+01
  -9.166069e+00  -1.567618e+02
   4.897701e+01  -1.809423e+02
   1.457986e+02  -5.781069e+01
   7.643943e+01   3.338106e+01
   4.458655e+00   3.240529e+01
   2.537261e+01  -1.016742e+01
   1.879643e+01  -1.513412e+01
   2.455711e+01   4.503117e+01
   1.738243e+00   1.020040e+02
  -5.360230e+00   7.333065e+01
  -9.094517e+01  -1.908508e+01
  -8.900972e+01  -6.965747e+01
  -6.082666e+00  -8.805078e+01
   7.511938e+01  -4.555842e+01
   1.022024e+02   5.068625e+01
   3.861840e+01   1.136821e+02
  -5.563056e+01   6.612821e+01
  -9.483509e+01  -2.125802e+01
  -8.140981e+00  -6.991527e+01
   5.462665e+00  -6.291435e+01
   5.139777e+01  -1.879676e+01
  -1.150273e+01  -2.254028e+01
  -9.641015e+01  -3.247164e+00
  -1.750977e+00  -3.628543e+01
   7.615293e+01  -6.954730e+01
   9.428133e+01  -4.218976e+01
   6.809318e+01   2.185021e+01
   2.607337e+00   7.392064e+01
  -5.918943e+01   7.811605e+01
  -4.351657e+01  -2.514653e+00
  -1.276116e+01  -6.676839e+01
   3.471794e+01  -5.586506e+01
   2.979640e+01   9.864251e+00
  -1.017154e+01   5.477925e+01
  -3.342055e+01   4.257344e+01
  -3.707397e+01  -3.469868e+01
  -3.637847e+01  -1.393108e+01
  -6.514352e+00   2.388905e+01
  -1.614984e+00   1.954522e+01
   1.427059e+01  -9.311408e+00
   2.816179e+00  -1.838800e+01
   1.136335e+01  -3.476235e+01
   3.727774e+01  -1.585725e+01
   2.745064e+01   8.050046e+01
   3.232279e+01   9.379699e+01
  -3.468740e+01   1.552887e+01
  -3.053414e+01  -2.578377e+01
  -1.770638e+01  -5.782028e+01
   2.392360e+01  -3.195683e+01
   1.162668e+02   4.309432e+01
   5.807227e+01   4.933056e+01
  -2.601094e+01   6.963084e+01
  -3.353471e+01   3.092541e+00
  -2.788374e+01   1.259305e+01
   4.669302e+01   1.069602e+01
   5.160368e+01   3.979688e+01
  -4.069361e+01   4.244541e+01
  -8.449080e+01   3.099052e+01
