
 $NMID
 id='ANONYMOUS ', fmtdat='(2E16.6)'
 volume=1.0
 tramp=1.0
 $END
   4.847609e+03   2.991255e+02
   2.829972e+03   2.888222e+03
  -5.999236e+02   3.188196e+03
  -1.952366e+03   1.241384e+03
  -9.787074e+02  -4.526909e+02
   5.353011e+02  -6.937954e+02
   9.311014e+02   4.421552e+02
   6.936968e+01   1.130705e+03
  -8.024398e+02   8.836072e+02
  -9.432963e+02   2.004016e+01
  -5.431442e+02  -8.752768e+02
   1.085853e+02  -9.837432e+02
   5.760761e+02  -1.913518e+02
   5.009307e+02   7.096565e+02
  -2.351532e+02   7.632469e+02
  -6.881034e+02   7.041466e+01
  -3.278184e+02  -6.743783e+02
   3.552130e+02  -7.661666e+02
   6.422604e+02  -1.313463e+02
   5.036883e+02   3.443939e+02
   5.768606e+01   4.790303e+02
  -2.554887e+02   2.814366e+02
  -2.134684e+02   3.478973e+01
   9.490837e+01  -3.083188e+01
   3.576673e+02   4.047428e+01
   2.226686e+02   4.646967e+02
  -4.680802e+02   3.215341e+02
  -8.728930e+02  -1.250928e+02
  -4.620507e+02  -6.870609e+02
   4.411760e+02  -5.235870e+02
   6.753740e+02   5.353409e+01
   3.414577e+02   4.333364e+02
  -2.288754e+02   5.330017e+02
  -6.560284e+02   1.710364e+02
  -4.898294e+02  -1.843875e+02
  -5.359159e+01  -5.251645e+02
   1.986382e+02  -3.379192e+02
   1.791956e+02   1.849056e+02
  -1.642861e+02   3.931760e+02
  -3.797398e+02  -4.154333e+01
  -1.767266e+02  -7.693508e+02
   2.185310e+02  -5.955863e+02
   5.885764e+02  -7.483085e+01
   2.648892e+02   5.283942e+02
  -3.123919e+02   3.331009e+02
  -4.139259e+02  -3.026494e+02
   8.480666e+01  -5.177119e+02
   5.113563e+02  -2.387092e+02
   6.094260e+02   4.283364e+02
   2.304486e+02   5.484277e+02
  -4.172426e+02   2.977358e+02
  -6.112227e+02  -3.169315e+01
  -3.667747e+02  -3.703077e+02
   1.476241e+02  -3.820968e+02
   4.335606e+02  -1.016217e+02
   3.145264e+02   1.878666e+02
  -1.083099e+02   1.192953e+02
  -1.285237e+02  -1.275548e+02
   1.544541e+02  -2.047912e+02
   3.823416e+02   5.461064e+01
   1.748118e+02   2.677572e+02
  -2.220469e+02   2.849748e+02
  -3.480318e+02   1.071852e+02
  -2.371805e+02  -1.161474e+02
   3.425493e+01  -2.438799e+02
   2.955414e+02  -3.547966e+02
   3.989147e+02  -2.297400e+02
   2.860544e+02   1.565698e+02
   5.103069e+01   4.669990e+02
  -1.094676e+02   4.580812e+02
  -1.321903e+02   1.534329e+02
   7.759699e+00   1.413145e+01
  -5.276571e+01   1.209987e+02
  -2.186378e+02   1.159336e+02
  -2.980836e+02  -6.469127e+01
  -2.185215e+02  -2.683673e+02
   5.566519e+01  -2.977331e+02
   2.279381e+02   2.018114e+01
   2.293755e+02   2.569911e+02
  -2.294208e+01   3.047567e+02
  -2.770780e+02   8.579983e+01
  -3.632648e+02  -1.772661e+02
  -2.123340e+02  -4.475907e+02
   1.036645e+02  -3.065428e+02
   2.336559e+02  -1.703999e+02
   1.750409e+02  -4.853727e+01
   1.253484e+02  -2.999899e+01
   2.271788e+02  -3.947444e+01
   4.282770e+02   5.362087e+01
   2.854916e+02   3.619718e+02
   2.144666e+00   4.286893e+02
  -3.827234e+02   4.374340e+02
  -4.330450e+02   1.923156e+02
  -3.622438e+02  -8.605784e+01
  -1.027987e+02  -2.488082e+02
   1.309272e+02  -2.451500e+02
   8.083261e+01  -4.177398e+01
  -1.040498e+02   1.131316e+02
  -1.613672e+02  -6.908861e+00
  -6.053080e+01  -1.734561e+02
   1.488725e+02  -1.463808e+02
   2.284197e+02   2.870114e+01
  -1.572111e+01   2.046355e+02
  -1.998292e+02   1.774911e+01
  -1.730865e+02  -2.588667e+02
   5.817319e+01  -4.103019e+02
   2.532558e+02  -2.180831e+02
   3.390010e+02   4.454645e+01
   2.661523e+02   2.309040e+02
   8.352995e+01   2.388083e+02
  -1.052351e+02   1.932160e+02
  -1.645143e+02   5.830069e+01
  -4.144589e+01  -3.453360e+01
   7.393923e+01   5.206195e+01
   7.361877e+00   1.005550e+02
  -1.607016e+02   1.005645e+02
  -1.530802e+02  -1.742590e+01
  -4.752897e+01  -5.859822e+01
   7.101815e+01  -4.591512e+01
   5.838454e+01   6.997091e+01
  -1.053331e+02   9.259568e+01
  -3.121337e+02  -2.635643e+01
  -2.942577e+02  -1.144934e+02
  -8.731527e+01  -2.487302e+02
   2.093951e+02  -2.177929e+02
   3.339630e+02  -1.042751e+02
   2.058520e+02   4.827094e+01
  -2.305672e+01   1.259096e+02
  -9.736146e+01   2.803167e+00
   4.456660e+01  -1.039964e+02
   1.684514e+02  -9.494732e+01
   2.425385e+02   1.090252e+02
   7.989055e+01   2.488452e+02
  -1.057244e+02   1.135141e+02
  -1.540606e+02  -3.405923e+00
  -6.782386e+01  -3.281441e+01
   2.791439e+01  -1.580374e+01
   2.891166e+01   1.104277e+02
  -7.043356e+01   1.452126e+02
  -2.201478e+02   3.754892e+01
  -1.954125e+02  -1.388981e+02
  -2.722856e+01  -2.047136e+02
   1.573708e+02  -1.974815e+02
   2.187297e+02  -1.083724e+01
   8.281999e+01   1.307741e+02
  -7.475382e+01   9.108783e+01
  -9.398836e+01   3.304956e+01
  -2.525916e+01  -6.445014e+00
   3.580595e+01  -2.180214e+01
  -3.215194e+01  -6.164432e+00
  -5.285835e+01  -4.312082e+00
  -1.311321e+02  -7.717414e+01
  -1.376708e+01  -1.479916e+02
   1.251663e+02  -1.638673e+02
   2.844684e+02  -3.102075e+01
   2.401199e+02   1.297881e+02
   6.332162e+01   2.738003e+02
  -1.399180e+02   1.900437e+02
  -1.329195e+02   4.438350e+01
  -9.190081e+01  -3.576374e+01
  -1.897429e+01  -4.991854e+01
  -6.314654e+01   1.449192e+01
  -1.160166e+02   2.615577e+01
  -3.568099e+01  -5.709707e+01
   1.846805e+01  -1.099553e+02
   1.323568e+02  -3.400882e+01
   7.806644e+01   6.628379e+01
  -4.242686e+01   1.239731e+02
  -1.974572e+02   8.682719e+01
  -1.977059e+02  -8.888358e+01
  -9.941763e+01  -2.334393e+02
   1.464844e+02  -2.367016e+02
   2.717721e+02  -1.005384e+02
   2.672165e+02   6.916860e+01
   6.152061e+01   1.707841e+02
  -3.934518e+01   1.632261e+02
  -6.544122e+01   1.245924e+02
  -6.689349e+01   8.630064e+01
  -9.022980e+01   8.157716e+01
  -6.848030e+01   6.128493e+01
  -1.151025e+02  -2.257793e+01
  -1.083567e+02  -1.769491e+02
  -3.743103e+01  -2.593565e+02
   9.594792e+01  -1.837581e+02
   1.762420e+02   1.904363e+00
   1.352993e+02   9.477725e+01
   1.555616e+01   1.592389e+02
  -8.837283e+01   1.029093e+02
  -6.229408e+01  -2.619387e+01
   6.338624e+00  -5.155555e+01
   3.438172e+01  -5.631273e+01
  -2.749453e+01  -3.081802e+01
  -8.228093e+01  -2.292774e+01
  -3.359407e+01  -3.461422e+01
   7.363775e+01  -3.872385e+01
   2.061888e+02   7.126968e+00
   1.075509e+02   5.051973e+01
   8.914017e+00   9.387465e+01
  -1.002642e+02   8.337628e+01
  -1.420433e+02  -2.925931e+00
  -6.796598e+01  -5.285345e+01
   4.314111e+01  -2.492558e+01
   8.696047e+01  -1.919479e-01
   3.837202e+01   5.621014e+01
  -3.647680e+01   5.191748e+01
  -5.887157e+01  -2.932956e+01
  -2.107929e+01  -1.879076e+01
  -6.839983e+01  -6.310839e+01
  -6.150049e+01  -2.404912e+01
  -7.083629e+01  -1.875835e+01
  -4.791799e+01  -7.682455e+01
   6.378658e+01  -1.787339e+02
   1.473201e+02  -1.312963e+02
   1.704299e+02  -5.729569e+00
   1.316269e+02   1.022219e+02
   2.758258e+00   1.217924e+02
  -7.570058e+01   3.998950e+01
  -6.498108e+01  -4.476208e+00
   6.991988e+01  -2.620719e+01
   1.848342e+02   2.347052e+01
   6.136584e+01   1.033632e+02
  -6.007542e+01   9.909184e+01
  -2.046142e+02   6.490547e+01
  -1.561298e+02  -5.228964e+01
  -3.488176e+01  -1.126162e+02
   8.163463e+01  -1.025898e+02
   6.907152e+01  -9.336477e+00
   2.459561e+00   4.822063e+01
  -8.288018e+01  -2.674328e+01
  -5.959891e+01  -1.616176e+02
   9.377367e+01  -1.526949e+02
   1.551980e+02  -6.773413e+01
   1.389364e+02   1.211271e+02
   8.907011e+00   2.163983e+02
  -5.606095e+01   1.514903e+02
  -1.034828e+02  -3.894179e+01
  -8.702787e+01  -1.175842e+02
   1.916540e+01  -1.054412e+02
   3.878556e+01  -3.101920e+01
   4.956636e+01   4.070805e+01
   4.585281e+01   9.148591e+00
  -7.811153e+00  -1.940285e+01
   1.550640e+01   5.231033e+01
   6.105363e+01   1.031397e+02
   3.041081e+01   1.091382e+02
  -7.024506e+01   7.180177e+01
  -1.706989e+02  -4.013526e+01
  -1.426917e+02  -5.435872e+01
  -8.911444e+00  -7.856058e+00
   9.202280e+01  -2.868056e+01
   1.123855e+02  -1.446025e+01
   3.049920e+00   1.159407e+01
  -4.126429e+01   3.657526e+01
  -2.252069e+01   2.073996e+01
   1.940608e+01  -1.395334e+01
   3.984188e+00   1.511716e+00
  -9.887075e+01  -1.098549e+00
  -1.010337e+02  -3.485213e+01
  -2.703944e+01  -9.856399e+01
   1.084829e+02  -1.110118e+02
   2.012949e+02  -7.338921e+01
   1.350580e+02   8.568347e+01
   3.960889e+01   1.827879e+02
  -9.035439e+01   1.745522e+02
  -1.294710e+02   4.732306e+01
  -1.070344e+02  -2.467574e+01
   4.833155e-01  -6.216106e+01
  -6.269384e+00   1.747239e+00
  -2.941878e+01  -9.004023e+00
  -2.110898e+01  -6.067239e+01
  -8.007331e+00  -9.871820e+01
   3.697121e+01  -6.691526e+01
   9.558777e+01   4.888245e+01
   1.035185e+02   1.036749e+02
  -4.337591e+00   9.634095e+01
  -1.062185e+02   2.333111e+01
  -1.099664e+02  -5.082239e+01
  -3.197341e+01  -1.296505e+02
   7.487543e+01  -7.955157e+01
   1.045000e+02   4.024142e+01
   5.944842e+01   5.148183e+01
  -3.988441e+01   6.591374e+01
  -5.592157e+01   1.251915e+01
   2.857781e+01  -1.020785e+01
   9.208505e+01  -7.066678e+00
   1.067103e+01   2.120384e+01
  -1.140814e+02   7.667729e+01
  -1.221365e+02   4.193350e+01
  -8.622796e+01  -2.057537e+01
   1.020661e+01  -7.347644e+01
   4.467748e+01  -4.215006e+01
   2.361420e+01   6.822998e-02
   5.176303e+00   6.063486e+01
  -1.959415e+01   4.720622e+01
  -2.605346e+01  -7.064222e+00
  -1.609930e+01  -5.097768e+01
   5.271527e+00  -3.373618e+01
   3.889118e+01  -1.683305e+01
   3.587844e+01   2.733731e+01
   5.311178e+01   2.772224e+00
   1.044054e+01  -5.787684e+01
   1.328081e+01   2.371519e+01
  -1.052031e+01   4.815756e+01
  -1.658488e+01   2.103591e+01
  -1.727913e+01   2.445625e+01
  -3.013712e+01  -5.278833e+01
   2.924745e+00  -6.272293e+01
   5.025938e+01  -3.864413e+01
   5.535035e+01   4.653385e+01
  -1.721016e+01   5.557119e+01
  -2.794434e+01   4.834889e+00
  -1.265126e+02  -3.681464e+01
  -5.387569e+01  -4.046951e+01
   2.064510e+01  -6.202763e+01
   5.181773e+01  -1.983101e+01
  -2.343478e+00  -9.072843e+00
  -3.831782e+01  -1.698833e+00
  -5.965643e+01  -2.367616e+01
   2.685472e+01  -2.639436e+01
   8.534317e+01  -2.120637e+01
