
 $NMID
 id='ANONYMOUS ', fmtdat='(2E16.6)'
 volume=1.0
 tramp=1.0
 $END
   3.695380e+03   3.275675e+01
   2.022601e+03   2.151163e+03
  -3.206753e+02   2.383002e+03
  -1.858830e+03   1.809608e+03
  -1.030294e+03  -3.846669e+02
   2.424006e+02  -6.728029e+02
   6.137949e+02   3.045085e+01
   1.942917e+02   7.027612e+02
  -6.293230e+02   7.363209e+02
  -7.088391e+02   8.053324e+01
  -5.319828e+02  -6.078000e+02
   8.897236e+01  -9.317935e+02
   4.897994e+02  -3.068537e+02
   2.602800e+02   5.599821e+02
  -1.602269e+02   7.174762e+02
  -4.182891e+02   3.652959e+01
  -2.864479e+02  -5.592152e+02
   1.542769e+02  -6.222987e+02
   6.378724e+02  -1.594990e+02
   4.456165e+02   2.073459e+02
   8.699368e+01   3.744323e+02
  -1.476388e+02   2.560032e+02
  -9.964635e+01   7.997211e+01
   9.467808e+01   2.267829e+01
   2.818038e+02   1.907711e+02
   9.170616e+01   3.394411e+02
  -4.057536e+02   2.227618e+02
  -5.757852e+02  -1.162001e+02
  -2.937339e+02  -3.939840e+02
   2.965513e+02  -3.089831e+02
   6.609434e+02   7.040849e+01
   2.744980e+02   3.904429e+02
  -1.261136e+02   3.858815e+02
  -4.572614e+02   1.636925e+02
  -3.869247e+02  -1.948675e+02
  -4.093066e+01  -2.821761e+02
   8.320576e+01  -2.521867e+02
   8.748355e+01   6.780109e+01
  -1.502609e+02   3.168853e+02
  -2.388802e+02  -3.820834e+01
  -8.441995e+01  -4.727506e+02
   1.600401e+02  -7.151262e+02
   5.008069e+02  -1.817701e+02
   2.974293e+02   3.530433e+02
  -1.217096e+02   2.810101e+02
  -2.116498e+02  -2.750011e+02
   4.942347e+01  -4.432949e+02
   4.886707e+02  -1.388551e+02
   4.802892e+02   3.662321e+02
   2.718017e+02   4.967550e+02
  -3.174521e+02   2.949850e+02
  -6.122398e+02  -5.647440e+01
  -3.519074e+02  -3.097077e+02
   5.892935e+01  -3.209917e+02
   4.081755e+02  -1.542682e+02
   2.793180e+02   1.169596e+02
  -1.279491e+01   8.930248e+01
  -1.014603e+02  -1.097397e+02
   1.514301e+02  -1.120823e+02
   2.088809e+02   1.967806e+01
   1.953725e+02   2.918387e+02
  -1.698793e+02   2.321854e+02
  -3.538269e+02   1.055677e+02
  -1.801122e+02  -1.139578e+02
   4.893055e+01  -2.470964e+02
   2.953313e+02  -3.232470e+02
   3.468261e+02  -1.765232e+02
   2.694349e+02   1.030914e+02
   9.321469e+01   3.743546e+02
  -5.944611e+01   3.813832e+02
  -6.904321e+01   1.751999e+02
  -7.168002e+01   7.402851e+01
  -1.200231e+02   6.900613e+01
  -2.065032e+02   8.803832e+01
  -2.180744e+02  -4.886246e+01
  -1.242017e+02  -2.569158e+02
   3.510895e+01  -2.297591e+02
   1.938637e+02   1.893767e+01
   1.627876e+02   2.370489e+02
  -1.930987e+01   2.630664e+02
  -2.582159e+02   1.076771e+02
  -2.953909e+02  -1.609338e+02
  -1.398433e+02  -2.274317e+02
   8.356056e+01  -2.805592e+02
   1.972437e+02  -1.487781e+02
   1.764261e+02  -3.864004e+01
   1.244280e+02  -1.699498e+01
   2.504754e+02  -3.887863e+01
   4.071737e+02   4.962964e+01
   2.410955e+02   2.978256e+02
   5.362562e+01   4.145960e+02
  -3.239893e+02   4.634494e+02
  -4.326527e+02   2.290206e+02
  -2.292134e+02  -6.708880e+01
  -3.400288e+01  -2.332457e+02
   1.350276e+02  -2.032693e+02
   7.986887e+01  -4.210849e+01
  -1.105825e+02   5.669116e+01
  -1.400172e+02  -2.000556e+00
  -1.919615e+01  -1.530194e+02
   9.586568e+01  -1.497217e+02
   1.115991e+02   4.485706e+01
   7.910770e-01   1.455745e+02
  -1.705074e+02   3.999467e+01
  -1.555442e+02  -2.168618e+02
   3.685932e+01  -3.223416e+02
   2.524318e+02  -1.777360e+02
   3.224572e+02   5.090254e+01
   2.588066e+02   2.679694e+02
   6.703070e+01   2.734194e+02
  -9.628731e+01   1.681569e+02
  -1.464786e+02   7.539655e+00
  -4.843141e+01   3.283859e+00
   4.746848e+01   4.165569e+01
   3.716915e+01   9.630641e+01
  -1.215335e+02   6.517738e+01
  -1.316128e+02  -1.078533e+01
  -5.374702e+01  -5.634985e+01
   2.906942e+01  -1.339040e+01
   1.830155e+01   7.794206e+01
  -1.454704e+02   6.108045e+01
  -2.571698e+02  -5.301984e+01
  -3.023267e+02  -1.037203e+02
  -3.659052e+01  -2.345110e+02
   1.686834e+02  -1.871722e+02
   2.408306e+02  -1.004053e+02
   1.301596e+02   2.371364e+01
  -3.418783e+01   6.490166e+01
  -6.243189e+01  -1.174310e+01
   3.594020e+01  -6.912021e+01
   1.369586e+02  -7.764758e+01
   2.166755e+02   1.188017e+02
   6.357735e+01   1.652839e+02
  -9.511703e+01   1.477704e+02
  -1.493923e+02   2.060736e+01
  -6.471400e+01  -3.606993e+01
   2.963870e+01   1.452575e+01
   9.829210e+00   1.007814e+02
  -8.550642e+01   1.063706e+02
  -1.750185e+02  -8.776156e+00
  -1.346587e+02  -1.222867e+02
   8.807596e+00  -2.316246e+02
   1.479328e+02  -1.185670e+02
   1.666733e+02  -5.940531e+01
   7.945409e+01   8.487297e+01
  -4.302287e+01   9.748567e+01
  -1.025345e+02   4.136058e+01
   2.863453e+00  -1.837565e+01
   3.335234e+01  -5.169295e+00
  -3.036784e+01   6.072064e+00
  -1.079262e+02  -1.383370e+01
  -1.209969e+02  -8.044597e+01
  -4.869811e+00  -1.652640e+02
   1.484415e+02  -1.753950e+02
   2.280737e+02  -3.561366e+01
   1.529973e+02   8.742911e+01
   2.405054e+01   2.414963e+02
  -1.336869e+02   1.467269e+02
  -1.216554e+02   4.142929e+01
  -6.958513e+01  -5.158551e+01
  -4.364200e+01  -3.032187e+01
  -7.568111e+01   2.560590e+01
  -9.329736e+01   6.194938e+00
  -4.015237e+01  -6.145164e+01
   4.356177e+01  -5.947762e+01
   1.306243e+02  -5.845822e+01
   1.000559e+02   4.130988e+01
  -3.932071e+01   1.067998e+02
  -1.437129e+02   8.072596e+01
  -1.724517e+02  -7.056113e+01
  -9.345975e+01  -2.109042e+02
   1.312632e+02  -2.018718e+02
   2.237563e+02  -6.259231e+01
   2.397719e+02   8.187636e+01
   8.677354e+01   1.502797e+02
  -3.746179e+01   1.022066e+02
  -1.428050e+02   9.902737e+01
  -4.108982e+01   6.794077e+01
  -6.248544e+01   1.178481e+02
  -1.066156e+02   6.241601e+01
  -1.036102e+02  -2.423537e+01
  -9.196587e+01  -1.705053e+02
  -2.050680e+01  -2.044168e+02
   1.230929e+02  -1.510571e+02
   1.780457e+02  -1.573392e+01
   1.504805e+02   1.260453e+02
  -8.897750e+00   1.528819e+02
  -7.047052e+01   1.037633e+02
  -5.212957e+01   2.276892e+00
  -7.162583e+00  -2.175658e+01
   1.947821e+00  -2.574429e+01
  -2.783007e+01  -2.907839e+01
  -8.460515e+01  -5.578568e+00
  -8.133505e+01  -5.573546e+01
   7.977833e+01  -6.404621e+01
   1.520296e+02   2.286902e+00
   1.407785e+02   3.654689e+01
  -2.036134e+01   1.173270e+02
  -1.088210e+02   5.991846e+01
  -1.327784e+02   1.366714e+01
  -5.911613e+01  -7.771972e+01
   4.045089e+01  -4.778190e+01
   7.198147e+01   2.662117e+01
   7.302931e+00   8.870625e+01
  -3.017181e+01   7.384493e+01
  -6.350413e+01   6.101667e+00
  -1.726060e+01  -5.758195e+01
  -7.433661e+01  -4.252910e+01
  -4.027724e+01  -2.547619e+01
  -5.603995e+01   4.970016e+01
  -1.951547e+01  -4.982380e+01
   9.693453e+00  -1.469504e+02
   1.186213e+02  -1.414962e+02
   1.997002e+02  -3.728659e+01
   1.019889e+02   1.027942e+02
  -1.528022e+01   1.249725e+02
  -8.452032e+01   4.448441e+01
  -5.314134e+01  -5.380473e+00
   5.867118e+01   1.114074e+01
   1.296531e+02   2.296603e+01
   6.850446e+01   7.731783e+01
  -9.456770e+01   9.355166e+01
  -1.853522e+02   4.013064e+01
  -1.369409e+02  -3.032061e+01
  -2.705464e+01  -7.530956e+01
   6.537393e+01  -5.283139e+01
   4.519353e+01  -1.109493e+01
  -4.482579e+01   2.392502e+01
  -6.760974e+01  -3.949241e+01
  -1.897054e+01  -1.164067e+02
   8.556299e+01  -1.519266e+02
   1.505982e+02  -9.154628e+01
   1.495756e+02   9.365137e+01
  -1.952749e+01   1.691546e+02
  -7.158729e+01   1.433146e+02
  -9.980840e+01  -2.420796e+01
  -6.092059e+01  -1.231966e+02
   1.350578e+01  -1.296468e+02
   4.661254e+01   8.442675e+00
   4.342153e+01   2.985238e+01
   1.376541e+01  -7.631129e+00
   3.429705e+01  -1.929846e+01
   5.629457e+01   1.171808e+01
   7.874183e+01   9.806465e+01
   2.253792e+01   1.134565e+02
  -5.791681e+01   2.480920e+01
  -1.562072e+02  -4.023469e+01
  -1.255133e+02  -5.177765e+01
  -1.659965e+01  -2.990254e+01
   9.721906e+01  -2.508611e+01
   9.591547e+01   5.179773e+00
   3.137138e+01   5.210658e-01
  -3.759866e+01   5.289573e+01
  -2.932645e+01  -8.096847e+00
   2.685351e+01   1.160789e+01
  -6.230391e+00  -1.424500e+01
  -5.260597e+01   7.151191e+00
  -9.142760e+01  -1.097054e+01
  -1.366110e+01  -7.192007e+01
   9.136119e+01  -9.320144e+01
   2.042197e+02  -4.901984e+01
   1.514691e+02   7.134437e+01
   4.300230e+01   1.459778e+02
  -3.481407e+01   1.624269e+02
  -7.985487e+01   6.505602e+01
  -6.246774e+01  -2.744949e+01
  -1.234106e+01  -4.419940e+01
  -3.458917e+01  -2.257279e-01
  -4.886455e+00  -1.347959e+01
  -3.289018e+01  -4.782084e+01
  -3.523154e+01  -9.470501e+01
   1.210078e+01  -8.424444e+01
   8.410213e+01  -1.734328e+01
   1.037938e+02   8.431343e+01
   3.420681e+00   1.168663e+02
  -7.306726e+01   3.443893e+01
  -1.002590e+02  -5.508911e+01
  -2.185777e+01  -8.661050e+01
   9.882109e+01  -6.053412e+01
   8.762263e+01  -1.218349e+01
   2.958294e+01   5.076868e+01
  -2.447084e+01   6.602058e+01
  -4.246179e+01   2.082208e+00
   3.382601e+01   1.911683e+01
   7.024341e+01  -1.071836e+01
   1.735650e+00   1.933115e+01
  -7.372451e+01   6.858056e+01
  -1.194664e+02   2.939112e+01
  -6.109830e+01  -2.569894e+01
   4.570669e+00  -7.389133e+01
   6.624787e+01  -8.553781e+01
   3.451037e+01  -9.489429e+00
  -1.859912e+01   6.607858e+01
  -4.979185e+01   5.440065e+01
  -2.488004e+01  -2.606735e+01
  -2.129443e+01  -7.265118e+01
   2.643143e+00  -4.241460e+01
   2.641946e+01  -7.170041e+00
   5.457890e+01   2.219971e+01
   1.036555e+01  -1.037529e+01
   4.876992e+00  -3.900301e-02
   6.697326e-02   2.187940e+01
  -3.315520e+01   1.398798e+01
  -3.697774e+01   5.636954e+01
  -4.158801e+01   3.526061e+01
  -6.491278e+01  -5.729154e+01
   1.564112e+01  -7.704941e+01
   2.637371e+01  -2.475588e+01
   3.580185e+01   4.188366e+01
   2.245589e+00   3.405505e+01
  -4.689807e+01   2.769926e+01
  -1.076282e+02  -1.351397e+01
  -5.024497e+01  -3.188264e+01
   3.191066e+01  -7.518904e+00
   6.974431e+01  -3.236565e+01
   2.276050e+01  -2.302974e+00
  -2.541882e+00   7.568299e+00
  -4.414793e+01  -1.468659e+01
   3.233791e+01  -4.383285e+01
   6.400276e+01  -1.029043e+01
