
 $NMID
 id='ANONYMOUS ', fmtdat='(2E16.6)'
 volume=1.0
 tramp=1.0
 $END
  -4.684619e+03   8.608797e+01
  -3.112075e+03  -2.776100e+03
   5.303205e+02  -2.816508e+03
   2.104772e+03  -9.450675e+02
   9.340512e+02   6.021137e+02
  -5.688256e+02   6.092341e+02
  -9.997410e+02  -3.651878e+02
   1.082334e+02  -1.258957e+03
   7.810679e+02  -9.599627e+02
   1.081691e+03   5.226179e+01
   4.111050e+02   8.876487e+02
  -2.022403e+02   1.003018e+03
  -6.912454e+02   1.782490e+02
  -5.073176e+02  -7.840047e+02
   3.245374e+02  -8.464246e+02
   7.415473e+02   3.533621e+00
   3.378335e+02   7.502842e+02
  -3.696195e+02   6.491261e+02
  -6.607001e+02   8.658563e+01
  -4.508443e+02  -4.444753e+02
  -5.059001e+01  -4.112829e+02
   2.561168e+02  -2.892538e+02
   2.284401e+02  -2.231953e+01
  -1.085137e+02   8.864995e+01
  -3.940907e+02  -1.410864e+02
  -2.861687e+02  -4.413241e+02
   5.021592e+02  -4.167196e+02
   8.763581e+02   1.693854e+02
   4.308340e+02   7.009806e+02
  -3.724984e+02   5.068237e+02
  -7.376884e+02   6.089454e+01
  -3.997040e+02  -4.716799e+02
   3.388907e+02  -5.069586e+02
   5.646212e+02  -1.716578e+02
   3.675513e+02   2.129221e+02
   7.423044e+01   5.484114e+02
  -1.965107e+02   2.825597e+02
  -1.992784e+02  -1.791844e+02
   1.592284e+02  -4.764931e+02
   4.062197e+02  -1.174849e+01
   2.357782e+02   7.346601e+02
  -2.780060e+02   6.922227e+02
  -5.606429e+02  -9.518872e+00
  -3.164269e+02  -6.131275e+02
   3.175191e+02  -3.761293e+02
   4.389641e+02   3.379805e+02
  -8.504005e+01   5.717920e+02
  -5.719898e+02   1.694656e+02
  -5.828342e+02  -4.070474e+02
  -1.579005e+02  -6.065671e+02
   3.964317e+02  -3.533157e+02
   5.975864e+02   4.668015e+01
   3.700463e+02   3.870207e+02
  -1.347016e+02   3.811197e+02
  -4.610141e+02   7.103823e+01
  -2.817614e+02  -2.139409e+02
   1.348853e+02  -9.621540e+01
   1.773354e+02   1.772297e+02
  -2.111004e+02   2.562985e+02
  -4.040239e+02  -7.732799e+01
  -1.365996e+02  -3.043278e+02
   2.336750e+02  -3.173686e+02
   3.333236e+02  -1.208371e+02
   1.878543e+02   6.356910e+01
  -9.518873e+01   2.371150e+02
  -2.331722e+02   3.109302e+02
  -3.277742e+02   2.465820e+02
  -3.244023e+02  -1.064227e+02
  -6.181947e+01  -4.769485e+02
   1.213383e+02  -4.460717e+02
   1.012716e+02  -1.339959e+02
   3.333927e+01  -7.948258e+00
   7.596051e+01  -1.203407e+02
   2.112403e+02  -1.373416e+02
   2.836670e+02   4.590308e+01
   2.211773e+02   2.667496e+02
  -1.018073e+02   2.710806e+02
  -2.488510e+02  -6.058624e-01
  -2.222659e+02  -2.406044e+02
   3.165148e+01  -3.070161e+02
   2.669849e+02  -1.510558e+02
   3.671632e+02   2.337267e+02
   1.993592e+02   3.824872e+02
  -1.238743e+02   3.123982e+02
  -2.759907e+02   1.295061e+02
  -1.925172e+02   2.530840e+01
  -1.139286e+02   1.245243e+01
  -2.182781e+02   6.502433e+01
  -4.003447e+02  -5.512663e+01
  -3.212054e+02  -2.894452e+02
   2.152363e+01  -4.381329e+02
   4.221352e+02  -3.493924e+02
   5.086186e+02  -2.146078e+02
   3.719544e+02   1.203944e+02
   4.271081e+01   3.174139e+02
  -1.271293e+02   2.897510e+02
  -9.236428e+01   4.127331e+01
   1.081346e+02  -1.233802e+02
   1.927788e+02  -2.675020e+01
   2.301115e+01   2.551941e+02
  -1.911245e+02   1.691542e+02
  -1.866525e+02  -2.602466e+01
   4.408448e+01  -2.202451e+02
   2.034666e+02  -3.366074e+01
   1.632118e+02   2.800480e+02
  -4.639923e+01   3.791659e+02
  -2.412903e+02   2.564340e+02
  -3.639791e+02  -8.370472e+01
  -2.987509e+02  -2.531998e+02
  -9.402531e+01  -2.524645e+02
   1.202365e+02  -1.801522e+02
   2.048234e+02  -2.533969e+01
   3.535532e+01   2.943506e+01
  -8.172994e+01  -4.924502e+01
  -5.672080e+01  -1.093187e+02
   1.475129e+02  -7.766710e+01
   1.893616e+02  -1.054303e+01
   8.657297e+01   7.252631e+01
  -8.874018e+01   4.138262e+01
  -5.630955e+01  -6.857806e+01
   1.444017e+02  -1.018567e+02
   2.994925e+02  -6.186541e-01
   3.071215e+02   1.754241e+02
   8.784329e+01   2.698777e+02
  -1.961522e+02   2.699824e+02
  -3.385146e+02   1.344181e+02
  -2.020107e+02  -7.192050e+01
   8.924030e+00  -1.043711e+02
   6.885613e+01  -9.388224e+00
  -4.522616e+01   8.381312e+01
  -1.540468e+02   6.976273e+01
  -2.137964e+02  -8.606779e+01
  -7.944127e+01  -2.273691e+02
   9.654780e+01  -1.428969e+02
   1.238005e+02  -1.656273e+01
   6.737837e+01   5.009874e+01
  -1.201219e+01   1.297750e+01
  -5.018140e+01  -7.984001e+01
   4.145734e+01  -9.259175e+01
   2.305120e+02  -4.100973e+01
   1.962415e+02   1.218486e+02
   2.514550e+01   2.183339e+02
  -1.693350e+02   1.661553e+02
  -2.015128e+02   3.082385e+01
  -6.224901e+01  -1.049929e+02
   5.435288e+01  -9.407582e+01
   8.081447e+01  -1.704414e+01
   3.791372e+01   3.361410e+01
  -3.659281e+01   1.605960e+01
   4.624854e+01  -2.024760e+01
   6.514967e+01   5.337573e+00
   5.155829e+01   6.724354e+01
   5.019678e+01   1.588795e+02
  -1.219153e+02   1.456316e+02
  -2.546569e+02  -2.212737e+00
  -2.128127e+02  -1.678858e+02
  -7.968505e+01  -2.543286e+02
   1.241123e+02  -1.980598e+02
   1.464176e+02  -4.357043e+01
   9.226698e+01   4.749949e+01
   1.809065e+01   4.180335e+01
   6.271652e+01  -4.290483e+01
   8.697117e+01   1.620799e+01
   5.201954e+01   4.474375e+01
  -6.567733e+01   8.398696e+01
  -9.061187e+01   4.007216e+01
  -8.925632e+01  -3.633672e+01
   1.319916e+01  -1.202564e+02
   1.419729e+02  -8.083178e+01
   2.059402e+02   3.749356e+01
   8.673536e+01   2.356552e+02
  -8.041790e+01   2.753791e+02
  -2.956736e+02   1.117366e+02
  -2.540489e+02  -8.395658e+01
  -8.838423e+01  -1.872296e+02
   4.788892e+01  -1.745729e+02
   1.178125e+02  -7.015091e+01
   7.295998e+01  -8.477635e+01
   6.751332e+01  -9.730826e+01
   9.580472e+01  -7.458421e+01
   1.125819e+02   3.718109e+01
   1.339323e+02   1.644809e+02
   3.893251e+01   2.538818e+02
  -9.109239e+01   2.046894e+02
  -1.821073e+02   4.795686e+01
  -1.841849e+02  -1.048633e+02
  -1.967585e+01  -1.464914e+02
   9.399938e+01  -1.136739e+02
   7.896582e+01   4.263471e+00
   3.665703e+00   3.905995e+01
  -1.992557e+01   5.444624e+01
   4.863072e+01   1.143126e+01
   7.718143e+01   4.022899e+01
   6.326695e+01   3.488598e+01
  -6.038861e+01   5.218692e+01
  -1.685579e+02  -6.066579e-01
  -1.511955e+02  -5.564825e+01
   1.374867e+01  -9.049491e+01
   1.242769e+02  -8.396108e+01
   1.711317e+02   6.379637e+00
   5.310342e+01   3.564892e+01
  -6.580395e+01   1.926788e+01
  -7.299226e+01   5.935726e+00
  -3.947178e+01  -4.982110e+01
   6.059699e+01  -5.340449e+01
   7.953757e+01   2.085171e+01
   5.320657e+01   5.171173e+01
   1.715881e+01   5.970720e+01
   4.052253e+01   8.893764e+00
   9.218100e+01   1.325272e+01
   2.125096e+01   6.420469e+01
  -4.978680e+01   1.526832e+02
  -1.058023e+02   1.733853e+02
  -1.767590e+02  -1.319541e-01
  -1.403522e+02  -8.698538e+01
   3.657584e+00  -1.276850e+02
   8.668795e+01  -7.780323e+01
   5.606724e+01  -9.538661e+00
  -4.276981e+01  -2.385015e+00
  -1.449624e+02  -5.661551e+01
  -8.715261e+01  -8.834125e+01
   8.155873e+01  -1.118019e+02
   2.023599e+02  -3.009028e+01
   1.626560e+02   3.915107e+01
   4.348197e+01   7.216233e+01
  -6.548008e+01   5.067264e+01
  -3.500640e+01   1.123972e+01
   1.445597e+01  -2.602339e+01
   6.634341e+01   1.303328e+01
   6.634138e+01   1.146750e+02
  -6.827839e+01   1.434449e+02
  -1.338044e+02   3.555723e+01
  -1.613152e+02  -9.291536e+01
  -2.102947e+01  -2.137189e+02
   9.385459e+01  -1.284019e+02
   1.115847e+02  -3.158285e+00
   6.612025e+01   1.454579e+02
  -3.628713e+00   1.141635e+02
  -4.863145e+01   4.850155e+01
  -5.922772e+01  -3.752713e+01
  -3.858732e+01  -5.490629e+00
  -1.125199e+01   3.620039e+01
  -2.991752e+01  -9.779491e-01
  -3.035754e+01  -7.822097e+01
  -6.495492e+01  -1.241461e+02
   6.201906e+01  -5.247876e+01
   1.523198e+02   4.657549e+01
   1.475655e+02   1.201159e+02
   2.893961e+01   3.370647e+01
  -9.071184e+01   3.239111e+01
  -9.582032e+01  -1.306163e+01
  -1.032339e+01  -6.808102e+00
   3.951858e+01  -3.881481e+01
   1.915872e+01  -4.039191e+01
  -1.663521e+01  -2.318656e+01
  -2.047978e+00   1.996685e+01
   6.915780e+01  -9.444848e+00
   9.640971e+01   3.777823e+01
   3.385208e+01   1.157924e+02
  -1.639724e+02   1.435591e+02
  -2.153256e+02   7.782707e+01
  -1.395128e+02  -4.970413e+01
  -2.602448e+01  -1.324462e+02
   6.112350e+01  -1.472751e+02
   1.416910e+02  -5.657268e+01
   1.138555e+02   1.500261e+01
   4.686524e+01   4.155409e+01
  -1.802635e+01   2.623161e+01
  -3.785841e+00  -1.341653e+01
   5.041697e-01   3.909261e+01
  -2.374688e+00   6.423465e+01
  -2.588442e+01   6.175982e+01
  -1.046517e+02  -2.494145e+01
  -6.355058e+01  -1.075036e+02
   3.365821e+01  -1.275416e+02
   9.497043e+01  -7.341719e+00
   7.618314e+01   6.830101e+01
   2.569137e+01   1.503220e+02
  -9.610382e+01   6.069518e+01
  -1.298317e+02   1.110553e+01
  -6.692357e+01  -6.927294e+01
   5.103061e+01  -4.246237e+01
   2.800646e+01  -2.839538e+01
  -5.447169e+01  -1.243669e+01
  -8.004444e+01   2.300506e+01
   8.887760e+00  -3.436327e+01
   8.757388e+01  -5.485412e+01
   1.045116e+02  -5.477782e+01
   3.748277e+01   2.893502e+01
  -3.739538e+01   9.405218e+01
  -3.303198e+01   8.019990e+01
  -6.379531e+01   2.381538e+01
   1.827187e+01  -8.236991e+01
   2.343099e+01  -4.851563e+01
   4.906757e+01  -5.777338e+00
   3.644393e+01   4.659547e+01
   3.287037e+01   2.519048e+01
  -4.194721e+01  -2.452935e+00
  -9.299495e+00  -3.961661e+01
   1.733641e+01  -2.748605e+01
   6.918445e+00   2.273513e+01
   5.222003e+00   1.160164e+01
   8.373902e+00  -3.586492e+01
   9.852326e+00  -4.557472e+01
   3.678402e+01   9.987329e+00
   3.373593e+00   5.946393e+01
  -1.533681e+01   5.610595e+01
  -4.470103e+01   1.578494e+01
  -9.541280e+01  -4.431434e+01
   2.587043e+01  -5.158156e+01
   6.612994e+01  -4.355127e+01
   1.147869e+02   1.611168e+01
   3.009926e+01   6.237220e+01
  -2.946498e+01   4.766539e+01
  -9.309867e+01   3.416303e+01
  -2.879241e+01   1.878437e+01
   2.335110e+01   6.300147e+00
   4.932967e+01  -2.594653e+01
  -6.214582e+01   1.692493e+01
  -1.132856e+02   2.236757e+01
