
 $NMID
 id='ANONYMOUS ', fmtdat='(2E16.6)'
 volume=1.0
 tramp=1.0
 $END
  -3.643802e+03  -4.911000e+00
  -2.693803e+03  -2.026106e+03
   5.330539e+02  -2.225562e+03
   1.693884e+03  -9.122204e+02
   8.288846e+02   2.652997e+02
  -3.877850e+02   3.390266e+02
  -3.219645e+02  -3.976039e+02
  -6.858757e+01  -8.151769e+02
   6.336363e+02  -5.848458e+02
   8.206218e+02   6.353178e+01
   4.449741e+02   6.079475e+02
  -1.026630e+02   7.613763e+02
  -3.929131e+02   1.190880e+02
  -3.096619e+02  -4.690771e+02
   2.371760e+02  -6.276378e+02
   5.685117e+02   7.369010e-01
   2.925473e+02   5.866798e+02
  -1.901515e+02   5.819227e+02
  -4.266538e+02   2.397302e+02
  -4.393491e+02  -2.569937e+02
  -2.408580e+01  -3.774033e+02
   1.965167e+02  -2.904092e+02
   1.278607e+02  -5.218685e+01
  -1.972009e+02  -1.349221e+01
  -2.888835e+02  -3.098900e+02
  -5.906426e+01  -3.941755e+02
   5.049320e+02  -3.002497e+02
   7.441600e+02   1.623968e+02
   3.370453e+02   3.921204e+02
  -4.234158e+02   3.472367e+02
  -6.157007e+02  -1.227290e+02
  -1.502375e+02  -4.527107e+02
   3.546623e+02  -4.210333e+02
   5.618693e+02  -1.158224e+02
   4.223819e+02   1.786736e+02
   9.770241e+01   4.346867e+02
  -1.483317e+02   2.394532e+02
  -6.240500e+01  -1.152793e+02
   2.248555e+02  -2.381137e+02
   3.216812e+02   1.134414e+02
   1.079915e+02   5.938110e+02
  -3.618222e+02   5.581770e+02
  -4.644824e+02  -6.755201e+01
  -1.918057e+02  -4.163855e+02
   2.259093e+02  -1.795586e+02
   1.686229e+02   2.806206e+02
  -1.476385e+02   4.898484e+02
  -4.257121e+02  -6.455620e+00
  -5.089453e+02  -4.069088e+02
  -1.111112e+02  -5.516895e+02
   3.749205e+02  -3.321042e+02
   5.952866e+02   1.851294e+02
   4.394112e+02   3.297495e+02
  -1.040147e+02   2.383766e+02
  -3.630725e+02   2.058916e+01
  -2.404612e+02  -6.886200e+01
   1.057696e+01  -6.755615e+01
   5.376685e+01   9.690929e+01
  -1.292076e+02   1.146955e+02
  -2.609750e+02  -6.220189e+01
  -1.631203e+02  -2.204553e+02
   1.857286e+02  -2.698926e+02
   3.334980e+02  -1.139413e+02
   2.734100e+02   3.856537e+01
  -5.911559e+01   2.832073e+02
  -2.777221e+02   3.542862e+02
  -3.201860e+02   1.332707e+02
  -2.420695e+02  -1.516308e+02
  -6.343506e+01  -4.067404e+02
   3.204234e+01  -3.149374e+02
   2.635079e+01  -1.620535e+02
  -2.004295e+01  -7.265165e+01
   9.984401e+01  -1.292075e+02
   2.519545e+02  -8.804178e+01
   2.457928e+02   9.643936e+01
   9.873583e+01   2.977190e+02
  -1.354819e+02   1.989950e+02
  -1.865159e+02  -2.833986e+01
  -1.623775e+02  -2.589680e+02
   1.403297e+01  -2.782104e+02
   2.753116e+02  -1.153402e+02
   3.160807e+02   1.965667e+02
   2.367270e+02   3.262022e+02
  -8.796651e+01   2.792590e+02
  -1.776206e+02   1.345258e+02
  -1.506232e+02   4.492148e+01
  -1.477436e+02   4.964021e+01
  -2.820226e+02   4.290293e+01
  -3.920615e+02  -1.368493e+02
  -3.210662e+02  -2.965869e+02
   5.650655e+01  -4.392155e+02
   4.774524e+02  -3.814872e+02
   4.598073e+02  -1.627824e+02
   2.714713e+02   1.013721e+02
   1.845022e+01   2.655889e+02
  -7.277990e+01   2.006047e+02
  -4.851663e+01   2.406867e+00
   1.337645e+02  -9.960433e+01
   1.436996e+02   3.107645e+01
   4.019904e-01   1.519343e+02
  -1.596238e+02   1.432723e+02
  -1.606903e+02  -4.285585e+01
   7.051199e+01  -1.860627e+02
   1.823035e+02  -1.717752e+01
   1.512341e+02   2.432116e+02
  -8.712032e+01   3.326516e+02
  -2.102294e+02   1.833634e+02
  -3.201879e+02  -9.075247e+01
  -2.838043e+02  -2.264477e+02
  -7.492443e+01  -2.925425e+02
   1.246465e+02  -1.352551e+02
   1.885133e+02  -5.122307e+00
   3.325888e+01   1.119547e+00
  -6.879322e+01  -5.125510e+01
   1.324983e+01  -1.252988e+02
   1.282810e+02  -1.207334e+02
   1.516682e+02   4.125889e+01
   3.659262e+00   1.030954e+02
  -7.905951e+01  -3.778254e+00
  -1.519212e+01  -8.594740e+01
   1.282614e+02  -9.088503e+01
   3.034263e+02  -2.966756e+01
   2.502390e+02   1.804482e+02
   3.881369e+01   2.362673e+02
  -1.765566e+02   2.661560e+02
  -2.955871e+02   1.062013e+02
  -1.578667e+02  -3.011054e+01
   3.371302e+01  -1.190065e+02
   8.020298e+01  -3.208105e+00
  -6.199579e+01   1.196414e+02
  -1.818486e+02   1.177249e+01
  -1.658903e+02  -9.811058e+01
  -3.925739e+01  -1.866714e+02
   1.054088e+02  -1.466921e+02
   1.548464e+02  -3.471798e+01
   4.010315e+01   3.160969e+01
  -4.292331e+01  -2.708295e+01
  -1.614758e+01  -9.149540e+01
   6.941012e+01  -1.575638e+02
   1.993378e+02  -4.399945e+01
   2.066488e+02   1.140708e+02
  -5.524558e-01   2.198517e+02
  -1.721378e+02   1.664030e+02
  -1.605424e+02  -5.752441e+00
  -5.238256e+01  -1.146553e+02
   5.393706e+01  -1.017372e+02
   1.057338e+02  -4.128998e+01
   7.219131e+00   3.127112e+01
  -3.642403e+01   5.057506e+00
  -1.013358e+01  -3.000580e+01
   6.747384e+01  -1.198250e+01
   7.875526e+01   1.074072e+02
   1.554138e+01   1.708146e+02
  -1.678479e+02   1.720246e+02
  -2.524936e+02  -2.686439e+00
  -1.922350e+02  -1.640259e+02
  -4.691557e+01  -2.246458e+02
   1.220814e+02  -1.353972e+02
   1.314564e+02   6.504067e+00
   6.392079e+01   4.387851e+01
   2.724851e+01   1.584212e+01
   2.862736e+01  -2.364188e+00
   8.843759e+01  -1.365125e+01
   4.036530e+01   5.360077e+01
  -3.353166e+01   7.405499e+01
  -1.232653e+02   2.361003e+01
  -1.080593e+02  -4.322754e+01
   6.081798e+00  -1.151659e+02
   1.421812e+02  -1.082993e+02
   2.223345e+02   5.768374e+01
   8.348071e+01   2.378285e+02
  -1.456384e+02   1.788479e+02
  -2.552579e+02   3.805573e+01
  -2.425831e+02  -8.567589e+01
  -6.054571e+01  -1.783173e+02
   3.619575e+01  -1.464790e+02
   9.005110e+01  -5.672336e+01
   7.642085e+01  -8.159920e+01
   1.524592e+01  -9.053523e+01
   9.387726e+01  -5.934126e+01
   1.432908e+02   3.856111e+01
   1.034408e+02   1.507701e+02
   6.581512e+01   2.258547e+02
  -1.033425e+02   1.276960e+02
  -1.876763e+02   2.135875e+01
  -1.143225e+02  -1.448713e+02
  -3.326562e+01  -1.462086e+02
   5.406505e+01  -7.731642e+01
   6.237707e+01   8.296100e+00
  -4.258116e+00   5.549008e+01
  -2.949809e+01   2.600825e+01
   4.066899e+01   2.824954e+01
   8.265866e+01   4.306275e+01
   3.105620e+01   3.015105e+01
  -7.718248e+01   2.736699e+01
  -1.881550e+02  -1.242335e+01
  -1.534651e+02  -7.364760e+01
  -7.620021e+00  -1.152822e+02
   1.336672e+02  -6.980106e+01
   1.742730e+02   2.781632e+01
   3.325382e+01   5.912717e+01
  -5.314413e+01   4.548447e+01
  -8.240137e+01  -3.142770e+01
  -1.122098e+01  -7.679732e+01
   2.878711e+01  -6.365052e+01
   3.646000e+01   2.911061e+01
   5.899688e+01   4.859239e+01
   6.462364e+01   3.250937e+01
   5.496030e+01   2.853003e+00
   5.898598e+01   8.327594e+00
   1.008890e+01   7.896207e+01
  -1.110798e-02   1.263265e+02
  -1.175644e+02   1.635309e+02
  -1.936366e+02   1.195107e+01
  -1.105057e+02  -9.281441e+01
   7.783713e+00  -1.477884e+02
   9.432020e+01  -8.707142e+01
   3.949701e+01   6.928096e+00
  -5.454105e+01   4.603559e+01
  -1.395662e+02  -5.560344e+01
  -5.736781e+01  -9.164000e+01
   8.282872e+01  -1.000973e+02
   1.874107e+02  -5.971181e+01
   1.802247e+02   5.353065e+01
   4.431237e+01   8.029267e+01
  -7.147277e+01   6.031870e+01
  -2.848237e+01  -1.707670e+01
   3.838825e+01  -6.548291e+00
   7.586414e+01   2.716558e+01
   3.488037e+01   1.033702e+02
  -8.253796e+01   1.773182e+02
  -1.694640e+02   6.587379e+01
  -1.587817e+02  -1.046448e+02
   3.136498e+00  -1.833313e+02
   9.095546e+01  -1.504921e+02
   1.269704e+02  -4.183497e+00
   3.592853e+01   1.184299e+02
  -1.347818e+01   7.632233e+01
  -3.637463e+01   9.416210e+00
  -3.667734e+01  -3.308866e+01
  -3.639596e+01  -1.350161e+01
  -1.697074e+01   1.937168e+01
  -4.174846e+01  -2.732814e+01
  -5.311339e+01  -9.701179e+01
  -4.162221e+01  -1.247686e+02
   6.662103e+01  -7.124513e+01
   1.648781e+02   6.112415e+01
   1.144180e+02   6.030631e+01
   1.595726e+01   5.308029e+01
  -8.601019e+01  -1.976061e+00
  -5.910464e+01   2.427805e+01
  -1.625461e+01  -3.166878e+00
   1.978207e+01  -1.429038e+01
   4.265924e+01  -1.134382e+01
  -1.495266e+01  -6.053897e+00
   2.526396e+01   2.284656e+01
   8.418416e+01   5.739541e+00
   9.318647e+01   1.900748e+01
   2.262484e+01   8.994394e+01
  -9.239451e+01   1.151088e+02
  -1.690012e+02   6.549846e+01
  -1.681636e+02  -9.532825e+01
  -5.954989e+01  -1.668168e+02
   8.986678e+01  -1.813775e+02
   1.472269e+02  -7.255470e+01
   3.940575e+01   4.412625e+01
   2.931446e+01   5.403060e+01
   3.245400e+01  -4.615765e+00
   1.324560e+01   4.568804e+00
   1.847347e+01   7.305474e+01
   2.314120e+01   8.973649e+01
  -4.600077e+01   5.726502e+01
  -7.822442e+01   1.168113e+01
  -7.370331e+01  -8.860657e+01
   2.423585e+01  -1.308121e+02
   6.196193e+01  -1.681493e+01
   1.007520e+02   6.022239e+01
   2.212207e+01   8.996208e+01
  -4.928882e+01   4.381346e+01
  -1.132233e+02  -4.589665e+00
  -6.369928e+01  -4.063482e+01
   3.952838e+01  -6.227307e+01
   5.087035e+01  -2.487658e+01
  -1.975621e+01  -2.482573e+01
  -7.287022e+01   1.134364e+01
  -2.011281e+01  -1.738785e+01
   7.843566e+01  -6.742476e+01
   1.368663e+02  -5.299705e+01
   7.253339e+01   4.024470e+01
  -2.486293e+01   1.005625e+02
  -6.473530e+01   7.415499e+01
  -6.120680e+01   1.531371e+01
  -1.743055e+01  -7.600108e+01
   3.564098e+01  -3.421636e+01
   3.889605e+01  -4.759037e-01
   4.375073e+01   2.253941e+01
  -1.793121e+01   2.217247e+01
  -2.449274e+01  -5.845263e+00
  -3.916688e+01  -3.070117e+01
  -2.703888e+01  -1.404611e+01
  -3.355003e+00  -2.727256e-01
   1.313002e+01   1.267457e+01
   5.072651e+00  -7.284185e+00
   6.245504e+00  -5.141778e+01
   2.179773e+01   5.328071e+00
   3.038560e+01   4.244822e+01
  -6.929861e+00   8.613988e+01
  -2.803186e+01  -1.487962e+01
  -4.330782e+01  -3.894601e+01
  -7.728972e+00  -5.147394e+01
   4.954154e+01  -2.860839e+01
   8.067945e+01   2.521073e+01
   4.189141e+01   5.077370e+01
  -1.106164e+01   6.297602e+01
  -4.824480e+01   3.039845e+01
  -8.544520e+00   1.247751e+00
   4.172939e+01  -1.490543e+01
   6.044652e+00   3.401410e+01
  -4.387441e+01   4.314504e+01
  -9.768378e+01   4.265190e+01
