
 $NMID
 id='ANONYMOUS ', fmtdat='(2E16.6)'
 volume=1.0
 tramp=1.0
 $END
   3.424408e+03   9.573327e+01
   2.201792e+03   2.057977e+03
  -4.145496e+02   2.165092e+03
  -1.701428e+03   1.192940e+03
  -9.202533e+02  -4.283212e+02
   2.403780e+02  -2.588915e+02
   5.586953e+02   2.830986e+02
   9.082831e+01   6.782815e+02
  -5.437162e+02   5.532904e+02
  -6.744151e+02   4.277165e+01
  -4.338226e+02  -5.095316e+02
   8.419045e+01  -7.379042e+02
   4.645070e+02  -1.496070e+02
   2.171562e+02   5.390273e+02
  -2.131388e+02   5.997233e+02
  -3.747057e+02   7.438202e+01
  -2.360711e+02  -5.343159e+02
   1.617105e+02  -6.963597e+02
   5.842711e+02  -1.454494e+02
   4.261008e+02   2.112538e+02
   8.850927e+01   3.651306e+02
  -1.332397e+02   1.981455e+02
  -1.002960e+02   2.654228e+01
   1.758866e+02   1.873111e+01
   3.035380e+02   2.195224e+02
  -1.929581e+01   3.894639e+02
  -5.522507e+02   1.420840e+02
  -7.165031e+02  -1.371459e+02
  -2.959260e+02  -4.305591e+02
   3.098882e+02  -2.964438e+02
   5.730714e+02   1.592776e+02
   2.654123e+02   3.308268e+02
  -2.474726e+02   5.179324e+02
  -5.220131e+02   1.488656e+02
  -2.863070e+02  -1.908596e+02
  -3.669892e+01  -3.030860e+02
   1.008128e+02  -1.938637e+02
   3.168161e+01   2.025772e+02
  -1.580221e+02   1.927052e+02
  -2.525694e+02  -1.886874e+02
  -8.744479e+01  -5.515552e+02
   3.262158e+02  -5.502853e+02
   4.448489e+02   5.512145e+01
   1.964095e+02   4.079737e+02
  -2.032192e+02   2.082541e+02
  -1.939799e+02  -2.867183e+02
   8.642816e+01  -3.720966e+02
   5.484793e+02  -1.335883e+02
   4.484332e+02   3.921233e+02
   1.744417e+02   5.208145e+02
  -3.526214e+02   2.885377e+02
  -5.694901e+02  -5.836498e+01
  -2.940607e+02  -3.209587e+02
   5.251014e+01  -2.870741e+02
   2.921465e+02  -5.765008e+01
   1.788141e+02   8.898214e+01
  -7.952970e+00   6.983857e+01
  -7.082275e+01  -6.771890e+01
   1.406275e+02  -8.980459e+01
   2.306961e+02   3.081666e+01
   8.670974e+01   2.696311e+02
  -1.740937e+02   2.490320e+02
  -3.764522e+02   1.231733e+02
  -1.798866e+02  -1.301687e+02
   2.819293e+01  -2.768603e+02
   2.705876e+02  -3.505081e+02
   3.014852e+02  -1.618692e+02
   2.345777e+02   1.488913e+02
   7.885306e+01   4.335676e+02
  -9.536519e+01   3.049061e+02
  -5.073204e+01   1.368518e+02
  -3.611514e+01   9.612386e+01
  -9.055243e+01   1.268234e+02
  -2.064851e+02   6.782598e+01
  -2.505918e+02  -1.192135e+02
  -8.923535e+01  -2.969175e+02
   8.026550e+01  -2.487586e+02
   2.261079e+02  -7.034602e-02
   1.377332e+02   2.290961e+02
  -5.328342e+01   2.848879e+02
  -2.977112e+02   1.284665e+01
  -3.046493e+02  -1.215238e+02
  -1.165209e+02  -3.158209e+02
   5.762447e+01  -2.550335e+02
   1.943070e+02  -1.203106e+02
   1.699241e+02  -1.768384e+01
   1.105490e+02  -8.696371e+01
   2.862059e+02  -4.383450e+01
   3.875431e+02   3.739642e+01
   3.085534e+02   2.759740e+02
   4.450584e+01   4.331785e+02
  -3.334744e+02   4.442694e+02
  -5.281803e+02   2.076209e+02
  -3.156591e+02  -1.108931e+02
  -4.461937e+01  -2.865637e+02
   1.325973e+02  -2.058510e+02
   3.823771e+00  -2.031329e+01
  -1.055632e+02   2.922988e+01
  -1.287443e+02  -7.292303e+01
  -3.668342e+01  -1.332783e+02
   9.802914e+01  -1.090605e+02
   8.797233e+01   4.562316e+01
   1.222745e+01   1.353670e+02
  -1.890265e+02   2.974776e+01
  -1.438154e+02  -2.459472e+02
   4.303860e+01  -3.061094e+02
   2.187109e+02  -1.581475e+02
   2.962627e+02   9.208551e+01
   2.507742e+02   3.080511e+02
   2.734519e+01   2.739989e+02
  -1.072844e+02   1.773692e+02
  -1.701394e+02  -4.705778e+01
  -7.969130e+01  -7.847746e+00
   4.635574e+01   6.248848e+01
   1.434335e+01   1.336006e+02
  -8.884840e+01   5.031741e+01
  -1.371343e+02  -2.028010e+01
  -1.961471e+01  -8.379562e+01
   8.180215e+01   1.030944e+01
   3.637887e+01   9.978940e+01
  -1.325428e+02   7.694639e+01
  -2.842155e+02  -6.620529e+01
  -2.763022e+02  -1.294065e+02
  -3.037043e+01  -2.803704e+02
   2.183271e+02  -1.934185e+02
   2.410496e+02  -9.098800e+01
   1.172373e+02   4.586620e+01
  -4.503056e+01   6.258148e+01
  -7.139272e+01   2.818980e+00
   4.985203e+01  -7.599529e+01
   1.864483e+02  -3.475852e+01
   1.776414e+02   9.006941e+01
   4.532838e+01   1.981092e+02
  -8.194822e+01   1.317012e+02
  -1.267325e+02   1.370208e+01
  -5.476306e+01  -5.197120e+01
   6.722976e+01   7.234022e+00
   4.762830e+01   9.769721e+01
  -9.889724e+01   1.194653e+02
  -2.107988e+02   2.091817e+01
  -1.619227e+02  -1.531046e+02
   6.031328e+00  -2.163853e+02
   1.870151e+02  -1.471265e+02
   1.919665e+02   1.734665e+01
   5.234980e+01   9.060386e+01
  -4.741289e+01   7.893126e+01
  -7.646732e+01   4.409888e+01
   8.593836e+00  -2.548726e+01
   1.328766e+01   4.470503e+00
   1.592376e+01   1.602103e+01
  -1.055004e+02  -1.468763e+01
  -1.148857e+02  -9.324412e+01
  -3.786345e+01  -1.588338e+02
   1.231913e+02  -1.635560e+02
   2.236993e+02   1.406505e+01
   2.244434e+02   1.326258e+02
   2.015118e+01   2.483002e+02
  -7.037742e+01   1.650605e+02
  -1.241548e+02   4.899118e+01
  -6.845957e+01  -3.741758e+01
  -1.466642e+01  -4.452861e+01
  -6.961530e+01  -1.064159e+01
  -7.310309e+01  -3.095204e+00
  -3.081814e+01  -5.740872e+01
   3.070520e+01  -7.905382e+01
   1.454963e+02  -1.019382e+02
   1.292722e+02   5.044575e+01
  -1.864153e+01   1.300043e+02
  -1.621108e+02   7.888597e+01
  -1.792470e+02  -8.381757e+01
  -1.045773e+02  -2.345507e+02
   1.460304e+02  -2.370878e+02
   2.962775e+02  -8.930674e+01
   2.482560e+02   9.287429e+01
   1.003094e+02   1.793642e+02
  -6.926612e+01   1.393221e+02
  -1.134812e+02   8.172498e+01
  -8.806159e+01   9.013192e+01
  -4.709262e+01   1.305492e+02
  -1.145966e+02   9.082461e+01
  -1.548919e+02  -3.179048e+01
  -8.848473e+01  -1.468894e+02
  -5.717862e+01  -2.030803e+02
   9.789796e+01  -1.457405e+02
   1.913846e+02  -2.996506e+01
   1.210763e+02   1.101229e+02
  -2.412491e+01   1.431327e+02
  -7.740588e+01   7.782256e+01
  -7.724657e+01  -2.861629e+01
  -1.452454e+01  -8.028005e+01
   3.355003e+01  -1.932166e+01
  -5.618558e+01   4.134802e+00
  -7.413946e+01  -2.819802e+01
  -5.946186e+01  -5.279237e+01
   5.854678e+01  -2.605619e+01
   1.640411e+02   1.167929e+00
   1.376983e+02   6.150150e+01
   8.217222e+00   1.100632e+02
  -1.338949e+02   8.883571e+01
  -1.424486e+02   4.675408e+01
  -3.244822e+01  -7.996156e+01
   5.726502e+01  -2.656547e+01
   8.039573e+01   2.523011e+01
  -1.201285e+01   4.950349e+01
  -5.210996e+01   6.687941e+01
  -4.822582e+01  -1.391170e+01
  -3.551356e+01  -5.032969e+01
  -4.060303e+01  -4.326704e+01
  -5.240035e+01  -2.157752e+01
  -1.017100e+02  -1.502529e+00
  -3.930014e+01  -5.603740e+01
  -9.092695e+00  -1.587906e+02
   1.384918e+02  -1.671563e+02
   1.785675e+02  -1.599526e+01
   1.218796e+02   1.169220e+02
  -1.439476e+01   1.547698e+02
  -8.719367e+01   5.846945e+01
  -6.251892e+01  -1.593035e+01
   3.125157e+01  -1.043595e+01
   1.203321e+02   5.078230e+01
   5.919050e+01   1.253389e+02
  -1.003159e+02   1.090747e+02
  -1.921248e+02   7.392768e+01
  -1.499163e+02  -3.438033e+01
  -3.169762e+01  -9.791118e+01
   6.635836e+01  -8.486931e+01
   6.119349e+01   5.967196e+00
  -1.618681e+01   5.267745e+00
  -4.894469e+01  -3.119030e+01
  -2.949190e+01  -1.158297e+02
   1.029322e+02  -1.396876e+02
   1.655151e+02  -4.193451e+01
   1.023342e+02   9.673301e+01
   2.543643e+00   1.893450e+02
  -3.461040e+01   1.587035e+02
  -1.010566e+02  -1.213372e+01
  -4.863175e+01  -1.184473e+02
   1.399950e+01  -1.150745e+02
   5.678470e+01  -2.126271e+01
   6.290304e+01   2.489722e+01
   1.115164e+00  -4.957584e-01
   2.088311e+01  -1.756360e+01
   5.539462e+01   1.375130e+01
   5.448229e+01   1.151953e+02
   1.831440e+01   8.606831e+01
  -9.442994e+01   3.946403e+01
  -1.288391e+02  -3.106863e+01
  -1.119906e+02  -7.022057e+01
  -1.477975e+01  -2.529405e+01
   1.078290e+02  -2.653938e+01
   9.211359e+01  -1.830330e+01
   1.342520e+01   2.977801e+00
  -1.967286e+01  -3.307380e+00
  -5.255518e+01   1.708027e+01
   3.067059e+01   2.485431e+00
  -1.128940e+01   4.661665e+00
  -7.991929e+01   1.518089e+01
  -1.096542e+02  -4.412046e+01
  -2.995896e+01  -5.292040e+01
   1.047177e+02  -1.088934e+02
   1.776203e+02  -8.554969e+01
   1.309712e+02   7.403671e+01
   3.424429e+01   1.619511e+02
  -1.080077e+02   1.712118e+02
  -1.197183e+02   2.897286e+01
  -7.147911e+01  -1.834370e+01
  -2.578801e+01  -4.406811e+01
   2.201068e+00   1.598412e+01
   1.029637e+01  -1.754996e+01
  -2.151192e+01  -7.433660e+01
  -1.879076e+01  -9.318207e+01
   5.608749e+00  -4.877073e+01
   8.142923e+01   5.159445e+00
   6.921923e+01   1.035758e+02
   8.440246e+00   1.146334e+02
  -7.235997e+01   2.801419e+01
  -1.307393e+02  -7.814135e+01
  -3.298737e+01  -7.730988e+01
   7.500465e+01  -6.894255e+01
   9.194486e+01   1.663134e+01
   7.161504e+01   3.936947e+01
  -3.095194e+01   6.244131e+01
  -5.848453e+01   2.807183e+01
   1.483832e+01  -2.909981e+00
   8.124811e+01   1.140297e+01
   2.041307e+01   2.463386e+01
  -8.403057e+01   8.601442e+01
  -1.116800e+02   6.449014e+01
  -5.870327e+01  -1.981637e+01
   2.549472e+01  -6.908290e+01
   5.552213e+01  -8.698454e+01
   3.994824e+01   4.572866e+00
   5.978713e+00   7.238684e+01
  -8.924273e+00   2.417647e+01
  -2.532632e+01  -2.948971e+01
  -1.904238e+01  -5.268691e+01
   4.607937e+00  -5.506830e+01
   2.939273e+01   1.213471e+01
   5.071921e+01   5.416653e+01
   1.658971e+01   1.612209e+01
  -1.160336e+01   8.694801e+00
  -2.338052e+01  -1.019160e+01
  -8.661764e+00   4.328061e+01
  -2.440974e+01   6.266337e+01
  -9.612232e+00  -1.041099e+00
  -4.182834e+01  -4.286926e+01
  -1.769832e+01  -4.168286e+01
   3.557081e+01  -2.216937e+01
   4.955436e+01   6.041583e+00
   7.957556e+00   6.148743e+01
  -6.948090e+01   5.660939e+01
  -9.255726e+01  -6.657600e+00
  -3.413754e+01  -2.702316e+01
   4.154068e+01  -3.783304e+01
   4.405389e+01  -5.737618e+01
   1.495150e+01  -2.874131e+01
  -3.449578e+01  -3.699338e+00
  -3.272156e+01  -1.223472e+00
   2.138949e+01  -3.110366e+01
   4.778491e+01  -2.339594e+00
