
 $NMID
 id='ANONYMOUS ', fmtdat='(2E16.6)'
 volume=1.0
 tramp=1.0
 $END
  -4.585622e+03   2.068698e+02
  -2.621845e+03  -2.874982e+03
   6.271334e+02  -2.860176e+03
   2.185517e+03  -5.690626e+02
   8.500766e+02   5.431714e+02
  -7.059746e+02   5.633467e+02
  -9.106855e+02  -4.864920e+02
   1.237404e+02  -1.206318e+03
   9.389855e+02  -7.655726e+02
   9.077813e+02   1.035588e+02
   3.619731e+02   9.470061e+02
  -2.429556e+02   8.399397e+02
  -6.196707e+02   6.151239e+01
  -3.343803e+02  -8.050281e+02
   3.240000e+02  -7.379299e+02
   6.250240e+02   7.230149e+01
   3.436500e+02   7.666520e+02
  -3.613312e+02   6.160109e+02
  -5.565339e+02   1.109176e+02
  -3.806677e+02  -4.267394e+02
  -1.367027e+01  -3.831048e+02
   2.625341e+02  -2.584780e+02
   1.981900e+02  -6.422908e+00
  -1.260939e+02   9.349199e+01
  -4.556722e+02  -1.728047e+02
  -2.229328e+02  -4.441275e+02
   4.601682e+02  -4.428890e+02
   9.082080e+02   1.631303e+02
   4.675306e+02   6.341853e+02
  -5.016525e+02   5.304473e+02
  -6.871740e+02  -2.320549e+01
  -2.715798e+02  -5.387751e+02
   3.683308e+02  -5.020395e+02
   6.139647e+02  -1.837844e+02
   4.521339e+02   2.111027e+02
   8.686801e+01   5.096776e+02
  -2.141788e+02   3.131778e+02
  -1.394493e+02  -2.046323e+02
   2.368009e+02  -4.110748e+02
   4.711367e+02   3.024145e+01
   2.251141e+02   7.697510e+02
  -4.312111e+02   7.168751e+02
  -6.721344e+02  -1.605315e+01
  -2.304495e+02  -6.355200e+02
   2.824082e+02  -2.563094e+02
   3.333172e+02   2.960454e+02
  -1.286108e+02   4.921502e+02
  -5.626416e+02   1.336060e+02
  -6.660054e+02  -4.004768e+02
  -1.419889e+02  -6.101872e+02
   3.915457e+02  -3.428184e+02
   7.000317e+02   9.363528e+01
   4.139530e+02   3.885212e+02
  -2.369128e+02   4.256467e+02
  -4.600001e+02   3.803553e+01
  -2.500657e+02  -1.709204e+02
   1.622044e+02  -3.179079e+01
   1.322208e+02   1.598286e+02
  -1.464126e+02   1.648970e+02
  -3.646809e+02  -1.212675e+02
  -1.151275e+02  -3.730575e+02
   2.213422e+02  -2.318360e+02
   3.574252e+02  -6.229579e+01
   2.114253e+02   7.370332e+01
  -2.359191e+01   2.297271e+02
  -2.939596e+02   4.000544e+02
  -2.897776e+02   2.047134e+02
  -2.666948e+02  -1.493581e+02
  -5.564930e+01  -4.469559e+02
   1.330426e+02  -4.372212e+02
   1.275069e+02  -7.908157e+01
  -6.632445e-01  -2.732643e+00
   4.031699e+01  -1.294119e+02
   2.378104e+02  -1.644558e+02
   2.634656e+02   4.777106e+01
   1.987030e+02   2.995734e+02
  -9.992845e+01   2.625467e+02
  -1.868369e+02  -1.497652e+01
  -1.971270e+02  -2.502448e+02
   1.249881e+01  -2.727837e+02
   3.017988e+02  -1.395874e+02
   3.761336e+02   2.052484e+02
   2.254627e+02   3.421845e+02
  -7.871792e+01   2.859076e+02
  -2.114220e+02   1.286338e+02
  -1.626913e+02   3.024255e+01
  -9.290187e+01   6.782158e+01
  -2.534927e+02   7.233108e+01
  -3.946160e+02  -5.040833e+01
  -3.133773e+02  -2.987409e+02
   2.389446e+01  -4.650868e+02
   4.306531e+02  -4.328833e+02
   5.800397e+02  -2.180160e+02
   3.250036e+02   1.672978e+02
   5.018449e+01   3.016856e+02
  -1.332650e+02   2.947157e+02
  -1.194155e+02   1.588227e+01
   1.524817e+02  -1.130855e+02
   2.309931e+02   9.639000e+00
   3.264728e+01   2.358796e+02
  -1.750365e+02   1.727920e+02
  -2.061103e+02  -5.521092e+01
   9.451425e+01  -2.094988e+02
   2.240867e+02  -1.350672e+01
   1.753258e+02   2.754214e+02
  -3.289222e+01   3.607992e+02
  -2.446209e+02   1.985406e+02
  -3.460888e+02  -6.084988e+01
  -3.255086e+02  -2.428689e+02
  -1.335962e+02  -3.019953e+02
   1.340217e+02  -1.511611e+02
   1.825879e+02  -1.827077e+01
   3.944567e+01   3.603993e+01
  -1.011029e+02  -3.615365e+01
  -4.201065e+01  -8.975892e+01
   1.381721e+02  -1.104266e+02
   1.712811e+02  -8.804978e+00
   5.539225e+01   7.994214e+01
  -8.423342e+01   2.653630e+01
  -7.622448e+01  -9.247048e+01
   1.128946e+02  -1.020724e+02
   2.721367e+02  -3.578293e+01
   3.028829e+02   1.760228e+02
   4.919527e+01   2.806641e+02
  -1.636079e+02   2.991251e+02
  -3.043330e+02   1.308380e+02
  -2.309116e+02  -7.866678e+01
   3.848900e+01  -1.244851e+02
   9.943822e+01  -1.270970e+01
  -4.545129e+01   1.053900e+02
  -2.006256e+02   7.017835e+01
  -2.153355e+02  -1.059689e+02
  -8.165542e+01  -1.979674e+02
   9.994211e+01  -1.520471e+02
   1.459547e+02  -2.149941e+01
   6.462138e+01   2.320915e+01
  -3.880887e+01  -8.093747e+00
  -4.926270e+01  -5.548312e+01
   3.561895e+01  -1.319977e+02
   1.962172e+02  -8.669987e+01
   2.378608e+02   1.242936e+02
   5.328042e+01   2.950492e+02
  -1.424408e+02   1.901951e+02
  -2.079172e+02   1.634023e+01
  -3.127557e+01  -1.292354e+02
   9.084397e+01  -1.069615e+02
   7.966037e+01  -3.810742e+01
  -4.382150e+00   2.896663e+01
  -3.408933e+01   9.005465e+00
  -2.021028e+01  -1.284770e+01
   7.214887e+01  -1.462926e+01
   7.355976e+01   7.907092e+01
   1.348272e+01   1.723457e+02
  -1.264873e+02   1.630494e+02
  -1.996924e+02  -2.899755e+00
  -1.977961e+02  -1.845092e+02
  -4.845105e+01  -2.420216e+02
   1.202042e+02  -1.671779e+02
   1.364211e+02  -3.737103e+01
   6.361357e+01   3.128210e+01
   1.457913e+01   4.674360e+01
   3.703020e+01  -4.182558e+00
   8.548981e+01   1.041269e+01
   2.349605e+01   5.675035e+01
  -4.588110e+01   7.935699e+01
  -1.356947e+02   9.988048e+01
  -8.409167e+01  -3.254242e+01
   1.047282e+01  -1.012071e+02
   1.513848e+02  -8.873355e+01
   1.977991e+02   3.701642e+01
   1.217449e+02   2.198861e+02
  -1.009751e+02   2.758604e+02
  -2.779424e+02   1.144912e+02
  -2.916235e+02  -7.641934e+01
  -1.233618e+02  -1.669679e+02
   3.928148e+01  -1.547675e+02
   9.678518e+01  -7.215321e+01
   5.863063e+01  -6.969337e+01
   8.556091e+01  -8.876467e+01
   9.550115e+01  -6.870721e+01
   1.595664e+02   1.562174e+01
   1.323286e+02   1.652413e+02
   3.458900e+01   1.968394e+02
  -8.017677e+01   1.502017e+02
  -2.030472e+02   1.804015e+01
  -1.713832e+02  -1.549890e+02
  -1.967443e+01  -1.621518e+02
   7.212881e+01  -9.104690e+01
   6.383631e+01   1.076269e+01
   1.319853e+00   4.165610e+01
  -1.526823e+01   4.681760e+01
   2.431138e+01   2.325107e+01
   9.993845e+01   2.182570e+01
   2.853228e+01   4.423269e+01
  -5.730666e+01   6.015757e+01
  -1.617365e+02   2.000910e+00
  -1.510221e+02  -6.638569e+01
  -2.775280e+01  -9.488571e+01
   1.108755e+02  -8.464599e+01
   1.684943e+02  -9.988921e+00
   5.007595e+01   3.667704e+01
  -6.699295e+01   2.510855e+01
  -9.226905e+01   7.256959e+00
  -1.685068e+01  -4.926929e+01
   3.806333e+01  -5.014856e+01
   8.836275e+01  -7.233584e+00
   5.888449e+01   3.397072e+01
   6.331123e+01   4.001812e+01
   4.205411e+01  -1.142148e+01
   1.072865e+02  -1.611111e+01
   2.327427e+01   6.138189e+01
  -4.131824e+01   1.355663e+02
  -1.137916e+02   1.736353e+02
  -1.811591e+02   3.654399e+01
  -1.374380e+02  -1.108348e+02
  -9.973065e+00  -1.128158e+02
   1.099140e+02  -7.648583e+01
   6.349775e+01  -2.970314e+01
  -3.730728e+01  -3.653081e+00
  -1.589384e+02  -2.862083e+01
  -7.719941e+01  -1.002523e+02
   1.105860e+02  -1.207569e+02
   2.151843e+02  -9.165366e+01
   1.688989e+02   2.536816e+01
   7.997608e+01   8.594405e+01
  -4.089788e+01   6.193947e+01
  -6.174171e+01   4.269570e+00
   3.848600e+01  -1.623644e+01
   7.972953e+01   4.823326e+00
   4.600300e+01   1.325745e+02
  -1.052023e+02   2.040266e+02
  -1.730707e+02   6.315374e+01
  -1.318454e+02  -1.111305e+02
   9.296858e+00  -1.920710e+02
   6.163048e+01  -1.223996e+02
   1.087783e+02  -1.005579e+01
   5.125107e+01   1.355489e+02
  -8.607635e+00   1.196478e+02
  -4.489196e+01   1.820269e+01
  -4.322981e+01  -3.646103e+01
  -4.205000e+01  -5.061458e+00
   1.770642e+01   2.777546e+01
  -3.143792e+01  -7.700501e+00
  -5.594066e+01  -1.195159e+02
  -5.336454e+01  -1.142919e+02
   5.369360e+01  -6.236425e+01
   1.226989e+02   2.256755e+01
   1.101558e+02   5.950061e+01
  -4.587729e+00   3.270802e+01
  -5.438965e+01   4.928244e-01
  -7.060915e+01  -1.727077e+01
   1.717698e+01  -8.961860e+00
   4.694453e+01  -1.789452e+01
   3.900324e+01  -2.009024e+01
  -2.695615e+01  -8.416227e+00
   1.763601e+01   5.470097e+00
   8.849869e+01   1.142946e+01
   8.719407e+01   6.190103e+00
   1.365188e+01   8.050326e+01
  -1.477751e+02   1.331769e+02
  -2.014356e+02   6.333477e+01
  -1.502641e+02  -8.511017e+01
  -3.224803e+01  -1.645858e+02
   6.731003e+01  -1.543231e+02
   8.537737e+01  -3.910483e+01
   8.019015e+01   1.731888e+01
   2.270383e+01   3.648123e+01
   2.345070e+01  -1.941431e+01
   1.653967e+01   7.651513e+00
   2.540086e+01   3.125666e+01
   2.596580e+01   9.910452e+01
   4.203294e+00   6.259760e+01
  -9.847143e+01  -2.987485e+01
  -9.140399e+01  -1.114417e+02
  -7.769581e+00  -1.266664e+02
   7.248991e+01  -5.500692e+00
   1.233382e+02   5.232277e+01
   2.281848e+01   1.010152e+02
  -6.498288e+01   3.648949e+01
  -9.094084e+01  -1.697839e+01
  -5.606061e+01  -4.359529e+01
   9.260501e+00  -4.890201e+01
   4.185341e+01  -4.572090e+01
  -3.829641e+01  -2.017066e+01
  -7.084717e+01   2.875539e+01
   8.127993e+00  -1.392199e+01
   7.151861e+01  -5.262205e+01
   1.251807e+02  -6.168197e+01
   5.277753e+01   1.044379e+01
  -1.222948e+01   6.508876e+01
  -3.455217e+01   6.909819e+01
  -4.814175e+01   6.163983e+00
   6.814593e-02  -5.349808e+01
   2.629416e+01  -1.947213e+01
   4.285890e+01   6.861452e+00
   2.025836e+01   6.701063e+01
  -1.305162e+01   2.684166e+01
  -2.360813e+01  -2.844443e+00
  -2.184413e+01  -3.114772e+01
  -2.373566e+01   7.352107e+00
   6.837914e+00   6.181788e+00
   1.945200e+00  -1.349980e+01
   9.014042e-01  -3.032574e+01
   2.464278e+01  -2.051439e+01
   2.992905e+01  -3.242165e+01
   4.397910e-01   5.108027e+01
   2.815454e+00   7.002269e+01
  -5.432676e+01   8.939649e+00
  -6.295954e+01  -7.682733e+01
  -2.744644e+00  -4.753218e+01
   5.368668e+01  -3.747467e+01
   7.617979e+01   6.317970e+00
   4.427525e+01   3.280656e+01
  -1.641244e+01   4.474777e+01
  -7.141132e+01   1.919043e+01
  -1.084608e+01  -2.530888e+00
   4.019844e+01  -8.983926e+00
   4.249281e+01   1.499312e+00
  -1.513541e+01   2.703036e+01
  -8.574836e+01   2.135812e+01
