
 $NMID
 id='ANONYMOUS ', fmtdat='(2E16.6)'
 volume=1.0
 tramp=1.0
 $END
   4.375292e+03   3.212587e+02
   2.258673e+03   2.125335e+03
  -5.130628e+02   2.591753e+03
  -1.908681e+03   8.786957e+02
  -1.249610e+03  -1.736795e+02
   3.856383e+02  -6.281633e+02
   6.204722e+02   1.573038e+02
   6.087952e+01   8.129950e+02
  -6.099654e+02   5.953644e+02
  -9.609677e+02   1.501598e+01
  -3.778641e+02  -6.491936e+02
   2.048364e+02  -9.006992e+02
   6.532086e+02  -2.371076e+02
   3.250238e+02   6.152103e+02
  -2.236788e+02   7.828974e+02
  -5.628940e+02   7.025541e+01
  -3.260474e+02  -6.221847e+02
   2.263214e+02  -6.088394e+02
   5.862708e+02  -2.080995e+02
   4.673015e+02   3.057103e+02
   8.040202e+01   3.922023e+02
  -1.536375e+02   2.396359e+02
  -1.197200e+02   6.157769e+01
   8.538199e+01  -3.762262e+01
   3.165452e+02   1.922732e+02
   1.484501e+02   3.839208e+02
  -4.868472e+02   3.042021e+02
  -7.901295e+02  -4.314989e+01
  -3.015345e+02  -3.950717e+02
   2.455254e+02  -2.528326e+02
   7.490152e+02  -1.280649e+01
   3.227647e+02   4.427616e+02
  -1.889281e+02   4.594868e+02
  -4.211941e+02   1.595519e+02
  -3.517382e+02  -1.641636e+02
  -6.908006e+01  -3.919539e+02
   1.115876e+02  -2.758548e+02
   9.385328e+01   1.742109e+02
  -1.035969e+02   2.514329e+02
  -3.719361e+02  -1.349981e+01
  -2.620902e+02  -5.111503e+02
   2.852066e+02  -5.864728e+02
   4.840288e+02  -9.687768e+01
   1.491422e+02   4.642443e+02
  -1.527740e+02   2.384256e+02
  -3.280934e+02  -3.117116e+02
   5.165211e+01  -4.628445e+02
   5.784276e+02  -1.534540e+02
   5.260605e+02   3.778551e+02
   2.252287e+02   5.093577e+02
  -3.111784e+02   3.307180e+02
  -5.137642e+02  -9.596021e+01
  -4.056556e+02  -2.804126e+02
   1.318807e+02  -3.413260e+02
   3.966053e+02  -4.609705e+01
   2.401667e+02   2.077763e+02
  -9.870415e+01   9.933366e+01
  -7.381023e+01  -1.507164e+02
   9.389916e+01  -1.305210e+02
   2.328794e+02   5.886393e+01
   1.421774e+02   2.411649e+02
  -1.758498e+02   2.864977e+02
  -2.850201e+02   7.859269e+01
  -2.110554e+02  -9.275615e+01
   1.497357e+01  -2.749223e+02
   2.515488e+02  -3.475235e+02
   2.889041e+02  -1.987085e+02
   2.707447e+02   1.704956e+02
   1.002969e+02   4.003126e+02
  -6.004354e+01   4.269678e+02
  -8.044344e+01   1.196584e+02
  -4.822217e+01   7.766918e+01
  -6.514817e+01   4.764672e+01
  -2.225922e+02   7.920637e+01
  -2.528477e+02  -4.678202e+01
  -1.312419e+02  -2.189934e+02
   6.644107e+01  -2.005937e+02
   2.044931e+02  -2.511214e+01
   2.108032e+02   1.941171e+02
  -1.015918e+01   2.875751e+02
  -2.603781e+02   8.254998e+01
  -3.553972e+02  -1.504292e+02
  -1.539354e+02  -3.444108e+02
   8.478102e+01  -2.682634e+02
   2.231383e+02  -9.294105e+01
   1.342389e+02  -7.340532e+01
   1.657858e+02  -3.627807e+01
   2.250787e+02  -8.298934e+01
   3.838181e+02   3.295511e+01
   3.589715e+02   3.149272e+02
  -1.365519e+01   4.111651e+02
  -3.126004e+02   4.519106e+02
  -4.466440e+02   1.908767e+02
  -3.328385e+02  -1.122065e+02
  -3.505854e+01  -3.185268e+02
   1.199956e+02  -2.097087e+02
   7.445160e+01  -2.899258e+01
  -1.163425e+02   1.231542e+01
  -1.461667e+02  -3.058134e+00
  -6.347631e+01  -1.824877e+02
   1.030839e+02  -1.583633e+02
   1.534170e+02   5.603067e+01
  -1.042878e+01   1.965453e+02
  -1.890915e+02   4.363181e+01
  -1.196462e+02  -2.396143e+02
  -1.378100e+01  -3.525767e+02
   2.421676e+02  -1.995606e+02
   3.678049e+02   6.475815e+01
   2.953229e+02   2.419910e+02
   7.928736e+01   1.922867e+02
  -1.013142e+02   1.873051e+02
  -1.655810e+02   3.342317e+01
  -4.146260e+01  -2.833184e+01
   6.200537e+01   6.227543e+01
   9.361152e+00   1.252808e+02
  -8.169418e+01   1.130441e+02
  -1.567771e+02   4.082039e+00
  -2.407871e+01  -3.930151e+01
   6.863407e+01   1.164823e+01
   4.588877e+01   8.038562e+01
  -1.311785e+02   8.804208e+01
  -2.415074e+02   2.082101e+01
  -2.203354e+02  -1.466316e+02
  -2.221713e+01  -2.763211e+02
   1.523987e+02  -2.237027e+02
   2.423047e+02  -1.155207e+02
   1.313134e+02   6.711658e+01
  -1.505581e+01   9.760062e+01
  -1.079052e+02  -4.307054e+00
   4.004717e+01  -7.859166e+01
   1.754785e+02  -7.048735e+01
   2.045481e+02   1.160812e+02
   4.443479e+01   1.961841e+02
  -8.831117e+01   1.248794e+02
  -1.306536e+02   2.736176e+01
  -5.680297e+01  -4.519759e+01
   3.068230e+01  -3.459697e+00
   4.047679e+01   8.686660e+01
  -7.630015e+01   9.975223e+01
  -1.868114e+02  -7.096659e+00
  -1.679802e+02  -7.758857e+01
  -2.461219e+01  -1.928259e+02
   2.030816e+02  -1.539165e+02
   1.854837e+02  -9.377046e+00
   5.879256e+01   7.331214e+01
  -3.722947e+01   1.061804e+02
  -5.209686e+01   1.299209e+01
  -1.456495e+01  -1.350024e+01
   3.617171e+01  -2.147213e+01
  -5.611698e+01   6.470237e+00
  -1.033839e+02  -1.734875e+01
  -8.138110e+01  -9.622915e+01
  -3.719170e+00  -1.475691e+02
   9.932809e+01  -1.287617e+02
   2.444642e+02  -1.857708e+01
   2.271426e+02   1.554635e+02
   3.869957e+01   2.534518e+02
  -1.177610e+02   1.499250e+02
  -1.458269e+02   2.575755e+01
  -3.416174e+01  -6.128224e+01
  -4.196569e+01  -5.208201e+01
  -4.123862e+01   1.204803e+01
  -9.635580e+01  -6.736267e+00
  -4.283978e+01  -5.888963e+01
   5.030843e+01  -9.642544e+01
   1.189130e+02  -6.900879e+01
   7.341017e+01   4.840596e+01
  -4.693207e+01   1.402441e+02
  -1.476765e+02   8.547704e+01
  -1.687090e+02  -3.591219e+01
  -7.327286e+01  -1.725021e+02
   1.315466e+02  -2.226935e+02
   2.568327e+02  -9.240392e+01
   3.004670e+02   7.850141e+01
   1.088742e+02   1.693670e+02
  -1.691144e+01   1.748490e+02
  -1.246710e+02   6.521532e+01
  -5.558736e+01   7.717384e+01
  -6.961072e+01   7.910967e+01
  -8.149336e+01   6.706258e+01
  -1.078700e+02  -2.570288e+01
  -8.983120e+01  -1.536577e+02
  -2.879142e+01  -2.293336e+02
   1.184821e+02  -1.704363e+02
   1.779903e+02  -2.857306e+01
   1.163831e+02   1.217746e+02
   5.860065e+00   1.236347e+02
  -9.061040e+01   8.115810e+01
  -7.278448e+01  -1.293391e+01
   3.664544e+00  -5.640738e+01
   2.095364e+00  -3.628053e+01
  -3.247970e+01   1.505287e+01
  -8.575528e+01  -1.048754e+01
  -4.341798e+01  -6.012114e+01
   8.290600e+01   1.466063e+01
   1.620073e+02   3.131821e+00
   1.373116e+02   7.799332e+01
  -1.521862e+01   9.006369e+01
  -1.149668e+02   5.675377e+01
  -1.251092e+02  -6.733939e+00
  -3.153926e+01  -5.713798e+01
   3.379046e+01  -4.463385e+01
   9.408337e+01   1.121248e+01
   1.708158e+01   8.485713e+01
  -5.039425e+01   6.417449e+01
  -6.036189e+01   6.331245e+00
  -6.679882e+01  -6.358390e+01
  -4.041639e+01  -5.967646e+01
  -5.134985e+01   1.048476e+01
  -6.592731e+01  -1.124804e+00
  -1.120236e+01  -6.791950e+01
   2.475474e+01  -1.342075e+02
   1.036767e+02  -1.380447e+02
   1.481571e+02  -4.449726e+01
   1.168624e+02   9.139954e+01
   1.352787e+01   1.559561e+02
  -1.202269e+02   5.641477e+01
  -6.796741e+01  -3.007366e+01
   4.310949e+01  -3.226355e+01
   1.057560e+02   5.075239e+01
   3.640811e+01   1.033474e+02
  -5.827374e+01   1.269256e+02
  -1.364642e+02   3.559244e+01
  -1.389873e+02  -1.836403e+01
  -3.156854e+01  -9.256623e+01
   8.976691e+01  -5.921393e+01
   5.246327e+01  -5.752338e-01
  -2.904831e+01   6.071568e+00
  -6.682240e+01  -2.109555e+01
  -4.670484e+01  -1.098633e+02
   7.721326e+01  -1.631696e+02
   1.449620e+02  -6.786358e+01
   1.175630e+02   9.496941e+01
   4.843693e+00   1.749311e+02
  -9.194581e+01   1.545579e+02
  -1.003497e+02   4.001512e+00
  -6.599040e+01  -1.074040e+02
   6.934733e+00  -9.743038e+01
   5.650786e+01  -1.742984e+01
   2.936225e+01   1.422296e+01
   4.285783e+01  -1.775720e+01
   1.840627e+01  -3.026779e+01
   3.513290e+01   2.634034e+01
   5.555176e+01   7.918846e+01
   4.446357e+01   9.457990e+01
  -7.988454e+01   3.941558e+01
  -1.196340e+02  -3.269749e+01
  -1.239556e+02  -3.806918e+01
  -1.912882e+01  -3.047695e+01
   8.691069e+01  -2.835092e+01
   6.735085e+01  -3.884148e+01
  -2.361016e+01   1.870748e+00
  -2.032451e+01   2.461629e+01
  -2.936557e+01   1.304560e+01
   2.755551e+01   1.587987e+01
  -8.944198e+00  -1.074113e+01
  -1.045815e+02  -2.701132e+00
  -1.112918e+02  -4.277606e+01
  -1.866879e+01  -6.580756e+01
   9.415516e+01  -8.685714e+01
   2.064681e+02  -8.170711e+01
   1.615441e+02   7.010423e+01
   3.184629e+01   1.710056e+02
  -6.751702e+01   1.326724e+02
  -9.401951e+01   3.762940e+01
  -7.906021e+01  -4.193836e+01
  -4.503024e+01  -6.017590e+01
   2.145357e+01  -8.856414e+00
  -1.034114e+01  -1.519423e+01
  -2.738072e+01  -5.411883e+01
  -1.588687e+01  -7.391045e+01
   1.480393e+01  -7.916645e+01
   1.050793e+02  -2.569034e+01
   9.355061e+01   9.094667e+01
  -7.331419e+00   8.710851e+01
  -9.019810e+01   2.842884e+01
  -1.314288e+02  -4.624902e+01
  -2.116892e+01  -1.253383e+02
   7.586764e+01  -3.761655e+01
   6.392053e+01   7.290930e+00
   4.304370e+01   7.987446e+01
  -3.583099e+01   7.450151e+01
  -2.843585e+01   4.448727e+01
   4.929653e+01  -2.379251e+00
   3.973735e+01   1.395837e+01
   2.866990e+00   9.583448e+00
  -1.232425e+02   6.652389e+01
  -1.065890e+02   5.629708e+01
  -5.890523e+01  -9.115122e+00
   5.440737e+00  -8.885134e+01
   2.962494e+01  -8.515013e+01
   5.057770e+01   2.843184e+01
   2.319329e+01   6.088131e+01
  -3.097926e+01   2.672990e+01
  -4.787687e+01  -1.291636e+01
  -2.406042e+01  -8.758740e+01
   1.401923e+01  -5.166012e+01
   4.411314e+01   1.710297e+01
   4.055021e+01   3.754806e+01
   1.286310e+01   6.568760e+00
   9.304970e+00  -2.993025e+01
   1.388826e+01   7.889176e+00
   2.055858e+00   2.520213e+01
  -2.428685e+01   6.404162e+01
  -1.767933e+01   2.409457e+01
  -1.679037e+01  -3.233763e+01
   4.768375e+00  -5.649680e+01
   5.533114e+01  -2.835632e+01
   6.610063e+01   2.887789e+01
   3.489842e+01   6.512574e+01
  -4.239345e+01   1.405611e+01
  -9.472635e+01  -6.795258e+00
  -3.284048e+01  -5.550509e+01
   2.557265e+01  -2.839706e+01
   8.524694e+01  -1.188657e+01
   2.078510e+01  -4.032485e+01
  -3.747884e+01  -2.773423e+01
  -2.619741e+01   3.675765e+00
   1.574209e+01  -2.922788e+01
   1.076912e+02  -1.476095e+01
