
 $NMID
 id='ANONYMOUS ', fmtdat='(2E16.6)'
 volume=1.0
 tramp=1.0
 $END
  -3.688608e+03  -2.006954e+02
  -2.068174e+03  -2.179363e+03
   4.474423e+02  -2.292170e+03
   1.751636e+03  -1.036363e+03
   7.736244e+02   1.629685e+02
  -2.885837e+02   1.814095e+02
  -4.412509e+02  -2.388068e+02
  -3.708115e+01  -8.216491e+02
   6.858079e+02  -5.752995e+02
   7.345612e+02   9.005868e+01
   5.099602e+02   6.577096e+02
  -1.523581e+02   7.788446e+02
  -4.306695e+02   9.101184e+01
  -1.766131e+02  -6.007212e+02
   1.779960e+02  -5.426350e+02
   4.632752e+02  -5.178235e+01
   2.801161e+02   5.960281e+02
  -2.074356e+02   6.193274e+02
  -5.123833e+02   1.694892e+02
  -3.723086e+02  -2.447953e+02
  -7.572729e+01  -3.883995e+02
   1.861317e+02  -2.518222e+02
   7.488091e+01  -3.542742e+01
  -1.945613e+02  -1.105785e+01
  -3.501192e+02  -2.145045e+02
  -1.378984e+01  -4.090421e+02
   5.797372e+02  -1.634826e+02
   7.877539e+02   1.969640e+02
   3.327927e+02   4.628833e+02
  -4.316569e+02   3.345764e+02
  -5.519525e+02  -1.687784e+02
  -2.754288e+02  -4.408919e+02
   3.550681e+02  -5.378056e+02
   5.522541e+02  -1.126621e+02
   3.149372e+02   1.613687e+02
   1.676434e+01   4.047074e+02
  -9.304391e+01   2.288417e+02
   6.756802e-01  -1.830502e+02
   1.836456e+02  -2.043953e+02
   2.574208e+02   1.619915e+02
   1.357145e+02   6.391083e+02
  -2.829103e+02   5.124832e+02
  -4.546649e+02  -4.587472e+01
  -2.269920e+02  -5.086578e+02
   2.192679e+02  -1.488376e+02
   1.458155e+02   2.184541e+02
  -9.011741e+01   4.648491e+02
  -4.963033e+02   1.153864e+02
  -5.487008e+02  -4.441684e+02
  -1.342568e+02  -6.056601e+02
   3.604605e+02  -2.785807e+02
   5.029291e+02   9.254941e+01
   3.609910e+02   3.707078e+02
  -8.817206e+01   3.297141e+02
  -3.347607e+02   8.777759e+01
  -2.121334e+02  -5.743810e+01
   5.106052e+01  -4.682697e+01
   4.903596e+01   6.496872e+01
  -1.045151e+02   9.986873e+01
  -2.486490e+02  -8.075600e+00
  -1.183379e+02  -2.122338e+02
   1.863431e+02  -2.530580e+02
   3.851589e+02  -1.112829e+02
   1.899902e+02   1.059742e+02
   1.752514e+01   2.855041e+02
  -2.483134e+02   3.805312e+02
  -3.573710e+02   1.769045e+02
  -2.433451e+02  -1.655519e+02
  -4.171683e+01  -3.716126e+02
   7.951649e+01  -3.364627e+02
   8.165882e+01  -1.589627e+02
   1.557650e+01  -6.138703e+01
   8.806850e+01  -1.404006e+02
   2.144857e+02  -9.168468e+01
   2.559300e+02   1.447308e+02
   5.878665e+01   2.439646e+02
  -8.682075e+01   2.266985e+02
  -2.084478e+02  -5.155322e+01
  -1.525386e+02  -2.158547e+02
   4.493582e+01  -2.504583e+02
   2.590121e+02  -8.905149e+01
   3.335287e+02   1.513397e+02
   1.806573e+02   3.642874e+02
  -5.340651e+01   2.497961e+02
  -1.781275e+02   1.220547e+02
  -1.381433e+02   3.052456e+01
  -1.185617e+02   9.480832e+01
  -2.511766e+02   3.544490e+01
  -4.358383e+02  -8.048483e+01
  -3.658609e+02  -3.175617e+02
  -1.172454e+01  -4.355730e+02
   3.588699e+02  -4.180742e+02
   5.625484e+02  -2.169125e+02
   3.552440e+02   9.932220e+01
   4.103904e+01   3.228758e+02
  -9.911128e+01   1.727238e+02
  -2.779194e+01   1.204409e+01
   1.137148e+02  -9.259061e+01
   1.399120e+02   6.122482e+01
   3.695631e+01   1.510674e+02
  -1.397242e+02   1.089643e+02
  -1.154928e+02  -6.906070e+01
   1.140153e+01  -1.754230e+02
   1.951518e+02  -2.366064e+01
   1.415575e+02   2.669370e+02
  -3.670158e+01   3.601766e+02
  -1.992500e+02   1.670270e+02
  -3.364269e+02  -4.856321e+01
  -2.978029e+02  -2.797738e+02
  -4.685632e+01  -2.657715e+02
   9.213464e+01  -1.519123e+02
   1.589241e+02   2.066558e+01
   5.380042e+01   4.082527e+01
  -5.952567e+01  -6.429873e+01
   1.156201e+01  -1.316622e+02
   1.407777e+02  -7.033663e+01
   1.619046e+02   5.950492e+00
   3.501023e+01   1.039311e+02
  -5.151925e+01   1.841971e+01
  -2.823118e+01  -7.707159e+01
   1.350012e+02  -1.079873e+02
   2.891242e+02   3.951201e+01
   3.070824e+02   1.407521e+02
   4.242029e+01   2.801765e+02
  -2.608465e+02   2.523140e+02
  -2.368909e+02   1.408288e+02
  -1.341672e+02  -5.928621e+01
   4.049009e+01  -9.015230e+01
   4.716181e+01   8.132911e+00
  -3.824720e+01   9.630649e+01
  -1.874040e+02   5.460266e+01
  -1.536788e+02  -1.141925e+02
  -5.820575e+01  -2.025964e+02
   9.357836e+01  -1.489890e+02
   1.205844e+02  -3.444411e+01
   4.807039e+01   1.473328e+01
  -7.473184e+01  -1.074927e+01
  -5.519293e+01  -7.074414e+01
   9.520687e+01  -1.421791e+02
   2.251941e+02  -2.008865e+01
   1.976807e+02   1.419930e+02
   1.547708e+01   2.490366e+02
  -1.304909e+02   1.888605e+02
  -1.649564e+02  -4.234560e+01
  -4.964646e+01  -1.418759e+02
   6.545161e+01  -1.142326e+02
   9.898981e+01  -3.943105e+01
   1.033133e+01   4.156099e+01
  -5.084887e+01  -1.019747e+01
   2.396448e+00  -1.918851e+01
   6.565855e+01  -2.007945e+01
   1.306326e+02   7.688853e+01
   1.583613e+01   1.430134e+02
  -1.417469e+02   1.662003e+02
  -2.413644e+02  -1.071556e+01
  -2.394497e+02  -1.426425e+02
  -4.165570e+01  -2.471409e+02
   9.997077e+01  -1.530797e+02
   1.162876e+02  -3.888874e+00
   6.724915e+01   5.630166e+01
   3.214105e+00   5.035624e+01
   5.400898e+01  -1.152072e+01
   8.434185e+01   3.679844e-02
   2.098180e+01   6.156792e+01
   7.108847e+00   8.281993e+01
  -1.251549e+02   7.426555e+01
  -1.407524e+02  -6.116186e+01
   1.112861e+01  -1.204732e+02
   1.632709e+02  -7.868442e+01
   2.086741e+02   5.206702e+01
   1.121272e+02   2.314269e+02
  -1.516719e+02   2.372903e+02
  -3.084608e+02   9.479196e+01
  -2.758873e+02  -7.843480e+01
  -8.396197e+01  -1.771500e+02
   4.684980e+01  -1.427896e+02
   9.004442e+01  -6.045313e+01
   8.318243e+01  -9.155301e+01
   7.252525e+01  -9.994140e+01
   8.034682e+01  -9.012339e+01
   1.404259e+02   2.039423e+01
   1.159111e+02   1.622169e+02
   7.578612e+00   1.920078e+02
  -9.180893e+01   1.705534e+02
  -1.243327e+02  -8.381488e+00
  -1.226197e+02  -1.219353e+02
   5.252694e-01  -1.581815e+02
   8.734140e+01  -6.983813e+01
   3.087568e+01  -1.808878e+00
   4.625411e+00   4.119896e+01
  -3.118004e+01   9.813612e+00
   4.127186e+01   6.422756e+00
   8.732167e+01   3.636749e+01
   7.774260e+01   3.428551e+01
  -5.222547e+01   2.243701e+01
  -1.661663e+02  -1.188375e+00
  -1.305924e+02  -5.527457e+01
  -2.213024e+01  -9.543582e+01
   1.210596e+02  -9.403324e+01
   2.028797e+02  -2.745258e+01
   2.880778e+01   8.314378e+01
  -5.951674e+01   2.989481e+01
  -7.631319e+01  -4.512283e+01
   4.137818e-01  -8.011795e+01
   3.438378e+01  -6.621058e+01
   2.927862e+01   3.758851e+01
   5.330879e+01   3.516326e+01
   4.097016e+01   3.056956e+01
   6.092822e+01   1.622219e+01
   9.072861e+01  -7.187135e+00
   3.808673e+01   5.912119e+01
  -1.360513e+01   1.685471e+02
  -1.391305e+02   2.001645e+02
  -1.709045e+02   2.629665e+00
  -1.021324e+02  -9.421504e+01
   1.211820e+01  -1.388702e+02
   4.878779e+01  -9.307419e+01
   5.918825e+01   1.509022e+01
  -3.953387e+01   2.228721e+00
  -1.498431e+02  -4.336078e+01
  -2.794869e+01  -1.078615e+02
   8.993110e+01  -9.257035e+01
   1.866447e+02  -6.300758e+01
   1.706033e+02   2.630250e+01
   3.844280e+01   8.258312e+01
  -6.733085e+01   9.014206e+01
  -4.884282e+01  -1.662827e+01
   3.861195e+01  -1.709175e+01
   8.281447e+01   3.750298e-01
   4.003829e+01   1.028422e+02
  -9.801957e+01   1.668051e+02
  -1.706222e+02   8.226711e+01
  -1.160039e+02  -1.050810e+02
  -2.371781e+01  -1.872919e+02
   6.148002e+01  -1.397317e+02
   1.162850e+02   3.713248e+01
   7.704307e+01   1.320860e+02
   1.247832e+01   1.063937e+02
  -7.103226e+01   1.312658e+01
  -2.551911e+01  -4.388662e+01
  -6.065358e+00  -1.384181e+01
  -2.955824e+01   1.130034e+01
  -2.853209e+01  -5.576222e+00
  -7.492279e+01  -9.661876e+01
   4.073979e+00  -9.633278e+01
   7.245325e+01  -6.062169e+01
   1.178360e+02   3.292035e+01
   1.099205e+02   7.794651e+01
  -5.814797e+00   5.152302e+01
  -9.930657e+01   1.542785e+00
  -6.327235e+01   2.447559e+01
  -2.853083e+01  -8.018262e+00
   3.792694e+01  -1.078689e+01
   3.911390e+01  -7.064384e+00
  -1.774796e+00   7.702345e+00
  -6.810270e+00   2.889330e-01
   5.276592e+01  -1.097332e+01
   8.461102e+01   4.052364e+01
   4.616749e+00   7.095156e+01
  -9.786914e+01   9.476404e+01
  -1.926075e+02   8.123637e+01
  -1.155094e+02  -6.730999e+01
  -4.109303e+01  -1.683405e+02
   1.062212e+02  -1.697068e+02
   1.457926e+02  -6.441145e+01
   4.745685e+01   4.436803e+00
   1.994487e+01   4.568912e+01
   3.118013e+00   6.091935e+00
  -3.612678e+00  -1.908682e+00
   2.697117e+01   5.362129e+01
   2.917671e+01   8.596886e+01
  -2.568481e+01   7.574868e+01
  -1.166908e+02  -1.582694e+01
  -5.946964e+01  -1.112565e+02
  -8.385135e+00  -1.245181e+02
   8.265800e+01  -2.885048e-01
   1.207774e+02   9.225701e+01
   7.344749e+01   9.736128e+01
  -5.299120e+01   5.189757e+01
  -1.032664e+02   1.661145e+01
  -5.218206e+01  -6.744379e+01
   4.214808e+01  -7.476631e+01
   5.329966e+01  -2.345750e+01
  -4.064083e+00   1.963175e+01
  -4.600872e+01   7.045833e+00
  -2.810846e+01  -3.771690e+01
   7.807380e+01  -6.946763e+01
   1.132018e+02  -4.446906e+01
   6.393335e+01   2.310325e+01
  -2.551772e+00   8.530653e+01
  -4.750126e+01   7.342342e+01
  -5.833829e+01  -1.172202e+01
   1.250396e+01  -5.771487e+01
   3.066067e+01  -4.134013e+01
   6.190287e+00   4.414797e+01
   1.261998e+01   3.864202e+01
  -1.537825e+01   4.327530e+01
  -3.105883e+01  -9.707549e-01
  -6.193794e+01  -1.820057e+01
  -3.390279e+01  -1.214391e+00
   3.688673e+00   2.761213e+01
   1.042207e+01   1.041113e+01
   5.224153e+00  -4.371695e+01
   1.015217e+01  -4.674216e+01
   5.920634e+00  -1.456555e+01
   4.628698e+01   6.021821e+01
  -1.497484e+01   3.664225e+01
  -4.753391e+01   2.063992e+01
  -8.917880e+01  -2.548489e+01
  -2.592592e+01  -6.362842e+01
   7.477564e+01  -3.845852e+01
   8.234399e+01   2.470573e+00
   3.538048e+01   5.800138e+01
  -2.705053e+01   3.109603e+01
  -4.978513e+01   1.749459e+01
  -3.188652e+01   2.356854e+01
   5.833535e+01   6.507675e+00
   4.643019e+01   3.105930e+00
  -4.378956e+01   5.500720e+01
  -1.064535e+02   5.477007e+00
