
 $NMID
 id='ANONYMOUS ', fmtdat='(2E16.6)'
 volume=1.0
 tramp=1.0
 $END
   3.957827e+03  -7.397304e+01
   2.485231e+03   2.335244e+03
  -4.295108e+02   2.569854e+03
  -2.024566e+03   8.511947e+02
  -7.924413e+02  -1.467483e+02
   4.928089e+02  -2.499863e+02
   4.415151e+02   3.246651e+02
   5.914845e+01   9.304358e+02
  -7.295344e+02   5.672093e+02
  -7.752330e+02  -5.749096e+01
  -4.393900e+02  -7.707827e+02
   1.209454e+02  -7.342485e+02
   4.170084e+02  -5.048468e+01
   3.850930e+02   5.882545e+02
  -2.269220e+02   5.939669e+02
  -5.428267e+02  -4.660850e+00
  -2.771781e+02  -5.546791e+02
   2.113140e+02  -5.827138e+02
   5.663084e+02  -2.506614e+02
   4.185086e+02   2.207058e+02
   6.518429e+01   4.466233e+02
  -2.032433e+02   2.335127e+02
  -1.374539e+02   4.238463e+01
   1.956851e+02  -3.895383e+01
   3.542571e+02   2.363761e+02
   8.079276e+01   3.608264e+02
  -4.986461e+02   3.728399e+02
  -8.005670e+02  -1.764688e+02
  -3.455557e+02  -5.238288e+02
   4.681020e+02  -3.913150e+02
   5.917540e+02   3.343558e+01
   2.541844e+02   4.355672e+02
  -3.504299e+02   5.035075e+02
  -5.716488e+02   1.775386e+02
  -3.985142e+02  -1.655770e+02
  -3.372317e+01  -4.057870e+02
   1.191116e+02  -2.132386e+02
   5.637568e+01   1.773702e+02
  -1.423552e+02   2.602566e+02
  -3.828575e+02  -1.141449e+02
  -6.411146e+01  -6.411825e+02
   2.808718e+02  -6.410126e+02
   4.901715e+02   7.946554e+01
   2.938651e+02   4.926571e+02
  -2.166207e+02   2.160248e+02
  -2.125565e+02  -2.855983e+02
   8.744601e+01  -4.404219e+02
   5.284711e+02  -6.017184e+01
   6.359218e+02   4.042177e+02
   1.389273e+02   5.627974e+02
  -3.658479e+02   2.840302e+02
  -6.011411e+02  -1.467784e+02
  -3.825054e+02  -3.421678e+02
   1.242752e+02  -2.890472e+02
   3.569233e+02  -8.428730e+01
   2.305914e+02   9.670173e+01
  -5.500874e+01   6.051505e+01
  -6.725888e+01  -8.547151e+01
   1.454212e+02  -1.033022e+02
   2.749196e+02   6.598496e+01
   1.487997e+02   2.456068e+02
  -2.012261e+02   2.300362e+02
  -3.557307e+02   6.080538e+01
  -2.323358e+02  -6.424170e+01
  -5.227808e+00  -2.725546e+02
   3.150827e+02  -4.074406e+02
   3.587040e+02  -1.570811e+02
   2.248881e+02   1.540963e+02
   1.074292e+01   4.635275e+02
  -6.004701e+01   3.433981e+02
  -1.021443e+02   1.313054e+02
  -1.707130e+01   3.358407e+01
  -9.313340e+01   1.248868e+02
  -2.208838e+02   1.105537e+02
  -2.653516e+02  -1.162356e+02
  -8.715455e+01  -2.527208e+02
   9.955748e+01  -2.248303e+02
   2.015403e+02   3.216350e+01
   1.610183e+02   2.319868e+02
  -2.613001e+01   2.544672e+02
  -2.833110e+02   1.188964e+02
  -3.257598e+02  -1.788493e+02
  -2.153798e+02  -3.377183e+02
   2.873174e+01  -2.581440e+02
   1.786964e+02  -1.687860e+02
   1.782251e+02  -2.779958e+01
   1.176341e+02  -8.468862e+01
   2.488136e+02  -5.401231e+01
   3.709897e+02   1.155150e+02
   3.339634e+02   3.421143e+02
  -1.109199e+01   4.584347e+02
  -3.821696e+02   4.286435e+02
  -5.737384e+02   1.964107e+02
  -3.034386e+02  -8.856537e+01
  -1.631742e+01  -2.687673e+02
   9.420685e+01  -2.304992e+02
   5.622720e+01  -2.088582e+01
  -1.159235e+02   1.079881e+02
  -1.614343e+02  -6.790984e+01
  -7.522402e+00  -1.771182e+02
   1.532759e+02  -1.284032e+02
   1.522415e+02   7.432761e+01
  -4.231296e+01   1.502531e+02
  -1.816508e+02   2.307884e+01
  -1.863410e+02  -2.716723e+02
   3.558011e+01  -3.221693e+02
   2.022111e+02  -1.662358e+02
   3.073909e+02   8.530318e+01
   3.105920e+02   2.484772e+02
   6.362856e+01   2.894646e+02
  -9.740535e+01   1.421683e+02
  -1.559413e+02   8.265112e-01
  -5.093570e+01  -1.117062e+01
   3.838066e+01   4.943816e+01
   1.982033e+01   1.262198e+02
  -1.367161e+02   5.856773e+01
  -1.562925e+02  -3.414356e+01
  -5.576424e+01  -1.042117e+02
   8.531980e+01  -2.830449e+01
   3.303536e+01   6.734632e+01
  -1.151010e+02   8.920089e+01
  -2.581482e+02   4.075064e+01
  -2.996122e+02  -1.678448e+02
  -3.479354e+01  -2.847787e+02
   1.705578e+02  -2.264933e+02
   2.752487e+02  -1.615953e+02
   1.502155e+02   7.491718e+01
  -3.067939e+01   1.017929e+02
  -3.815101e+01   6.124732e+00
   5.696948e+01  -1.132624e+02
   1.798896e+02  -2.962967e+01
   1.725990e+02   8.642379e+01
   7.243362e+01   2.128461e+02
  -1.041049e+02   1.661772e+02
  -1.318524e+02   5.760797e+00
  -3.056569e+01  -4.820560e+01
   6.828293e+01   4.085525e+00
   2.674529e+01   6.008109e+01
  -8.740726e+01   1.205679e+02
  -2.158844e+02   3.934830e+01
  -2.113945e+02  -1.449499e+02
  -2.420570e+01  -2.170686e+02
   1.521510e+02  -1.707434e+02
   1.780176e+02   5.111159e+00
   9.337206e+01   1.509967e+02
  -4.629078e+01   1.343740e+02
  -8.973291e+01   2.467857e+01
  -1.929609e+01  -1.195079e+01
   4.812862e+01  -2.326413e+01
  -1.607911e+01   1.041153e+01
  -9.369855e+01   1.633719e+01
  -7.749146e+01  -8.087360e+01
  -2.805504e+01  -1.466560e+02
   1.734896e+02  -1.669379e+02
   2.379832e+02  -1.274161e+01
   1.873729e+02   1.363128e+02
   4.252094e+01   2.189052e+02
  -9.910277e+01   1.353053e+02
  -1.403363e+02   2.269886e+01
  -7.324816e+01  -4.096732e+01
  -6.129264e+00  -3.484829e+01
  -3.106901e+01   3.657733e+01
  -6.805510e+01   1.879869e+01
  -3.022909e+01  -7.075253e+01
   2.401680e+01  -1.049612e+02
   1.360416e+02  -5.032379e+01
   1.369070e+02   3.073855e+01
  -3.214736e+01   1.064931e+02
  -1.680016e+02   9.990107e+01
  -2.140175e+02  -6.916718e+01
  -6.762480e+01  -2.298880e+02
   1.821859e+02  -2.514690e+02
   2.597796e+02  -9.729870e+01
   2.589387e+02   8.018344e+01
   7.232888e+01   1.796274e+02
  -4.181289e+01   1.252827e+02
  -8.308297e+01   1.037519e+02
  -7.119128e+01   9.705899e+01
  -6.269092e+01   7.546868e+01
  -6.270143e+01   1.080643e+02
  -1.251213e+02  -6.061869e+00
  -1.335403e+02  -1.510146e+02
  -3.802167e+01  -2.236276e+02
   9.314144e+01  -1.486129e+02
   1.595656e+02   5.658265e+00
   1.112533e+02   1.199523e+02
   1.327510e+01   1.605935e+02
  -7.501647e+01   8.796215e+01
  -5.810088e+01  -4.766901e+00
  -1.244572e+01  -3.650488e+01
   4.363043e+01  -4.126956e+01
  -3.120895e+01  -1.933166e+01
  -8.096449e+01  -3.273471e+01
  -4.095054e+01  -2.388856e+01
   6.463328e+01  -2.573317e+01
   2.029041e+02  -4.648641e+00
   1.484752e+02   6.113969e+01
   8.247937e+00   1.023668e+02
  -1.491344e+02   7.799372e+01
  -2.016687e+02   7.482993e+00
  -3.831344e+01  -3.324629e+01
   6.959522e+01  -6.171144e+01
   4.882735e+01   4.928568e+01
   3.815456e-01   7.228791e+01
  -5.051733e+01   7.603310e+01
  -4.254431e+01  -7.876278e+00
  -6.502417e+01  -2.533879e+01
  -5.072526e+01  -7.444082e+01
  -4.543083e+01  -1.097866e+01
  -6.159445e+01   3.641586e+00
  -5.710201e+01  -7.306640e+01
   6.482674e+01  -1.614188e+02
   1.122788e+02  -1.752002e+02
   1.773378e+02  -7.604041e+00
   1.013346e+02   9.844172e+01
  -3.520103e+00   1.327945e+02
  -8.629721e+01   7.117276e+01
  -8.640669e+01  -2.047308e+01
   4.087742e+01  -5.127019e+01
   1.649876e+02   2.490276e+01
   7.172013e+01   9.056420e+01
  -8.591243e+01   1.089037e+02
  -2.118854e+02   5.502765e+01
  -1.957746e+02  -4.732127e+01
  -3.325838e+01  -8.380564e+01
   8.538968e+01  -7.649779e+01
   6.264894e+01   8.664380e+00
  -6.500649e+01   8.117602e+00
  -8.955331e+01  -2.749071e+01
  -1.799239e+01  -1.139032e+02
   9.467776e+01  -1.629585e+02
   1.856334e+02  -7.939370e+01
   1.147543e+02   6.145716e+01
   3.154230e+01   1.995774e+02
  -8.673731e+01   1.366670e+02
  -1.207841e+02  -5.015981e+00
  -6.443808e+01  -9.825527e+01
   1.284848e+01  -1.152911e+02
   4.696390e+01  -4.650723e+01
   5.403372e+01   1.884372e+01
   3.982113e+01  -2.323984e+00
   2.159451e+00  -1.700007e+01
   2.201039e+01   1.464101e+01
   7.029431e+01   1.116203e+02
   5.201070e+01   9.430817e+01
  -5.434076e+01   7.063719e+01
  -1.471815e+02  -5.030440e+01
  -1.143599e+02  -3.419017e+01
  -5.416813e+00  -4.865812e+01
   1.026512e+02  -1.912625e+01
   6.749321e+01  -2.000788e+01
   3.234257e+01  -8.230058e+00
  -4.012697e+01   8.079226e+00
  -2.337733e+01  -3.752004e+00
   1.120134e+01   3.413975e+00
  -3.176353e+01  -4.528445e+00
  -7.075459e+01   5.623609e+00
  -9.578935e+01  -2.284441e+01
  -1.632086e+01  -8.688633e+01
   1.119431e+02  -1.351009e+02
   1.883630e+02  -1.050207e+02
   1.372663e+02   7.867031e+01
   2.432736e+01   1.457591e+02
  -1.048916e+02   1.824170e+02
  -1.433278e+02   4.427254e+01
  -6.884092e+01  -2.716119e+01
  -9.264795e+00  -4.673370e+01
   1.271332e+00   2.781321e+00
  -3.500619e+01   1.911726e+01
  -9.929513e+00  -6.813444e+01
  -2.356039e+01  -9.418400e+01
   2.861328e+01  -7.563463e+01
   1.073420e+02   1.975130e+01
   1.031383e+02   7.378524e+01
  -1.271708e+01   1.097638e+02
  -8.978359e+01   4.326892e+01
  -1.334195e+02  -1.017499e+02
  -2.007245e+01  -9.599213e+01
   5.487075e+01  -5.485477e+01
   1.016669e+02   1.664200e+01
   3.911055e+01   2.108231e+01
  -3.934322e+01   5.822141e+01
  -5.255553e+01   1.747152e+01
   5.209403e+01  -7.148009e+00
   5.243438e+01   7.766888e+00
  -3.337896e+00   2.885180e+01
  -8.072826e+01   1.000768e+02
  -1.140562e+02   6.743533e+01
  -9.782305e+01  -1.215560e+01
   5.763421e+00  -7.482388e+01
   3.266101e+01  -8.635880e+01
   3.712658e+01  -2.925603e+01
   1.483744e+00   3.504025e+01
   9.010588e-01   4.804108e+01
  -1.923166e+00  -3.139416e+01
  -4.107933e+01  -3.823753e+01
  -2.539142e+01  -3.337864e+01
   2.785194e+01  -1.086358e+01
   3.534251e+01   2.607812e+01
   3.730414e+01   4.220299e-01
  -7.840902e+00  -1.803995e+01
  -9.034177e+00  -1.676500e+01
   3.186643e+00   4.166305e+01
  -1.799408e+01   4.598144e+01
  -7.462681e+00   2.711965e+01
  -3.286902e+01  -6.066433e+01
  -1.558780e+01  -5.172231e+01
   4.014441e+01  -3.206917e+01
   3.603151e+01   3.718921e+01
   1.093616e+01   5.907084e+01
  -6.004931e+01   3.373600e+01
  -7.802783e+01  -2.981111e+01
  -4.362863e+01  -6.875829e+01
   4.607846e+01  -2.968186e+01
   7.688079e+01  -1.702764e+01
   5.332671e+00   1.992166e+01
  -2.373118e+01   5.873424e+00
  -4.043399e+01  -2.315378e+01
   1.954106e+01  -3.323296e+01
   7.750662e+01  -2.805312e+01
