
 $NMID
 id='ANONYMOUS ', fmtdat='(2E16.6)'
 volume=1.0
 tramp=1.0
 $END
   4.039648e+03  -1.763685e+02
   2.681204e+03   2.109060e+03
  -4.731665e+02   2.233775e+03
  -1.777671e+03   1.157915e+03
  -1.047938e+03  -5.303989e+02
   4.614151e+02  -6.157656e+02
   6.709274e+02   1.196048e+02
   2.000004e+01   8.526403e+02
  -6.623336e+02   6.461798e+02
  -7.932628e+02  -8.573075e+01
  -5.070533e+02  -6.555262e+02
   2.050839e+02  -8.395271e+02
   4.814802e+02  -1.681178e+02
   3.337653e+02   6.190275e+02
  -2.002145e+02   6.331129e+02
  -5.121968e+02   1.212160e+02
  -2.499654e+02  -6.063829e+02
   2.831975e+02  -6.862745e+02
   5.631304e+02  -1.983799e+02
   3.925026e+02   2.959724e+02
   5.970388e+01   4.099742e+02
  -2.396161e+02   2.614509e+02
  -1.336509e+02   2.852548e+01
   1.355137e+02  -1.481143e+01
   2.666765e+02   2.011739e+02
   7.011015e+01   3.846489e+02
  -5.405680e+02   2.667876e+02
  -8.199758e+02  -7.677740e+01
  -3.284433e+02  -4.585546e+02
   3.072085e+02  -4.257031e+02
   6.611838e+02   1.081339e+02
   3.025613e+02   4.069670e+02
  -1.922728e+02   4.640243e+02
  -5.057138e+02   1.658422e+02
  -3.292471e+02  -1.810746e+02
  -1.013857e+01  -3.553443e+02
   1.121255e+02  -2.723217e+02
   9.739834e+01   1.453783e+02
  -1.394263e+02   2.497493e+02
  -3.657523e+02  -9.938191e+01
  -2.412724e+02  -6.120607e+02
   2.461438e+02  -7.267955e+02
   5.108345e+02  -8.304197e+00
   2.460356e+02   4.002471e+02
  -2.039896e+02   2.581670e+02
  -2.290021e+02  -2.441189e+02
   5.395955e+01  -4.052070e+02
   5.220655e+02  -1.130310e+02
   5.305065e+02   4.111244e+02
   1.868625e+02   5.128063e+02
  -4.005392e+02   2.928554e+02
  -5.695020e+02  -2.557214e+01
  -3.483591e+02  -3.720105e+02
   1.237409e+02  -3.774711e+02
   3.242819e+02  -9.790331e+01
   2.178376e+02   8.874113e+01
  -3.068571e+01   9.980499e+01
  -1.150339e+02  -1.206440e+02
   1.618317e+02  -1.147590e+02
   2.932005e+02   4.353495e+01
   1.626060e+02   2.878853e+02
  -1.791170e+02   2.316182e+02
  -3.718659e+02   6.957146e+01
  -1.839101e+02  -1.079839e+02
   5.488734e+00  -2.677997e+02
   2.376077e+02  -3.772581e+02
   3.623926e+02  -1.850438e+02
   2.478692e+02   1.517730e+02
   4.517634e+01   4.250221e+02
  -9.607630e+01   3.497027e+02
  -9.869210e+01   1.151855e+02
  -2.626281e+01   3.772650e+01
  -7.288824e+01   1.000203e+02
  -1.956301e+02   1.080549e+02
  -2.018688e+02  -8.735905e+01
  -1.260952e+02  -2.813692e+02
   4.754273e+01  -2.022001e+02
   2.127899e+02   2.354265e+01
   1.710474e+02   2.535936e+02
  -3.340888e+01   2.690889e+02
  -2.750113e+02   6.526624e+01
  -3.230371e+02  -1.566171e+02
  -1.507565e+02  -3.382998e+02
   4.981929e+01  -2.630885e+02
   2.219822e+02  -1.276019e+02
   1.319938e+02  -1.357577e+01
   1.326648e+02   4.169938e+00
   2.917251e+02  -3.489912e+01
   4.205354e+02   9.305992e+01
   3.242016e+02   3.135120e+02
  -4.024153e+00   4.328634e+02
  -3.389005e+02   4.518847e+02
  -5.092923e+02   1.469485e+02
  -2.953824e+02  -6.759447e+01
  -5.377452e+01  -3.074873e+02
   8.837884e+01  -2.436342e+02
   9.174076e+01  -3.167546e+01
  -8.285941e+01   1.003384e+02
  -1.662701e+02  -2.543382e+01
  -3.607618e+01  -1.379349e+02
   1.125099e+02  -1.559211e+02
   1.360456e+02   5.660023e+01
  -2.106994e+01   1.927078e+02
  -1.968978e+02   1.357181e+01
  -1.551907e+02  -2.549977e+02
   7.087390e+00  -3.639781e+02
   2.193660e+02  -1.591264e+02
   3.369534e+02   8.532624e+01
   2.366310e+02   2.691695e+02
   6.397205e+01   2.991638e+02
  -1.231157e+02   1.486542e+02
  -1.621532e+02  -4.611557e+01
  -3.236488e+00  -3.292957e+01
   5.527057e+01   8.569166e+01
   9.516873e+00   1.453634e+02
  -1.147156e+02   5.520671e+01
  -1.521971e+02   2.067243e+01
  -3.219797e+01  -4.110163e+01
   1.194405e+02  -1.652709e+01
  -1.382178e+00   8.372757e+01
  -1.387384e+02   8.203030e+01
  -2.831263e+02  -6.720852e+01
  -2.517469e+02  -1.093525e+02
  -5.348940e+01  -2.682216e+02
   2.716125e+02  -2.398771e+02
   2.452325e+02  -1.123461e+02
   1.713032e+02   3.319684e+01
  -3.593436e+01   7.320822e+01
  -6.777864e+01   2.357967e+01
   5.124590e+01  -7.527949e+01
   1.878079e+02  -3.705349e+01
   2.167368e+02   1.213428e+02
   5.882347e+01   2.231013e+02
  -5.876320e+01   1.670804e+02
  -1.294397e+02   3.682756e+01
  -8.401337e+01  -4.223532e+01
   4.756036e+01  -1.991154e+00
   6.129047e+01   1.013238e+02
  -6.125884e+01   9.423127e+01
  -1.718094e+02  -1.190791e+01
  -1.852317e+02  -1.222486e+02
  -1.820848e+01  -2.326512e+02
   1.746502e+02  -1.498783e+02
   1.817702e+02   1.348333e+01
   7.150088e+01   1.209103e+02
  -4.820409e+01   1.123185e+02
  -1.093097e+02   2.145815e+01
  -1.078688e+01  -2.896632e+01
   3.060576e+01  -1.691309e+01
  -1.353781e+01   2.012585e+01
  -6.702822e+01   3.650571e+00
  -7.796514e+01  -6.711121e+01
  -4.961815e+00  -1.924671e+02
   1.173384e+02  -1.164852e+02
   2.298868e+02   3.356284e+00
   2.386025e+02   1.552632e+02
   3.673198e+01   2.486367e+02
  -1.007166e+02   1.490174e+02
  -1.121863e+02   4.185880e+01
  -5.854624e+01  -5.053815e+01
  -2.421876e+01  -3.555359e+01
  -4.276560e+01   8.296613e-01
  -8.070352e+01   1.115177e+01
  -6.316276e+01  -5.987709e+01
   3.200604e+01  -7.094046e+01
   1.062346e+02  -8.055520e+01
   9.374926e+01   6.606723e+01
  -1.661939e+01   9.912077e+01
  -1.357130e+02   6.788869e+01
  -1.832412e+02  -2.411879e+01
  -9.368046e+01  -2.057664e+02
   1.150580e+02  -2.362096e+02
   2.636265e+02  -7.457273e+01
   2.448695e+02   1.345692e+02
   1.386202e+02   1.789649e+02
  -1.395645e+01   1.486168e+02
  -9.653886e+01   8.411526e+01
  -1.008548e+02   6.805424e+01
  -6.692400e+01   6.450808e+01
  -9.170324e+01   9.186778e+01
  -1.164434e+02  -2.765271e+01
  -8.030984e+01  -1.942185e+02
  -3.354148e+00  -2.033889e+02
   1.064067e+02  -1.686435e+02
   1.669455e+02  -2.285333e+01
   1.070628e+02   8.240176e+01
   9.153581e+00   1.686085e+02
  -5.888935e+01   7.244313e+01
  -6.475854e+01  -1.698567e+01
   2.107987e+01  -3.209245e+01
   2.326036e+01  -1.251594e+01
  -3.343219e+01  -5.725207e+00
  -7.872633e+01  -1.136212e+01
  -9.922038e+00  -4.082063e+01
   7.344298e+01  -2.638326e+01
   1.241557e+02  -7.129520e+00
   1.186010e+02   3.077805e+01
   4.458622e+01   9.630254e+01
  -1.163464e+02   9.770882e+01
  -1.569806e+02   4.357669e+00
  -2.272174e+01  -5.408500e+01
   3.471581e+01  -3.736643e+01
   9.004282e+01   2.156554e+01
  -1.500488e+01   4.121875e+01
  -6.671976e+01   8.242595e+01
  -6.810351e+01   1.119743e+01
  -5.611197e+01  -7.006953e+01
  -2.561260e+01  -6.865257e+01
  -7.625322e+01  -1.598887e+01
  -7.849042e+01   7.015684e+00
  -5.311199e+01  -5.467711e+01
  -4.903553e+00  -1.699857e+02
   1.267393e+02  -1.181375e+02
   1.612658e+02  -4.407874e+00
   1.491655e+02   9.240183e+01
   2.164541e+01   1.363446e+02
  -9.191620e+01   1.303972e+01
  -4.742805e+01  -2.423984e+01
   5.135860e+01  -3.242383e+01
   1.221713e+02   7.393387e+01
   7.019300e+01   9.947108e+01
  -7.988060e+01   9.481868e+01
  -1.824813e+02   6.635411e+01
  -1.561993e+02  -2.029091e+01
  -9.956035e+00  -6.917679e+01
   6.644780e+01  -8.200108e+01
   4.439876e+01   1.493510e+00
   1.202884e+01   2.058930e+01
  -1.009582e+02  -4.398940e+01
  -3.321238e+01  -1.249603e+02
   1.361518e+02  -1.835709e+02
   1.753942e+02  -8.364373e+01
   8.967409e+01   1.107443e+02
  -4.758596e+00   2.239404e+02
  -5.804674e+01   1.125046e+02
  -1.288330e+02  -1.020180e+01
  -5.410098e+01  -1.109258e+02
   1.693656e+00  -1.041171e+02
   4.361263e+01  -1.976257e+01
   5.212841e+01   1.522692e+01
   2.038871e+01   1.711899e+01
   1.244271e+00  -4.038677e+01
   2.251748e+01   1.539181e+01
   7.513557e+01   8.968496e+01
   1.786925e+01   1.139522e+02
  -6.562091e+01   2.401993e+01
  -9.234733e+01  -3.944050e+01
  -1.021694e+02  -6.102658e+01
  -2.094175e+01  -4.140825e+01
   9.108445e+01  -1.772177e+01
   8.360150e+01   5.703132e+00
  -1.354068e+01   1.478234e+01
  -9.307601e+00   1.608783e+01
  -3.497571e+01   2.962952e+01
   3.526758e+01   1.705532e+01
   8.686404e+00  -9.769236e+00
  -7.084261e+01  -9.939903e+00
  -9.514625e+01  -3.314076e+01
  -3.185592e+01  -5.141155e+01
   1.349850e+02  -1.208066e+02
   1.856581e+02  -5.180931e+01
   1.138676e+02   5.137495e+01
   1.596164e+01   1.663773e+02
  -5.318600e+01   1.462712e+02
  -9.297323e+01   7.227059e+01
  -7.429792e+01  -3.935234e+00
  -3.240850e+01  -5.222019e+01
  -2.366493e-02   2.822658e+00
   5.067737e+00  -1.311025e+00
  -7.222465e+00  -5.175488e+01
  -8.138313e+00  -1.001111e+02
   4.996926e+01  -4.698779e+01
   9.052217e+01   4.684376e+01
   5.412785e+01   1.180480e+02
  -3.761682e+00   1.307872e+02
  -6.276616e+01   2.157357e+01
  -7.833543e+01  -1.002205e+02
  -3.575915e+01  -8.797670e+01
   6.641375e+01  -4.669545e+01
   1.214347e+02   2.551360e+01
   7.934628e+01   8.929483e+01
  -3.440714e+01   3.342993e+01
  -6.002661e+01   2.412169e+01
   5.049031e+01   1.123634e+01
   6.793441e+01  -4.395437e+00
   2.367774e-01   2.356726e+01
  -8.206214e+01   7.223988e+01
  -1.207188e+02   3.745079e+01
  -4.652482e+01  -1.422453e+00
   2.406836e+01  -9.291769e+01
   7.508055e+01  -9.185748e+01
   5.623564e+01   3.425188e+00
   3.631244e+00   8.744918e+01
  -3.099392e+01   1.497287e+01
  -1.717964e+01  -5.232243e+00
  -4.649815e+01  -4.715604e+01
   3.333068e+01  -4.808822e+01
   3.793733e+01   4.109445e+00
   3.748812e+01   1.584438e+01
   2.835858e+01   1.319376e+01
  -5.831801e+00  -2.255825e+00
  -1.663379e+01  -1.196358e+01
  -3.072786e+01   1.805898e+01
   6.443144e+00   2.987409e+01
  -4.864706e+01  -5.265143e+00
  -5.113115e+01  -5.635162e+01
  -4.658517e-01  -3.664164e+01
   3.972237e+01  -1.231496e+01
   6.949312e+01   5.625066e+01
   1.245039e+01   8.622445e+01
  -1.025297e+02   3.153183e+01
  -6.890401e+01   3.146341e+00
  -5.874220e+01  -4.336767e+01
   2.638332e+01  -1.517696e+01
   6.386333e+01  -5.391974e+01
   2.165238e+01  -9.929395e+00
  -3.827215e+01   4.178010e+00
  -1.217870e+01  -2.380924e+01
   5.162890e+01  -2.845565e+01
   9.269524e+01  -1.650147e+00
