
 $NMID
 id='ANONYMOUS ', fmtdat='(2E16.6)'
 volume=1.0
 tramp=1.0
 $END
  -4.368295e+03  -2.638980e+01
  -2.465180e+03  -2.907607e+03
   7.483026e+02  -3.034524e+03
   2.235733e+03  -9.199195e+02
   9.964384e+02   8.987279e+02
  -8.191934e+02   5.075566e+02
  -8.689330e+02  -6.187439e+02
  -1.455425e+00  -1.208981e+03
   9.403500e+02  -7.378905e+02
   9.480192e+02   1.518701e+02
   4.977261e+02   8.359295e+02
  -2.607280e+02   8.562925e+02
  -6.126644e+02   1.654501e+02
  -3.487269e+02  -7.545616e+02
   1.621390e+02  -7.356113e+02
   6.003293e+02  -3.175548e+01
   2.915910e+02   6.748715e+02
  -3.309184e+02   6.117017e+02
  -5.852231e+02   1.635874e+02
  -3.671085e+02  -3.913676e+02
   1.221174e+01  -4.440161e+02
   2.693736e+02  -2.546324e+02
   1.549945e+02  -8.892989e+00
  -1.648683e+02   7.644846e+01
  -4.751994e+02  -1.128315e+02
  -1.628005e+02  -4.627745e+02
   5.007047e+02  -3.636449e+02
   8.611189e+02   1.165096e+02
   4.472811e+02   5.019613e+02
  -5.483987e+02   5.371762e+02
  -8.292408e+02  -3.293461e+01
  -4.201701e+02  -4.713044e+02
   3.100284e+02  -5.905002e+02
   6.243649e+02  -1.668527e+02
   4.130777e+02   2.142666e+02
  -7.320716e+00   5.003417e+02
  -1.779951e+02   2.825016e+02
  -1.037107e+02  -2.880867e+02
   2.038743e+02  -3.613293e+02
   4.661914e+02   4.781988e+01
   1.942093e+02   7.297341e+02
  -3.767261e+02   8.172978e+02
  -6.802646e+02   3.332307e-01
  -2.311671e+02  -5.641696e+02
   3.037930e+02  -2.964219e+02
   3.770657e+02   3.065677e+02
  -3.172835e+01   5.964340e+02
  -5.231587e+02   1.454132e+02
  -6.358648e+02  -3.872421e+02
  -2.378983e+02  -6.238602e+02
   3.862820e+02  -4.208157e+02
   7.166371e+02   1.186246e+02
   3.813530e+02   4.143032e+02
  -2.280682e+02   3.302090e+02
  -4.128114e+02   9.490594e+01
  -2.075197e+02  -1.941656e+02
   1.402993e+02  -1.437053e+02
   1.228787e+02   1.529358e+02
  -1.442833e+02   2.263677e+02
  -3.783290e+02  -3.143189e+01
  -1.660679e+02  -3.345936e+02
   2.224244e+02  -2.661644e+02
   3.491474e+02  -3.031771e+01
   1.999147e+02   8.746761e+01
   2.619543e+01   2.377418e+02
  -2.361391e+02   3.543942e+02
  -3.893664e+02   1.952736e+02
  -2.725329e+02  -1.730778e+02
  -4.781843e+01  -4.456208e+02
   5.096393e+01  -3.939452e+02
   1.422414e+02  -1.161813e+02
   1.760666e+01   1.610247e+01
   5.891736e+01  -1.240914e+02
   2.089788e+02  -1.706984e+02
   2.707210e+02   3.341807e+01
   1.725769e+02   3.314351e+02
  -7.990644e+01   2.797167e+02
  -2.321354e+02   1.097500e+01
  -2.081658e+02  -2.700325e+02
   3.906120e+01  -3.132162e+02
   2.816589e+02  -8.732098e+01
   4.346834e+02   1.608375e+02
   1.797117e+02   3.933253e+02
  -1.037072e+02   3.241794e+02
  -1.780530e+02   1.528467e+02
  -1.417673e+02   4.272702e+01
  -9.175560e+01   2.065172e+01
  -2.191184e+02   5.000779e+01
  -4.253540e+02  -6.306521e+01
  -3.165940e+02  -2.845310e+02
   1.108060e+01  -4.596742e+02
   3.620889e+02  -4.514912e+02
   5.433503e+02  -2.433439e+02
   3.281344e+02   4.737825e+01
   5.162879e+01   2.915021e+02
  -1.090645e+02   2.373891e+02
  -9.479664e+01   2.664072e+01
   8.087634e+01  -1.240610e+02
   2.233336e+02   1.187110e+01
   6.892249e+01   1.818795e+02
  -1.596468e+02   2.010729e+02
  -1.767303e+02  -5.265887e+01
   3.818044e+01  -2.175998e+02
   1.848882e+02  -2.304690e+01
   1.678497e+02   2.409392e+02
   4.187701e+01   3.242624e+02
  -2.361943e+02   2.277715e+02
  -3.429490e+02  -5.522018e+01
  -2.729727e+02  -2.737944e+02
  -1.193556e+02  -3.012757e+02
   1.143498e+02  -1.993989e+02
   1.681498e+02  -5.005673e+01
   3.790485e+01   1.923687e+01
  -8.660943e+01  -4.222485e+01
  -2.063019e+01  -1.103666e+02
   1.475527e+02  -1.036803e+02
   1.640402e+02   1.599170e+01
   8.843999e+01   7.021999e+01
  -8.213717e+01   1.875976e+01
  -8.119940e+01  -7.656304e+01
   1.402272e+02  -1.116665e+02
   2.894442e+02   2.413169e+01
   2.765195e+02   1.624030e+02
   6.284170e+01   3.098754e+02
  -1.656855e+02   3.054602e+02
  -2.507921e+02   1.519818e+02
  -1.949918e+02  -6.761678e+01
   2.364797e+01  -1.252170e+02
   1.198466e+02  -1.675523e+01
  -3.323238e+01   9.632112e+01
  -2.189330e+02   3.538847e+01
  -2.303147e+02  -8.901353e+01
  -1.083722e+02  -2.140649e+02
   9.745601e+01  -1.969686e+02
   1.519468e+02  -2.534382e+01
   8.103441e+01   3.582371e+01
  -6.314987e+01   1.087887e+01
  -4.120878e+01  -7.961801e+01
   5.033955e+01  -1.272639e+02
   2.339062e+02  -6.029221e+01
   2.174081e+02   1.648372e+02
   4.020580e+00   2.358450e+02
  -1.380522e+02   1.659397e+02
  -2.140316e+02  -2.111430e+01
  -7.100391e+01  -1.085072e+02
   5.014909e+01  -1.092953e+02
   1.089403e+02  -1.831889e+01
   3.987651e+01   4.077639e+01
  -2.088895e+01   3.371173e+01
   3.037496e+00  -3.241215e+01
   5.030449e+01  -7.272170e+00
   9.470281e+01   5.223280e+01
   2.044605e+01   1.601617e+02
  -1.133395e+02   1.564733e+02
  -2.411847e+02   1.706755e+01
  -1.930858e+02  -1.289699e+02
  -2.539851e+01  -2.267563e+02
   1.150188e+02  -1.735684e+02
   1.637401e+02  -2.214862e+01
   6.501121e+01   6.397553e+01
   2.985138e+01   5.845891e+01
   4.844128e+01   1.776567e+01
   7.311720e+01  -2.208972e+01
   8.923606e+00   6.975221e+01
  -3.882775e+01   9.449114e+01
  -1.174064e+02   7.561253e+01
  -1.118710e+02  -6.238717e+00
   1.987166e+01  -8.023775e+01
   1.309117e+02  -7.759701e+01
   2.344503e+02   5.399426e+01
   1.105790e+02   1.905240e+02
  -1.052425e+02   2.676649e+02
  -2.367243e+02   1.232334e+02
  -2.407274e+02  -5.555202e+01
  -1.307146e+02  -1.864400e+02
   2.649656e+01  -1.516162e+02
   9.843188e+01  -9.164112e+01
   8.614656e+01  -7.033846e+01
   8.741968e+01  -1.061844e+02
   6.901792e+01  -7.113695e+01
   1.280322e+02  -2.825124e+01
   1.193752e+02   1.322116e+02
   4.135777e+01   2.228177e+02
  -9.554453e+01   1.903688e+02
  -1.869641e+02   1.585447e+01
  -1.378593e+02  -1.392875e+02
  -4.373412e+01  -1.619555e+02
   5.421186e+01  -1.018541e+02
   9.171177e+01  -8.434422e+00
   2.309955e+01   3.406141e+01
  -1.882771e+01   2.584177e+01
   3.365866e+01   9.418454e+00
   1.043514e+02   3.503772e+01
   4.846030e+01   2.960693e+01
  -8.162784e+01   4.853860e+01
  -1.738394e+02   2.754533e+01
  -1.488958e+02  -4.274729e+01
   3.789441e+00  -9.958260e+01
   1.346516e+02  -1.042133e+02
   1.536254e+02   1.081774e+00
   2.402157e+01   4.440671e+01
  -4.698415e+01   5.310327e+01
  -7.285838e+01  -2.087077e+00
  -1.114482e+01  -5.488676e+01
   6.291829e+01  -4.505492e+01
   5.162159e+01  -1.257496e+01
   8.000353e+01   6.253591e+01
   1.630687e+01   6.282941e+01
   6.207996e+01  -2.024632e+01
   9.198215e+01  -2.281157e+01
   5.461875e+01   4.469267e+01
  -5.293276e+01   1.914906e+02
  -9.905364e+01   1.665829e+02
  -1.478857e+02   3.339171e+01
  -1.528778e+02  -1.162296e+02
   7.537228e-01  -1.277110e+02
   7.096913e+01  -7.355073e+01
   7.061663e+01  -1.543231e+01
  -3.325540e+01   1.023412e+01
  -1.565631e+02  -6.358286e+01
  -8.713715e+01  -1.252234e+02
   8.951667e+01  -1.245597e+02
   1.794034e+02  -6.175662e+01
   1.550195e+02   6.532773e+01
   3.911048e+01   7.395192e+01
  -6.330229e+01   6.435849e+01
  -4.073027e+01  -1.297369e+01
   2.738566e+01  -1.243852e+01
   1.252757e+02   3.142850e+01
   2.773509e+01   1.110558e+02
  -1.268582e+02   1.763030e+02
  -1.608893e+02   8.537022e+01
  -1.062991e+02  -9.653329e+01
   1.827190e+01  -1.767228e+02
   8.920732e+01  -1.554671e+02
   1.054438e+02   8.843566e+00
   5.728715e+01   8.359790e+01
   3.152905e+01   1.017162e+02
  -3.492220e+01   3.649458e+01
  -7.729372e+01  -2.059914e+01
  -5.061466e+01   2.664410e+00
  -7.243079e+00   1.075042e+01
  -2.406467e+01  -1.210051e+01
  -3.437240e+01  -9.085881e+01
  -5.030720e+01  -1.092725e+02
   4.375482e+01  -3.806950e+01
   1.472027e+02   4.822703e+00
   1.170603e+02   6.190210e+01
   2.698610e+01   4.760562e+01
  -6.991307e+01   2.619753e+01
  -8.991706e+01   1.124588e+01
   1.413912e+01  -2.195223e+00
   2.430542e+01  -3.206491e+01
   1.512687e+01  -3.678828e+01
  -1.668347e+01   5.632551e+00
   2.110557e+01  -1.669869e+00
   1.009057e+02  -1.549352e+01
   9.485625e+01   8.672694e+00
  -9.430857e+00   7.746113e+01
  -1.439615e+02   1.157551e+02
  -1.846447e+02   3.960996e+01
  -1.614393e+02  -6.949942e+01
  -3.226378e+01  -1.572222e+02
   1.070667e+02  -1.670791e+02
   1.278054e+02  -6.094326e+01
   8.192441e+01   1.027323e+01
   2.558667e+01   2.426711e+01
   3.616126e+01  -7.862007e+00
   4.901109e+01  -4.969040e+00
   3.670566e+01   6.629939e+01
   4.220904e+01   9.595204e+01
  -2.241300e+01   7.123650e+01
  -9.557336e+01  -3.354876e+01
  -1.196965e+02  -8.884456e+01
  -1.993157e+01  -1.263153e+02
   7.764658e+01  -1.458575e+01
   9.294627e+01   5.633954e+01
   4.161823e+01   1.056415e+02
  -9.790464e+01   6.840478e+01
  -8.362306e+01  -2.812498e+01
  -4.388706e+01  -3.066070e+01
   6.797535e+01  -7.730148e+01
   4.914854e+01   6.828214e+00
  -6.691515e+01  -2.249248e+01
  -7.742115e+01   2.047385e-01
  -1.889218e+01  -1.595762e+01
   7.607250e+01  -7.870485e+01
   1.286980e+02  -8.052343e+01
   6.120984e+01   8.311403e+00
  -2.121312e+01   9.734764e+01
  -6.426891e+01   8.204486e+01
  -3.706694e+01   4.031276e+00
   2.860845e+00  -3.986013e+01
   2.590725e+00  -3.784438e+01
   2.696037e+01  -5.996202e+00
   3.948999e+01   4.934732e+01
   2.268608e+01   2.602027e+01
  -1.402426e+01   3.141479e+00
  -3.728962e+01  -1.790489e+01
  -1.696520e+01   1.604646e+01
  -6.039819e+00   4.580898e+00
   2.857275e+01   9.193349e+00
   1.674990e+01  -5.288155e+01
   3.548714e+01  -6.927120e+01
   7.970080e+01  -3.823454e+01
   2.846408e+01   3.753433e+01
  -6.223907e+00   5.772876e+01
  -6.895227e+01   4.604951e+01
  -3.738143e+01  -4.870460e+01
  -2.335204e+01  -6.225359e+01
   6.324740e+01  -4.680739e+01
   5.796051e+01   2.292660e+01
   4.047290e+01   4.203089e+01
  -5.009911e+01   1.479567e+01
  -4.227471e+01   2.638636e+01
  -3.217846e+01   1.760727e+01
   3.356124e+01   1.940147e-01
   2.258392e+01   2.699484e+01
  -3.991204e+01   1.501960e+01
  -7.338798e+01   1.850859e+01
