
 $NMID
 id='ANONYMOUS ', fmtdat='(2E16.6)'
 volume=1.0
 tramp=1.0
 $END
  -4.419084e+03   9.613031e+00
  -2.561344e+03  -2.564072e+03
   7.246329e+02  -2.774002e+03
   2.221765e+03  -6.447619e+02
   8.217669e+02   5.163526e+02
  -8.708538e+02   4.884645e+02
  -7.525348e+02  -5.178971e+02
   1.679422e+02  -1.146913e+03
   7.967328e+02  -7.555287e+02
   9.443640e+02   1.952187e+02
   4.473462e+02   8.798286e+02
  -2.733598e+02   8.834694e+02
  -6.220383e+02   1.128364e+01
  -3.405625e+02  -8.821360e+02
   3.031764e+02  -6.982473e+02
   5.915777e+02   4.995424e+01
   2.924994e+02   7.709826e+02
  -3.340864e+02   5.914018e+02
  -4.919901e+02   1.076885e+02
  -2.587335e+02  -3.293277e+02
  -2.845842e+01  -4.027562e+02
   2.383952e+02  -2.426461e+02
   2.510999e+02   1.754715e+01
  -1.829906e+02   7.407236e+01
  -4.311479e+02  -1.621665e+02
  -2.066587e+02  -4.863504e+02
   4.136796e+02  -4.875375e+02
   7.907741e+02   8.637557e+01
   4.005685e+02   6.063547e+02
  -4.310134e+02   4.844661e+02
  -7.532188e+02  -1.216781e+02
  -3.547764e+02  -5.007521e+02
   3.319099e+02  -5.046604e+02
   5.599727e+02  -2.366990e+02
   4.893333e+02   2.458537e+02
   7.163033e+01   4.444675e+02
  -2.013158e+02   2.872508e+02
  -1.469112e+02  -2.532364e+02
   1.626612e+02  -4.077570e+02
   4.268463e+02   2.743568e+01
   1.761774e+02   7.378109e+02
  -4.575588e+02   7.358101e+02
  -6.155211e+02  -9.161343e+01
  -1.545223e+02  -6.484868e+02
   2.927174e+02  -3.050886e+02
   4.427748e+02   3.110425e+02
  -1.254436e+02   5.193959e+02
  -5.820099e+02   1.070631e+02
  -6.846286e+02  -3.881975e+02
  -1.905097e+02  -6.480103e+02
   3.617312e+02  -3.758299e+02
   6.462968e+02   5.566239e+01
   3.730916e+02   4.216434e+02
  -1.658172e+02   3.268257e+02
  -5.165165e+02  -2.588708e+01
  -2.294524e+02  -1.479471e+02
   1.245097e+02  -6.902248e+01
   1.440084e+02   1.597386e+02
  -2.108726e+02   1.968956e+02
  -3.314435e+02  -1.328177e+02
  -1.186213e+02  -3.461209e+02
   1.732390e+02  -1.801597e+02
   3.162378e+02  -7.892362e+01
   1.745622e+02   7.348078e+01
  -4.296336e+00   2.271223e+02
  -2.033486e+02   3.289966e+02
  -3.252446e+02   2.649655e+02
  -2.636703e+02  -1.109614e+02
  -5.341390e+01  -3.862498e+02
   1.314156e+02  -4.136113e+02
   1.318917e+02  -8.773373e+01
   3.982989e+01  -2.008155e+01
   6.303824e+01  -1.511514e+02
   2.029905e+02  -1.564056e+02
   2.595258e+02   2.111466e+01
   1.591388e+02   2.981022e+02
  -1.075046e+02   2.098551e+02
  -2.137646e+02   3.612185e+00
  -1.906059e+02  -2.177291e+02
   2.113350e+00  -2.567625e+02
   2.975852e+02  -1.098263e+02
   3.216333e+02   1.883946e+02
   1.410872e+02   3.355665e+02
  -8.786493e+01   2.759757e+02
  -2.275240e+02   1.230395e+02
  -1.324380e+02  -1.758702e+00
  -8.477249e+01   5.024972e+01
  -1.758133e+02   1.045266e+02
  -3.984980e+02  -1.007048e+02
  -3.018791e+02  -2.232403e+02
   7.601732e+01  -4.966365e+02
   3.738810e+02  -3.863056e+02
   5.412246e+02  -2.130540e+02
   2.876002e+02   1.017650e+02
   6.721047e+01   2.827783e+02
  -1.561211e+02   2.765210e+02
  -9.116169e+01   3.367508e+01
   1.386556e+02  -1.154403e+02
   1.906225e+02  -3.512887e+01
   6.750223e+01   1.786842e+02
  -2.016560e+02   1.898240e+02
  -1.890500e+02  -5.709109e+01
   2.404891e+01  -2.039714e+02
   2.078086e+02  -1.605677e+01
   1.312464e+02   2.719764e+02
  -1.757346e+01   3.151773e+02
  -2.836646e+02   1.841490e+02
  -2.992009e+02  -8.488091e+01
  -3.080376e+02  -2.059896e+02
  -6.694709e+01  -3.100071e+02
   1.271419e+02  -1.536465e+02
   1.803716e+02  -6.955361e+01
   6.275911e+01   6.119338e+01
  -8.761483e+01  -4.457959e+01
  -6.903376e+01  -1.053601e+02
   9.526236e+01  -9.179096e+01
   1.478925e+02   1.407099e+01
   5.134276e+01   9.044610e+01
  -1.057724e+02   7.474653e-01
  -6.679934e+01  -1.014800e+02
   1.068232e+02  -9.216450e+01
   2.803698e+02  -5.378628e+00
   2.358328e+02   1.573646e+02
   3.666198e+01   2.580391e+02
  -1.589655e+02   3.071926e+02
  -2.582166e+02   1.343093e+02
  -1.840612e+02  -3.646405e+01
   7.304735e+01  -1.458757e+02
   8.397821e+01  -2.001993e+01
  -4.458648e+01   8.187475e+01
  -2.230366e+02   6.312565e+01
  -2.247021e+02  -1.035927e+02
  -8.024833e+01  -2.098964e+02
   1.034345e+02  -1.347307e+02
   1.168164e+02  -2.214357e+01
   4.847187e+01   5.255229e+01
  -2.784770e+01   2.096543e+01
  -6.776124e+01  -5.790440e+01
   6.023203e+01  -1.217687e+02
   1.873619e+02  -2.971116e+01
   1.872263e+02   8.272286e+01
   3.914179e+01   2.584820e+02
  -1.601099e+02   1.557211e+02
  -2.133809e+02  -1.749546e+01
  -5.188858e+01  -1.302488e+02
   6.439791e+01  -8.813892e+01
   1.114168e+02  -2.293161e+01
   1.313857e+01   1.401657e+01
  -4.188866e+01  -1.052740e+01
  -6.180596e-01  -2.709849e+01
   6.193353e+01   1.232986e+01
   8.142071e+01   8.690588e+01
   5.789045e+00   1.341088e+02
  -1.202129e+02   1.427369e+02
  -2.127025e+02   6.085432e+00
  -1.996254e+02  -1.473657e+02
  -3.316574e+01  -2.180549e+02
   1.120077e+02  -1.486210e+02
   1.506021e+02  -5.061760e+01
   7.539623e+01   4.276313e+01
   1.947664e+01   3.223614e+01
   5.758471e+01   2.391108e+00
   8.228653e+01   1.248024e+01
   5.984952e+01   4.617196e+01
  -2.661128e+01   4.582027e+01
  -6.522241e+01   6.454147e+01
  -8.250863e+01   6.986719e+00
  -3.174494e+00  -7.567447e+01
   1.351482e+02  -7.996684e+01
   1.908899e+02   5.317094e+01
   1.259433e+02   1.888109e+02
  -1.264802e+02   1.938946e+02
  -2.672525e+02   1.106545e+02
  -2.687148e+02  -7.933696e+01
  -1.077410e+02  -1.699842e+02
   5.474359e+01  -1.324558e+02
   1.069263e+02  -9.060241e+01
   8.637349e+01  -6.109967e+01
   4.687543e+01  -8.776207e+01
   1.079424e+02  -6.430970e+01
   1.399776e+02   3.986209e+01
   1.262568e+02   1.596199e+02
   4.338856e+01   2.171632e+02
  -8.263641e+01   1.916402e+02
  -1.947821e+02   6.257011e+00
  -1.550445e+02  -1.443519e+02
  -8.518984e+00  -1.485600e+02
   7.759905e+01  -8.108062e+01
   4.606629e+01   6.971718e-01
  -7.198715e-01   6.337825e+01
  -4.488203e+00   3.886848e+01
  -1.371189e+00   2.596517e+01
   9.292844e+01   4.166942e+01
   3.243940e+01   3.596080e+01
  -6.664588e+01   3.725407e+01
  -1.509088e+02  -1.240601e+01
  -1.907601e+02  -7.723719e+01
   1.368992e+01  -8.830398e+01
   1.191908e+02  -6.161118e+01
   1.294113e+02  -1.591499e+01
   4.549678e+01   2.964917e+01
  -4.352028e+01   4.683783e+01
  -7.779396e+01  -1.299154e+01
  -8.433177e+00  -1.015376e+02
   7.819674e+01  -4.905610e+01
   5.828743e+01   9.209947e+00
   5.550280e+01   6.309976e+01
   4.045662e+01   2.454833e+01
   4.447708e+01  -3.995165e+00
   6.414984e+01  -1.503826e+00
   4.861801e+01   5.649026e+01
  -3.618197e+01   1.368933e+02
  -1.204220e+02   8.670034e+01
  -1.530766e+02   3.459327e+01
  -1.263649e+02  -9.346571e+01
  -4.967650e+00  -1.211715e+02
   8.450577e+01  -7.149438e+01
   9.082443e+01  -4.600675e+01
  -5.821978e+01   1.648079e+01
  -1.786462e+02  -3.628112e+01
  -7.179129e+01  -1.036754e+02
   9.183005e+01  -1.147083e+02
   1.979304e+02  -8.037700e+01
   1.587325e+02   3.283986e+01
   2.538792e+01   1.068479e+02
  -7.069928e+01   5.805482e+01
  -6.420646e+01   9.008784e+00
   5.459892e+01  -2.920597e+01
   4.080180e+01   3.255315e+01
   2.843911e+00   1.067450e+02
  -8.619245e+01   1.469909e+02
  -1.633865e+02   4.359030e+01
  -1.226342e+02  -1.158439e+02
  -4.426568e+01  -1.940740e+02
   8.834769e+01  -1.522357e+02
   1.230243e+02  -1.622371e+01
   6.490546e+01   1.325466e+02
  -1.181609e+01   1.167566e+02
  -3.351031e+01   4.271214e+00
  -2.687764e+01  -1.769953e+01
  -3.740477e+01   2.223132e+01
  -1.421361e+01   2.627620e+01
  -2.533980e+01  -1.861755e+01
  -4.905623e+01  -7.515328e+01
  -6.853921e+01  -9.536448e+01
   6.563975e+01  -4.133483e+01
   1.576003e+02   2.131544e+01
   9.081052e+01   5.211823e+01
  -8.768727e+00   1.414004e+00
  -7.342475e+01   2.025455e+01
  -1.017257e+02   1.518747e+01
   7.922561e+00  -2.374519e+01
   4.597816e+01  -3.874369e+01
   3.859359e+01  -1.225598e+01
  -1.152011e+01  -2.484036e+01
   2.507183e+01   1.600885e+01
   8.742481e+01  -1.122170e+01
   5.658157e+01   1.087888e+01
   2.636287e+00   7.566725e+01
  -1.087258e+02   8.573509e+01
  -1.620572e+02   5.768032e+01
  -1.530466e+02  -7.842372e+01
  -1.629612e+01  -1.494567e+02
   8.840246e+01  -1.581408e+02
   1.228728e+02  -3.044067e+01
   8.438829e+01  -4.035152e+00
   3.367022e+01   2.052315e+01
   2.265371e+00  -1.011157e+01
   6.123063e+00   8.119221e+00
   3.118072e+01   3.502702e+01
   2.494257e+01   9.551024e+01
  -2.514973e+01   7.997773e+01
  -1.018117e+02  -2.317017e+00
  -7.828968e+01  -1.210145e+02
  -1.089753e+01  -1.140576e+02
   7.994910e+01  -2.554896e+01
   4.729399e+01   7.796975e+01
   3.893274e+01   5.688644e+01
  -8.278917e+01   5.140233e+01
  -9.342777e+01  -3.282161e+01
  -2.706200e+01  -3.579122e+01
   1.709597e+01  -4.616024e+01
   4.364158e+01  -1.286615e+01
  -3.031086e+01   1.373003e+01
  -6.223324e+01   2.149208e+01
  -2.385311e+01  -2.994203e+01
   1.106362e+02  -3.231510e+01
   1.209150e+02  -4.625829e+01
   5.299785e+01   4.894281e+00
  -2.960841e+01   8.971914e+01
  -3.566680e+01   7.282734e+01
  -5.104225e+01   5.154951e+00
   1.651737e+01  -3.554707e+01
   4.909078e+01  -3.421767e+01
   3.974652e+01   2.482540e+01
   2.385078e+01   2.534223e+01
   6.786565e+00   2.135730e+01
  -2.164423e+01  -8.153662e+00
  -5.761171e+01  -4.187933e+01
  -1.155725e+01   1.218360e+01
   2.966207e+01   7.572996e+00
   6.115755e+00  -1.715378e+01
   2.947519e+01  -3.385048e+01
   2.379652e+01  -1.806769e+01
   3.586132e+01  -1.326796e+01
   3.138144e+01   4.989197e+00
   4.766168e+00   6.427731e+01
  -5.323650e+01   2.905021e+01
  -4.097876e+01  -1.958923e+01
   2.297747e+00  -8.161395e+01
   9.417572e+01  -3.843030e+01
   1.210105e+02  -1.396194e+01
   4.517705e+01   3.640560e+01
  -4.503110e+01   3.630420e+01
  -6.297601e+01  -2.797449e+00
  -3.025724e+01   1.038134e+01
   2.593899e+01   1.800411e+01
   7.092508e+01  -1.340402e+01
  -3.913910e+01   1.507605e+01
  -7.560099e+01   6.124807e+00
