
 $NMID
 id='ANONYMOUS ', fmtdat='(2E16.6)'
 volume=1.0
 tramp=1.0
 $END
   3.509054e+03   2.347069e+02
   1.910092e+03   2.391718e+03
  -3.651620e+02   2.153825e+03
  -1.531645e+03   1.063197e+03
  -7.990323e+02  -2.323293e+02
   2.787929e+02  -2.033209e+02
   4.665144e+02   2.018598e+02
   3.031373e+01   7.666548e+02
  -7.432058e+02   5.871019e+02
  -7.877604e+02   1.692301e+01
  -4.590473e+02  -7.565579e+02
   1.653443e+02  -7.696735e+02
   4.377755e+02  -4.371535e+01
   1.759259e+02   6.088359e+02
  -1.721215e+02   6.566844e+02
  -5.211148e+02  -3.810998e+00
  -2.358244e+02  -5.585690e+02
   2.058339e+02  -6.884141e+02
   4.863917e+02  -1.695132e+02
   3.931844e+02   2.269773e+02
   1.391491e+02   3.538322e+02
  -2.041780e+02   2.336817e+02
  -6.079471e+01   6.512926e+01
   1.986354e+02   1.495839e+01
   3.767303e+02   1.527077e+02
   9.491095e+01   3.968539e+02
  -5.319261e+02   2.046998e+02
  -7.710452e+02  -1.494938e+02
  -2.580789e+02  -4.936400e+02
   3.825917e+02  -3.147239e+02
   6.904805e+02   1.510189e+02
   3.081421e+02   3.685994e+02
  -2.522919e+02   4.488714e+02
  -4.946994e+02   1.908479e+02
  -3.384458e+02  -1.538782e+02
  -3.109224e+01  -3.701901e+02
   8.325371e+01  -1.883770e+02
   6.777392e-01   1.783565e+02
  -2.196512e+02   2.646570e+02
  -3.201611e+02  -2.035430e+02
  -4.484525e+01  -6.820009e+02
   2.723975e+02  -5.353521e+02
   4.529356e+02   4.643164e+01
   1.388715e+02   4.795206e+02
  -2.273575e+02   1.922197e+02
  -1.654919e+02  -2.601564e+02
   3.236819e+01  -5.537355e+02
   4.772885e+02  -8.992218e+01
   5.437234e+02   3.528471e+02
   1.592827e+02   5.639291e+02
  -3.918271e+02   2.791309e+02
  -6.054970e+02  -4.577590e+01
  -2.884332e+02  -4.124659e+02
   1.159693e+02  -3.270921e+02
   3.673158e+02  -8.089268e+01
   1.883204e+02   7.730683e+01
  -8.769161e+01   2.658328e+01
  -7.855826e+01  -5.593790e+01
   1.229326e+02  -9.750608e+01
   2.360987e+02   2.573388e+01
   1.020282e+02   2.346168e+02
  -1.829497e+02   2.268905e+02
  -3.408935e+02   6.082740e+01
  -2.385824e+02  -1.075812e+02
  -5.170349e+01  -3.004269e+02
   2.581778e+02  -3.493185e+02
   4.366483e+02  -2.037372e+02
   2.289206e+02   1.887141e+02
  -2.168522e+00   4.094871e+02
  -8.100689e+01   3.683857e+02
  -5.342224e+01   1.343368e+02
  -5.142852e+01   7.546207e+01
  -1.014547e+02   1.280835e+02
  -2.066242e+02   8.217047e+01
  -3.231586e+02  -1.520455e+02
  -1.031684e+02  -3.333650e+02
   7.395958e+01  -2.434281e+02
   2.225927e+02   3.552688e+01
   1.838640e+02   2.511583e+02
  -4.035210e+01   2.988811e+02
  -2.672289e+02   5.379627e+01
  -3.653565e+02  -1.512508e+02
  -1.538327e+02  -3.526689e+02
   3.300279e+01  -2.447470e+02
   1.681155e+02  -1.401720e+02
   1.221183e+02  -4.267379e+01
   1.029935e+02  -6.569842e+01
   2.573896e+02  -5.700401e+01
   4.419889e+02   8.785702e+01
   3.271292e+02   3.201942e+02
   8.322679e+00   4.770598e+02
  -3.466138e+02   4.713586e+02
  -4.984799e+02   1.724321e+02
  -2.897069e+02  -9.215539e+01
  -2.453111e+01  -2.993235e+02
   1.390562e+02  -1.687496e+02
   4.388101e+01  -2.851542e+01
  -1.230390e+02   6.037377e+01
  -1.427183e+02  -4.095284e+01
  -3.448920e+01  -1.565270e+02
   1.677551e+02  -1.195962e+02
   1.376585e+02   5.138117e+01
  -6.644715e-01   1.571329e+02
  -1.634776e+02  -2.319383e+01
  -1.588939e+02  -2.697208e+02
   3.756330e+00  -3.854992e+02
   1.862687e+02  -1.989955e+02
   4.073483e+02   7.652078e+01
   2.996574e+02   2.932607e+02
   7.204539e+01   2.518647e+02
  -1.355446e+02   1.719586e+02
  -1.471402e+02  -1.098460e+01
  -3.407355e+01  -2.265290e+01
   6.368451e+01   7.633092e+01
  -7.756179e+00   1.349701e+02
  -1.391042e+02   9.812574e+01
  -1.653260e+02  -1.470647e+01
  -5.216480e+01  -8.080376e+01
   5.660885e+01  -3.310931e+01
   4.261932e+01   8.216102e+01
  -1.479589e+02   8.262656e+01
  -2.971706e+02  -2.638649e+01
  -3.241763e+02  -1.606861e+02
  -6.136572e+01  -2.476919e+02
   3.004651e+02  -2.599121e+02
   2.724826e+02  -1.084715e+02
   1.593970e+02   5.878121e+01
  -5.856813e+01   1.264930e+02
  -6.912425e+01  -1.346946e+01
   4.316976e+01  -8.087532e+01
   1.953555e+02  -4.983294e+01
   1.882917e+02   9.387912e+01
   5.300318e+01   1.999321e+02
  -1.275937e+02   1.624757e+02
  -1.452664e+02   2.240198e+01
  -5.304890e+01  -2.371436e+01
   4.257057e+01  -2.893154e+00
   3.481327e+01   6.865365e+01
  -1.099339e+02   1.434283e+02
  -2.099843e+02   2.507270e+01
  -1.721906e+02  -1.629827e+02
  -2.496088e+01  -2.178175e+02
   1.489106e+02  -1.634947e+02
   1.741494e+02   3.218108e+01
   4.107891e+01   9.803913e+01
  -5.277722e+01   1.245176e+02
  -7.002140e+01   5.092030e+01
   3.687019e+00  -2.307288e+01
   2.657451e+01  -1.974790e+00
  -2.304870e+01   6.589142e+01
  -5.747823e+01   2.468923e+01
  -1.307680e+02  -8.076769e+01
  -2.820020e+01  -1.605767e+02
   1.173409e+02  -1.624062e+02
   2.763852e+02   3.718887e+00
   2.024714e+02   1.288148e+02
   9.780837e+00   2.429507e+02
  -9.318589e+01   1.900505e+02
  -1.126195e+02   1.696333e+01
  -8.470965e+01  -1.863714e+01
  -8.363958e-02  -4.436643e+01
  -2.074299e+01   4.960605e+00
  -1.053218e+02   1.800862e+01
  -4.951976e+01  -6.202419e+01
   2.334656e+01  -1.345305e+02
   1.384220e+02  -8.462520e+01
   1.366485e+02   3.605631e+01
  -3.044462e+01   1.394933e+02
  -1.617433e+02   6.513693e+01
  -2.210771e+02  -6.519665e+01
  -7.168321e+01  -2.255822e+02
   1.246805e+02  -2.097722e+02
   2.847424e+02  -7.054091e+01
   2.355909e+02   5.647257e+01
   8.555786e+01   1.886944e+02
  -5.705470e+01   1.498987e+02
  -7.913233e+01   6.125505e+01
  -8.530762e+01   8.764339e+01
  -9.597422e+01   8.668664e+01
  -9.517254e+01   8.037486e+01
  -1.150638e+02  -8.849718e+00
  -8.774596e+01  -1.707574e+02
  -2.249939e+01  -2.322158e+02
   8.406037e+01  -1.879047e+02
   1.944853e+02   4.729373e-01
   1.180283e+02   1.167563e+02
  -2.186683e+01   1.803539e+02
  -7.961298e+01   7.394573e+01
  -7.021373e+01   1.801371e+01
  -1.421024e+01  -4.321076e+01
   2.815912e+01  -3.143856e+01
  -1.675070e+01  -7.585781e+00
  -8.891969e+01  -1.652785e+01
  -6.520066e+01  -4.938297e+01
   7.700274e+01  -3.689261e+01
   1.592521e+02   2.290883e+00
   1.308581e+02   4.487059e+01
   8.045611e+00   1.151942e+02
  -1.168965e+02   8.435695e+01
  -1.700105e+02   3.757645e+01
  -1.235616e+01  -5.315732e+01
   6.208270e+01  -1.761933e+01
   1.001344e+02   1.888791e+01
   7.526391e+00   8.476689e+01
  -6.088257e+01   4.902883e+01
  -3.813368e+01   5.993541e+00
  -4.895572e+01  -3.326120e+01
  -6.181246e+01  -6.004848e+01
  -5.428963e+01   2.117263e+01
  -6.786782e+01  -1.547229e+01
  -5.022710e+01  -7.795258e+01
   3.226247e+01  -1.769249e+02
   1.374110e+02  -1.642995e+02
   1.919638e+02  -8.340992e+00
   1.263257e+02   1.144923e+02
   5.146398e+00   1.230067e+02
  -8.467746e+01   8.699119e+01
  -8.516911e+01  -1.211490e+01
   2.746577e+01  -1.008244e+01
   1.354609e+02   5.627749e+01
   6.803300e+01   1.265513e+02
  -9.524007e+01   7.358255e+01
  -1.895700e+02   6.375094e+01
  -1.691513e+02  -2.431018e+01
  -2.674002e+01  -8.569007e+01
   6.874431e+01  -8.185616e+01
   4.190953e+01  -7.480117e+00
  -5.127754e+01   5.237427e+01
  -8.004108e+01  -4.399962e+01
  -3.142268e+01  -1.023864e+02
   1.009579e+02  -1.610160e+02
   1.616816e+02  -1.125809e+02
   1.138302e+02   1.118392e+02
   1.706501e+01   1.913974e+02
  -6.255159e+01   1.655734e+02
  -8.469878e+01  -1.905330e+01
  -5.515964e+01  -1.092484e+02
  -3.196915e+00  -1.175815e+02
   6.387944e+01  -1.361927e+01
   6.158135e+01   4.020766e+01
   3.277786e+01   2.955927e+01
   5.870999e+00  -2.375188e+01
   2.355533e+01  -3.950989e+00
   4.237591e+01   1.306907e+02
   1.166606e+01   1.148009e+02
  -4.647621e+01   8.707923e+01
  -1.500777e+02  -3.151097e+01
  -1.343018e+02  -9.049227e+01
  -3.664744e+01  -5.922077e+01
   8.445534e+01  -3.914294e+01
   7.892029e+01  -1.104705e+01
   2.152860e+01   3.568586e+00
  -6.643176e+01  -1.293004e+01
  -4.685921e+01   2.497182e+01
  -4.453285e-01  -5.505947e+00
  -9.262509e+00  -1.055922e+01
  -4.554756e+01   1.236243e+01
  -9.522675e+01  -2.558341e+01
   2.697622e+01  -7.861618e+01
   1.117435e+02  -1.212802e+02
   2.271489e+02  -6.119181e+01
   1.356355e+02   6.423812e+01
   4.796950e+01   1.350516e+02
  -1.360780e+02   1.731722e+02
  -1.127329e+02   8.843523e+01
  -5.595463e+01  -1.735399e+01
  -8.373584e+00  -4.850534e+01
   2.021559e+01  -2.792791e+01
  -2.085454e+01   1.822911e+01
  -2.051403e+01  -5.846554e+01
  -1.443502e+01  -1.039156e+02
   2.877240e+01  -8.321005e+01
   1.153296e+02   3.642735e+01
   9.977016e+01   9.906796e+01
   1.773946e+01   1.202253e+02
  -8.905077e+01   3.665414e+01
  -1.061745e+02  -4.793480e+01
  -3.215386e+01  -6.438489e+01
   7.837454e+01  -5.313559e+01
   9.112783e+01  -2.363137e+01
   5.796938e+01   4.579865e+01
  -4.159149e+01   6.024827e+01
  -6.831542e+01   2.618391e+01
  -2.353936e+01  -1.123096e+01
   4.987157e+01   1.485619e+01
   2.003916e+01   4.259570e+01
  -7.142680e+01   6.402810e+01
  -1.072302e+02   5.462903e+01
  -6.908903e+01  -2.645183e+01
   7.245209e+00  -6.973976e+01
   5.934884e+01  -8.524892e+01
   3.218843e+01   3.142045e+00
   5.555893e-01   4.194717e+01
  -2.616798e+01   5.092063e+01
  -2.647670e+01  -1.240185e+01
  -2.588883e+01  -6.142676e+01
   4.129959e+00  -5.880554e+01
   3.818914e+01  -1.007526e+01
   2.299569e+01  -7.457533e+00
   3.297015e+01  -2.923993e+01
   4.089100e+00  -1.232777e+01
  -1.096173e+01  -1.550824e+01
  -9.199275e+00   3.249874e+01
   4.191889e+00   3.492158e+01
  -2.548725e+01   2.665093e+01
  -3.966424e+01  -3.317944e+01
  -1.678144e+01  -2.886848e+01
   3.390075e+01  -2.343860e+01
   3.971844e+01   4.156087e+01
   2.955473e+01   7.052172e+01
  -6.668498e+01   1.857078e+01
  -8.880840e+01  -2.806875e+01
  -5.169384e+01  -4.351913e+01
   2.720547e+01  -2.671163e+01
   6.612661e+01  -3.445116e+01
   1.905055e+01  -2.652372e+01
  -2.058614e+01  -2.285416e+01
  -3.916584e+01  -6.473318e+00
   2.912110e+01  -2.720605e+01
   1.095330e+02  -1.066809e+01
