
 $NMID
 id='ANONYMOUS ', fmtdat='(2E16.6)'
 volume=1.0
 tramp=1.0
 $END
  -3.743689e+03  -7.394652e+01
  -1.934734e+03  -2.109872e+03
   2.685864e+02  -2.292079e+03
   1.595224e+03  -9.914535e+02
   7.123624e+02  -1.348359e+02
  -1.637413e+02   2.155750e+02
  -4.435448e+02  -1.815969e+02
  -1.004245e+02  -9.026520e+02
   7.823214e+02  -6.370565e+02
   6.846648e+02   3.231051e+01
   4.255590e+02   7.556526e+02
  -1.115326e+02   6.725256e+02
  -4.376957e+02   1.139675e+02
  -2.964145e+02  -5.550174e+02
   1.591575e+02  -6.263445e+02
   4.396647e+02  -1.013731e+01
   3.317822e+02   4.974132e+02
  -1.962803e+02   6.108062e+02
  -5.022609e+02   2.456401e+02
  -3.557410e+02  -2.031199e+02
  -1.300777e+02  -3.904496e+02
   2.221015e+02  -2.518061e+02
   1.174968e+02  -4.418546e+01
  -2.043237e+02   2.054427e+00
  -3.159751e+02  -2.265536e+02
  -4.287997e+01  -3.374271e+02
   4.266907e+02  -2.274184e+02
   6.599364e+02   1.450135e+02
   3.030547e+02   4.848378e+02
  -4.410659e+02   3.877636e+02
  -5.799409e+02  -7.693681e+01
  -3.010972e+02  -3.531574e+02
   2.892490e+02  -4.403924e+02
   4.711042e+02  -1.864636e+02
   3.746884e+02   1.183716e+02
   2.537465e+01   3.705635e+02
  -6.677171e+01   1.954023e+02
   2.288564e+01  -2.069999e+02
   1.697567e+02  -2.313413e+02
   2.829515e+02   1.612323e+02
   7.723189e+01   6.476482e+02
  -2.651901e+02   5.526827e+02
  -4.270769e+02  -6.783133e+01
  -1.983724e+02  -4.545726e+02
   1.970361e+02  -1.819194e+02
   2.786644e+02   3.528685e+02
  -8.396616e+01   4.916186e+02
  -5.055539e+02   4.886468e+01
  -6.116550e+02  -3.437226e+02
  -1.798845e+02  -5.429477e+02
   2.995936e+02  -2.714811e+02
   5.704697e+02   5.336014e+01
   2.856739e+02   3.252426e+02
  -1.524660e+02   2.592793e+02
  -3.448885e+02   7.447418e+01
  -1.798400e+02  -1.211570e+02
   4.951077e+01  -5.172442e+01
   4.971203e+01   7.535845e+01
  -1.161066e+02   1.030043e+02
  -2.916657e+02  -2.461006e+01
  -1.202264e+02  -2.550331e+02
   2.021644e+02  -2.501533e+02
   3.532827e+02  -4.591243e+01
   2.435657e+02   8.103402e+01
   5.730293e+01   3.122809e+02
  -2.912031e+02   3.590327e+02
  -4.163862e+02   1.819056e+02
  -2.333269e+02  -1.992802e+02
   1.491121e+00  -3.832129e+02
   6.379898e+01  -3.653913e+02
   6.618270e+01  -1.252841e+02
   1.787038e+01  -6.355327e+01
   1.162566e+02  -1.061687e+02
   2.240412e+02  -1.237260e+02
   2.796075e+02   1.096072e+02
   6.770775e+01   2.985569e+02
  -1.149591e+02   2.015083e+02
  -1.720761e+02  -2.883152e+01
  -1.955156e+02  -2.522481e+02
   4.928700e+01  -2.427199e+02
   2.757377e+02  -8.157326e+01
   3.604686e+02   1.575969e+02
   1.396060e+02   3.439083e+02
  -3.836084e+01   2.532940e+02
  -1.901514e+02   1.528751e+02
  -1.588856e+02   4.793989e+01
  -1.296613e+02   6.538460e+01
  -2.644877e+02   4.022336e+01
  -4.881444e+02  -7.318508e+01
  -3.390439e+02  -3.089618e+02
   5.163066e+00  -4.505804e+02
   3.302702e+02  -4.335915e+02
   5.225777e+02  -1.573527e+02
   2.951688e+02   5.593807e+01
   1.841984e+01   2.462552e+02
  -1.020905e+02   2.079733e+02
  -2.909554e+01   4.438263e+01
   1.108094e+02  -6.828465e+01
   1.378537e+02   4.497875e+01
   6.240032e+00   1.636754e+02
  -1.247710e+02   1.136861e+02
  -1.432275e+02  -7.598813e+01
   5.656730e+01  -1.257401e+02
   1.668442e+02  -2.885544e+01
   1.802040e+02   2.782542e+02
   2.528839e+01   3.167210e+02
  -2.115466e+02   1.868802e+02
  -3.182363e+02  -4.066939e+01
  -2.891474e+02  -2.566444e+02
  -7.436721e+01  -2.691287e+02
   1.501985e+02  -1.716318e+02
   1.594335e+02   1.281228e+00
   6.773472e+01   2.711166e+01
  -4.607429e+01  -4.965933e+01
  -9.993531e+00  -1.377459e+02
   1.339877e+02  -7.117574e+01
   1.709344e+02   1.242536e+01
   3.178988e+01   8.366097e+01
  -7.366425e+01   3.207840e+01
  -3.684063e+01  -7.817435e+01
   1.328492e+02  -1.221219e+02
   3.042524e+02   2.338878e+01
   2.882815e+02   1.655984e+02
   4.934283e+01   2.919784e+02
  -2.454550e+02   2.097671e+02
  -2.394661e+02   1.159118e+02
  -1.494293e+02  -3.396592e+01
   3.680176e+01  -1.032612e+02
   8.181386e+01  -8.871299e+00
  -4.396822e+01   7.143321e+01
  -1.810869e+02   3.908125e+01
  -1.993012e+02  -7.900853e+01
  -8.282067e+01  -1.831657e+02
   9.003982e+01  -1.678132e+02
   1.396902e+02  -1.278804e+01
   2.829527e+01   4.519964e+01
  -6.750618e+01  -1.338379e+01
  -2.197982e+01  -6.156753e+01
   9.130575e+01  -1.243546e+02
   2.029351e+02   1.006456e+01
   1.668750e+02   1.406188e+02
   2.337483e+01   2.137837e+02
  -1.024017e+02   1.898417e+02
  -1.770845e+02  -1.450822e+01
  -7.688969e+01  -1.079488e+02
   5.889306e+01  -9.889827e+01
   6.682746e+01  -3.716331e+01
   1.369230e+01   2.254273e+01
  -1.422491e+01  -1.387502e+01
   8.980604e+00  -3.444732e+01
   3.788661e+01  -2.275430e+01
   1.281143e+02   1.036947e+02
   1.556123e+01   1.482601e+02
  -1.280012e+02   1.828152e+02
  -2.506033e+02   7.556977e+00
  -1.746631e+02  -1.186219e+02
   2.893306e-01  -2.148670e+02
   1.026007e+02  -1.715009e+02
   1.151713e+02  -2.537961e+01
   8.056287e+01   3.323344e+01
   1.525063e+01   7.910257e+00
   5.368896e+01  -3.777578e+00
   8.834061e+01  -3.975261e+01
   5.942541e+01   6.921029e+01
  -3.138037e+01   1.139494e+02
  -1.260904e+02   8.262865e+01
  -1.318342e+02  -4.268626e+01
   3.171087e+01  -1.129120e+02
   1.737063e+02  -9.402221e+01
   2.060175e+02   8.401562e+01
   5.148606e+01   2.021818e+02
  -1.301288e+02   1.964420e+02
  -2.730952e+02   7.397447e+01
  -2.550686e+02  -5.425196e+01
  -9.922883e+01  -1.993428e+02
   1.047630e+01  -9.398422e+01
   8.506339e+01  -6.250471e+01
   6.872067e+01  -7.532410e+01
   7.663482e+01  -8.028675e+01
   8.494746e+01  -1.002480e+02
   1.165662e+02   5.937027e-02
   9.335005e+01   1.292784e+02
   2.229465e+01   1.938934e+02
  -1.097939e+02   1.618640e+02
  -1.415122e+02   8.280496e+00
  -1.364463e+02  -1.203460e+02
  -1.602727e+01  -1.306222e+02
   7.540569e+01  -6.071927e+01
   7.886453e+01   1.466966e+01
  -5.566039e+00   5.257126e+01
  -1.991907e+01   1.442287e+01
   4.546177e+01   7.570252e-01
   9.975382e+01   3.141144e+01
   5.766040e+01   6.323171e+01
  -6.368870e+01   3.700148e+01
  -1.882218e+02  -1.882638e+01
  -1.717365e+02  -3.596311e+01
  -1.099466e+01  -7.740008e+01
   1.406910e+02  -7.010854e+01
   1.509657e+02  -1.126404e+01
   6.922448e+01   6.996208e+01
  -8.263799e+01   2.468867e+01
  -7.411682e+01  -2.503207e+01
   1.114389e+01  -8.309514e+01
   6.150231e+01  -5.081349e+01
   2.787742e+01   1.785360e+01
   7.529468e+01   3.208127e+01
   5.852905e+01   7.016926e+01
   6.826355e+01  -1.092015e+01
   5.435124e+01  -2.366226e+01
   2.314337e+01   5.775440e+01
  -5.294327e+01   1.511605e+02
  -1.331564e+02   1.852030e+02
  -1.659669e+02   3.939702e+00
  -1.090923e+02  -1.030739e+02
  -3.880205e+00  -1.105891e+02
   7.344107e+01  -3.387607e+01
   8.386196e+01   2.106193e+01
  -3.749014e+01   6.306626e+01
  -1.294773e+02  -3.243471e+01
  -6.051484e+01  -1.073421e+02
   9.647868e+01  -1.026584e+02
   1.779634e+02  -8.106299e+01
   1.809524e+02   6.926174e+01
   2.615813e+01   9.005650e+01
  -3.540810e+01   5.608489e+01
  -3.153357e+01   3.362293e+01
   5.555060e+01  -5.247101e+01
   6.224059e+01   4.592146e+01
   4.728115e+01   1.378561e+02
  -5.180562e+01   1.768080e+02
  -1.615184e+02   7.900252e+01
  -7.795538e+01  -1.024588e+02
  -1.822871e+00  -2.284381e+02
   7.546595e+01  -1.514016e+02
   1.385376e+02   1.440289e+01
   5.177533e+01   9.723522e+01
  -3.547919e+00   1.051217e+02
  -2.616913e+01   4.345640e+01
  -5.358284e+01  -3.039910e+01
  -1.999368e+01  -2.188631e+01
  -2.286078e+01   8.184134e+00
  -1.148115e+01  -5.102658e+00
  -5.707993e+01  -1.360829e+02
  -2.560994e+01  -8.758198e+01
   7.011106e+01  -4.698245e+01
   1.225969e+02   4.169742e+01
   1.038276e+02   3.305893e+01
   5.356599e+01   6.729269e+01
  -8.959393e+01   1.097615e+01
  -8.493345e+01   1.189148e+01
  -1.618328e+01  -4.906679e+00
   7.217557e+01  -1.810660e+01
   3.046436e+01  -2.995397e+01
   3.732695e+00  -9.326359e+00
   1.250982e+01  -5.303303e+00
   6.765975e+01  -1.539177e+00
   9.789364e+01  -2.307911e+00
   2.688169e+01   6.999954e+01
  -9.506208e+01   9.772201e+01
  -1.695856e+02   4.963405e+01
  -1.548945e+02  -5.646125e+01
  -4.781248e+01  -1.546141e+02
   9.882241e+01  -1.341844e+02
   1.577399e+02  -6.434640e+01
   7.186683e+01   2.520749e+00
   6.025221e+01   4.774690e+01
  -1.192559e+01  -2.617742e+01
   6.272432e+00  -3.016594e+01
   1.542262e+01   6.140650e+01
   2.026994e+01   9.396004e+01
  -3.352153e+01   7.566966e+01
  -8.125309e+01  -8.215572e-01
  -9.127078e+01  -7.122219e+01
  -9.421732e+00  -9.821469e+01
   7.657368e+01  -2.423480e+01
   1.137954e+02   5.197029e+01
   3.108188e+01   1.246977e+02
  -6.005996e+01   5.171621e+01
  -1.091703e+02  -1.110902e+01
  -3.555931e+01  -4.806496e+01
   3.097741e+01  -6.997983e+01
   5.591239e+01  -2.257717e+01
  -8.480751e+00   3.167369e+01
  -5.391904e+01   3.456750e+00
  -3.712888e+00  -2.525616e+01
   3.862495e+01  -5.333139e+01
   1.138423e+02  -6.282018e+01
   7.919097e+01   1.529148e+01
   1.151578e+01   9.531194e+01
  -3.672765e+01   7.702504e+01
  -1.753704e+01  -4.378087e+00
  -1.091077e+01  -1.875088e+01
   1.998461e+01  -3.538270e+01
   1.121340e+01  -3.609372e+00
   2.396036e+01   3.322683e+01
  -1.542876e+01   2.766661e+01
  -2.686345e+01   6.340654e+00
  -4.363363e+01  -3.958513e+01
   6.271102e+00   1.696024e+01
   1.318643e+01   2.232871e+01
   6.971264e+00  -1.383185e+01
   6.983511e+00  -4.140453e+01
   4.015198e+00  -5.326234e+01
   3.331070e+01  -5.032567e+01
   2.865840e+01   7.299611e+01
   1.323933e+01   4.894727e+01
  -4.175455e+01   3.045488e+01
  -6.742172e+01  -3.817883e+01
  -1.727890e+01  -5.715835e+01
   6.139307e+01  -2.341644e+01
   1.024950e+02   2.834100e+01
   1.878774e+01   2.968064e+01
  -3.207182e+01   3.946816e+01
  -6.265253e+01   2.696465e+01
  -1.877279e+01   5.244752e+00
   4.217129e+01  -7.933986e+00
   4.284842e+01  -5.567059e+00
  -3.289996e+01   4.408782e+01
  -8.431129e+01   3.379010e+01
