
 $NMID
 id='ANONYMOUS ', fmtdat='(2E16.6)'
 volume=1.0
 tramp=1.0
 $END
  -4.361598e+03   2.622024e+02
  -2.264160e+03  -2.785394e+03
   1.182070e+03  -2.593661e+03
   1.987591e+03  -6.778142e+02
   5.169968e+02   9.067565e+02
  -8.708333e+02   4.681107e+02
  -7.801217e+02  -4.804969e+02
   5.183312e+01  -1.103847e+03
   9.518549e+02  -6.422798e+02
   8.820067e+02   1.827069e+02
   4.587947e+02   8.035041e+02
  -3.235028e+02   7.638353e+02
  -6.755602e+02  -9.144197e+01
  -3.827903e+02  -7.530952e+02
   2.996826e+02  -6.923943e+02
   5.739426e+02   7.986532e+01
   1.802126e+02   7.208858e+02
  -3.947269e+02   5.605353e+02
  -5.519726e+02  -6.682700e+00
  -3.129628e+02  -3.947255e+02
  -2.597844e+01  -4.500018e+02
   2.627349e+02  -1.488061e+02
   2.066482e+02  -9.636437e+00
  -1.812641e+02   1.240247e+02
  -4.485557e+02  -1.615171e+02
  -2.322379e+02  -4.653235e+02
   4.453609e+02  -3.663301e+02
   7.955089e+02   1.560364e+02
   3.730882e+02   5.237623e+02
  -4.362477e+02   4.520175e+02
  -7.002124e+02  -9.969195e+01
  -3.278772e+02  -4.996090e+02
   3.640334e+02  -5.254470e+02
   5.304978e+02  -1.001870e+02
   4.239784e+02   2.643536e+02
   6.580244e+01   4.546989e+02
  -2.119954e+02   3.141720e+02
  -1.332696e+02  -3.161855e+02
   1.669204e+02  -4.073269e+02
   4.856180e+02   4.211523e+01
   1.151202e+02   6.368755e+02
  -4.219137e+02   6.645746e+02
  -6.272285e+02  -7.333644e+01
  -1.861150e+02  -5.294985e+02
   3.507099e+02  -2.916901e+02
   3.708328e+02   3.297885e+02
  -7.558698e+01   5.791253e+02
  -5.999296e+02   1.209359e+02
  -5.857684e+02  -4.066339e+02
  -1.235903e+02  -5.659753e+02
   3.792451e+02  -2.869663e+02
   6.935067e+02   1.231995e+02
   3.232529e+02   4.138921e+02
  -1.952656e+02   2.769923e+02
  -4.369399e+02   4.057972e+01
  -2.154570e+02  -1.999958e+02
   1.507107e+02  -8.864036e+01
   1.274550e+02   2.146951e+02
  -2.012673e+02   1.795927e+02
  -3.563232e+02  -5.433493e+01
  -1.363023e+02  -3.121807e+02
   2.166401e+02  -2.083342e+02
   3.299407e+02  -4.765260e+01
   1.716542e+02   4.520864e+01
   2.733535e+01   1.849687e+02
  -1.527576e+02   2.751673e+02
  -3.094545e+02   2.448615e+02
  -3.053563e+02  -1.380323e+02
  -2.869670e+01  -4.529008e+02
   1.361222e+02  -3.252183e+02
   1.532897e+02  -6.737354e+01
   1.988875e+01   4.875536e+01
   3.268596e+01  -9.787525e+01
   1.698196e+02  -1.800999e+02
   2.856331e+02   5.929953e+01
   1.697985e+02   3.304262e+02
  -8.336650e+01   2.743602e+02
  -1.842783e+02   2.351407e+01
  -1.636492e+02  -2.695360e+02
   2.825895e+00  -2.945529e+02
   2.793067e+02  -1.061713e+02
   3.304265e+02   2.192111e+02
   2.303288e+02   3.192504e+02
  -8.918451e+01   3.236813e+02
  -2.401894e+02   1.149121e+02
  -1.150344e+02  -5.240341e+01
  -7.001270e+01   6.052938e+01
  -2.252363e+02   1.078247e+01
  -4.102210e+02  -8.301531e+01
  -2.977240e+02  -2.805212e+02
  -6.604711e+01  -4.945831e+02
   3.101804e+02  -3.713154e+02
   4.952361e+02  -2.148849e+02
   2.852015e+02   9.223462e+01
   1.653276e+01   2.893570e+02
  -1.123457e+02   2.368262e+02
  -1.034109e+02   5.167333e+01
   8.698370e+01  -1.339071e+02
   2.083909e+02   4.727017e+01
   3.373303e+01   1.888356e+02
  -1.642974e+02   1.427282e+02
  -1.777855e+02  -4.990598e+01
   3.879737e+01  -2.313363e+02
   1.790286e+02  -1.788434e+01
   1.273322e+02   2.335430e+02
  -4.339385e+01   3.232833e+02
  -2.465294e+02   2.204602e+02
  -3.343208e+02  -7.497169e+01
  -2.143944e+02  -2.504536e+02
  -1.043178e+02  -2.653432e+02
   1.036110e+02  -1.648382e+02
   1.913727e+02  -3.348449e+01
   3.670554e+01   5.494155e+01
  -1.022181e+02  -3.488740e+01
  -3.251476e+00  -1.209981e+02
   1.225151e+02  -9.780020e+01
   1.867553e+02   1.106127e+01
   5.914126e+01   6.783517e+01
  -1.014760e+02   3.213636e+01
  -4.211901e+01  -8.509323e+01
   1.123610e+02  -1.013042e+02
   2.676175e+02   2.774633e+01
   2.743610e+02   9.427062e+01
   1.776561e+01   2.854610e+02
  -2.416130e+02   2.665765e+02
  -2.964650e+02   1.151272e+02
  -1.983748e+02  -6.564359e+01
   4.399409e+01  -1.061043e+02
   6.817915e+01  -1.127323e+01
  -3.944808e+01   8.393847e+01
  -2.137247e+02   5.861851e+01
  -1.948306e+02  -1.273573e+02
  -8.368377e+01  -1.960133e+02
   1.045550e+02  -1.384955e+02
   1.321815e+02  -2.189212e+01
   5.536039e+01   4.617365e+01
  -4.113162e+01   7.384581e+00
  -3.000139e+01  -6.582182e+01
   2.818121e+01  -1.109403e+02
   1.585279e+02  -9.287415e+00
   1.665283e+02   1.802420e+02
  -4.621541e+01   2.016134e+02
  -1.582927e+02   1.707304e+02
  -1.936035e+02   1.499505e+01
  -8.287450e+01  -1.249989e+02
   4.507866e+01  -1.029803e+02
   8.010072e+01  -3.595831e+01
   4.605993e+01   3.986618e+01
  -3.392718e+01   2.177430e+01
  -1.715493e+01  -1.437041e+01
   4.076697e+01   2.381596e+01
   5.888426e+01   7.734171e+01
   2.605665e+00   1.477626e+02
  -9.451686e+01   1.430941e+02
  -2.319739e+02  -7.429179e-01
  -2.084964e+02  -1.404498e+02
  -3.481372e+01  -2.289998e+02
   1.260772e+02  -1.685560e+02
   1.251968e+02  -2.028661e+01
   6.990921e+01   6.571221e+01
   4.049010e+01   4.959817e+01
   6.043713e+01   1.373825e+00
   8.653662e+01  -2.400925e+01
   4.130860e+01   4.453692e+01
  -5.260949e+01   5.861922e+01
  -1.014024e+02   4.557182e+01
  -1.079186e+02  -5.308722e+01
  -2.659289e+00  -8.818532e+01
   1.086352e+02  -1.156070e+02
   2.196308e+02   3.810801e+01
   7.099276e+01   1.975052e+02
  -1.047143e+02   2.468687e+02
  -2.771268e+02   6.161453e+01
  -2.582527e+02  -8.906369e+01
  -1.247167e+02  -1.742788e+02
   3.183817e+01  -1.619626e+02
   1.241157e+02  -8.070638e+01
   5.648101e+01  -4.488478e+01
   5.739515e+01  -5.472288e+01
   6.983179e+01  -5.480993e+01
   1.231931e+02  -7.119234e+00
   1.010958e+02   1.219051e+02
   4.042029e+01   2.096045e+02
  -1.044963e+02   1.701802e+02
  -2.092900e+02   2.483721e+01
  -1.204868e+02  -1.433483e+02
  -2.569998e+01  -1.513967e+02
   7.076358e+01  -1.073687e+02
   7.434190e+01  -1.345029e+01
   2.554915e+01   3.293584e+01
   9.024965e+00   4.220488e+01
   2.271552e+01  -5.068845e+00
   7.765978e+01   2.233105e+01
   2.543679e+01   9.040431e+00
  -6.842997e+01   1.864932e+01
  -1.451852e+02  -1.076368e+01
  -1.524574e+02  -9.068828e+01
  -3.234956e+00  -9.948127e+01
   1.132831e+02  -1.072540e+02
   1.404272e+02   2.728507e+00
   4.595344e+01   4.960987e+01
  -2.017983e+01   4.571790e+01
  -8.903913e+01  -1.058161e+01
  -1.866017e+01  -5.399242e+01
   3.570781e+01  -2.729171e+01
   4.573780e+01  -2.356090e+00
   5.015349e+01   4.674291e+01
   3.279705e+01   4.139122e+01
   4.342811e+01  -4.482326e-02
   5.955247e+01  -8.210873e+00
   4.849651e+01   2.621886e+01
  -9.185799e+00   1.365825e+02
  -9.961861e+01   1.555535e+02
  -1.714429e+02   2.508119e+01
  -1.143645e+02  -7.352683e+01
   1.144944e+01  -1.121460e+02
   7.920297e+01  -6.095976e+01
   9.312946e+01   1.227148e+00
  -7.258044e+01   2.346892e+01
  -1.318356e+02  -4.621672e+01
  -6.096119e+01  -1.351677e+02
   8.616250e+01  -1.081335e+02
   1.646221e+02  -5.578829e+01
   1.456997e+02   4.603530e+01
   2.226283e+01   8.829419e+01
  -6.092424e+01   7.603500e+01
  -3.312607e+01   1.088893e+01
   1.546930e+01  -3.087150e+01
   6.817655e+01   3.573518e+01
   3.757529e+01   1.062679e+02
  -1.108762e+02   1.363745e+02
  -1.577725e+02   4.855808e+01
  -1.084214e+02  -7.968923e+01
  -8.236692e+00  -1.820937e+02
   8.430371e+01  -1.221930e+02
   9.505425e+01  -1.168730e+01
   6.662378e+01   9.638892e+01
  -1.073451e+01   1.254496e+02
  -2.732936e+01   3.769421e+00
  -5.276653e+01  -5.491256e+01
  -1.114434e+01  -9.047889e+00
  -1.421795e+01  -2.095894e+00
   3.181220e+00   1.407936e+01
  -3.446029e+01  -5.095816e+01
  -5.731226e+01  -1.502809e+02
   3.549127e+01  -4.066516e+01
   1.372711e+02   8.054384e+00
   8.455481e+01   5.279744e+01
   4.725959e+01   4.563280e+01
  -5.633242e+01   1.642440e+01
  -6.895074e+01   7.203218e-01
  -6.701388e-02  -2.180093e+01
   5.256344e+01  -4.748939e+01
   3.359233e+00  -2.791027e+01
  -4.730279e+01   1.618558e-01
  -4.404962e+00   3.055743e+01
   5.845928e+01   1.463639e+01
   9.413088e+01   2.928048e+01
  -1.696691e+01   7.921604e+01
  -1.153345e+02   9.852069e+01
  -1.727836e+02   8.306785e+01
  -1.199554e+02  -6.816646e+01
  -3.594228e+01  -1.876867e+02
   7.805076e+01  -1.566986e+02
   1.007461e+02  -2.968363e+01
   8.341877e+01   1.496205e+01
   3.001955e+01   2.636109e+01
   1.209972e+01  -2.006662e+01
   9.873256e+00   4.553136e+01
   5.584210e+01   4.410933e+01
   2.496198e+01   5.621463e+01
  -2.621820e+01   5.193682e+01
  -8.276245e+01  -5.839734e+00
  -3.916831e+01  -9.533976e+01
   2.908265e+01  -1.150431e+02
   9.904992e+01  -1.480312e+01
   8.183018e+01   5.908372e+01
   3.034369e+01   7.888943e+01
  -1.037362e+02   5.679942e+01
  -1.023298e+02  -1.077583e+01
  -2.917854e+01  -3.090847e+01
  -1.917873e-01  -4.250861e+01
   2.462485e+01  -4.604287e+00
  -4.545022e+01  -3.083707e+01
  -9.693501e+01  -8.109526e+00
   6.392317e+00  -2.661501e+01
   6.151687e+01  -8.459027e+01
   1.283674e+02  -5.207219e+01
   6.176752e+01   2.107111e+01
  -3.296641e+01   7.449562e+01
  -5.164949e+01   5.666929e+01
  -2.342619e+01  -8.446015e+00
  -2.271113e+01  -5.901238e+01
   3.901714e+01  -1.562521e+01
   4.199769e+01  -4.009556e-01
   1.528563e+01   3.808809e+01
   6.089148e+00   8.331232e+00
  -2.680809e+01  -1.640671e+00
  -4.586666e+01  -1.620634e+01
  -1.989194e+01  -2.983348e+01
   1.229114e+01  -1.569458e+00
   5.635987e+00  -1.555680e+01
   5.538169e+00  -4.760295e+01
   1.417215e+01  -3.053183e+01
   2.599707e+01  -4.610016e+01
   4.095793e+01   3.715162e+01
  -2.640544e+01   3.568042e+01
  -4.842188e+01  -9.212857e+00
  -2.562043e+01  -6.830006e+01
  -1.969848e+01  -5.767727e+01
   7.262423e+01  -5.054000e+01
   7.623391e+01  -8.938376e+00
   6.027697e+01   3.100857e+01
  -4.457014e+01   3.078739e+01
  -6.026308e+01   2.358157e+01
  -2.115841e+01   1.086677e+01
   1.017994e+00  -3.571664e+00
   1.783926e+01   6.919676e+00
  -3.950344e+01   1.993853e+01
  -7.862619e+01  -1.735853e+01
