
 $NMID
 id='ANONYMOUS ', fmtdat='(2E16.6)'
 volume=1.0
 tramp=1.0
 $END
   4.214525e+03   4.652699e+02
   2.463413e+03   2.472259e+03
  -6.949678e+02   2.737851e+03
  -2.154454e+03   5.568872e+02
  -9.151398e+02  -6.168332e+02
   4.361096e+02  -4.306445e+02
   7.839930e+02   3.365201e+02
  -1.114776e+02   1.003167e+03
  -8.075886e+02   7.144029e+02
  -8.460943e+02  -1.606134e+02
  -5.053452e+02  -8.680080e+02
   2.198280e+02  -8.065540e+02
   5.773432e+02  -1.497136e+01
   3.812527e+02   7.592781e+02
  -3.265329e+02   6.219091e+02
  -5.375937e+02   1.492320e+01
  -2.125751e+02  -7.053595e+02
   2.840961e+02  -6.043885e+02
   5.349444e+02  -1.783013e+01
   3.416719e+02   2.311552e+02
  -4.119215e+00   4.707931e+02
  -2.189830e+02   2.363705e+02
  -1.437727e+02  -2.389525e+01
   1.519290e+02  -2.804794e+01
   3.162899e+02   1.029922e+02
   1.413656e+02   4.832734e+02
  -4.751354e+02   4.059573e+02
  -7.146771e+02  -2.002341e+02
  -3.566368e+02  -4.928565e+02
   4.332012e+02  -4.273286e+02
   7.084481e+02   1.498253e+02
   2.796281e+02   4.977173e+02
  -2.732750e+02   4.209581e+02
  -6.176478e+02   1.375070e+02
  -4.730641e+02  -2.959484e+02
  -7.908724e+01  -4.367983e+02
   2.147525e+02  -2.753971e+02
   9.439409e+01   2.073744e+02
  -1.333976e+02   4.044938e+02
  -3.263850e+02  -6.127434e+01
  -9.854672e+01  -6.832321e+02
   4.681113e+02  -6.097746e+02
   5.375733e+02   5.158114e+01
   1.534153e+02   5.170530e+02
  -2.692698e+02   2.550591e+02
  -2.789863e+02  -2.987419e+02
   1.323675e+02  -6.017324e+02
   4.785001e+02  -7.647753e+01
   6.361747e+02   4.940441e+02
   8.224191e+01   5.825882e+02
  -3.790454e+02   3.311885e+02
  -6.383984e+02  -1.463291e+02
  -3.622526e+02  -3.980488e+02
   1.180318e+02  -2.636265e+02
   4.887726e+02   1.500546e+01
   1.889193e+02   1.866044e+02
  -1.289618e+02   8.976019e+01
  -1.354937e+02  -1.504364e+02
   1.548058e+02  -1.541471e+02
   3.087170e+02   8.148623e+01
   1.681334e+02   3.065281e+02
  -2.010197e+02   1.792971e+02
  -3.453142e+02   4.399945e+01
  -2.517863e+02  -1.292077e+02
   2.020267e+01  -2.591865e+02
   2.356579e+02  -3.011574e+02
   3.771322e+02  -2.098243e+02
   3.118002e+02   1.630004e+02
   2.215732e+01   3.887464e+02
  -1.026424e+02   3.730202e+02
  -1.406178e+02   1.419693e+02
  -1.051513e+01   1.501967e+01
  -8.331530e+01   4.693131e+01
  -2.177609e+02   1.535395e+02
  -2.342145e+02  -7.707415e+01
  -1.761971e+02  -2.811557e+02
   8.114294e+01  -2.271806e+02
   2.138908e+02   1.621769e+01
   1.542040e+02   2.490998e+02
  -5.210283e+01   2.674346e+02
  -2.608135e+02   8.455280e+01
  -2.713875e+02  -1.778000e+02
  -1.977648e+02  -2.986044e+02
   1.094973e+02  -3.476108e+02
   2.309742e+02  -1.279445e+02
   1.280472e+02  -1.917559e+01
   1.002192e+02  -6.472934e+00
   2.324946e+02  -3.327509e+00
   3.959890e+02   3.958671e+01
   2.737000e+02   3.298738e+02
  -1.447527e+01   4.256357e+02
  -4.096663e+02   3.901805e+02
  -4.888997e+02   1.246908e+02
  -2.460673e+02  -9.416338e+01
  -1.534985e+01  -2.320544e+02
   1.249535e+02  -2.217355e+02
   5.179616e+01  -2.217761e+01
  -1.319189e+02   1.102705e+02
  -1.730441e+02  -3.132042e+01
   5.353615e+00  -1.144362e+02
   1.605668e+02  -1.243604e+02
   1.528807e+02   6.505799e+01
   8.071388e+00   1.818014e+02
  -1.754856e+02   3.137492e+01
  -1.792854e+02  -2.308458e+02
   9.198374e+01  -3.480600e+02
   2.374972e+02  -1.969648e+02
   3.012570e+02   1.014093e+02
   2.520700e+02   2.713325e+02
   1.136017e+02   3.033594e+02
  -1.287531e+02   1.419476e+02
  -1.723016e+02   6.474416e+00
  -7.033267e+01  -4.282261e+01
   4.242806e+01   6.217302e+01
   3.595017e+00   1.378691e+02
  -1.211783e+02   1.008073e+02
  -1.866436e+02  -4.104824e+01
  -6.280595e+01  -5.680943e+01
   8.748613e+01  -2.235259e+00
   2.234082e+01   5.405033e+01
  -1.447831e+02   6.428531e+01
  -2.800547e+02   3.314027e+01
  -2.157911e+02  -1.301938e+02
  -3.498719e+00  -2.351189e+02
   2.157176e+02  -2.521559e+02
   2.952270e+02  -1.020923e+02
   1.519814e+02   4.007713e+01
  -4.667121e+01   1.086894e+02
  -1.043014e+02  -2.450329e+01
   2.534676e+01  -1.199757e+02
   1.833635e+02  -4.616728e+01
   2.021304e+02   8.623810e+01
   4.584363e+01   2.378940e+02
  -1.153160e+02   1.473974e+02
  -1.603693e+02   4.058723e+01
  -6.947339e+01  -6.175568e+01
   4.661102e+01   2.574279e+01
   3.227730e+01   8.331865e+01
  -8.746151e+01   1.273617e+02
  -1.726664e+02  -1.317538e+01
  -1.438076e+02  -1.488376e+02
  -3.402890e+01  -2.135048e+02
   1.740995e+02  -1.376890e+02
   1.577157e+02   5.007147e+00
   6.450819e+01   1.179881e+02
  -4.067294e+01   1.044304e+02
  -1.201609e+02   4.419984e+01
  -4.301416e+01   4.585903e+00
   1.950652e+01  -8.554656e+00
  -1.825354e+01  -1.626374e+01
  -9.733816e+01   1.525306e+01
  -8.178744e+01  -9.684885e+01
  -1.039994e+01  -1.527095e+02
   1.630337e+02  -1.332984e+02
   2.098421e+02  -3.065348e+01
   2.199716e+02   1.507507e+02
   1.418165e+01   2.196427e+02
  -9.476541e+01   1.657737e+02
  -1.515715e+02  -1.881779e+01
  -9.450162e+01  -3.484338e+01
  -2.947823e+01  -2.985384e+01
  -8.620576e+01   1.469007e+01
  -7.862751e+01   1.917839e+01
  -2.738287e+01  -4.282538e+01
   4.567200e+01  -4.789909e+01
   8.255481e+01  -4.173090e+01
   7.637257e+01   7.581930e+00
  -3.152680e+01   8.878316e+01
  -1.717010e+02   1.164928e+02
  -1.990719e+02  -6.354027e+01
  -8.821392e+01  -1.954874e+02
   9.654706e+01  -2.024742e+02
   2.595636e+02  -6.242507e+01
   2.543598e+02   1.014197e+02
   5.740811e+01   1.521598e+02
  -4.067597e+01   1.409751e+02
  -1.048673e+02   8.007536e+01
  -8.492015e+01   4.408008e+01
  -1.197626e+02   4.664737e+01
  -1.001824e+02   9.468816e+01
  -1.340708e+02  -4.663049e+01
  -1.223647e+02  -1.501235e+02
  -2.941868e+01  -2.417242e+02
   1.191865e+02  -1.230764e+02
   1.946173e+02  -3.575076e+01
   9.569520e+01   1.310619e+02
   1.847836e+01   1.424550e+02
  -8.948797e+01   1.129070e+02
  -8.229192e+01   2.621337e+00
   6.638242e+00  -6.137403e+01
   2.139533e+01  -1.621523e+01
  -8.844669e+00  -2.319009e+01
  -9.506950e+01  -3.385187e+01
  -5.793334e+01  -3.391647e+01
   4.818308e+01  -2.469013e+01
   1.443218e+02   2.046476e+00
   1.777863e+02   7.320665e+01
  -4.626180e+00   8.068069e+01
  -6.229451e+01   6.420474e+01
  -1.433719e+02   1.042209e+00
  -4.130605e+01  -4.858333e+01
   3.585881e+01  -4.826388e+01
   7.223629e+01   3.998238e+00
  -2.149743e+01   6.074500e+01
  -4.116662e+01   6.560306e+01
  -4.380203e+01  -1.412420e+01
  -2.827173e+01  -5.127236e+01
  -3.296285e+01  -3.830311e+01
  -4.809927e+01  -2.025404e+01
  -1.036836e+02   1.441631e+01
  -4.920066e+01  -6.751044e+01
   2.329957e+01  -1.004996e+02
   1.492448e+02  -1.194056e+02
   1.373035e+02   2.544292e+00
   1.268222e+02   8.394152e+01
  -4.415550e+00   1.279400e+02
  -9.963101e+01   5.192958e+01
  -5.732045e+01  -2.443666e+01
   7.409660e+01  -1.792134e+01
   1.311828e+02   4.305205e+01
   5.293275e+01   1.268642e+02
  -9.850664e+01   1.249085e+02
  -2.026977e+02   3.727576e+01
  -1.486830e+02  -9.833853e+00
  -8.909981e+00  -7.042884e+01
   7.371694e+01  -6.613466e+01
   4.543268e+01   1.356908e+01
  -6.635053e+01   1.793679e+01
  -5.732322e+01  -3.941660e+01
  -2.972421e+01  -9.280747e+01
   8.049251e+01  -1.845064e+02
   1.752136e+02  -3.251554e+01
   1.300128e+02   7.959543e+01
   7.186467e+00   1.940388e+02
  -8.768447e+01   1.335208e+02
  -1.288242e+02  -2.608298e+01
  -6.093685e+01  -1.219702e+02
  -2.277995e+00  -1.062871e+02
   3.823270e+01  -2.060819e+01
   5.169533e+01   3.592198e+01
   2.731241e+01   1.672260e+01
   2.075443e+01  -4.231077e+00
   2.687077e+01  -5.056862e+00
   4.621574e+01   8.174695e+01
   5.049231e+01   1.529547e+02
  -4.410469e+01   3.797452e+01
  -1.498977e+02  -4.687030e+01
  -1.074527e+02  -4.751937e+01
  -8.499760e+00  -3.740011e+01
   1.204651e+02  -1.517768e+00
   9.077661e+01  -4.386774e+00
   3.806494e+01   3.310616e+00
  -6.572916e+01   6.562822e+00
  -1.798652e+01   5.695927e+00
   3.297834e+01   2.730874e+01
  -8.856455e+00   2.766783e+01
  -5.641198e+01  -2.239716e+00
  -9.694145e+01  -3.248499e+01
   2.505403e+00  -9.109539e+01
   1.004773e+02  -1.156068e+02
   2.009696e+02  -5.318214e+01
   1.326013e+02   8.136438e+01
   1.898539e+01   1.750110e+02
  -5.088309e+01   1.304660e+02
  -9.194835e+01   3.250262e+01
  -6.850441e+01  -2.029077e+01
  -2.596993e+01  -3.786014e+01
   9.596451e+00  -1.057211e+00
  -1.560618e+01   7.404372e+00
  -4.074042e+01  -3.236231e+01
  -1.930185e+01  -8.618823e+01
   3.559653e+01  -8.627473e+01
   7.350614e+01   1.503853e+01
   6.169717e+01   1.297937e+02
  -2.411062e+01   1.242557e+02
  -8.934766e+01   4.880354e+01
  -8.611496e+01  -9.038584e+01
  -1.657668e+01  -8.308742e+01
   9.088856e+01  -3.158694e+01
   8.310536e+01   2.291925e+01
   4.023362e+01   3.787864e+01
  -4.122319e+01   6.655936e+01
  -2.004975e+01   6.227583e+00
   2.222687e+01  -1.900231e+01
   7.875927e+01  -2.532094e+00
   1.574272e+01   2.530532e+01
  -8.636730e+01   5.876325e+01
  -1.182072e+02   5.777625e+01
  -5.663960e+01  -2.087954e+01
   4.587982e+01  -9.435813e+01
   3.092675e+01  -8.696081e+01
   3.844434e+01  -1.255536e+01
  -2.854976e+01   3.903071e+01
  -2.592506e+01   5.977542e+01
  -1.822907e+01  -2.762908e+01
  -4.989344e+00  -5.993080e+01
   4.183395e+01  -4.794743e+01
   2.655818e+01   1.856151e+01
   4.112904e+01   4.049934e+01
   4.178210e+01  -1.312623e+01
  -7.994032e+00  -5.657256e+00
   2.675506e+00  -5.371381e+00
  -2.322280e+01   3.050443e+01
  -1.854413e+01   5.579654e+01
  -2.980575e+01   3.012172e+00
  -1.950307e+01  -4.005302e+01
   8.901120e+00  -7.346472e+01
   3.380207e+01   1.084529e+01
   8.170243e+01   7.701750e-01
  -2.051545e+00   7.309092e+01
  -4.887363e+01   1.693895e+01
  -8.726806e+01  -2.727890e+01
  -3.599101e+01  -6.216750e+01
   9.056560e+00  -5.441989e+01
   5.958636e+01  -2.211984e+01
   7.121444e+00  -4.235236e+01
  -3.804869e+01   3.830530e+00
  -5.817011e+01   1.494152e+01
   1.393855e+01  -4.011097e+01
   9.052562e+01   9.718598e+00
