
 $NMID
 id='ANONYMOUS ', fmtdat='(2E16.6)'
 volume=1.0
 tramp=1.0
 $END
   4.829593e+03   4.684368e+02
   2.757249e+03   2.907543e+03
  -9.475370e+02   2.781650e+03
  -1.946533e+03   8.429608e+02
  -8.278013e+02  -6.202559e+02
   6.671070e+02  -5.312546e+02
   8.453780e+02   4.456811e+02
  -1.740370e+02   9.813941e+02
  -8.038788e+02   6.772182e+02
  -8.853257e+02  -1.718705e+02
  -3.461983e+02  -9.118453e+02
   3.146775e+02  -8.700035e+02
   6.871310e+02  -1.866782e+02
   2.949368e+02   7.638506e+02
  -2.824926e+02   7.565951e+02
  -6.189933e+02  -2.913021e+01
  -2.390543e+02  -6.859746e+02
   2.905704e+02  -6.820287e+02
   5.965588e+02  -6.727743e+01
   3.932621e+02   4.136669e+02
   1.487211e+01   4.988055e+02
  -1.852970e+02   2.954582e+02
  -2.383465e+02   8.519672e+00
   1.245561e+02  -8.063303e+01
   3.575145e+02   2.011074e+02
   1.393250e+02   5.073406e+02
  -4.891956e+02   4.257646e+02
  -8.338566e+02  -7.102264e+01
  -4.318099e+02  -5.839845e+02
   4.401369e+02  -4.978166e+02
   7.542212e+02   5.138633e+01
   2.361138e+02   5.259039e+02
  -3.302123e+02   4.951470e+02
  -5.425379e+02   2.311098e+02
  -4.143344e+02  -3.165440e+02
  -1.001021e+02  -4.798266e+02
   2.123200e+02  -2.449724e+02
   1.669328e+02   2.177735e+02
  -1.981742e+02   3.819960e+02
  -4.017966e+02   3.277747e+01
  -1.921359e+02  -6.740545e+02
   3.772609e+02  -6.245860e+02
   6.048606e+02   3.772810e+01
   1.880320e+02   5.426198e+02
  -2.121471e+02   3.314669e+02
  -4.404745e+02  -3.246804e+02
   1.128601e+02  -4.789353e+02
   5.826528e+02  -1.102790e+02
   5.171325e+02   5.104800e+02
   1.075490e+02   6.105237e+02
  -3.064434e+02   3.732613e+02
  -6.474576e+02  -7.686922e+01
  -3.842786e+02  -3.656130e+02
   1.373689e+02  -3.297556e+02
   4.196509e+02   1.860362e+01
   2.458963e+02   2.498577e+02
  -7.839415e+01   1.506542e+02
  -1.475299e+02  -1.475359e+02
   1.858755e+02  -1.579769e+02
   3.740407e+02   1.023067e+02
   1.218253e+02   3.228007e+02
  -2.108858e+02   2.955185e+02
  -3.357708e+02   6.587591e+01
  -2.174762e+02  -1.141421e+02
   6.410149e+01  -2.106236e+02
   2.554057e+02  -3.421825e+02
   3.853140e+02  -1.998861e+02
   3.039880e+02   1.605234e+02
   1.592416e+02   4.702325e+02
  -1.419015e+02   4.352502e+02
  -1.294403e+02   1.142445e+02
  -1.980222e+00  -1.949749e+01
  -6.924581e+01   1.204181e+02
  -2.766224e+02   9.365047e+01
  -3.298771e+02  -5.785135e+01
  -1.592702e+02  -3.276254e+02
   1.136895e+02  -2.903047e+02
   2.389187e+02   1.206955e+01
   1.644190e+02   2.438379e+02
  -3.093115e+00   2.816209e+02
  -2.752543e+02   1.035061e+02
  -3.446140e+02  -1.663666e+02
  -2.064777e+02  -3.646657e+02
   1.547231e+02  -3.162762e+02
   2.669448e+02  -1.131891e+02
   1.590834e+02  -2.769562e+01
   1.238531e+02  -1.541263e+01
   2.236687e+02  -9.010244e+01
   4.494897e+02   1.049063e+02
   3.470868e+02   3.005726e+02
  -2.923158e+01   4.536808e+02
  -4.121586e+02   3.816180e+02
  -4.920244e+02   2.254436e+02
  -3.382540e+02  -6.239843e+01
  -9.999991e+00  -2.728284e+02
   1.777544e+02  -2.342299e+02
   5.675998e+01  -1.143733e+01
  -1.510476e+02   5.755058e+01
  -1.852020e+02   1.404494e+01
  -7.935333e+01  -1.680059e+02
   1.582403e+02  -1.835270e+02
   1.858924e+02   1.041109e+02
   1.087905e+01   2.001199e+02
  -1.821153e+02   6.374307e+01
  -1.885010e+02  -2.419818e+02
   7.452501e+01  -3.388452e+02
   2.465999e+02  -1.854634e+02
   3.545921e+02   6.918311e+01
   3.232107e+02   1.952236e+02
   8.472898e+01   2.739393e+02
  -1.488462e+02   1.562143e+02
  -1.968616e+02   1.105517e+01
  -4.488150e+01   1.165868e+01
   5.161433e+01   6.055263e+01
   1.968347e+01   8.514941e+01
  -1.169525e+02   8.950228e+01
  -1.970893e+02  -5.281403e+01
  -6.128793e+01  -9.730278e+01
   9.829116e+01  -7.622047e+00
   4.404270e+01   5.871702e+01
  -1.828883e+02   5.202405e+01
  -3.095734e+02  -2.456691e+00
  -2.561561e+02  -1.679436e+02
  -4.974108e+01  -2.560005e+02
   1.593446e+02  -2.446620e+02
   3.402766e+02  -9.652837e+01
   1.640806e+02   4.854417e+01
  -3.037550e+01   8.034380e+01
  -9.991245e+01  -2.719432e+01
   4.496146e+01  -9.833203e+01
   2.218959e+02  -4.834627e+01
   2.390234e+02   1.233543e+02
   3.543393e+01   2.257134e+02
  -7.640473e+01   1.262991e+02
  -1.929068e+02   4.559242e+01
  -7.111537e+01  -3.603841e+01
   3.106677e+01   4.333437e+00
   4.825463e+01   1.144927e+02
  -9.151551e+01   1.066639e+02
  -1.846029e+02   1.103515e+01
  -2.128195e+02  -1.153955e+02
  -2.548543e+01  -1.718840e+02
   1.831374e+02  -1.483780e+02
   2.161337e+02   1.517838e+01
   4.708719e+01   1.290882e+02
  -6.114835e+01   1.030999e+02
  -1.345769e+02   4.757546e+01
  -6.142309e+01  -2.456991e+01
   1.375133e+01  -3.317734e-01
   2.504791e+01   1.698408e+01
  -8.533415e+01   4.729239e+00
  -1.045098e+02  -1.067380e+02
  -2.397510e+01  -1.819405e+02
   1.571838e+02  -1.694611e+02
   2.330770e+02  -2.902504e+00
   1.913706e+02   1.644777e+02
   4.232011e+01   2.328738e+02
  -1.290010e+02   1.727691e+02
  -1.530696e+02   1.864463e+01
  -7.213810e+01  -6.437920e+01
  -2.151784e+01  -2.484572e+01
  -6.609443e+01   9.888029e+00
  -8.362791e+01  -2.548470e+01
  -3.922693e+01  -2.836656e+01
   6.038146e+01  -1.109682e+02
   1.069379e+02  -7.157022e+01
   1.066071e+02   1.175195e+01
  -3.866236e+01   9.681181e+01
  -2.045903e+02   8.044428e+01
  -2.105184e+02  -6.088272e+01
  -9.613177e+01  -2.020445e+02
   8.956891e+01  -2.265095e+02
   2.576644e+02  -8.574106e+01
   2.758275e+02   1.096967e+02
   1.043169e+02   1.968016e+02
  -3.815928e+01   1.265973e+02
  -1.412021e+02   7.289180e+01
  -1.040316e+02   8.105477e+01
  -9.929188e+01   1.025362e+02
  -1.048601e+02   7.261221e+01
  -1.058383e+02  -7.073084e+01
  -1.369948e+02  -1.584395e+02
   2.399528e+01  -2.376426e+02
   1.015304e+02  -1.704226e+02
   1.833062e+02  -2.283979e+01
   1.357496e+02   1.158494e+02
   4.438235e+01   1.821931e+02
  -5.350474e+01   9.845953e+01
  -6.907104e+01  -3.218392e+00
   9.651593e+00  -6.445201e+01
   1.629031e+01  -2.318561e+01
  -5.716121e+01   1.354210e+01
  -9.180416e+01  -1.433341e+01
  -4.653471e+01  -5.941740e+00
   7.629051e+01  -2.992926e+01
   1.554864e+02  -1.565780e+01
   1.592666e+02   2.741447e+01
   3.108001e+01   1.074778e+02
  -1.360028e+02   6.766318e+01
  -1.595608e+02   2.094019e+00
  -7.028441e+01  -5.955989e+01
   2.462514e+01  -5.346980e+01
   6.900067e+01   3.296173e+01
   1.022359e+00   6.801639e+01
  -5.245349e+01   6.185476e+01
  -5.198091e+01  -8.247109e-02
  -6.327331e+01  -6.672999e+01
  -1.758409e+01  -6.194206e+01
  -4.510023e+01  -2.371308e+00
  -6.996244e+01   1.403995e+01
  -6.333497e+00  -8.768445e+01
   5.690776e+01  -1.438094e+02
   1.045388e+02  -1.305446e+02
   1.696647e+02  -6.593530e+01
   1.215373e+02   1.371886e+02
  -2.196244e-01   1.486309e+02
  -6.127782e+01   4.887719e+01
  -7.164975e+01  -1.099259e+01
   6.267166e+01   5.389203e+00
   1.254051e+02   4.730922e+01
   6.840720e+01   8.351586e+01
  -8.993169e+01   1.035718e+02
  -2.003550e+02   4.214803e+01
  -1.809574e+02  -4.776520e+01
  -4.039178e+01  -1.085459e+02
   7.155430e+01  -4.764362e+01
   3.791031e+01  -1.504963e+00
  -3.996456e+01   2.764671e+01
  -9.968030e+01  -1.677578e+01
  -2.160471e+01  -1.290338e+02
   5.655731e+01  -1.559848e+02
   1.590169e+02  -6.063175e+01
   1.435009e+02   9.688219e+01
   1.834493e+01   2.352466e+02
  -1.368400e+02   1.209555e+02
  -1.007485e+02  -2.280899e+00
  -2.430585e+01  -1.001559e+02
   2.042959e+01  -1.121295e+02
   3.921877e+01  -4.285721e+01
   4.310880e+01   1.740467e+01
   2.098891e+01  -9.187412e+00
   9.758010e+00  -1.136116e+00
   5.140718e+01   1.864641e+00
   5.852251e+01   6.830303e+01
   4.281615e+01   1.180560e+02
  -3.723467e+01   5.396516e+01
  -1.274035e+02  -7.249243e+01
  -9.064546e+01  -5.394864e+01
  -3.259796e+01  -5.643297e+01
   9.931176e+01   2.755668e+00
   1.245340e+02   3.230783e+00
   4.336379e+01  -1.279142e+01
  -3.606324e+01   2.464984e+01
  -7.003551e+00   1.937267e+01
   3.660260e+01  -1.064992e+01
  -1.820438e+01  -4.560749e+00
  -6.731138e+01  -2.993620e+01
  -1.006848e+02  -1.550520e+01
  -8.728283e+00  -6.512629e+01
   1.193819e+02  -1.175448e+02
   2.103540e+02  -5.629228e+01
   1.422463e+02   8.500880e+01
   4.588855e+01   1.768538e+02
  -6.998646e+01   1.426105e+02
  -1.214585e+02   6.973314e+01
  -5.639974e+01  -1.714888e+01
  -3.589152e+01  -6.382204e+01
   5.258645e+00  -4.866133e-01
  -2.079632e+01   1.222255e+01
  -2.681671e+01  -4.264826e+01
   6.174019e+00  -7.999047e+01
   6.335108e+01  -7.515344e+01
   8.128014e+01   3.664246e+01
   8.167462e+01   1.421293e+02
  -1.650832e+01   1.456101e+02
  -1.123034e+02   1.918781e+01
  -8.435764e+01  -8.104338e+01
  -9.475333e+00  -1.146363e+02
   8.091867e+01  -5.019364e+01
   1.032730e+02   2.042273e+00
   4.275028e+01   5.300395e+01
  -2.446861e+01   7.245767e+01
  -3.559461e+01   2.087501e+01
   5.317686e+01  -8.981292e+00
   5.305171e+01  -3.263902e+01
   3.061508e+01   4.257675e+01
  -7.675122e+01   7.549283e+01
  -1.034570e+02   8.046746e+01
  -4.409708e+01  -1.820277e+01
  -3.286463e+00  -9.900358e+01
   6.110291e+01  -5.807865e+01
   2.330519e+01  -1.177186e+01
   2.237440e+01   4.663659e+01
  -3.912755e+01   4.821680e+01
  -2.796172e+01  -5.527972e+01
  -4.692238e+01  -6.490601e+01
   1.386470e+00  -5.406783e+01
   4.007174e+01   3.150675e+01
   4.333637e+01   3.615343e+01
   8.738684e+00   1.298723e+00
   9.785628e+00  -2.527750e+00
  -3.055908e+01  -1.719240e-01
  -1.751569e+01   3.044715e+01
  -2.114079e+01   3.656627e+01
  -4.632269e+01   1.960155e+00
  -5.230596e+01  -2.345666e+01
   5.974415e+00  -6.148146e+01
   3.312724e+01  -8.456892e+00
   6.303643e+01   1.195317e+00
   1.113068e+01   6.095449e+01
  -7.314856e+01   1.490460e+01
  -1.031958e+02  -4.978425e+01
  -6.548782e+01  -6.840079e+01
   4.190837e+01  -4.240451e+01
   5.194533e+01  -1.827367e+01
   2.387539e+01  -7.788414e+00
  -4.809018e+01   1.040307e+01
  -4.156887e+01  -1.565060e+01
   5.300443e+01  -4.030081e+01
   1.023215e+02  -2.366917e+01
