
 $NMID
 id='ANONYMOUS ', fmtdat='(2E16.6)'
 volume=1.0
 tramp=1.0
 $END
  -3.442807e+03   5.841400e+01
  -2.076425e+03  -2.028463e+03
   1.604144e+02  -2.202091e+03
   1.450312e+03  -1.090213e+03
   9.013839e+02   2.645307e+02
  -2.335463e+02   4.814082e+02
  -6.782915e+02  -3.264554e+02
  -1.676833e+01  -8.237355e+02
   3.575575e+02  -6.263385e+02
   7.970821e+02   4.199604e+01
   4.932606e+02   7.207827e+02
   1.717825e+01   7.252548e+02
  -4.341904e+02   1.685507e+02
  -4.102203e+02  -4.709336e+02
   2.006367e+02  -6.602119e+02
   5.487409e+02  -3.105755e+01
   2.924586e+02   4.869619e+02
  -1.728697e+02   6.462958e+02
  -5.585440e+02   2.540397e+02
  -4.061178e+02  -2.855124e+02
  -7.558898e+01  -3.858691e+02
   1.851171e+02  -2.772979e+02
   1.237824e+02  -4.102379e+01
  -1.466555e+02   1.524176e+00
  -3.931449e+02  -1.479418e+02
  -1.690227e+02  -3.430831e+02
   3.471571e+02  -4.010187e+02
   8.043954e+02   7.350717e+01
   3.499449e+02   4.295648e+02
  -3.632374e+02   3.085450e+02
  -6.721174e+02  -7.373303e+01
  -2.851888e+02  -4.130678e+02
   2.814522e+02  -4.490727e+02
   4.612971e+02  -1.439514e+02
   3.575035e+02   1.439431e+02
   8.831585e+01   4.293659e+02
  -1.179083e+02   1.966099e+02
  -4.271351e+01  -1.271259e+02
   5.760829e+01  -3.996503e+02
   4.048218e+02   2.267031e+01
   1.708687e+02   5.473617e+02
  -2.405726e+02   6.221852e+02
  -4.629121e+02   2.072806e+01
  -2.130985e+02  -3.919331e+02
   2.440371e+02  -2.877218e+02
   3.402124e+02   2.746324e+02
  -8.961718e+01   4.937271e+02
  -4.786208e+02   1.368600e+02
  -5.218904e+02  -3.106838e+02
  -1.821593e+02  -5.003374e+02
   2.903344e+02  -2.923667e+02
   5.499398e+02   4.427567e+00
   4.022355e+02   2.273396e+02
  -1.511385e+02   3.216524e+02
  -3.004436e+02   8.904225e+01
  -2.098431e+02  -1.196975e+02
   6.402260e+01  -5.846719e+01
   7.638750e+01   9.253786e+01
  -9.814565e+01   1.608581e+02
  -2.814292e+02  -5.687281e+01
  -1.636925e+02  -2.184801e+02
   1.769992e+02  -2.400388e+02
   3.033041e+02  -1.322592e+02
   2.217868e+02   5.967261e+01
  -2.748014e+01   2.458247e+02
  -2.845281e+02   3.674677e+02
  -3.196711e+02   2.071936e+02
  -2.992367e+02  -1.063592e+02
  -8.497499e+01  -3.973582e+02
   5.195092e+01  -3.299389e+02
   3.604045e+01  -1.688834e+02
   2.743614e+01  -4.689014e+01
   7.063891e+01  -1.056604e+02
   1.794861e+02  -7.646034e+01
   2.952652e+02   6.294130e+01
   1.685707e+02   2.166910e+02
  -7.136762e+01   1.784708e+02
  -1.954994e+02   3.526031e+01
  -1.839599e+02  -2.167559e+02
   4.439574e+01  -2.765058e+02
   2.203859e+02  -1.100267e+02
   3.900970e+02   1.877348e+02
   1.912755e+02   3.017858e+02
  -3.157354e+01   2.719651e+02
  -1.671996e+02   1.467369e+02
  -1.489800e+02   5.425021e+01
  -1.336487e+02   5.745460e+01
  -2.360010e+02   9.447048e+01
  -4.063314e+02  -1.015529e+00
  -3.617412e+02  -3.140589e+02
   3.858212e+01  -4.449966e+02
   3.844071e+02  -3.155032e+02
   4.515724e+02  -2.177868e+02
   3.548364e+02   1.277758e+02
   8.870784e+01   2.739111e+02
  -1.104386e+02   2.223587e+02
  -6.594456e+01   2.824628e+01
   7.454155e+01  -1.093629e+02
   1.483603e+02   3.841207e+00
   4.637933e+01   1.728502e+02
  -1.472047e+02   1.415019e+02
  -1.411114e+02  -5.841083e+01
   2.276973e+01  -1.867964e+02
   1.509039e+02  -1.254958e+00
   1.876181e+02   2.127364e+02
  -3.440220e+01   3.147297e+02
  -2.020024e+02   2.154024e+02
  -3.565262e+02  -3.505691e+01
  -2.947123e+02  -1.827774e+02
  -9.234699e+01  -2.359242e+02
   1.333168e+02  -1.823712e+02
   1.126139e+02  -1.199424e+01
   7.728011e+01   1.580238e+01
  -4.977150e+01  -4.871167e+01
  -3.963308e+01  -1.094144e+02
   1.208953e+02  -9.807114e+01
   1.527849e+02  -9.325479e+00
   4.547988e+01   6.838110e+01
  -5.990481e+01   3.546703e-03
  -6.934726e+01  -9.143810e+01
   1.340993e+02  -3.863578e+01
   2.635266e+02  -3.172437e+01
   2.578965e+02   1.480039e+02
   7.871908e+01   2.602525e+02
  -1.149926e+02   2.535357e+02
  -2.665367e+02   1.033917e+02
  -1.468746e+02  -6.001347e+01
   3.369003e+01  -1.105349e+02
   8.598201e+01   1.168080e+01
  -4.458716e+01   8.477404e+01
  -1.452446e+02   7.835769e+01
  -2.060727e+02  -8.821907e+01
  -6.388345e+01  -1.837992e+02
   6.345358e+01  -1.610186e+02
   1.393456e+02  -4.947251e+01
   5.960525e+01   1.662783e+01
  -5.009716e+01  -1.134652e+01
  -1.415686e+01  -6.745028e+01
   7.708138e+01  -8.743044e+01
   1.895469e+02  -3.163076e+01
   2.011221e+02   1.018356e+02
   3.367912e+01   1.979326e+02
  -1.411778e+02   1.760276e+02
  -1.761073e+02   1.186385e+01
  -5.100890e+01  -9.586356e+01
   2.794288e+01  -1.329202e+02
   5.702334e+01  -2.190891e+01
  -2.690628e+00  -3.581396e+00
  -2.865787e+01   1.676827e+01
  -8.979280e+00  -2.819773e+01
   7.558348e+01  -2.466054e+01
   1.042691e+02   5.936714e+01
  -1.886824e+00   1.395626e+02
  -1.353849e+02   1.403664e+02
  -2.292762e+02   4.447728e+01
  -2.107958e+02  -1.359881e+02
  -5.571307e+01  -2.053711e+02
   1.306003e+02  -1.890495e+02
   1.063943e+02  -3.334976e+01
   5.441181e+01   3.356747e+01
   2.044562e+01   2.002360e+01
   3.948702e+01   2.535824e+01
   9.003670e+01  -3.140495e+01
   4.813431e+01   4.236382e+01
  -3.031427e+01   8.416538e+01
  -4.207687e+01   8.618937e+01
  -9.196159e+01  -3.315499e+01
  -5.957138e+00  -8.989084e+01
   1.255230e+02  -6.994890e+01
   2.156612e+02   6.164942e+01
   1.338656e+02   1.961805e+02
  -8.434999e+01   2.373545e+02
  -2.435396e+02   1.192486e+02
  -2.908793e+02  -7.762714e+01
  -8.218979e+01  -1.880485e+02
   3.533436e+01  -1.437751e+02
   7.206189e+01  -4.710594e+01
   6.742907e+01  -6.861130e+01
   4.353792e+01  -9.365296e+01
   7.028949e+01  -8.378489e+01
   1.064989e+02  -1.710792e+00
   1.413728e+02   1.037917e+02
   6.437394e+01   1.927645e+02
  -8.195283e+01   1.826414e+02
  -1.727853e+02   1.017838e+01
  -1.130264e+02  -1.242085e+02
  -1.193931e+01  -1.449848e+02
   5.212022e+01  -8.338696e+01
   8.933256e+01  -2.634303e+00
  -4.467045e+00   2.899460e+01
  -2.661434e+01   2.801131e+01
   5.284683e+01   2.028643e+01
   4.929327e+01   3.162641e+01
   4.083234e+01   3.911219e+01
  -2.820490e+01   5.417419e+01
  -1.643970e+02   1.471089e+01
  -1.300481e+02   1.401449e+00
  -1.182800e+01  -6.506590e+01
   8.319627e+01  -6.783876e+01
   1.457725e+02  -3.232817e+01
   2.846322e+01   5.931056e+01
  -3.744104e+01   4.643186e+01
  -8.589038e+01   7.544574e-02
  -1.239703e+01  -6.806235e+01
   6.595220e+01  -5.302637e+01
   2.932254e+01  -1.259873e+01
   5.499409e+01   3.514975e+01
   6.123518e+01   5.308341e+01
   5.314568e+01  -2.060036e-01
   4.047510e+01  -2.958362e-01
   2.814443e+01   7.779712e+01
  -5.587997e+01   1.703853e+02
  -1.277021e+02   1.441554e+02
  -1.741688e+02   5.858952e+01
  -1.215347e+02  -7.400726e+01
   1.814700e+01  -1.269148e+02
   8.962988e+01  -6.148125e+01
   6.853992e+01  -4.427211e+00
  -6.588171e+01   1.845055e+01
  -1.410101e+02  -5.764844e+01
  -9.372529e+01  -6.562198e+01
   6.472684e+01  -1.224991e+02
   1.352443e+02   8.240067e+00
   1.611510e+02   3.245646e+01
   7.731177e+01   1.007689e+02
  -6.193642e+01   7.679549e+01
  -2.817984e+01   1.624262e+01
   2.987121e+01  -1.926641e+01
   1.054895e+02   1.697228e+01
   2.677997e+01   9.517123e+01
  -5.663972e+01   1.471924e+02
  -1.591773e+02   6.820486e+01
  -1.548706e+02  -7.092646e+01
  -2.103044e+01  -2.006954e+02
   6.170320e+01  -1.284282e+02
   8.624104e+01   1.576870e+01
   3.290778e+01   1.279997e+02
  -9.281707e-02   1.124810e+02
  -4.579405e+01   2.814543e+01
  -2.981134e+01  -2.564728e+01
  -3.470054e+00   1.384591e+01
  -2.408003e+01   1.502727e+01
  -1.642448e+01  -2.536682e+01
  -5.287100e+01  -6.465986e+01
  -2.933182e+01  -1.062783e+02
   3.258769e+01  -4.247901e+01
   9.934335e+01   4.289358e+01
   1.280721e+02   6.559631e+01
   3.130179e+01   5.317271e+01
  -1.042509e+02   1.313386e+01
  -7.865588e+01  -2.097355e+01
  -1.180549e+01   8.244129e+00
   5.791981e+01  -4.594032e+00
   1.389938e+01  -2.702662e+01
   4.712732e+00  -2.902525e+00
   5.351090e-02   1.897297e+01
   7.036506e+01  -5.051447e+00
   9.006569e+01  -2.377096e+01
   7.217852e+00   9.373605e+01
  -1.129445e+02   7.226244e+01
  -1.746631e+02   4.441252e+01
  -1.517060e+02  -2.817003e+01
  -4.451033e+01  -1.533062e+02
   8.954381e+01  -1.721696e+02
   1.421970e+02  -5.103030e+01
   1.018343e+02  -1.035575e+01
   7.025713e+00   4.004815e+01
   1.045748e+01  -8.828206e+00
   1.644833e+00   3.643165e+00
   3.041489e+01   2.637950e+01
   2.559397e+01   8.004922e+01
  -1.199624e+01   6.077597e+01
  -7.417299e+01  -2.457521e+00
  -7.722439e+01  -7.713060e+01
  -1.261735e+01  -1.043458e+02
   6.486328e+01  -5.604788e+01
   1.062938e+02   8.671492e+01
   6.485988e+01   1.002981e+02
  -3.321143e+01   5.138205e+01
  -1.163128e+02   1.717604e+01
  -2.450513e+01  -2.666737e+01
   4.573340e+01  -8.845793e+01
   1.957817e+01  -3.495673e+01
  -3.355873e+01   2.457151e+01
  -4.771622e+01  -2.027628e+01
   1.870988e+00  -6.890619e+00
   7.223104e+01  -4.368944e+01
   9.682133e+01  -6.506482e+01
   7.438630e+01   1.142546e+01
  -1.106336e+00   7.536758e+01
  -5.500927e+01   1.134073e+02
  -2.828264e+01   3.115899e+01
  -1.354778e+01  -6.037537e+01
   2.539232e+01  -2.788396e+01
   5.812974e+00   2.295577e+01
   2.907876e+01   3.890786e+01
  -6.973938e+00   1.770404e+01
  -3.464724e+01   9.128632e+00
  -6.937636e+01  -6.632320e+00
  -3.274723e+01   2.637144e+01
   1.694765e+01   9.972253e+00
   1.077698e+01   3.172655e+00
   2.470189e+01  -3.137887e+01
  -1.386750e+01  -2.806632e+01
   2.275558e+01  -1.383327e+01
   2.549915e+01   2.913382e+01
   5.203615e+00   5.748305e+01
  -4.496465e+01   3.019567e+01
  -2.777353e+01  -8.436671e+00
   2.312735e+00  -5.703235e+01
   4.645807e+01  -2.728876e+01
   8.960732e+01   2.666087e+00
   7.913208e+01   3.766745e+01
  -7.860331e+00   3.308901e+01
  -9.343402e+01   9.408696e+00
  -1.649640e+01  -1.177598e+01
   5.343074e+01  -1.102957e+01
   3.230804e+01   6.383643e+00
  -6.900898e+00   4.755062e+01
  -9.259322e+01   4.024484e+01
