
 $NMID
 id='ANONYMOUS ', fmtdat='(2E16.6)'
 volume=1.0
 tramp=1.0
 $END
  -4.131211e+03  -4.393221e+02
  -2.151892e+03  -2.499553e+03
   8.007025e+02  -2.985169e+03
   1.885804e+03  -7.742204e+02
   9.926204e+02   5.673013e+02
  -5.066565e+02   4.187729e+02
  -7.915545e+02  -4.960651e+02
  -3.384328e+01  -1.085388e+03
   9.595978e+02  -5.048697e+02
   8.114664e+02   1.329650e+02
   5.012799e+02   8.258084e+02
  -2.244120e+02   7.756785e+02
  -5.389422e+02   5.454568e+01
  -3.021060e+02  -6.927928e+02
   2.654915e+02  -5.947849e+02
   5.172401e+02   2.112206e+01
   1.579135e+02   7.105954e+02
  -2.852590e+02   6.110798e+02
  -6.220948e+02   5.973826e+01
  -4.366834e+02  -2.561808e+02
  -1.019382e+01  -4.478533e+02
   2.683537e+02  -2.160061e+02
   1.666377e+02  -1.555330e+01
  -1.195064e+02   3.413598e+01
  -3.925998e+02  -1.297071e+02
  -1.373842e+02  -4.737853e+02
   5.405457e+02  -3.501939e+02
   7.928817e+02   1.363129e+02
   3.825723e+02   5.759763e+02
  -4.240740e+02   4.217958e+02
  -7.036561e+02  -1.856100e+02
  -2.547467e+02  -4.119667e+02
   2.558657e+02  -4.869739e+02
   5.814926e+02  -1.423769e+02
   3.976659e+02   2.883049e+02
   2.895359e+01   4.562831e+02
  -2.335716e+02   2.220174e+02
  -1.165497e+02  -2.133340e+02
   2.333400e+02  -4.030809e+02
   4.165804e+02   2.543117e+01
   1.181819e+02   6.779253e+02
  -3.395268e+02   6.397646e+02
  -5.474526e+02   3.053556e+01
  -2.552230e+02  -5.557264e+02
   2.635600e+02  -2.888518e+02
   2.876014e+02   3.631917e+02
  -1.170180e+02   5.658795e+02
  -5.150136e+02   7.197521e+01
  -7.124825e+02  -5.189920e+02
  -2.281137e+02  -5.698111e+02
   4.362271e+02  -3.152982e+02
   6.563745e+02   1.416441e+02
   2.426354e+02   4.277904e+02
  -1.373097e+02   3.395671e+02
  -4.236374e+02   5.021012e+01
  -2.192507e+02  -1.639443e+02
   7.558929e+01  -7.368147e+01
   1.293816e+02   1.588729e+02
  -1.885829e+02   1.753640e+02
  -3.040454e+02  -7.255061e+01
  -1.487071e+02  -2.865798e+02
   1.859139e+02  -2.085078e+02
   3.435331e+02  -5.243270e+01
   2.500950e+02   1.286275e+02
  -2.350060e+01   2.835105e+02
  -2.465085e+02   3.144731e+02
  -4.159079e+02   1.903142e+02
  -2.613745e+02  -1.213492e+02
   8.210104e+00  -4.354076e+02
   9.699835e+01  -3.581335e+02
   1.236598e+02  -1.030526e+02
   3.730643e+01  -5.651930e+00
   6.196500e+01  -7.135324e+01
   2.164761e+02  -1.409947e+02
   2.475370e+02   7.483963e+01
   1.236239e+02   2.918381e+02
  -4.701052e+01   2.379078e+02
  -2.429911e+02  -3.419034e+01
  -1.689048e+02  -2.561557e+02
   8.440456e+01  -2.697641e+02
   2.867978e+02  -8.478746e+01
   3.500307e+02   2.092228e+02
   1.680683e+02   3.156399e+02
  -1.069750e+02   3.424467e+02
  -2.233709e+02   1.009008e+02
  -9.727317e+01   1.791014e+01
  -1.113154e+02   3.809174e+01
  -2.769815e+02   3.907254e+01
  -3.583844e+02  -6.436680e+01
  -2.919689e+02  -3.753531e+02
  -1.305848e+01  -4.171176e+02
   3.479564e+02  -4.411912e+02
   5.368706e+02  -1.426425e+02
   2.872842e+02   1.375935e+02
   3.196598e+01   3.082966e+02
  -1.177612e+02   2.222802e+02
  -7.749035e+01   2.523299e+01
   1.343130e+02  -1.167321e+02
   1.826932e+02   2.208975e+01
   6.104857e+01   2.094326e+02
  -1.604472e+02   1.378100e+02
  -1.792512e+02  -7.670313e+01
   1.149271e+01  -1.748695e+02
   1.820021e+02   3.636580e+00
   1.772054e+02   2.464779e+02
  -9.416354e+01   3.715039e+02
  -2.439612e+02   1.779362e+02
  -2.631558e+02  -1.041779e+02
  -2.552015e+02  -3.260848e+02
  -1.004142e+02  -2.733135e+02
   1.224262e+02  -1.630292e+02
   1.670795e+02   6.550089e+00
   7.248228e+01   5.448656e+01
  -5.711067e+01  -7.674803e+01
  -2.553539e+01  -1.127557e+02
   1.217647e+02  -9.988797e+01
   1.844113e+02   3.624144e+01
   6.328132e+01   8.563639e+01
  -6.683097e+01   7.154815e+00
  -3.872688e+01  -5.419398e+01
   1.254688e+02  -7.689084e+01
   2.750077e+02   2.318852e+01
   2.844540e+02   1.483581e+02
   1.901348e+01   2.439733e+02
  -1.956412e+02   2.284137e+02
  -3.115652e+02   1.530118e+02
  -1.656660e+02  -5.982575e+01
   6.080057e+01  -1.045569e+02
   1.046581e+02   9.656227e+00
  -5.038099e+01   1.386331e+02
  -1.634040e+02   5.055938e+01
  -2.273461e+02  -1.360020e+02
  -4.839894e+01  -2.285912e+02
   9.500214e+01  -2.023562e+02
   1.354553e+02  -3.227385e+01
   5.680683e+01   5.287602e+01
  -3.200123e+01   2.546084e-01
  -2.688800e+01  -8.342539e+01
   1.046312e+02  -9.685313e+01
   1.692729e+02   1.605252e+01
   1.697607e+02   1.224490e+02
   2.248410e+01   1.831340e+02
  -1.947951e+02   1.247630e+02
  -1.624869e+02  -1.950339e+01
  -7.624755e+01  -1.591530e+02
   8.055638e+01  -1.099575e+02
   9.692494e+01  -3.018607e+01
   5.450449e+01   4.263132e+01
  -3.921288e+01  -1.086816e+01
   3.136536e+00  -9.336888e-01
   5.787649e+01  -3.151113e+01
   9.287262e+01   8.230837e+01
   1.339347e+01   1.578337e+02
  -1.182525e+02   1.474995e+02
  -1.977029e+02   5.897354e+01
  -1.851351e+02  -1.760109e+02
  -4.699669e+01  -2.508260e+02
   1.259575e+02  -1.427412e+02
   1.130564e+02   1.392724e+01
   8.105735e+01   8.500802e+01
   4.999571e+00   4.585195e+01
   5.207200e+01  -7.282007e+00
   8.896615e+01   8.780361e+00
   1.619919e+01   3.776196e+01
  -7.017034e+01   6.495733e+01
  -1.012534e+02   1.410070e+01
  -8.253376e+01  -3.808928e+01
   3.072488e+01  -1.188292e+02
   1.568014e+02  -1.063415e+02
   2.062085e+02   8.175419e+01
   9.762948e+01   1.954963e+02
  -1.483510e+02   2.335782e+02
  -2.722747e+02   7.634974e+01
  -2.458021e+02  -9.974933e+01
  -6.590975e+01  -1.996172e+02
   6.680119e+01  -1.312895e+02
   6.585083e+01  -9.236931e+01
   9.628472e+01  -7.270270e+01
   1.008450e+02  -7.919899e+01
   1.104909e+02  -8.029733e+01
   1.389641e+02   5.216756e+01
   1.240132e+02   1.890256e+02
   1.830332e+01   2.417331e+02
  -1.134360e+02   1.437536e+02
  -1.773626e+02   1.530874e+01
  -8.037255e+01  -1.663890e+02
  -2.714027e+01  -1.518905e+02
   7.434436e+01  -9.082033e+01
   3.711987e+01  -1.448754e+00
   3.003234e+01   4.170383e+01
  -1.150106e+01   2.895925e+01
   3.882963e+01   1.444201e+01
   1.100362e+02   3.522624e+01
   5.999687e+01   5.554735e+01
  -5.058516e+01   3.353756e+01
  -1.525499e+02   1.696522e+01
  -1.489429e+02  -4.598563e+01
   1.579388e+01  -8.732531e+01
   1.163194e+02  -5.020728e+01
   1.452002e+02   2.508144e+00
   3.641746e+01   6.652902e+01
  -4.940781e+01   1.379251e+01
  -8.477616e+01  -4.741820e+01
  -2.709580e+01  -6.759199e+01
   8.123971e+01  -3.397473e+01
   3.423648e+01   7.514703e+00
   5.885515e+01   3.492908e+01
   4.449219e+01   4.241683e+01
   4.228123e+01   1.245715e+00
   7.425026e+01   3.552822e+01
   4.975539e+01   4.196944e+01
  -3.671319e+00   1.310831e+02
  -8.394595e+01   1.100646e+02
  -1.543396e+02   6.847769e+00
  -1.257385e+02  -8.160600e+01
  -1.078102e+01  -1.529526e+02
   9.630891e+01  -4.562079e+01
   4.235837e+01   2.099557e+01
  -6.483281e+01   3.459868e+00
  -1.142808e+02  -1.755392e+01
  -4.891072e+01  -9.228746e+01
   1.267171e+02  -1.330923e+02
   1.899042e+02  -7.674165e+00
   1.842853e+02   2.602670e+01
   2.081267e+01   5.807537e+01
  -7.924664e+01   8.596626e+01
  -6.075576e+01  -3.232466e+01
   3.684365e+01  -3.519434e+01
   6.606788e+01   2.280396e+01
   1.636997e+01   1.110410e+02
  -1.050024e+02   1.663843e+02
  -1.888715e+02   4.534633e+01
  -1.094949e+02  -1.112122e+02
   1.448267e+01  -1.864836e+02
   7.498071e+01  -1.307971e+02
   9.488106e+01   2.453795e+00
   8.106581e+01   1.128825e+02
  -4.819561e+00   1.360355e+02
  -5.887987e+01   1.671946e+01
  -5.255789e+01  -2.615355e+01
  -2.151759e+01  -1.072140e+01
  -2.857627e+01   2.084375e+01
  -1.674844e+01   1.145855e+01
  -5.364946e+01  -1.136339e+02
  -4.555837e+01  -1.070404e+02
   5.892505e+01  -3.013161e+01
   1.398952e+02   5.762201e+01
   1.386905e+02   9.029272e+01
   5.232888e+00   4.000796e+01
  -9.976044e+01  -8.219558e+00
  -8.969500e+01   2.131189e+01
   1.230917e+01   1.995902e+01
   3.175128e+01   1.355071e+01
   4.678545e+00  -1.518672e+01
  -1.296696e+01  -2.318223e+01
  -2.169894e+00  -6.149703e+00
   6.852793e+01  -1.004388e+01
   9.127593e+01   3.377929e+01
   1.837249e+01   7.882797e+01
  -1.386486e+02   9.868019e+01
  -1.955477e+02   7.150523e+01
  -1.192114e+02  -5.826627e+01
  -3.014416e+01  -1.825377e+02
   6.557466e+01  -1.364636e+02
   9.201124e+01  -6.855115e+01
   6.963559e+01   2.036253e+00
   1.561337e+01   3.179132e+01
  -1.404673e+01   7.633109e+00
   3.955830e+00   1.191280e+01
   2.432742e+01   3.044368e+01
   4.062807e+01   9.412372e+01
  -3.406148e+01   1.021436e+02
  -1.032585e+02  -1.639881e+01
  -7.376977e+01  -1.080206e+02
   1.251327e+01  -1.347940e+02
   5.814463e+01  -3.195866e+01
   1.103161e+02   7.132928e+01
   4.435295e+01   1.012105e+02
  -1.088245e+02   2.570334e+01
  -1.007315e+02   5.677699e+00
  -2.452022e+01  -5.121452e+01
  -1.030319e+01  -6.280167e+01
   3.314361e+01  -5.421977e+01
  -2.638428e+01   7.285784e+00
  -1.001843e+02   9.731661e-01
  -1.994774e+01  -2.403851e+01
   8.757056e+01  -8.523069e+01
   1.089896e+02  -5.230840e+01
   4.488475e+01   1.693880e+01
  -1.615693e+01   9.145494e+01
  -6.205107e+01   7.971880e+01
  -4.423852e+01   5.870141e+00
   1.209569e+01  -6.167149e+01
   2.987428e+01  -5.692613e+01
   2.953178e+01   3.137142e+01
   2.822023e+01   7.569439e+01
  -7.747746e+00   3.183400e+01
  -1.246405e+01  -1.190798e+01
  -5.991321e+01  -2.680187e+01
  -2.620191e+01   4.117747e+00
   2.293692e+01   2.275399e+01
   3.630244e+01  -1.246211e+01
   2.601390e+01   6.814867e+00
   5.361929e+00  -4.375628e+01
   3.509749e+01  -1.055505e+01
   2.532225e+01   1.810890e+01
  -7.843477e-01   5.488737e+01
  -5.549936e+01  -3.954939e-01
  -2.193002e+01  -5.276879e+01
  -2.177492e+01  -7.676900e+01
   2.957262e+01  -3.573565e+01
   1.150989e+02  -1.013618e+01
   3.101948e+01   5.663923e+01
  -2.633806e+01   1.954382e+01
  -5.462923e+01   1.439678e+01
   2.527051e+01   1.336175e+01
   1.535690e+01  -4.136483e+00
   4.259988e+01  -1.866566e+01
   1.802816e+00   3.569456e+01
  -8.820054e+01   7.473745e+00
