
 $NMID
 id='ANONYMOUS ', fmtdat='(2E16.6)'
 volume=1.0
 tramp=1.0
 $END
  -3.908401e+03  -2.575199e+02
  -1.940938e+03  -2.608682e+03
   1.001948e+03  -2.340266e+03
   1.771385e+03  -5.454712e+02
   7.419476e+02   7.917629e+02
  -6.977726e+02   3.875243e+02
  -8.705467e+02  -5.954625e+02
   2.495256e+01  -8.885547e+02
   7.729798e+02  -5.040123e+02
   8.542364e+02   1.744233e+02
   3.742134e+02   8.033950e+02
  -3.645306e+02   7.636958e+02
  -5.973158e+02  -8.126993e+01
  -2.357844e+02  -6.802945e+02
   3.977898e+02  -7.136620e+02
   6.196129e+02   9.490361e+00
   2.139682e+02   6.117214e+02
  -3.483305e+02   5.526777e+02
  -5.668857e+02   5.769998e+00
  -3.504770e+02  -3.830222e+02
   5.516824e+01  -3.337950e+02
   2.641047e+02  -2.026487e+02
   1.975962e+02   2.903268e+01
  -1.248913e+02   7.845307e+01
  -3.885336e+02  -9.364500e+01
  -1.364138e+02  -4.366118e+02
   4.649446e+02  -3.853549e+02
   7.415372e+02   1.123894e+02
   4.040474e+02   5.466493e+02
  -3.978292e+02   2.900395e+02
  -6.522761e+02  -1.378972e+02
  -2.455960e+02  -4.915436e+02
   2.314482e+02  -4.311362e+02
   5.357559e+02  -1.270366e+02
   2.902110e+02   2.401966e+02
   2.495794e+01   4.620093e+02
  -1.773514e+02   1.974122e+02
  -1.377451e+02  -2.574301e+02
   2.676411e+02  -4.549367e+02
   3.890497e+02   1.247611e+02
   1.198190e+02   5.753439e+02
  -3.447309e+02   5.309573e+02
  -4.912903e+02  -2.713307e+01
  -1.945517e+02  -5.251739e+02
   3.177479e+02  -2.967952e+02
   3.372057e+02   3.249652e+02
  -1.147182e+02   5.182951e+02
  -5.269195e+02   7.007753e+01
  -4.910171e+02  -3.889901e+02
  -8.365693e+01  -5.435855e+02
   3.698431e+02  -2.624240e+02
   5.769253e+02   1.478260e+02
   3.013717e+02   3.698344e+02
  -1.359772e+02   2.479230e+02
  -4.088679e+02   9.358880e+00
  -2.196201e+02  -2.256402e+02
   1.298232e+02  -4.124777e+01
   1.334053e+02   1.634430e+02
  -1.871605e+02   1.714764e+02
  -3.127532e+02  -1.112285e+02
  -1.070021e+02  -2.881321e+02
   2.360536e+02  -2.262188e+02
   2.634289e+02  -4.522938e+00
   1.720126e+02   9.911987e+01
  -2.813673e+01   2.278125e+02
  -2.098994e+02   2.954753e+02
  -2.913917e+02   1.506126e+02
  -2.449296e+02  -1.909671e+02
  -1.870325e+01  -4.306513e+02
   8.143103e+01  -3.208910e+02
   1.290368e+02  -7.380097e+01
   1.031669e+01   1.414457e+01
  -1.491094e+01  -6.728295e+01
   1.929608e+02  -1.161174e+02
   2.828080e+02   6.748049e+01
   1.074736e+02   3.128000e+02
  -9.544164e+01   2.113027e+02
  -2.208264e+02  -2.479497e+01
  -1.801285e+02  -2.596193e+02
   5.493313e+01  -3.165959e+02
   2.594865e+02  -5.041425e+01
   3.206397e+02   1.482844e+02
   1.549323e+02   3.345987e+02
  -1.536256e+02   3.029862e+02
  -2.207322e+02   9.620324e+01
  -1.106444e+02  -2.236256e+01
  -9.177817e+01   1.024481e+01
  -2.213043e+02   8.487064e+01
  -3.790104e+02  -1.240469e+02
  -2.729431e+02  -3.177212e+02
  -1.019157e+01  -3.835355e+02
   2.938796e+02  -3.523690e+02
   4.274847e+02  -6.557595e+01
   2.933019e+02   9.374170e+01
   2.617152e+01   2.920274e+02
  -1.887838e+02   2.265097e+02
  -7.520726e+01   2.029415e+01
   1.165920e+02  -7.559041e+01
   1.848390e+02   5.682905e+01
  -9.146765e+00   1.509130e+02
  -2.004170e+02   1.767611e+02
  -1.969925e+02  -7.486788e+01
   4.682030e+01  -1.827431e+02
   2.005053e+02  -5.003012e+00
   1.601612e+02   2.621415e+02
  -1.097746e+01   2.737659e+02
  -2.037424e+02   1.395738e+02
  -3.309786e+02  -7.794743e+01
  -2.604277e+02  -2.479364e+02
  -5.421153e+01  -2.386823e+02
   1.333587e+02  -1.612392e+02
   1.754689e+02  -1.146108e+01
   4.728504e+01   7.339247e+01
  -7.161193e+01  -3.891109e+01
  -2.207757e+01  -1.256398e+02
   1.349663e+02  -9.102066e+01
   1.276909e+02   4.753553e+01
   4.132957e+01   8.069327e+01
  -8.714275e+01   5.930957e+00
  -7.741960e+01  -8.988272e+01
   1.035394e+02  -8.393603e+01
   2.339260e+02   6.197611e+01
   2.533503e+02   1.098631e+02
   3.682550e+01   2.559879e+02
  -2.185134e+02   2.369994e+02
  -2.506829e+02   1.610662e+02
  -1.351657e+02  -5.279486e+01
   3.081086e+01  -1.157708e+02
   4.075144e+01  -1.238062e+01
  -5.864549e+01   1.075362e+02
  -2.001011e+02   4.044507e+01
  -2.210225e+02  -1.283682e+02
  -4.146038e+01  -1.780705e+02
   1.073682e+02  -1.101641e+02
   1.149910e+02  -2.331641e+01
   5.163362e+01   4.674121e+01
  -2.638083e+01  -2.128414e+01
  -3.146772e+01  -5.277491e+01
   5.712069e+01  -6.587574e+01
   1.729138e+02  -3.970271e+01
   1.725493e+02   9.826108e+01
   1.685166e+00   1.974178e+02
  -1.257212e+02   1.591886e+02
  -1.415769e+02  -1.031395e+01
  -2.186924e+01  -1.147789e+02
   8.630957e+01  -9.239507e+01
   7.557427e+01  -1.552549e+01
   2.946933e+01   3.064699e+00
  -3.172081e+01   1.035162e+01
  -5.175273e-01   2.401282e+00
   2.702535e+01   1.888089e+01
   1.462868e+01   4.014316e+01
   1.922118e+01   1.456055e+02
  -1.461142e+02   1.159652e+02
  -2.236666e+02  -5.728819e+00
  -1.464694e+02  -1.667063e+02
  -9.288268e+00  -2.238450e+02
   1.409489e+02  -1.472005e+02
   1.142712e+02  -2.156129e+01
   6.866977e+01   4.501603e+01
   3.210696e+01   4.694903e+01
   7.726713e+01  -8.142306e+00
   7.399437e+01   2.913524e+01
   6.673800e+01   4.897347e+01
  -2.538352e+01   4.505496e+01
  -9.089987e+01   4.369843e+01
  -8.243481e+01  -4.872679e+00
   1.489864e+01  -1.044282e+02
   1.540355e+02  -6.190459e+01
   1.909032e+02   4.900636e+01
   7.871736e+01   1.829159e+02
  -1.650645e+02   1.774312e+02
  -2.385631e+02   9.374872e+01
  -2.220425e+02  -7.512966e+01
  -5.313565e+01  -1.750605e+02
   4.539889e+01  -1.292558e+02
   8.032701e+01  -5.444712e+01
   4.103303e+01  -7.407510e+01
   7.026541e+01  -6.916046e+01
   6.535179e+01  -4.844017e+01
   1.013580e+02   1.748926e+01
   7.328709e+01   1.502790e+02
   1.718537e+01   2.085264e+02
  -9.711742e+01   1.612542e+02
  -1.612489e+02  -1.114010e+00
  -8.900367e+01  -9.828275e+01
   1.115996e+01  -1.508684e+02
   6.445048e+01  -1.043639e+02
   6.699839e+01  -1.877748e+01
   9.427045e+00   4.632457e+01
  -5.711161e+00  -1.509781e+00
   2.682343e+01   1.774215e+01
   7.446194e+01   1.140895e+01
   3.146582e+01   1.234629e+01
  -6.104964e+01   1.572408e+01
  -1.490185e+02  -2.421172e+01
  -1.294959e+02  -7.768707e+01
  -5.294501e+00  -7.780483e+01
   7.844178e+01  -6.021697e+01
   1.258108e+02  -2.155391e+00
   1.427507e+01   3.220022e+01
  -3.263345e+01   4.841282e+01
  -8.811503e+01   7.431394e-01
  -3.930047e+00  -4.938819e+01
   6.872018e+01  -4.303116e+01
   7.024866e+01   2.965304e+01
   1.647194e+01   3.284330e+01
   1.652438e+01   3.269163e+01
   4.713447e+01  -5.228635e-01
   6.530243e+01  -8.720966e+00
   6.087226e+01   4.849994e+01
  -4.397365e+01   1.175725e+02
  -1.176130e+02   1.179809e+02
  -1.665241e+02   4.337266e+01
  -1.048243e+02  -7.733160e+01
   3.486176e+00  -1.128878e+02
   7.301962e+01  -6.519892e+01
   7.071730e+01   3.180942e+01
  -4.317430e+01  -1.734595e+01
  -1.300598e+02  -5.623771e+01
  -4.709481e+01  -9.597429e+01
   6.147871e+01  -6.690164e+01
   1.588579e+02  -2.856181e+01
   1.457181e+02   5.894554e+01
   2.774285e+01   6.710374e+01
  -5.467627e+01   6.509666e+01
  -3.243728e+01   7.876368e+00
   6.358179e+01  -4.339858e+00
   6.867851e+01   1.709609e+00
   2.887042e+01   1.075018e+02
  -9.832426e+01   8.661525e+01
  -1.529447e+02   3.571363e+01
  -1.026067e+02  -9.308780e+01
   1.753643e+01  -1.866527e+02
   1.072935e+02  -1.512580e+02
   9.224646e+01   9.343462e+00
   2.304401e+01   1.189507e+02
  -1.437428e+01   1.219544e+02
  -3.890044e+01   1.148988e+01
  -2.292094e+01  -3.291965e+01
   1.627010e-01   1.219855e+00
  -8.942388e+00   3.082105e+01
  -2.191332e+01   1.851407e+01
  -4.274158e+01  -8.464822e+01
  -3.482806e+01  -8.976353e+01
   3.813791e+01  -4.442949e+01
   1.098725e+02   2.519483e+01
   9.438745e+01   6.772281e+01
   1.714237e+01   4.196150e+01
  -7.174421e+01  -9.540612e+00
  -8.462247e+01   2.551333e+00
   2.568545e+00  -1.933440e+01
   2.381973e+01  -5.609951e+00
   1.342455e+01  -2.149129e+01
  -2.086428e+01   3.616664e+00
   1.577018e+00   1.497368e+01
   8.782695e+01   2.477703e+01
   8.877245e+01   3.341346e+01
   7.757320e-01   7.618505e+01
  -1.308329e+02   6.964177e+01
  -1.808545e+02   4.049126e+01
  -1.293039e+02  -1.122862e+02
   2.116480e+01  -1.748328e+02
   1.040657e+02  -1.281423e+02
   8.482257e+01  -5.187656e+01
   1.041445e+02   3.236977e+01
   1.646519e+01   3.543377e+01
  -1.612319e+01   2.614467e+01
  -1.195984e+01  -3.276662e+00
   5.159292e-01   3.054706e+01
   1.920319e+01   5.222732e+01
  -1.005756e+00   4.611174e+01
  -4.685329e+01  -7.652844e+00
  -3.715101e+01  -8.770055e+01
   1.436291e+01  -6.886016e+01
   5.815979e+01  -1.012503e+01
   5.582127e+01   7.072807e+01
   2.546971e+01   8.995478e+01
  -5.498283e+01   3.730077e+01
  -7.267764e+01   1.277062e+00
  -4.441264e+01  -3.532638e+01
   1.867545e+01  -5.854933e+01
   3.870118e+01   4.381367e+00
  -5.749070e+01   5.398706e+00
  -4.698678e+01  -1.384551e+01
  -2.515513e+01  -2.571041e+01
   7.498512e+01  -5.168636e+01
   8.110519e+01  -4.697548e+01
   6.108624e+01   1.932556e+01
  -1.871551e+01   4.473415e+01
  -4.036934e+01   5.092302e+01
  -2.567884e+01   1.330103e-01
   1.916538e+00  -6.155279e+01
   2.593591e+01  -3.782968e+01
   1.931495e+01   2.048222e+01
   2.318137e+01   5.124164e+01
  -8.960951e+00   1.210034e+01
  -2.436447e+01  -3.703277e+00
  -3.330067e+01  -2.644045e+00
  -1.140137e+01   1.456060e+01
  -2.756029e+01   3.439801e+01
   2.494381e+01   1.048607e+01
   1.837053e+01  -1.242806e+01
   1.942240e+01  -2.921258e+01
   3.063041e+01   1.292974e+01
   4.021488e+01   2.419755e+01
  -5.941492e+00   5.920647e+01
  -2.550248e+01  -8.978191e+00
  -2.094598e+01  -4.199012e+01
  -1.211413e+01  -4.668908e+01
   5.483239e+01  -3.186492e+01
   8.878755e+01   2.709164e+01
   9.572632e+00   2.599207e+01
  -1.456500e+01   4.464672e+01
  -4.207130e+01   8.274367e+00
  -4.217824e+01  -1.538407e+00
   1.039881e+01   2.916095e+01
  -4.607141e+00   2.322937e+01
  -5.645514e+01   3.631215e+01
  -8.877925e+01  -1.416463e+01
