
 $NMID
 id='ANONYMOUS ', fmtdat='(2E16.6)'
 volume=1.0
 tramp=1.0
 $END
  -2.736180e+03   2.689337e+01
  -1.623958e+03  -1.254478e+03
  -3.519892e+02  -1.824638e+03
   9.737131e+02  -9.091070e+02
   7.387030e+02  -1.114903e+01
  -9.231213e+01   2.534229e+02
  -5.943350e+02  -2.304708e+02
   6.151493e+01  -3.537014e+02
   3.455914e+02  -5.014420e+02
   5.899403e+02   1.272052e+01
   3.182548e+02   3.942280e+02
   4.355064e+01   6.635594e+02
  -3.224961e+02   1.136884e+02
  -2.989890e+02  -3.512188e+02
   1.793491e+02  -3.970098e+02
   2.674078e+02   1.597388e+01
   2.451805e+02   3.943056e+02
  -1.807131e+02   4.622608e+02
  -4.222099e+02   2.193821e+02
  -3.150128e+02  -1.832411e+02
  -7.857519e+01  -2.650413e+02
   1.145391e+02  -2.107644e+02
   8.666549e+01   1.031584e+01
  -1.486781e+02  -6.551902e+01
  -2.971005e+02  -1.626851e+02
  -3.872299e+01  -3.482849e+02
   2.956935e+02  -2.994102e+02
   5.421020e+02   4.639513e+01
   2.383835e+02   2.806099e+02
  -2.278613e+02   1.360038e+02
  -4.738897e+02  -1.497852e+02
  -1.512718e+02  -3.079654e+02
   2.422589e+02  -3.233347e+02
   3.293036e+02  -1.430772e+02
   2.275234e+02   8.435987e+01
   8.764127e+01   2.240471e+02
  -9.634099e+01   1.451043e+02
  -3.830752e+01  -7.650122e+01
   1.723870e+02  -2.079310e+02
   1.859954e+02   6.626738e+01
   3.771143e+01   4.275762e+02
  -2.375386e+02   3.079968e+02
  -3.322387e+02  -2.017050e+01
  -7.859220e+01  -2.660914e+02
   1.544027e+02  -2.074329e+02
   2.540210e+02   2.554731e+02
  -1.244656e+02   3.572638e+02
  -4.483118e+02   2.411001e+01
  -3.649450e+02  -2.229108e+02
  -1.070411e+02  -4.415795e+02
   2.157052e+02  -2.980959e+02
   4.487626e+02   8.868248e+01
   2.703647e+02   1.857233e+02
  -5.262091e+01   1.940878e+02
  -2.089696e+02   3.634053e+01
  -2.034738e+02  -3.179850e+01
   3.843886e+01  -1.020805e+01
   6.284922e+01   3.031680e+01
  -9.027521e+01   8.837318e+01
  -1.526323e+02  -9.769796e+01
  -9.113314e+01  -1.261465e+02
   7.908243e+01  -1.902504e+02
   2.193934e+02  -8.867640e+01
   1.548664e+02   4.286114e+01
  -4.887949e+01   1.966444e+02
  -2.349804e+02   2.786179e+02
  -2.640733e+02   1.700230e+02
  -1.707334e+02  -9.318376e+01
  -4.258262e+01  -2.874120e+02
   1.567759e+01  -2.800473e+02
   1.870485e+01  -1.254459e+02
   3.014274e+00  -5.101688e+01
   9.102926e+01  -8.205944e+01
   1.987029e+02  -3.300352e+01
   2.226922e+02   5.158340e+01
   7.120226e+01   1.953717e+02
  -9.805312e+01   1.419999e+02
  -1.676475e+02  -2.402288e+01
  -1.020160e+02  -1.877100e+02
   4.967439e+01  -2.072066e+02
   1.863649e+02  -6.968985e+01
   2.122102e+02   1.485729e+02
   1.287841e+02   1.985807e+02
  -4.089668e+01   2.049628e+02
  -1.355302e+02   8.101068e+01
  -1.433513e+02   6.181156e+01
  -1.453717e+02   5.356822e+01
  -1.898755e+02   8.443569e+01
  -3.174955e+02  -6.043243e+01
  -2.610666e+02  -2.334097e+02
   6.670920e+01  -3.138118e+02
   2.762427e+02  -2.141478e+02
   4.124520e+02  -1.131201e+02
   2.322942e+02   1.319489e+02
   3.809965e+01   2.040112e+02
  -1.093723e+02   1.873574e+02
   4.622652e+00   4.790751e+01
   8.678267e+01  -9.060961e+00
   1.146404e+02   4.129047e+01
   3.656156e+01   1.326575e+02
  -1.263590e+02   9.550820e+01
  -6.893008e+01  -2.286182e+01
   4.219394e+01  -8.124496e+01
   1.197802e+02  -1.267068e-01
   1.206776e+02   1.726222e+02
  -1.478066e+01   2.893504e+02
  -1.908730e+02   1.544287e+02
  -2.784714e+02  -7.809508e+01
  -2.664234e+02  -1.642311e+02
  -5.128924e+01  -1.804689e+02
   1.217237e+02  -1.229645e+02
   1.189600e+02   2.232179e+01
   2.890393e+01   4.018124e+01
  -4.660343e+01  -5.782656e+01
  -2.376249e+01  -6.229697e+01
   1.292445e+02  -4.797848e+01
   8.553696e+01  -2.177028e+01
   2.118100e+01   5.230142e+01
  -5.236222e+01  -1.236149e+01
  -2.576754e+01  -5.907420e+01
   9.141325e+01  -2.976672e+01
   2.342626e+02  -2.169064e+01
   1.551290e+02   1.766530e+02
   2.337285e+01   2.257863e+02
  -1.209152e+02   2.012595e+02
  -1.613346e+02   4.793427e+01
  -7.258592e+01  -3.563945e+01
   3.582253e+01  -3.433692e+01
   6.368840e+01   4.792301e+00
  -9.563736e+00   7.028390e+01
  -1.456263e+02   1.974141e+01
  -1.516308e+02  -8.256020e+01
  -5.933962e+01  -1.372469e+02
   8.299677e+01  -7.668320e+01
   5.764209e+01  -3.570624e+00
   5.733878e+01   2.795237e+01
  -3.618731e+01   3.565321e+00
  -4.319422e+01  -7.339826e+01
   4.742976e+01  -9.977003e+01
   1.366306e+02  -7.113041e+00
   1.572241e+02   6.851111e+01
   2.431766e+00   1.431008e+02
  -1.112100e+02   1.022838e+02
  -1.887707e+02   2.534179e+01
  -4.417059e+01  -6.828755e+01
   6.216935e+01  -7.111820e+01
   6.312664e+01  -1.317958e+01
  -1.680888e+01   2.972254e+01
  -3.844582e+01   2.821024e+00
  -2.635653e+01  -5.732066e+01
   9.963662e+01  -5.852582e+00
   4.877087e+01   5.135657e+01
  -1.674789e+01   1.288228e+02
  -1.020720e+02   1.120924e+02
  -1.860927e+02  -1.965474e-01
  -1.304333e+02  -1.420431e+02
  -4.972913e+01  -1.675380e+02
   8.174122e+01  -1.317810e+02
   1.232469e+02  -1.674095e+01
   2.551640e+01   3.820804e+01
   4.142940e+01   1.851356e+01
   2.281701e+01  -3.465051e+01
   6.565557e+01  -8.055552e+00
   6.451248e+01   4.799881e+01
  -2.615284e+01   9.088467e+01
  -9.722012e+01   4.159938e+01
  -8.044495e+01  -1.304617e+01
   3.728703e+00  -9.139005e+01
   1.022156e+02  -7.391804e+01
   1.960412e+02   4.600717e+01
   6.386600e+01   1.226809e+02
  -1.154586e+02   1.688143e+02
  -2.027694e+02   4.459874e+01
  -2.188556e+02  -4.276995e+01
  -7.602211e+01  -1.273251e+02
   1.227492e+01  -1.007763e+02
   8.934493e+01  -4.110267e+01
   3.939127e+01  -3.495478e+01
   4.072987e+01  -6.364258e+01
   9.991169e+01  -9.368249e+01
   9.306952e+01  -1.026150e+01
   1.020259e+02   7.419031e+01
   3.859170e+01   1.328255e+02
  -9.486316e+01   1.345136e+02
  -1.211086e+02   7.214101e+00
  -6.304638e+01  -9.208451e+01
  -5.009832e+00  -1.230017e+02
   5.850542e+01  -7.485849e+01
   5.280690e+01   1.243851e+01
  -8.887142e+00   4.484095e+01
  -2.066643e+01   3.592988e+01
   8.013147e+00   2.075077e+00
   5.499256e+01   2.536551e+01
   5.244004e+01   3.007455e+01
  -6.413363e+01   2.174374e+01
  -1.309362e+02   1.664675e+01
  -1.311457e+02  -5.419696e+01
  -1.092695e+00  -6.410008e+01
   8.832937e+01  -3.806202e+01
   1.432068e+02  -4.481146e+00
   2.679691e+01   1.020062e+01
  -4.754193e+01   3.472620e+01
  -5.586909e+01  -1.480958e+01
  -5.506185e+00  -6.364192e+01
   2.867101e+01  -3.297170e+01
   6.232355e+01   9.575930e+00
   2.225740e+01   7.365496e+00
   4.678953e+00   1.344915e+01
   7.223803e+01  -4.084607e+00
   4.111187e+01  -7.360310e+00
   1.692411e+01   5.813360e+01
  -4.494570e+01   1.054820e+02
  -8.545376e+01   1.000016e+02
  -1.064499e+02  -3.143740e+00
  -9.408562e+01  -9.740038e+01
   2.173305e+01  -9.191982e+01
   6.167412e+01  -7.929631e+01
   5.297155e+01   5.212364e+00
  -6.246016e+01   2.620225e+01
  -8.246066e+01  -4.235457e+01
  -5.810209e+01  -9.183997e+01
   6.569662e+01  -5.334268e+01
   1.494606e+02  -1.057018e+01
   1.209766e+02   3.024775e+01
   7.347957e+00   6.912934e+01
  -5.043070e+01   6.141061e+01
  -3.535480e+01  -2.469375e+01
   6.952332e+01  -2.200994e+01
   5.858011e+01   4.590224e+01
   2.574643e+01   6.946192e+01
  -8.586735e+01   1.113340e+02
  -1.201891e+02   6.111805e+01
  -1.180807e+02  -6.311615e+01
  -4.136610e+01  -1.441082e+02
   1.045421e+02  -1.337182e+02
   8.423810e+01   1.994614e+01
   4.717132e+01   9.535050e+01
  -7.498067e+00   7.631939e+01
  -1.686460e+01   2.270007e+01
  -3.683306e+01  -1.472468e+01
  -1.287319e+01   2.380569e+01
  -2.494228e+01   3.576573e+01
  -1.137768e+01  -4.058798e+01
  -2.810880e+01  -4.816100e+01
  -2.566780e+01  -9.293296e+01
   3.279766e+01  -1.080909e+00
   8.349339e+01   3.742157e+01
   1.036401e+02   5.986626e+01
  -2.483468e+00   7.570676e+01
  -8.251603e+01  -1.317290e-01
  -4.288017e+01  -4.005030e-01
   7.237518e+00  -8.256472e+00
   2.567433e+01  -1.379551e+01
   4.182315e+01   3.358706e+01
  -7.238236e+00  -1.506655e+01
   9.816860e+00   4.668514e+00
   4.212996e+01  -1.369161e+01
   4.157791e+01   8.176512e+00
   2.677771e+00   7.958605e+01
  -7.535281e+01   7.512541e+01
  -1.739474e+02   7.039302e+01
  -9.889001e+01  -2.739990e+01
  -1.893340e+01  -1.224868e+02
   5.245221e+01  -1.317248e+02
   8.852261e+01  -1.419372e+01
   6.242556e+01   4.906998e-01
  -4.640139e+00   3.470062e+01
   9.433403e+00   2.980417e+01
   5.341654e+00  -1.779417e+00
   1.788398e+01   5.636862e+01
  -3.208773e+00   1.083276e+02
  -5.404104e+01   7.171621e+01
  -5.795377e+01  -3.965426e+00
  -3.663096e+01  -6.160014e+01
  -7.667997e+00  -5.166827e+01
   7.090449e+01  -9.717043e+00
   9.266805e+01   6.360877e+01
   4.367241e+01   6.406309e+01
  -3.720803e+01   3.346615e+01
  -6.217361e+01   1.850165e+01
  -2.945687e+01  -5.195930e+01
   4.078680e+01  -5.011884e+01
  -1.909360e+00  -6.351156e+01
  -2.818118e+01  -1.216799e+00
  -5.010437e+01  -2.545610e+00
  -2.187580e+00  -1.350350e+01
   6.389008e+01  -4.385822e+01
   9.071609e+01  -3.909594e+01
   3.995864e+01  -7.911923e+00
  -1.964175e+01   6.145577e+01
  -2.651789e+01   1.074434e+02
  -4.188733e+01   1.238350e+01
  -1.117383e+01  -3.783192e+01
   2.045142e+01  -6.007243e+01
   6.864112e+00   7.142692e+00
   3.125972e+01   2.892618e+01
   8.023528e+00   5.501451e+01
  -3.300821e+01   9.309338e+00
  -4.734559e+01  -2.426023e+01
  -1.139975e+01  -4.865697e+00
   2.363056e+01   1.881308e+01
   1.946575e+00   1.939197e+01
  -2.020280e+01  -2.696443e+01
  -2.419411e+01  -5.163885e+01
   4.548555e+01  -4.652016e+00
   4.401494e+01   4.473115e+01
   4.028319e+01   3.165097e+01
  -2.867133e+01   4.184246e+01
  -4.731509e+01  -4.712974e+00
  -1.749360e+01  -2.578679e+01
   4.164243e+01  -2.535384e+01
   7.456545e+01   1.749462e+01
   5.950701e+01   8.343015e+00
  -2.547279e+01   4.185256e+01
  -7.145557e+01  -1.556746e+01
  -4.039103e+01   1.221901e+01
   1.804850e+01  -2.681712e+01
   1.530911e+01   2.866615e+01
  -2.211622e+01   2.959026e+01
  -6.435674e+01   3.827839e+01
