
 $NMID
 id='ANONYMOUS ', fmtdat='(2E16.6)'
 volume=1.0
 tramp=1.0
 $END
   4.099267e+03  -5.122242e+01
   2.393114e+03   2.273074e+03
  -3.715721e+02   2.661971e+03
  -1.763200e+03   9.856662e+02
  -8.958732e+02  -3.470992e+02
   5.472335e+02  -4.041127e+02
   7.530589e+02   4.998722e+02
   8.779666e+01   1.033589e+03
  -8.494477e+02   5.519740e+02
  -7.688383e+02  -1.016033e+02
  -4.964771e+02  -8.445271e+02
   2.077383e+02  -8.127228e+02
   6.297133e+02  -1.274230e+02
   3.132210e+02   6.471836e+02
  -1.881272e+02   6.441368e+02
  -5.773618e+02   3.138244e+01
  -1.846199e+02  -6.426908e+02
   3.125667e+02  -6.550943e+02
   5.730454e+02  -1.451516e+02
   4.383713e+02   3.021327e+02
  -1.250307e+01   3.869702e+02
  -2.285440e+02   2.440428e+02
  -1.371968e+02  -1.940399e+01
   1.509681e+02   1.936751e+01
   3.714270e+02   6.487140e+01
   9.971989e+01   4.193879e+02
  -5.112654e+02   3.284243e+02
  -7.698236e+02  -2.757598e+01
  -4.319887e+02  -5.786489e+02
   3.475963e+02  -4.210542e+02
   6.697877e+02   7.872342e+01
   3.204024e+02   3.910715e+02
  -1.875599e+02   5.374083e+02
  -5.107914e+02   1.790137e+02
  -3.692255e+02  -1.967894e+02
  -4.529354e+01  -4.959806e+02
   1.760264e+02  -2.033048e+02
   1.211294e+02   2.236722e+02
  -2.303670e+02   3.102205e+02
  -4.458958e+02  -5.180784e+01
  -1.432990e+02  -6.092384e+02
   2.316265e+02  -6.124260e+02
   5.134693e+02  -3.779610e+01
   2.887092e+02   4.967036e+02
  -2.506249e+02   3.075877e+02
  -3.603905e+02  -3.862221e+02
   6.320958e+01  -5.012916e+02
   5.553588e+02  -3.003841e+01
   5.964520e+02   4.425511e+02
   2.381541e+02   5.818115e+02
  -4.688591e+02   3.000181e+02
  -6.282361e+02  -1.026625e+02
  -3.014014e+02  -3.487305e+02
   1.113428e+02  -3.279030e+02
   3.933708e+02  -9.069791e+01
   2.636837e+02   1.743945e+02
  -7.170863e+01   8.537728e+01
  -1.248508e+02  -1.398069e+02
   1.691360e+02  -1.517707e+02
   3.682805e+02   7.451189e+01
   1.286448e+02   3.055547e+02
  -2.062140e+02   2.948380e+02
  -3.233409e+02   7.580058e+01
  -2.621054e+02  -1.042272e+02
   3.179910e+01  -2.755515e+02
   2.204010e+02  -3.534251e+02
   3.574510e+02  -1.799613e+02
   2.663416e+02   1.431859e+02
   2.416270e+01   4.387818e+02
  -1.112314e+02   3.552749e+02
  -9.903952e+01   1.091405e+02
  -5.274270e+01   4.503826e+00
  -6.469638e+01   8.047454e+01
  -1.971150e+02   1.079279e+02
  -2.837139e+02  -5.280989e+01
  -1.273018e+02  -2.924988e+02
   7.493392e+01  -1.960075e+02
   2.250548e+02   5.550367e+01
   1.751306e+02   2.652072e+02
  -5.774875e+01   2.644235e+02
  -2.520507e+02   6.012820e+01
  -3.529684e+02  -1.502907e+02
  -1.674319e+02  -3.873891e+02
   9.383069e+01  -3.351856e+02
   2.118996e+02  -1.165100e+02
   1.367311e+02   1.011725e+01
   1.367277e+02  -3.352398e+01
   2.404477e+02  -6.452832e+01
   3.892846e+02   5.079716e+01
   3.218683e+02   3.570275e+02
   3.001477e+01   4.489336e+02
  -3.317945e+02   4.097729e+02
  -4.464705e+02   1.440972e+02
  -3.374662e+02  -9.783089e+01
  -1.718431e+01  -2.877400e+02
   1.110831e+02  -2.268375e+02
   4.279444e+01  -3.509618e+01
  -1.303496e+02   8.662556e+01
  -1.659179e+02  -3.567084e+01
  -4.840988e+01  -2.076449e+02
   1.538040e+02  -1.586193e+02
   1.832909e+02   7.260027e+01
  -4.169060e+01   1.767230e+02
  -2.159801e+02   3.941571e+01
  -1.611216e+02  -2.580581e+02
   9.554404e+00  -3.275142e+02
   2.056762e+02  -1.574069e+02
   3.512032e+02   9.574239e+01
   2.782493e+02   2.706516e+02
   7.849105e+01   2.637630e+02
  -1.393168e+02   1.506260e+02
  -2.079435e+02   1.193153e+01
  -6.641483e+01  -3.611696e+01
   6.099817e+01   6.797739e+01
   3.909838e+01   1.158031e+02
  -1.253143e+02   1.031092e+02
  -1.599580e+02  -2.845210e+01
  -5.251171e+01  -5.354153e+01
   7.951734e+01   6.220989e+00
   3.015248e+01   5.602227e+01
  -1.389273e+02   7.120626e+01
  -2.830089e+02  -3.287372e+01
  -2.787112e+02  -1.217589e+02
  -3.429171e+01  -2.472548e+02
   2.063355e+02  -2.250300e+02
   2.937318e+02  -1.685134e+02
   2.120759e+02   4.594608e+01
  -4.619000e+01   1.130836e+02
  -6.939451e+01   8.502827e+00
   2.682998e+01  -1.034099e+02
   1.835235e+02  -2.735841e+01
   1.783379e+02   7.693501e+01
   4.592141e+01   1.850141e+02
  -9.567966e+01   1.351209e+02
  -1.257154e+02   4.194506e+01
  -8.333887e+01  -7.751071e+01
   3.641229e+01   2.833238e+01
   1.615180e+01   1.007423e+02
  -1.069513e+02   1.124448e+02
  -2.123554e+02   5.446633e+01
  -1.716725e+02  -1.358306e+02
  -4.105349e+01  -2.045950e+02
   1.465440e+02  -1.556171e+02
   1.679791e+02  -6.540834e+00
   6.567543e+01   1.014752e+02
  -8.042762e+01   1.123260e+02
  -8.121303e+01   7.047451e+00
  -7.143170e+00  -2.259430e+01
   2.663598e+01  -1.836667e+01
  -7.060167e+00   3.260180e+01
  -6.012839e+01   1.422277e-02
  -7.932038e+01  -7.069206e+01
  -1.902467e+01  -1.774458e+02
   1.404485e+02  -1.329873e+02
   2.262983e+02  -9.703294e+00
   1.739248e+02   1.610282e+02
   2.458431e+01   2.565159e+02
  -1.302969e+02   1.610743e+02
  -8.847257e+01   2.407064e+00
  -6.300891e+01  -6.971490e+01
  -2.273388e+01  -4.863380e+01
  -4.151902e+01   8.526483e-01
  -7.106967e+01   1.271091e+01
  -3.046531e+01  -3.498123e+01
   4.607357e+01  -7.500170e+01
   1.202008e+02  -4.724615e+01
   6.163462e+01   3.044890e+01
  -2.098730e+01   9.463726e+01
  -1.361009e+02   1.123116e+02
  -2.207771e+02  -7.045754e+01
  -1.383428e+02  -2.163279e+02
   1.328714e+02  -2.356022e+02
   2.573471e+02  -9.153497e+01
   2.788972e+02   7.351094e+01
   9.097532e+01   1.775981e+02
  -5.218468e+01   1.587094e+02
  -9.006851e+01   9.025818e+01
  -7.922271e+01   7.554357e+01
  -7.761592e+01   7.430668e+01
  -1.067222e+02   7.234079e+01
  -1.421964e+02  -3.220577e+01
  -1.092687e+02  -2.278071e+02
  -2.510544e+01  -2.245577e+02
   1.011157e+02  -1.701912e+02
   1.873864e+02   1.722125e+01
   1.295664e+02   1.147116e+02
   1.595507e+01   1.622648e+02
  -6.820053e+01   1.044205e+02
  -5.548014e+01   6.471953e+00
  -9.217301e+00  -3.637448e+01
   3.408818e+00  -1.208045e+01
  -4.021174e+01  -2.923177e+01
  -7.668710e+01  -1.759146e+01
  -6.324146e+01  -5.594681e+01
   6.968114e+01  -4.673309e+01
   1.560184e+02   2.072425e+00
   1.276110e+02   6.127422e+01
   1.157967e+01   7.805495e+01
  -1.257462e+02   8.795088e+01
  -1.342645e+02   7.830285e+00
  -6.366166e+01  -4.886655e+01
   4.932021e+01  -4.206720e+01
   3.947415e+01   3.428281e+01
   2.021174e+01   6.411409e+01
  -3.631268e+01   6.003371e+01
  -6.532214e+01  -1.302641e+01
  -5.618437e+01  -4.911193e+01
  -4.870297e+01  -6.691243e+01
  -3.152535e+01  -1.470109e+01
  -4.440100e+01  -3.265706e+01
  -4.150677e+01  -6.088009e+01
   4.339915e+01  -1.358271e+02
   1.005704e+02  -1.390761e+02
   1.585012e+02  -2.074863e+01
   1.368994e+02   1.070536e+02
   1.522241e+01   1.391154e+02
  -9.869541e+01   7.777365e+01
  -5.292598e+01   2.491806e-01
   6.705890e+01   7.202503e+00
   1.611079e+02   4.685405e+01
   7.944507e+01   1.141707e+02
  -1.375614e+02   8.876426e+01
  -1.844779e+02   4.235152e+01
  -1.772980e+02  -2.633559e+01
  -4.702074e+01  -8.713043e+01
   5.957319e+01  -5.200255e+01
   6.301190e+01  -2.338525e+01
  -3.342853e+01   5.203361e+01
  -8.996107e+01  -1.727584e+01
  -3.854074e+01  -9.977542e+01
   5.200448e+01  -1.446115e+02
   1.251918e+02  -4.183756e+01
   1.261051e+02   8.975685e+01
  -2.784699e+00   2.002364e+02
  -1.124450e+02   1.260436e+02
  -1.155916e+02  -2.339601e+01
  -6.923970e+01  -1.182771e+02
   1.727814e+01  -1.233012e+02
   3.455550e+01  -5.339621e+00
   7.908279e+01   4.180116e+01
   1.546404e+01   3.709417e+01
  -2.387746e+01  -1.518755e+01
   6.399902e+00   8.773388e+00
   3.934549e+01   1.009081e+02
   3.857114e+01   9.654863e+01
  -3.477531e+01   4.176903e+01
  -1.078173e+02  -5.045687e+01
  -1.270105e+02  -6.804842e+01
  -1.972573e+01  -4.229462e+01
   1.089734e+02  -2.691731e+00
   1.089262e+02   1.718934e+01
   1.042077e+01   1.082388e+01
  -4.370191e+01   1.728705e+01
  -2.165397e+01   1.674730e+01
   4.077787e+01   2.061941e+00
  -2.138973e+00  -1.971616e+01
  -5.687510e+01   8.143810e+00
  -1.031016e+02  -6.467146e+00
  -1.768000e+01  -9.869430e+01
   1.104045e+02  -9.053229e+01
   1.781660e+02  -6.867995e+01
   1.342493e+02   3.735352e+01
  -6.029129e+00   1.742705e+02
  -8.261525e+01   1.454681e+02
  -1.057963e+02   7.964365e+01
  -6.241309e+01  -2.473754e+01
  -1.862405e+01  -5.023097e+01
  -4.184112e+00   2.544583e+01
  -2.166863e+01  -8.932650e+00
  -2.302931e+01  -6.895744e+01
   8.835534e-01  -6.826157e+01
   2.174303e+01  -4.870650e+01
   9.487300e+01   1.333204e+01
   7.254639e+01   1.107714e+02
   2.505754e+01   1.172590e+02
  -7.073689e+01   4.016745e+01
  -7.766709e+01  -7.585606e+01
  -2.477633e+01  -9.604965e+01
   7.836699e+01  -3.890222e+01
   1.129682e+02  -1.286890e+01
   7.015114e+01   5.320764e+01
  -2.436269e+01   8.564515e+01
  -4.875880e+01   4.153038e+01
   1.987532e+01  -2.434905e+01
   6.272961e+01  -8.587021e+00
   5.215890e+01   5.781180e+00
  -1.282647e+02   5.949351e+01
  -1.024591e+02   4.974750e+01
  -5.371554e+01  -3.593489e+01
   1.400077e+01  -9.625186e+01
   4.379244e+01  -8.667553e+01
   1.594889e+01  -9.867541e+00
   1.106807e+01   6.747065e+01
  -2.462001e+01   5.252188e+01
  -4.967789e+01  -1.804018e+01
  -2.839859e+01  -6.369315e+01
  -1.696023e+01  -2.135973e+01
   2.295904e+01   9.120416e+00
   5.173377e+01   1.509387e+01
   1.824658e+01   9.373260e+00
  -1.741452e+01  -2.339621e+01
  -2.394269e+01   4.609707e+00
  -1.446760e+01   2.260985e+01
   4.404063e+00   5.439611e+01
  -2.473320e+01   5.058532e+00
  -2.476403e+01  -1.415585e+01
   8.575392e+00  -6.367033e+01
   2.807754e+01  -4.107619e+00
   7.101276e+01   4.388359e+01
   3.516005e+01   6.741933e+01
  -3.941826e+01   2.311658e+01
  -1.190810e+02  -3.098692e+01
  -4.545346e+01  -2.043876e+01
   2.506949e+01  -1.980793e+01
   6.830764e+01  -1.683531e+01
   4.420008e+00  -1.311251e+00
  -2.473623e+01  -2.944586e+01
  -4.232983e+01   9.866979e+00
   3.538663e+01  -3.208649e+01
   7.825522e+01  -1.149502e+00
