
 $NMID
 id='ANONYMOUS ', fmtdat='(2E16.6)'
 volume=1.0
 tramp=1.0
 $END
  -3.640665e+03   1.400682e+02
  -2.044035e+03  -2.214459e+03
   3.750149e+02  -2.467361e+03
   1.740140e+03  -9.600775e+02
   9.919316e+02   3.958682e+02
  -4.870580e+02   4.296721e+02
  -8.742094e+02  -3.169447e+02
   1.130348e+01  -8.307139e+02
   6.867253e+02  -7.741327e+02
   8.235106e+02  -2.095075e+01
   2.966321e+02   6.994387e+02
  -2.483391e+02   7.553879e+02
  -4.449200e+02   3.355901e+01
  -4.058809e+02  -5.611294e+02
   1.454555e+02  -6.186973e+02
   5.498472e+02   1.850464e+01
   3.147503e+02   5.377268e+02
  -2.847252e+02   5.554174e+02
  -4.311999e+02   1.183929e+02
  -3.572849e+02  -2.686316e+02
  -5.967987e+01  -4.270615e+02
   2.183320e+02  -2.198061e+02
   1.661112e+02  -5.817260e+01
  -1.137749e+02   3.907303e+01
  -4.071586e+02  -1.113259e+02
  -1.479963e+02  -3.835911e+02
   3.474912e+02  -4.438480e+02
   8.064397e+02  -3.025360e-01
   3.661018e+02   5.271462e+02
  -3.996481e+02   5.092721e+02
  -6.790044e+02   8.717425e+00
  -2.835191e+02  -3.647163e+02
   2.113633e+02  -4.759765e+02
   4.915724e+02  -2.903307e+02
   3.870965e+02   2.393814e+02
   7.873107e+01   4.619923e+02
  -1.753384e+02   2.729823e+02
  -1.430794e+02  -1.406060e+02
   1.364853e+02  -4.070976e+02
   4.782844e+02   2.329311e+01
   2.304880e+02   5.721078e+02
  -2.290924e+02   6.238581e+02
  -5.573360e+02   1.295059e+01
  -1.020135e+02  -4.485014e+02
   2.739458e+02  -3.499133e+02
   3.563631e+02   2.076803e+02
  -2.676951e+01   4.602696e+02
  -4.161089e+02   1.925805e+02
  -5.371126e+02  -3.903197e+02
  -1.531196e+02  -5.275881e+02
   3.367696e+02  -3.968947e+02
   6.622899e+02   3.528550e+01
   4.158768e+02   2.872361e+02
  -1.144811e+02   3.361172e+02
  -3.856474e+02  -3.400531e+00
  -1.622321e+02  -1.581319e+02
   9.432540e+01  -6.696720e+01
   1.206720e+02   1.336091e+02
  -1.277622e+02   1.350672e+02
  -2.656341e+02  -9.270640e+01
  -1.412956e+02  -2.560950e+02
   1.805067e+02  -2.165696e+02
   2.548344e+02  -2.404475e+01
   1.737386e+02   8.496983e+01
   9.129455e+00   2.234059e+02
  -1.761318e+02   2.823537e+02
  -2.742969e+02   1.855066e+02
  -2.400016e+02  -9.098846e+01
  -3.880060e+01  -3.816746e+02
   3.666343e+01  -3.250810e+02
   8.954054e+01  -1.296301e+02
  -5.220616e+00   1.629638e+01
   4.214951e+01  -7.221306e+01
   1.902488e+02  -9.816210e+01
   2.127161e+02   3.661716e+01
   1.505772e+02   2.373890e+02
  -6.124447e+01   2.540605e+02
  -2.253127e+02   3.841963e+01
  -1.951593e+02  -1.773682e+02
  -2.943539e+01  -1.932332e+02
   2.225533e+02  -7.668945e+01
   3.443700e+02   1.093358e+02
   1.257633e+02   3.019783e+02
  -1.094104e+02   2.631167e+02
  -1.706317e+02   1.570879e+02
  -1.498690e+02   2.580085e+01
  -9.141830e+01   1.722098e+01
  -2.318870e+02   8.949289e+01
  -3.373999e+02  -3.393191e+01
  -2.918921e+02  -2.418522e+02
   7.887072e-01  -4.254787e+02
   3.104637e+02  -3.995327e+02
   4.418605e+02  -1.875356e+02
   3.006622e+02   6.143819e+01
   1.149547e+02   2.490476e+02
  -1.303622e+02   2.203686e+02
  -8.931808e+01   1.240924e+01
   1.027504e+02  -9.958432e+01
   1.759213e+02  -1.004040e+01
   6.686878e+01   1.614638e+02
  -1.453114e+02   1.372571e+02
  -1.184595e+02  -3.545530e+01
   9.132918e+00  -1.724453e+02
   1.517740e+02  -1.403807e+01
   1.371747e+02   2.261992e+02
   6.827652e+00   2.593325e+02
  -2.023320e+02   1.926610e+02
  -2.730418e+02  -4.942124e+00
  -2.682751e+02  -1.787913e+02
  -1.015820e+02  -2.595143e+02
   7.886643e+01  -1.459749e+02
   1.523243e+02  -3.079475e+01
   3.908548e+01   3.635775e+01
  -6.874122e+01  -2.510261e+01
  -4.113583e+01  -9.526067e+01
   8.230404e+01  -1.192630e+02
   1.407662e+02  -1.740531e+01
   8.564733e+01   8.895582e+01
  -6.123557e+01  -3.952732e+00
  -1.055774e+01  -6.984966e+01
   9.413200e+01  -8.511361e+01
   2.044295e+02  -2.999387e+01
   2.790915e+02   1.413884e+02
   7.874883e+01   2.146361e+02
  -1.241550e+02   2.458548e+02
  -2.096835e+02   1.476584e+02
  -1.481351e+02  -6.157781e+01
   4.480468e+01  -9.631393e+01
   9.783419e+01  -9.135520e+00
  -2.520823e+01   1.095514e+02
  -1.653488e+02   8.097395e+01
  -2.131048e+02  -7.149553e+01
  -6.538017e+01  -1.480501e+02
   1.164694e+02  -1.513213e+02
   1.427480e+02  -3.347226e+01
   6.529333e+01   3.864348e+01
  -1.143448e+01   1.739184e+01
  -8.697447e+00  -7.463914e+01
   6.246475e+01  -7.643016e+01
   1.679625e+02  -2.148850e+01
   1.355716e+02   1.046308e+02
   6.371903e+01   2.248407e+02
  -1.354437e+02   1.807409e+02
  -1.676676e+02   3.308097e+01
  -6.414358e+01  -9.274500e+01
   4.831718e+01  -9.871438e+01
   5.905875e+01  -3.737516e+01
   8.569356e+00   1.353561e+01
  -2.194299e+01   1.263112e+01
   3.793102e+01   8.646291e+00
   6.421055e+01  -5.612272e+00
   8.035710e+01   4.704212e+01
   2.524793e+01   1.203509e+02
  -1.379624e+02   1.273174e+02
  -2.116427e+02   6.036944e+01
  -1.857354e+02  -7.798839e+01
  -7.040913e+01  -1.945837e+02
   1.053763e+02  -1.410871e+02
   1.129203e+02  -3.928768e+01
   8.308189e+01   6.810186e+01
   2.053293e+01   5.179503e+01
   5.015116e+01  -2.229765e+01
   4.611335e+01   1.108894e+01
   4.381996e+01   5.230577e+01
  -2.276055e+01   6.488973e+01
  -5.205287e+01   5.911195e+01
  -7.350293e+01  -2.232880e+01
   2.593185e+01  -8.940062e+01
   1.421076e+02  -7.127583e+01
   2.093884e+02   5.166645e+01
   8.477262e+01   1.465010e+02
  -4.174098e+01   1.838502e+02
  -2.160607e+02   1.200479e+02
  -2.446150e+02  -4.636580e+01
  -1.007174e+02  -1.279095e+02
   1.208539e+00  -1.201346e+02
   8.028659e+01  -5.730094e+01
   8.250627e+01  -7.889188e+01
   6.572248e+01  -7.171427e+01
   8.109530e+01  -7.485193e+01
   1.334536e+02   3.465862e+00
   1.028104e+02   1.403908e+02
   9.205386e+00   1.964536e+02
  -9.442266e+01   1.585579e+02
  -1.570311e+02   3.823441e+01
  -1.290704e+02  -1.153116e+02
  -4.221379e+01  -1.338096e+02
   2.425110e+01  -9.883754e+01
   9.086324e+01   1.129055e+01
   2.008717e+00   4.050266e+01
   6.215800e+00   3.585417e+01
   6.025920e+01   1.198506e+01
   1.100944e+02   1.903978e+01
   4.256925e+01   6.262416e+01
  -5.692976e+01   5.017176e+01
  -1.578574e+02  -1.280509e+01
  -1.216830e+02  -1.734907e+01
   1.440560e+01  -7.516295e+01
   7.970261e+01  -5.697770e+01
   1.463860e+02   1.600263e+00
   7.620764e+01   4.179604e+01
  -4.816630e+01   5.075891e+01
  -5.589453e+01  -4.946946e+01
   2.647027e+00  -5.521040e+01
   4.417357e+01  -7.336884e+01
   5.514462e+01  -2.277878e+00
   5.330642e+01   3.676150e+01
   5.116542e+01   3.938522e+01
   7.488005e+01   1.981335e+01
   7.021480e+01   2.726800e+01
   2.157762e+01   4.002888e+01
  -3.242155e+01   1.139115e+02
  -1.408883e+02   1.448687e+02
  -1.075497e+02   1.619325e+01
  -1.051177e+02  -9.601495e+01
  -2.146154e+01  -1.156380e+02
   4.575616e+01  -6.915036e+01
   6.570875e+01  -2.466870e+00
  -2.757712e+01   1.423819e+01
  -1.009604e+02  -6.074143e+01
  -7.096054e+01  -6.739072e+01
   8.336787e+01  -1.205104e+02
   1.685680e+02  -4.011419e+01
   1.838436e+02   2.624076e+01
   2.597428e+01   8.092794e+01
  -7.459768e+01   5.478561e+01
  -7.000845e+01   1.082219e+01
  -3.207599e+00  -8.119576e+00
   8.218759e+01   4.122206e+01
   4.197453e+01   8.378216e+01
  -8.170371e+01   1.590164e+02
  -1.816286e+02   7.509815e+01
  -1.167440e+02  -9.463369e+01
   3.502835e+00  -1.772443e+02
   1.140409e+02  -1.432766e+02
   9.818395e+01   2.277009e+01
   4.033484e+01   9.716729e+01
  -3.910866e+00   1.112718e+02
  -4.121315e+01   4.182367e+01
  -4.511919e+01  -4.862736e+01
  -3.888643e+01  -1.250116e+01
  -9.443768e+00   3.615407e+01
  -2.105603e+01  -2.818480e+01
  -5.314052e+01  -8.861529e+01
  -2.062390e+01  -9.611939e+01
   2.955038e+01  -5.082771e+01
   1.340126e+02   1.323923e+01
   1.068891e+02   7.494941e+01
   1.345350e+01   2.360052e+01
  -8.420498e+01   4.072214e+01
  -5.754480e+01   4.051359e-01
  -2.409974e+01   1.140037e+01
   3.996763e+01  -2.958749e+01
   8.352325e+00  -1.753615e+01
  -1.773441e+01   1.464867e+01
  -2.056161e-01   1.884610e+01
   8.348369e+01   1.178537e+01
   8.378873e+01  -1.643305e+01
  -1.643998e+01   4.939319e+01
  -8.703323e+01   1.060044e+02
  -1.466932e+02   6.502995e+01
  -1.118975e+02  -5.998328e+01
  -2.637829e+01  -1.107255e+02
   5.686101e+01  -1.205448e+02
   9.891399e+01  -8.738518e+01
   6.935233e+01   4.409010e+00
   2.310039e+01   1.895556e+01
  -3.885526e+00   6.741879e-02
   3.726292e+00  -5.353551e+00
   1.862505e+01   1.420511e+01
  -2.489211e+00   8.024301e+01
  -2.188325e+01   5.302490e+01
  -9.228341e+01  -3.663122e+01
  -9.198642e+01  -1.151984e+02
  -3.076656e+01  -1.295500e+02
   7.595453e+01  -3.653931e+01
   7.877531e+01   5.669549e+01
   3.731403e+01   8.223428e+01
  -3.923177e+01   3.089805e+01
  -9.621094e+01  -2.118860e+01
  -4.909784e+01  -2.713626e+01
   3.823294e+01  -4.281961e+01
   1.197543e+01  -2.052522e+01
  -2.873027e+01  -6.782847e+00
  -3.874868e+01   2.672038e+01
  -1.610978e+01  -3.369893e+01
   4.068358e+01  -5.017961e+01
   9.070054e+01  -1.111768e+02
   5.742946e+01   2.996600e+01
  -2.089545e+00   6.006205e+01
  -2.237143e+01   8.306204e+01
  -3.591345e+01   2.776590e+01
  -7.276392e+00  -5.607302e+01
   3.749695e+01  -4.349124e+01
   1.015596e+01   1.653892e+01
   1.967897e+01   6.362337e+01
  -1.229204e+01   1.519172e+01
  -2.536494e+01  -2.660905e+01
  -3.984648e+01   1.033401e-01
  -2.274151e+01   7.332031e+00
   2.240296e+01   1.674831e+01
   2.391589e+00  -8.734117e+00
  -7.838313e+00  -2.870225e+01
   1.814100e+01  -4.045764e+01
   3.190051e+01  -6.330199e+00
   2.801265e+01   6.773308e+01
   1.467823e+01   5.626614e+01
  -4.785224e+01   1.997002e+01
  -3.784293e+01  -4.289851e+01
  -1.499093e+01  -5.666438e+01
   3.928366e+01  -3.540260e+01
   8.639188e+01   6.341230e-01
   6.989035e+01   3.104699e+01
  -2.576438e+01   4.519894e+01
  -6.206048e+01   1.809791e+01
  -7.016908e+00  -1.130062e+01
   2.984222e+01  -1.507795e+01
   2.548435e+01   1.400541e+00
  -6.645848e+01   4.777599e+00
  -4.488985e+01  -1.958194e+01
