
 $NMID
 id='ANONYMOUS ', fmtdat='(2E16.6)'
 volume=1.0
 tramp=1.0
 $END
  -4.286865e+03   1.054019e+02
  -2.151397e+03  -2.614234e+03
   6.833096e+02  -2.585984e+03
   2.027876e+03  -1.036981e+03
   7.683682e+02   5.848134e+02
  -5.728611e+02   5.571717e+02
  -8.688505e+02  -5.296548e+02
  -7.751061e+01  -1.198759e+03
   8.330861e+02  -7.698421e+02
   9.296321e+02   1.066979e+02
   4.292955e+02   9.088615e+02
  -2.980722e+02   8.163087e+02
  -6.165466e+02   8.594818e+01
  -3.856487e+02  -7.149072e+02
   2.497824e+02  -6.964782e+02
   6.768197e+02  -5.161467e+01
   2.804584e+02   6.613432e+02
  -4.255305e+02   6.474914e+02
  -5.327186e+02   7.812181e+00
  -4.654341e+02  -4.026369e+02
   3.598977e+01  -3.905321e+02
   2.147859e+02  -2.718321e+02
   2.024882e+02  -5.718905e+01
  -7.958208e+01   6.187567e+01
  -3.393360e+02  -1.473908e+02
  -1.430078e+02  -3.765652e+02
   5.096896e+02  -3.772211e+02
   7.745740e+02   5.575079e+01
   4.561209e+02   6.254876e+02
  -3.208630e+02   4.037938e+02
  -6.915899e+02  -4.428102e+01
  -2.805037e+02  -4.144717e+02
   2.358155e+02  -4.549906e+02
   5.019895e+02  -1.845622e+02
   3.679138e+02   2.306917e+02
   1.369409e+01   4.948307e+02
  -1.530018e+02   2.938799e+02
  -1.543184e+02  -1.301813e+02
   1.819460e+02  -4.474009e+02
   4.555020e+02   5.510346e+01
   2.664832e+02   6.887222e+02
  -2.057823e+02   6.769747e+02
  -5.330455e+02   3.523626e+01
  -3.175094e+02  -5.116954e+02
   2.577922e+02  -3.466391e+02
   4.024100e+02   2.741549e+02
  -7.888867e+01   5.013348e+02
  -5.412436e+02   1.334533e+02
  -5.413647e+02  -4.413589e+02
  -1.404233e+02  -5.349706e+02
   3.926956e+02  -2.869064e+02
   5.813393e+02   1.441450e+02
   2.977157e+02   3.932207e+02
  -1.456075e+02   3.615883e+02
  -4.696623e+02   2.860879e+00
  -2.812829e+02  -2.109863e+02
   7.244125e+01  -1.330422e+02
   1.345615e+02   1.576605e+02
  -1.610546e+02   1.768746e+02
  -3.752360e+02  -9.196562e+01
  -1.171404e+02  -2.883929e+02
   2.179375e+02  -2.600076e+02
   3.034118e+02  -9.966301e+01
   2.198293e+02   8.289118e+01
  -3.667643e+01   1.919132e+02
  -2.330931e+02   3.265529e+02
  -3.029492e+02   1.670120e+02
  -2.388440e+02  -1.404638e+02
  -7.887431e+01  -3.886318e+02
   1.087096e+02  -4.056102e+02
   1.489566e+02  -1.073798e+02
   6.442679e+01   3.371699e+01
   1.297709e+01  -1.059858e+02
   1.762880e+02  -1.109762e+02
   2.292833e+02   7.687813e+01
   1.024595e+02   2.689533e+02
  -1.091684e+02   2.502617e+02
  -2.069095e+02  -3.133684e+00
  -1.927040e+02  -2.298204e+02
   2.625146e+01  -2.912263e+02
   2.650032e+02  -8.960041e+01
   3.353308e+02   1.794383e+02
   1.829860e+02   3.797246e+02
  -1.193625e+02   2.867516e+02
  -2.195152e+02   1.516763e+02
  -1.473959e+02  -1.749080e+01
  -8.002781e+01   3.356814e+01
  -2.402608e+02   4.995786e+01
  -4.343229e+02  -7.699921e+01
  -2.930176e+02  -2.987499e+02
   1.343850e+00  -4.462554e+02
   3.427372e+02  -4.331834e+02
   3.765661e+02  -1.340831e+02
   3.138567e+02   1.202060e+02
   2.869608e+00   2.823221e+02
  -1.271052e+02   2.398117e+02
  -7.958872e+01   1.996648e+01
   8.781629e+01  -1.368069e+02
   1.797042e+02  -1.435744e+01
   7.855419e+01   1.938614e+02
  -1.445779e+02   1.614227e+02
  -1.820804e+02  -5.098140e+01
   7.471265e-01  -1.797293e+02
   1.959438e+02  -1.320104e+01
   1.689996e+02   2.349457e+02
  -1.231103e+01   3.216860e+02
  -2.018229e+02   1.519572e+02
  -3.292637e+02  -8.968410e+01
  -2.477677e+02  -2.070544e+02
  -7.308329e+01  -2.382091e+02
   1.361152e+02  -1.643248e+02
   1.755478e+02   1.237950e+01
   9.174315e+01   2.409209e+01
  -7.727417e+01  -2.909625e+01
  -4.506312e+01  -9.750978e+01
   1.400852e+02  -6.743003e+01
   1.655796e+02   7.230551e+00
   3.842586e+01   7.520902e+01
  -9.170969e+01   1.606933e+01
  -4.827663e+01  -8.196493e+01
   1.229703e+02  -1.193767e+02
   2.483981e+02   1.885402e+01
   2.653165e+02   1.319508e+02
   1.761395e+01   2.611503e+02
  -2.045828e+02   2.226769e+02
  -3.003530e+02   1.507928e+02
  -1.602650e+02  -2.900799e+01
   3.564586e+01  -1.185290e+02
   8.276580e+01   1.705541e+01
  -3.171633e+01   8.910887e+01
  -2.209026e+02   4.101846e+01
  -1.690535e+02  -1.115454e+02
  -8.090329e+01  -2.021231e+02
   9.957458e+01  -1.331144e+02
   1.424191e+02   1.649944e+01
   7.970510e+01   2.255663e+01
  -5.003044e+01  -8.455726e-01
  -3.364410e+01  -8.762294e+01
   6.605010e+01  -1.027631e+02
   2.212711e+02  -4.117600e+01
   1.951314e+02   1.692786e+02
  -2.750863e-01   1.891039e+02
  -1.400778e+02   1.803645e+02
  -1.848701e+02   1.016020e+01
  -5.380211e+01  -1.295136e+02
   2.829290e+01  -1.181224e+02
   8.171350e+01  -2.876521e+01
   3.694406e+01   2.045143e+01
  -4.268829e+01   1.824122e+01
   5.516240e-01  -2.760905e+01
   5.363368e+01   1.413755e+01
   8.512698e+01   9.567936e+01
  -5.977092e+00   1.622062e+02
  -1.108655e+02   1.338170e+02
  -2.115827e+02  -3.532055e+00
  -1.875182e+02  -1.245662e+02
  -2.147951e+01  -2.290185e+02
   1.246120e+02  -1.774692e+02
   1.115514e+02  -2.570115e+01
   6.278817e+01   8.471914e+01
   6.625752e+00   3.972176e+01
   5.032225e+01  -7.957528e+00
   7.236847e+01   1.138690e+01
   5.580084e+01   3.181628e+01
  -6.182011e+01   6.002137e+01
  -1.056457e+02   1.596023e+01
  -8.015529e+01  -2.872446e+01
  -5.198112e+00  -8.669285e+01
   1.401081e+02  -8.975066e+01
   1.775518e+02   6.192820e+01
   1.155246e+02   2.145943e+02
  -1.072441e+02   2.103761e+02
  -2.852501e+02   9.327744e+01
  -2.187855e+02  -8.764802e+01
  -1.075837e+02  -1.367319e+02
   2.481808e+01  -1.499287e+02
   6.962322e+01  -8.957927e+01
   6.967603e+01  -8.662246e+01
   6.363965e+01  -7.040351e+01
   9.292046e+01  -6.091297e+01
   1.388253e+02   1.631625e+01
   1.256196e+02   1.643017e+02
   4.363836e+01   2.129084e+02
  -6.845572e+01   1.702154e+02
  -1.341072e+02  -4.299450e+01
  -1.329551e+02  -1.097161e+02
  -2.339107e+01  -1.253731e+02
   7.633736e+01  -1.193565e+02
   6.640169e+01   1.306307e+01
  -1.745683e+01   3.752072e+01
   9.870015e+00   3.830138e+01
   6.437435e+01   2.708977e+01
   7.936886e+01   1.211280e+00
   2.674615e+01   2.480832e+01
  -4.969089e+01   3.746151e+01
  -1.514918e+02   9.977985e-01
  -1.308348e+02  -5.183497e+01
  -1.816443e+01  -8.487090e+01
   1.327674e+02  -3.961548e+01
   1.328737e+02  -3.535863e+01
   3.722905e+01   1.991504e+01
  -6.595118e+01   4.476640e+01
  -6.674658e+01  -8.811990e+00
   1.924566e+00  -6.441587e+01
   6.016170e+01  -4.251344e+01
   6.617108e+01   1.236288e+01
   4.317791e+01   6.017320e+01
   3.545657e+01   5.271346e+01
   4.923733e+01  -6.835105e+00
   6.309484e+01   1.747079e+01
   4.554816e+01   6.529789e+01
  -2.770208e+01   1.191439e+02
  -1.197907e+02   1.122216e+02
  -1.819721e+02   3.487832e+01
  -1.352945e+02  -6.799924e+01
  -7.965120e+00  -8.144842e+01
   9.810514e+01  -5.780978e+01
   4.775913e+01   3.471948e+00
  -6.290389e+01   1.082852e+01
  -1.501241e+02  -5.726758e+01
  -5.418933e+01  -1.233787e+02
   7.757883e+01  -7.079158e+01
   1.495675e+02  -2.772973e+01
   1.460283e+02   5.131245e+01
   4.424191e+01   7.601850e+01
  -5.506161e+01   8.304367e+01
  -4.273574e+01  -8.054566e+00
   4.298200e+01  -1.724593e+01
   9.183887e+01   2.749779e+01
   5.112567e+01   1.187117e+02
  -5.818737e+01   1.383204e+02
  -1.457972e+02   3.686468e+01
  -9.280452e+01  -8.734118e+01
   1.580105e+01  -1.879803e+02
   8.622581e+01  -1.212288e+02
   1.058692e+02   8.880584e-01
   4.627690e+01   1.192886e+02
  -3.856515e+00   8.739456e+01
  -3.571254e+01  -1.952413e+01
  -3.461292e+01  -2.285424e+01
  -1.088926e+01  -9.916136e+00
   2.156162e+01   3.818480e+01
  -1.619441e+01  -4.202142e+00
  -4.157413e+01  -1.079489e+02
  -3.046181e+01  -9.635346e+01
   4.089622e+01  -5.536508e+01
   1.143171e+02   2.930918e+01
   9.961773e+01   7.127173e+01
   1.282204e+01   4.739648e+01
  -8.456679e+01   2.393449e+01
  -8.094494e+01  -4.122466e+00
  -2.703396e+00   2.112463e+00
   4.922156e+01  -1.311152e+01
   2.997670e+01  -2.092615e+01
  -4.608657e+01  -1.368317e+01
   2.142291e+01   1.957315e+01
   6.172860e+01   1.631431e+01
   9.671770e+01   2.430554e+01
  -1.840107e+01   9.988738e+01
  -1.317671e+02   8.864618e+01
  -1.690308e+02   4.293670e+01
  -1.442350e+02  -7.550848e+01
  -1.230614e+01  -1.660014e+02
   8.642896e+01  -1.382893e+02
   1.136461e+02  -6.059287e+01
   7.376922e+01   1.705126e+01
   6.968068e+00   5.690300e+01
   3.323319e+01  -5.142369e-01
  -2.135974e+01   9.002833e+00
   3.571793e+01   1.962850e+01
   2.362766e+01   6.712773e+01
  -2.054358e+01   8.454021e+01
  -6.105125e+01  -8.051389e+00
  -6.489654e+01  -1.282814e+02
  -1.233930e+01  -5.881676e+01
   8.477780e+01  -3.420989e+01
   8.633563e+01   8.356020e+01
  -3.694165e-01   1.272168e+02
  -5.668759e+01   7.784173e+01
  -9.043642e+01   4.265764e+00
  -1.499355e+01  -3.848382e+01
  -1.219974e+01  -2.478419e+01
   6.405228e+01  -2.945155e+01
  -5.222401e+01  -1.267591e+01
  -6.233979e+01   7.753528e+00
  -1.391964e+01  -1.078508e+01
   9.790722e+01  -6.310020e+01
   9.348011e+01  -3.084855e+01
   6.581193e+01  -1.185439e+01
  -2.635503e+01   4.831789e+01
  -7.988414e+01   3.776927e+01
  -2.188405e+01  -1.807660e+01
   3.500876e+00  -3.711415e+01
   2.819023e+01  -5.070067e+01
   3.228250e+01   3.371650e+01
   5.192883e+01   4.343464e+01
  -2.075142e+01   3.894641e+01
  -1.761958e+01  -3.148650e+01
  -3.046900e+01  -7.752627e+00
  -8.302851e+00   1.638591e+01
   1.611868e+01   2.034653e+01
  -8.517597e+00  -7.516127e+00
   1.308866e+01  -2.729278e+01
   4.340193e+00  -3.393754e+01
   3.298891e+01  -1.614143e+01
   2.689788e+01   4.667719e+01
  -2.927287e+00   4.307437e+01
  -5.193516e+01   1.702366e+01
  -2.357440e+01  -3.573592e+01
  -1.463275e+01  -5.289154e+01
   3.290686e+01  -2.603645e+01
   9.140427e+01   3.049256e+01
   5.100490e+01   3.374089e+01
  -4.978534e+01   3.872453e+01
  -7.886899e+01   4.292121e+01
  -1.665931e+01  -6.120289e+00
   1.225497e+01   3.262453e+01
   2.662422e+01   4.017423e+01
  -4.847392e+01   3.185247e+01
  -1.103353e+02   1.311480e+01
