
 $NMID
 id='ANONYMOUS ', fmtdat='(2E16.6)'
 volume=1.0
 tramp=1.0
 $END
   2.669689e+03  -1.991816e+02
   1.836021e+03   9.735923e+02
  -4.368616e+01   1.711915e+03
  -1.445320e+03   7.907087e+02
  -7.535117e+02   3.060652e+01
   1.238226e+02  -3.355671e+02
   4.107018e+02   2.243773e+02
  -2.973751e+01   3.984599e+02
  -4.457220e+02   5.473104e+02
  -5.448876e+02   3.787952e+00
  -2.307425e+02  -5.635671e+02
   8.351842e+01  -6.050447e+02
   3.875231e+02  -1.297907e+02
   2.407697e+02   3.830451e+02
  -1.334625e+02   4.458562e+02
  -2.401350e+02   4.143103e+01
  -2.272738e+02  -3.761182e+02
   2.006872e+02  -3.631075e+02
   4.166454e+02  -9.989177e+01
   2.643726e+02   1.873420e+02
   7.338217e+01   3.155299e+02
  -1.051649e+02   2.382504e+02
  -8.850378e+01   2.463042e+01
   1.141946e+02   4.775816e+00
   1.938001e+02   2.164596e+02
  -1.678986e+01   2.215957e+02
  -2.961385e+02   2.215349e+02
  -4.921216e+02  -1.706201e+02
  -2.939406e+02  -3.290250e+02
   2.125339e+02  -1.795816e+02
   4.111955e+02   1.134622e+02
   1.233773e+02   3.477245e+02
  -2.814159e+02   2.808501e+02
  -3.542239e+02   1.122096e+02
  -2.201500e+02  -1.208059e+02
  -6.301387e+01  -2.487017e+02
   9.433751e+01  -1.180482e+02
   3.924993e+01   9.664260e+01
  -1.485910e+02   1.649142e+02
  -1.781417e+02  -1.180961e+00
  -9.774397e+01  -4.016433e+02
   1.885257e+02  -3.159158e+02
   2.390381e+02   3.850847e+01
   1.161684e+02   2.414963e+02
  -1.524888e+02   1.354499e+02
  -2.603200e+02  -2.482382e+02
   1.389087e+02  -2.988500e+02
   3.891923e+02  -4.597256e+01
   3.685695e+02   3.153670e+02
   4.950608e+01   5.112013e+02
  -2.071620e+02   2.624298e+02
  -4.036258e+02  -9.438863e+01
  -2.970633e+02  -1.835346e+02
   5.633785e+01  -1.718689e+02
   2.499611e+02  -2.594312e+01
   1.641800e+02   6.243400e+01
  -1.914750e+01   6.091251e+01
  -4.027772e+01  -9.703457e-01
   5.531103e+01  -4.622623e+01
   1.264087e+02   6.089510e+01
   7.273391e+01   1.374099e+02
  -1.084606e+02   1.619384e+02
  -2.299316e+02   8.764045e+01
  -1.650082e+02  -9.066717e+01
   2.963639e+01  -2.031133e+02
   2.276850e+02  -2.202718e+02
   2.773474e+02  -1.447855e+02
   1.944146e+02   1.330862e+02
   3.546166e+01   2.543546e+02
  -4.532642e+01   2.863249e+02
  -5.512376e+01   1.377625e+02
  -2.127726e+01   3.861704e+01
  -9.480408e+01   4.296510e+01
  -1.999423e+02   1.700428e+01
  -1.912121e+02  -9.568855e+01
  -4.434981e+01  -1.936980e+02
   6.938170e+01  -1.269485e+02
   1.489274e+02   1.738338e+01
   1.087106e+02   1.753111e+02
  -2.324444e+01   1.819012e+02
  -1.845407e+02   1.026879e+02
  -2.030091e+02  -1.199769e+02
  -1.078852e+02  -2.060884e+02
   8.622814e+01  -1.864991e+02
   1.707371e+02  -9.925722e+01
   1.234286e+02  -5.496122e+01
   9.788425e+01  -6.754153e+01
   1.601538e+02  -9.006236e+00
   2.757399e+02   8.520047e+01
   2.440343e+02   2.163820e+02
  -4.963658e+01   2.866388e+02
  -2.809819e+02   1.842046e+02
  -3.946321e+02   1.305740e+02
  -1.875499e+02  -9.460212e+01
  -8.665194e+00  -1.627270e+02
   8.593957e+01  -9.884961e+01
   2.217127e+01  -6.715475e+01
  -1.169341e+02   1.177939e+01
  -1.009526e+02   1.795743e+00
   2.615917e+01  -1.277725e+02
   9.617915e+01  -6.195780e+01
   8.418820e+01   1.669970e+01
  -3.018934e+01   1.071919e+02
  -1.302226e+02   1.287342e+01
  -8.778738e+01  -1.511461e+02
   5.445857e+01  -2.214181e+02
   1.480288e+02  -1.629575e+02
   2.578627e+02   6.541015e+01
   2.325847e+02   1.832003e+02
  -1.859080e+00   1.985419e+02
  -1.042311e+02   1.001448e+02
  -7.864020e+01  -6.654766e+00
  -2.533581e+01  -1.273381e+01
   2.461116e+01   5.585539e+01
   1.292799e+01   4.246496e+01
  -1.064223e+02   6.484180e+01
  -1.050236e+02  -3.696497e+01
  -9.856927e+00  -4.637641e+01
   6.019911e+01   1.064433e+01
   1.805429e+01   7.757285e+01
  -9.945271e+01   5.571974e+01
  -1.919811e+02  -4.336599e+01
  -1.222049e+02  -1.525339e+02
  -1.694809e+01  -2.177926e+02
   1.707578e+02  -1.812421e+02
   1.888822e+02  -3.153505e+01
   8.421303e+01   2.724561e+01
  -1.068474e+00   4.372971e+01
  -3.976064e+01  -1.146250e+01
   4.188506e+01  -5.706834e+01
   1.349608e+02  -2.736079e+01
   1.250507e+02   6.628699e+01
   5.108178e+01   1.619354e+02
  -7.919721e+01   1.028635e+02
  -9.337261e+01  -2.784926e+01
  -2.269998e+01  -1.911277e+01
   9.685702e-01  -3.777024e+00
   1.388030e+01   6.891390e+01
  -6.446412e+01   8.718352e+01
  -1.558374e+02   1.226571e+01
  -1.502218e+02  -8.365048e+01
   3.856186e+01  -1.115771e+02
   1.321834e+02  -9.906341e+01
   1.369157e+02   6.297545e+00
   1.701590e+01   8.869680e+01
  -1.199804e+01   9.011402e+01
  -5.626047e+01  -1.510751e+01
   4.707942e+00  -3.000719e+01
   6.449089e+01   1.036388e+01
  -3.073541e+01   2.696207e+01
  -5.835129e+01  -2.286115e+00
  -4.687818e+01  -7.743213e+01
   1.140426e+01  -1.572909e+02
   9.710857e+01  -1.070154e+02
   1.722597e+02   5.457797e+00
   1.375569e+02   1.174468e+02
   9.353426e+00   1.696710e+02
  -5.346364e+01   8.474898e+01
  -1.141739e+02   2.359253e+01
  -4.397350e+01  -2.830070e+01
  -3.548726e+00  -3.768588e+01
  -5.271050e+01   1.536204e+01
  -7.188882e+01  -1.362793e+01
  -4.881473e+01  -2.110812e+01
   3.066551e+01  -7.387996e+01
   5.766933e+01  -3.124499e+01
   8.682229e+01  -9.068576e-01
  -9.342291e+00   9.076150e+01
  -1.333572e+02   3.481216e+01
  -1.631642e+02  -5.568438e+01
  -3.040650e+01  -1.482235e+02
   8.735067e+01  -1.631558e+02
   1.805075e+02  -6.597158e+01
   1.848492e+02   6.198444e+01
   5.601835e+01   1.135494e+02
  -2.818213e+01   1.045478e+02
  -8.132036e+01   6.114524e+01
  -6.708713e+01   2.465802e+01
  -6.593006e+01   7.431722e+01
  -7.625907e+01   5.687392e+01
  -1.046949e+02  -1.564312e+01
  -7.441277e+01  -1.077071e+02
  -3.085892e+01  -1.179641e+02
   7.389324e+01  -1.203514e+02
   1.003226e+02  -1.657998e+01
   6.775724e+01   9.119828e+01
   1.815204e+01   1.515927e+02
  -5.047625e+01   7.998542e+01
  -5.120709e+01  -9.311324e+00
   2.031223e+01  -5.169763e+01
   2.272957e+01  -1.483668e+01
  -4.681323e+01  -8.991293e+00
  -5.422295e+01  -2.534542e+01
  -2.081149e+01  -2.414023e+01
   5.164959e+01  -1.751888e+01
   1.367085e+02   2.219611e+01
   1.128095e+02   4.223345e+01
  -1.872727e+01   8.540212e+01
  -1.009066e+02   7.206211e+01
  -1.298107e+02  -1.293980e+01
  -4.107866e+01  -1.701965e+01
   5.088612e+01  -3.267098e+01
   5.057475e+01   1.805354e+01
   2.034617e+01   6.417948e+01
  -2.541797e+01   4.469278e+01
  -6.445572e+01   8.045717e+00
  -1.933280e+01  -4.052547e+01
  -2.693362e+01  -6.003770e+01
  -5.418777e+01  -6.611575e+00
  -3.859495e+01   1.438381e+01
  -4.474539e+01  -4.382010e+01
   1.347560e+01  -1.097017e+02
   8.174445e+01  -8.127720e+01
   1.123523e+02   1.260308e+01
   9.670257e+01   8.806040e+01
  -3.718246e+01   6.729957e+01
  -4.800901e+01   5.153261e+01
  -7.460827e+01   6.114312e+00
   7.349163e+01  -1.546561e+01
   9.780792e+01   2.637933e+01
   3.145321e+01   7.387748e+01
  -7.149113e+01   6.635045e+01
  -1.652642e+02   4.061990e+01
  -8.063309e+01  -1.110931e+01
  -6.699850e+01  -4.948799e+01
   4.385274e+01  -5.213052e+01
   2.915670e+01   7.033221e+00
  -2.935629e+01   2.328944e+01
  -5.936899e+01  -3.537553e+01
  -1.912613e+01  -5.043113e+01
   6.516076e+01  -1.047644e+02
   1.172206e+02  -2.729659e+00
   8.282250e+01   8.788596e+01
  -9.831071e+00   1.258274e+02
  -8.243756e+01   1.090408e+02
  -6.092302e+01  -2.313506e+01
  -3.072711e+01  -9.021974e+01
   1.218494e+01  -7.281431e+01
   1.160930e+01  -4.109187e+00
   3.800624e+01   3.016163e-01
   7.904214e+00  -1.648049e+01
  -7.112216e+00  -2.447216e+01
   2.819438e+00   3.121032e+01
   3.590738e+01   5.066985e+01
   3.272873e+01   7.905042e+01
  -4.976078e+01   1.028353e+01
  -7.411981e+01  -4.611309e+01
  -6.340717e+01  -4.656015e+01
   1.599274e+01  -4.767899e+01
   7.538736e+01  -1.559882e+00
   4.960082e+01  -1.963058e+01
   2.657139e+01   1.062436e+00
  -1.932734e+01   5.326006e+00
  -9.370008e-01  -2.308803e+01
   1.727306e+01   1.151814e+01
  -8.499025e+00  -8.006052e+00
  -4.928402e+01  -1.359050e+01
  -6.977727e+01  -1.654739e+01
  -2.469102e+01  -5.003205e+01
   5.551246e+01  -6.827646e+01
   1.298573e+02   8.205884e-01
   1.129463e+02   3.247558e+01
   2.661845e+00   1.255965e+02
  -7.871979e+01   8.099161e+01
  -7.940093e+01   3.524322e+01
  -4.758766e+01  -1.643665e+01
   4.516659e-01  -2.469822e+01
  -1.241193e+01  -2.044845e+01
  -2.807659e+01  -1.049794e+01
  -3.397574e+00  -4.328299e+01
  -6.282299e+00  -9.890188e+01
   2.034147e+01  -4.236458e+01
   6.592713e+01  -6.785488e+00
   4.486712e+01   5.466649e+01
  -1.425090e-01   8.007099e+01
  -7.536731e+01   3.765198e+01
  -8.478114e+01  -6.481757e+01
  -2.050152e+01  -6.323726e+01
   2.689164e+01  -6.366126e+01
   7.338009e+01   2.648968e+00
   1.582466e+01   3.780064e+01
  -1.690209e+01   1.807250e+01
  -4.374491e+01   1.776833e+01
   3.452806e+01  -1.903437e+01
   4.483912e+01  -1.163236e+01
   2.618336e+01   4.785621e+00
  -5.388877e+01   4.968502e+01
  -6.490379e+01   3.783758e+01
  -4.497073e+01  -2.856077e+01
   1.439211e+01  -6.327854e+01
   3.956799e+01  -7.595137e+01
   4.041737e+01   1.336821e+00
  -2.571930e+01   2.318280e+01
  -4.314854e+01   6.335373e+01
  -8.059712e+00  -1.016018e+01
  -1.244305e+01  -2.908152e+01
  -1.667423e+01  -2.295002e+01
   3.482537e+00  -2.712483e+00
   2.951391e+01   2.313916e+01
   7.858341e+00   3.967741e+00
  -6.090776e+00  -2.306641e+00
  -1.426054e+01   6.476658e+00
   2.135064e+00   9.712543e+00
  -1.340887e+00   4.533613e+01
  -1.720582e+01   3.565304e+01
  -3.066716e+01  -2.605898e+01
  -1.879011e+01  -4.856042e+01
   4.640230e+01  -2.661067e+01
   3.984814e+01   2.387997e+01
   8.732889e+00   6.208197e+01
  -4.014730e+01   2.555867e+01
  -8.101480e+01  -5.399133e+00
  -6.026101e+01  -4.411487e+00
   2.203480e+01  -2.571029e+01
   5.552851e+01  -2.287401e+01
   1.728924e+01  -8.578120e+00
  -1.813052e+01   1.159757e+01
  -1.546150e+01   8.901514e-01
  -1.282395e+00  -2.078508e+01
   6.160145e+01  -1.901177e+01
