
 $NMID
 id='ANONYMOUS ', fmtdat='(2E16.6)'
 volume=1.0
 tramp=1.0
 $END
   3.693583e+03   2.051404e+01
   2.230039e+03   1.557191e+03
  -3.066752e+02   2.051067e+03
  -1.582709e+03   8.907429e+02
  -8.145837e+02  -8.997462e+01
   4.335577e+02  -2.578902e+02
   5.533536e+02   2.463782e+02
   1.138257e+02   6.480385e+02
  -5.209259e+02   5.127547e+02
  -7.637104e+02  -4.952697e+01
  -3.328750e+02  -5.738808e+02
   1.243824e+02  -7.360943e+02
   4.163088e+02  -1.611226e+02
   2.333578e+02   4.034880e+02
  -2.238384e+02   6.572957e+02
  -4.965352e+02   5.245991e+01
  -2.666864e+02  -5.202366e+02
   2.427293e+02  -5.711073e+02
   4.725716e+02  -1.320625e+02
   3.651312e+02   3.541842e+02
  -7.951797e+00   3.232826e+02
  -1.560177e+02   2.262379e+02
  -9.213834e+01   4.723013e+01
   1.495527e+02   3.684181e+01
   2.542638e+02   2.098740e+02
   2.837962e+01   4.205985e+02
  -3.856364e+02   1.569689e+02
  -6.869417e+02  -2.489549e+02
  -3.034153e+02  -4.448614e+02
   3.025258e+02  -1.650523e+02
   5.392824e+02   1.036431e+02
   1.762375e+02   3.645995e+02
  -2.157143e+02   3.139717e+02
  -4.076035e+02   7.051322e+01
  -3.338527e+02  -1.789667e+02
  -4.423790e+00  -3.846249e+02
   1.226881e+02  -1.717897e+02
   2.861884e+01   1.454591e+02
  -1.989285e+02   2.648385e+02
  -3.180309e+02  -1.327543e+02
  -1.007819e+02  -4.984065e+02
   2.272537e+02  -4.673912e+02
   4.566298e+02   4.655634e+01
   2.310107e+02   2.833913e+02
  -2.818834e+02   2.121747e+02
  -2.306123e+02  -3.224432e+02
   1.204125e+02  -4.219343e+02
   5.000793e+02  -1.857241e+01
   3.655892e+02   2.738491e+02
   7.708574e+01   4.459356e+02
  -4.026332e+02   2.175362e+02
  -5.187169e+02  -1.194589e+02
  -3.457439e+02  -2.735844e+02
   1.057477e+02  -2.526749e+02
   3.587492e+02  -8.938186e+01
   2.509940e+02   1.243939e+02
  -3.004680e+01   3.104663e+01
  -6.584163e+01  -9.630521e+01
   9.829698e+01  -9.206211e+01
   2.902358e+02   7.752542e+01
   1.259367e+02   2.375888e+02
  -1.726344e+02   2.218862e+02
  -3.086102e+02   7.759068e+01
  -2.688802e+02  -1.026607e+02
   5.581430e+01  -2.017216e+02
   2.704526e+02  -3.057974e+02
   3.754759e+02  -1.215333e+02
   1.855147e+02   1.509880e+02
   3.882372e+01   3.574025e+02
  -6.429998e+01   3.424557e+02
  -3.225501e+01   1.175602e+02
  -2.764935e+01   5.271863e+01
  -9.828300e+01   1.019310e+02
  -2.163648e+02   6.020153e+01
  -2.322811e+02  -6.718063e+01
  -4.639057e+01  -2.375043e+02
   1.014243e+02  -1.746362e+02
   1.867227e+02   6.368583e+01
   1.377445e+02   2.202714e+02
  -6.237443e+01   2.591144e+02
  -2.521767e+02   5.140174e+01
  -3.120317e+02  -1.695447e+02
  -1.622970e+02  -3.166268e+02
   7.467858e+01  -2.669109e+02
   1.861158e+02  -1.853011e+02
   1.488238e+02  -4.264443e+01
   1.216709e+02  -4.250800e+01
   2.744436e+02  -6.186268e+01
   3.742403e+02   1.272087e+02
   2.718712e+02   2.871548e+02
  -5.631214e+00   3.987816e+02
  -3.774229e+02   3.319577e+02
  -4.159219e+02   1.114949e+02
  -2.479287e+02  -8.354034e+01
   8.893059e+00  -2.668508e+02
   1.154829e+02  -1.946010e+02
   4.862006e+01  -3.085842e+01
  -9.013364e+01   4.132516e+01
  -1.262927e+02  -5.980994e+01
  -2.263913e+01  -1.759634e+02
   1.506842e+02  -9.714754e+01
   1.446561e+02   6.357677e+01
   1.584517e+01   1.431233e+02
  -1.711842e+02   4.395925e+00
  -1.603998e+02  -2.271334e+02
   6.826260e+01  -3.201385e+02
   1.669069e+02  -1.521514e+02
   3.119788e+02   1.107769e+02
   2.553793e+02   2.699315e+02
   5.189067e+01   2.906842e+02
  -1.313448e+02   1.095838e+02
  -1.463654e+02   4.175658e+00
  -2.631202e+01  -3.892669e+01
   2.819320e+01   5.812175e+01
   1.869978e+01   1.098230e+02
  -1.139557e+02   3.415838e+01
  -1.276354e+02  -5.549712e+01
  -1.407190e+01  -6.215764e+01
   8.216705e+01   2.094180e+01
   3.870791e+01   6.564758e+01
  -1.560344e+02   6.892044e+01
  -2.640411e+02  -3.007177e+01
  -2.390333e+02  -2.001763e+02
  -2.161630e+01  -2.441540e+02
   1.686313e+02  -1.890742e+02
   2.535422e+02  -1.020350e+02
   1.474076e+02   3.359911e+01
   4.042769e-01   5.431920e+01
  -8.097595e+01  -2.395415e+01
   7.860298e+01  -9.506809e+01
   1.815408e+02  -9.821176e+00
   1.844535e+02   1.122564e+02
   2.664970e+01   1.856583e+02
  -9.467827e+01   1.132737e+02
  -1.207005e+02   2.231815e+01
  -3.727498e+01  -8.244436e+01
   3.177716e+01   2.095991e+01
   2.623272e+01   1.050081e+02
  -9.510418e+01   1.075881e+02
  -2.028564e+02   3.518284e+01
  -1.543909e+02  -1.044804e+02
  -1.241935e+00  -1.675211e+02
   1.745943e+02  -1.463981e+02
   1.813044e+02   2.384815e+01
   3.220413e+01   6.386854e+01
  -6.720466e+01   1.129093e+02
  -6.491654e+01   9.137784e+00
  -9.801977e+00  -2.953348e+01
   2.260886e+01  -3.159075e+01
  -4.180846e+01   4.057145e+01
  -5.629935e+01   1.425946e+01
  -7.853346e+01  -6.477060e+01
   2.656621e+00  -1.659357e+02
   1.445708e+02  -8.755057e+01
   2.195319e+02   1.918280e+01
   1.180575e+02   1.792208e+02
   7.852296e+00   2.154676e+02
  -1.061202e+02   1.577424e+02
  -1.139845e+02  -6.576648e+00
  -8.042222e+01  -5.761529e+01
  -5.120178e+01  -1.269933e+01
  -6.979338e+01   3.680559e+00
  -6.122106e+01   6.252919e+00
  -5.180992e+01  -4.945725e+01
   5.936728e+01  -7.552975e+01
   1.418654e+02  -4.434109e+01
   6.899743e+01   6.013212e+01
  -3.882312e+01   1.168850e+02
  -1.466650e+02   7.012871e+01
  -1.829953e+02  -8.818923e+01
  -7.060448e+01  -1.950926e+02
   1.247041e+02  -2.137312e+02
   2.407492e+02  -6.652430e+01
   2.207483e+02   9.297479e+01
   6.648319e+01   1.738663e+02
  -3.503237e+01   1.432641e+02
  -7.393507e+01   7.786092e+01
  -6.320604e+01   7.216765e+01
  -3.064552e+01   8.003707e+01
  -9.568570e+01   5.827019e+01
  -1.141628e+02  -3.578889e+01
  -1.031665e+02  -1.303452e+02
  -7.983743e+00  -2.221964e+02
   7.693833e+01  -1.785725e+02
   1.204324e+02   1.823876e+01
   1.352586e+02   1.583439e+02
   8.783792e+00   1.471505e+02
  -7.215983e+01   1.014918e+02
  -2.635729e+01   5.816444e+00
   6.439000e+00  -6.156517e+01
   9.869537e+00  -4.241107e+01
  -1.499023e+01  -2.321462e+01
  -9.289934e+01  -2.681821e+01
  -3.114607e+01  -4.993002e+01
   2.079728e+01  -3.258751e+01
   1.544345e+02  -1.549406e+00
   1.100714e+02   3.135375e+01
   1.380830e+01   1.054449e+02
  -1.102158e+02   3.305267e+01
  -1.119513e+02  -8.307844e+00
  -5.572962e+01  -3.444888e+01
   5.970707e+01  -1.036144e+01
   7.822242e+01   2.175258e+01
   1.805316e+01   4.935676e+01
  -3.746069e+01   1.820164e+01
  -4.615473e+01  -1.881551e+01
  -5.782761e+01  -6.413711e+01
  -1.731982e+01  -2.628858e+01
  -2.190435e+01  -2.303122e+01
  -7.211458e+01  -3.026860e+01
  -4.231632e+01  -8.114724e+01
   6.697378e+01  -1.268531e+02
   1.026087e+02  -1.492291e+02
   1.910834e+02  -3.766085e+01
   1.093944e+02   1.118124e+02
   5.433857e+00   1.209654e+02
  -1.193109e+02   8.494188e+01
  -6.170980e+01  -8.580782e+00
   6.135917e+01  -5.156760e+01
   1.379914e+02   7.484376e+01
   4.461723e+01   1.264088e+02
  -7.624698e+01   8.180173e+01
  -1.565296e+02   3.688067e+01
  -1.525920e+02  -6.189324e+01
  -2.800444e+01  -4.149864e+01
   3.914653e+01  -7.318541e+01
   4.978263e+01   9.793271e+00
  -2.602324e+01   4.499852e+00
  -8.798183e+01  -2.814356e+01
  -4.162212e+01  -8.955873e+01
   7.204370e+01  -1.047333e+02
   1.574006e+02  -1.271543e+01
   1.001270e+02   8.479652e+01
  -1.657478e+01   1.427536e+02
  -9.334527e+01   1.075534e+02
  -1.015965e+02  -3.446438e+01
  -1.583953e+01  -1.252776e+02
  -3.613753e+00  -9.393009e+01
   2.817143e+01  -2.604510e+01
   5.419604e+01   2.710682e+01
  -5.262222e+00   5.447849e+01
   3.458506e+00  -3.489867e+01
   3.734015e+01   2.758372e+01
   6.303365e+01   9.836182e+01
   5.954790e+00   9.061003e+01
  -6.357951e+01   2.733039e+01
  -1.108898e+02  -1.687345e+01
  -1.019888e+02  -8.682392e+01
  -8.115609e+00  -6.953890e+01
   7.049003e+01  -9.184098e+00
   8.463537e+01   1.728511e+01
   2.710816e+01   1.888249e+01
  -2.539276e+01   6.973459e+00
  -2.861918e+01   3.364766e+00
   3.189587e+01   4.428283e+00
   8.890051e+00  -3.014999e+01
  -7.575241e+01  -9.597707e+00
  -9.797467e+01  -1.851255e+00
   5.171683e+00  -7.142369e+01
   1.221177e+02  -1.096923e+02
   1.696983e+02  -3.782210e+01
   1.302220e+02   8.676703e+01
   1.130701e+01   1.400034e+02
  -1.151859e+02   1.330963e+02
  -9.403160e+01   5.313600e+01
  -6.699810e+01  -2.736937e+01
   1.397572e+01  -4.842514e+01
   3.151679e+00   6.010527e-01
  -4.520469e+01  -1.590150e+01
  -8.289261e+00  -2.056304e+01
   1.338832e+01  -9.450490e+01
   3.976714e+01  -5.242438e+01
   9.608668e+01   1.332996e+01
   5.664298e+01   1.052857e+02
   1.405071e+01   8.909973e+01
  -8.247732e+01   2.351406e+01
  -9.774243e+01  -8.777259e+01
  -2.359248e+01  -1.119155e+02
   5.047697e+01  -2.842155e+01
   9.882130e+01   2.034649e+00
   4.336916e+01   3.998698e+01
  -2.308037e+01   4.439437e+01
  -1.066349e+01   4.485999e+01
   3.407155e+01   9.670309e+00
   4.078694e+01  -3.067637e+00
   4.846459e+01   3.585233e+01
  -8.595657e+01   2.571064e+01
  -7.833212e+01   3.223884e+01
  -7.993143e+01  -3.143519e+00
  -1.640717e+00  -5.801919e+01
   3.832532e+01  -6.351246e+01
   2.346818e+01  -1.342537e+00
  -1.896154e+01   4.380490e+01
  -4.875449e+01   4.415210e+01
  -4.559896e+01  -3.176967e+01
  -5.303632e+01  -2.696712e+01
  -8.986922e+00  -2.700270e+01
   3.967653e+01   1.112803e+00
   5.390542e+01   4.783507e+00
   3.399269e+01   2.124616e+01
  -3.137237e+01   4.601137e-01
   1.538497e+00   1.777294e+01
   1.505475e+01   1.453377e+01
   7.562784e+00   2.778841e+01
  -6.577313e+01  -1.770274e+01
  -3.782935e+01  -3.970095e+01
   9.689864e+00  -6.945355e+01
   3.316664e+01  -2.683292e+01
   5.846429e+01   3.622985e+01
   1.920973e+01   7.869393e+01
  -3.377617e+01   3.205340e+01
  -1.023050e+02   1.172290e+01
  -2.126528e+01  -4.897590e+01
   1.926329e+01  -3.510260e+01
   4.462165e+01  -2.037025e+01
   2.132461e+01   3.295012e-03
  -2.321942e+01  -1.181279e+00
  -2.175162e+00  -8.975437e+00
   3.288736e+01  -3.281651e+01
   7.435167e+01  -1.231765e+01
