
 $NMID
 id='ANONYMOUS ', fmtdat='(2E16.6)'
 volume=1.0
 tramp=1.0
 $END
   3.326632e+03  -4.485047e+02
   2.510405e+03   2.206713e+03
  -3.357018e+02   2.273170e+03
  -1.217132e+03   1.360303e+03
  -8.832851e+02  -1.543872e+02
   1.933168e+02  -2.905108e+02
   6.394291e+02   2.886775e+02
   2.437600e+02   7.990899e+02
  -5.262691e+02   6.075518e+02
  -7.412389e+02   1.055538e+02
  -5.373474e+02  -7.853613e+02
  -7.102092e+01  -6.781834e+02
   3.836696e+02  -1.739648e+02
   3.102345e+02   6.149326e+02
  -1.950531e+01   6.408468e+02
  -4.957215e+02   7.385365e+01
  -2.021753e+02  -6.139828e+02
   2.326596e+02  -6.482028e+02
   4.149449e+02  -2.052957e+02
   4.720648e+02   1.888058e+02
   8.975843e+01   3.458238e+02
  -1.624287e+02   1.993325e+02
  -8.383920e+01   6.736063e+01
   1.437787e+02   5.652576e+01
   3.542453e+02   8.123812e+01
   1.221012e+02   3.305408e+02
  -4.546396e+02   3.138026e+02
  -6.353746e+02  -4.768200e+01
  -4.091966e+02  -4.189612e+02
   3.246869e+02  -3.126897e+02
   5.549450e+02   4.636953e+01
   2.645744e+02   3.458923e+02
  -2.309965e+02   4.768923e+02
  -4.659956e+02   1.440661e+02
  -3.460714e+02  -1.527648e+02
  -7.629060e+01  -3.785497e+02
   7.897074e+01  -2.533923e+02
   8.584942e+01   8.835926e+01
  -1.024013e+02   2.565839e+02
  -3.059394e+02  -8.663644e+01
  -2.047198e+02  -4.821805e+02
   1.018716e+02  -5.228467e+02
   3.474343e+02  -9.288490e+01
   2.270222e+02   4.004356e+02
  -2.097796e+02   2.125868e+02
  -2.833021e+02  -2.949172e+02
   2.967468e+01  -5.165093e+02
   4.199098e+02  -1.143064e+02
   5.262086e+02   3.703280e+02
   2.208491e+02   5.006406e+02
  -2.871362e+02   2.548807e+02
  -4.661571e+02  -3.872926e+01
  -3.134369e+02  -3.083276e+02
   5.028818e+01  -2.814579e+02
   3.331369e+02  -1.235918e+02
   2.613044e+02   6.851810e+01
  -1.368590e+01   5.355891e+01
  -1.086188e+02  -5.425462e+01
   1.163035e+02  -1.299911e+02
   3.375684e+02   8.347866e+01
   1.168935e+02   1.863646e+02
  -1.379314e+02   2.755546e+02
  -2.971438e+02   1.179771e+02
  -2.419890e+02  -4.686897e+01
   1.230488e+01  -2.437138e+02
   2.657632e+02  -3.320860e+02
   3.096782e+02  -1.940685e+02
   2.398222e+02   9.519960e+01
   7.459831e+01   3.114002e+02
  -7.785857e+01   3.529036e+02
  -5.367747e+01   1.233184e+02
  -7.585382e-01   2.421095e+01
  -5.839253e+01   7.531920e+01
  -2.144860e+02   8.599456e+01
  -2.384187e+02  -8.581297e+01
  -1.000493e+02  -2.329533e+02
   4.064902e+01  -2.389499e+02
   1.965604e+02  -1.654730e+00
   1.483206e+02   2.096770e+02
  -9.672250e+00   2.791852e+02
  -2.025761e+02   9.346976e+01
  -3.154277e+02  -1.696826e+02
  -1.515653e+02  -3.024441e+02
   6.521879e+01  -3.099981e+02
   1.695214e+02  -1.353948e+02
   1.268904e+02  -4.255125e+01
   1.249276e+02  -2.627277e+01
   2.403880e+02  -3.816754e+01
   4.229752e+02   3.375106e+01
   2.499852e+02   2.575833e+02
   6.122920e+01   4.170438e+02
  -3.294580e+02   3.547952e+02
  -3.887432e+02   2.430629e+02
  -3.250412e+02  -1.033941e+02
  -3.751949e+01  -2.446494e+02
   9.873202e+01  -2.090861e+02
   4.835906e+01  -2.381850e+01
  -7.456058e+01   9.408199e+01
  -1.621051e+02  -1.437467e+01
  -2.276831e+01  -1.545463e+02
   7.100504e+01  -1.535542e+02
   1.334159e+02   1.678255e+01
   2.058454e+00   1.507726e+02
  -1.516228e+02   8.802270e+00
  -1.659447e+02  -2.297483e+02
   2.102725e+01  -3.453380e+02
   1.997626e+02  -2.355447e+02
   3.557689e+02   6.080185e+01
   1.960499e+02   2.165280e+02
   5.620692e+01   2.388602e+02
  -1.268245e+02   1.147656e+02
  -1.577095e+02   5.416803e+00
  -6.520051e+01   8.690252e+00
   4.328063e+01   4.666856e+01
   7.535441e+00   9.068687e+01
  -1.218583e+02   7.248677e+01
  -1.366227e+02  -2.010214e+01
  -7.500975e+01  -5.773992e+01
   7.442853e+01  -1.914545e-01
   6.083842e+01   8.448889e+01
  -1.248719e+02   9.296768e+01
  -2.644094e+02  -9.997817e+00
  -2.310004e+02  -1.185467e+02
  -5.704205e+00  -2.074631e+02
   1.784160e+02  -2.392848e+02
   3.021566e+02  -1.476794e+02
   1.839447e+02   3.940851e+01
  -3.878131e+01   9.970502e+01
  -1.070381e+02  -1.466519e+01
   6.122557e+00  -8.836867e+01
   1.485906e+02  -2.480741e+01
   2.022877e+02   8.003411e+01
   7.388535e+01   1.690091e+02
  -6.993986e+01   1.776866e+02
  -1.438963e+02   4.443278e+01
  -4.685887e+01   2.547535e+00
   4.365710e+01   1.429325e+01
   1.667575e+01   9.054099e+01
  -7.637310e+01   8.601566e+01
  -2.098632e+02   4.824577e+01
  -2.147526e+02  -1.265615e+02
  -2.822956e+01  -1.753441e+02
   1.573791e+02  -1.378548e+02
   1.376044e+02  -2.101755e+01
   7.337668e+01   8.619390e+01
  -3.863582e+01   9.869232e+01
  -4.376967e+01   1.750140e+01
  -4.708503e+00  -3.624292e+01
   2.198460e+01   6.420114e+00
  -7.746138e+00   2.298005e+01
  -7.886268e+01   1.363680e+01
  -1.209814e+02  -8.988668e+01
  -2.585455e+01  -1.386644e+02
   1.043522e+02  -1.418515e+02
   2.280372e+02   3.567884e+00
   1.735246e+02   7.569751e+01
   5.615646e+01   2.594132e+02
  -5.740182e+01   1.529789e+02
  -1.070013e+02   8.803029e+00
  -7.525698e+01  -3.078303e+01
  -3.934690e+01  -9.581913e+00
  -6.271270e+01   2.039671e+01
  -6.238162e+01   8.453431e+00
  -5.141323e+01  -5.721491e+01
   4.865070e+01  -1.010754e+02
   8.884960e+01  -5.136363e+01
   5.913452e+01   3.711318e+00
   2.206313e+00   9.964568e+01
  -1.149417e+02   1.042849e+02
  -1.984975e+02  -2.086833e+01
  -8.444203e+01  -1.951607e+02
   6.909438e+01  -2.021368e+02
   2.710169e+02  -9.073740e+01
   2.365816e+02   1.084802e+02
   1.012825e+02   1.566009e+02
  -5.977215e+01   1.757536e+02
  -7.878748e+01   1.020583e+02
  -6.303980e+01   9.247739e+01
  -4.157764e+01   9.226606e+01
  -1.091730e+02   1.001033e+02
  -1.286008e+02  -1.372317e+01
  -1.406065e+02  -1.493641e+02
  -5.245231e+01  -2.059159e+02
   7.542264e+01  -1.757478e+02
   1.313928e+02   1.911202e+01
   1.001488e+02   9.055698e+01
   3.934205e+01   1.638535e+02
  -6.170752e+01   8.243812e+01
  -6.104981e+01   1.071140e+01
  -1.328317e+01  -3.201161e+01
   2.273016e+01  -2.299141e+01
  -3.063242e+01  -1.066687e+01
  -1.062385e+02  -9.110492e+00
  -5.417683e+01  -4.220266e+01
   6.866122e+01  -4.109836e+01
   1.719239e+02  -1.144417e+01
   1.259103e+02   2.242829e+01
  -1.235896e+00   8.302157e+01
  -1.214123e+02   5.157063e+01
  -1.200384e+02  -2.256666e+00
  -3.925295e+01  -5.104350e+01
   7.389371e+01  -4.429375e+01
   6.333206e+01   1.601031e+01
   9.684177e+00   6.794805e+01
  -6.064116e+01   2.718179e+01
  -5.250607e+01  -1.750770e+01
  -5.649581e+01  -4.208732e+01
  -6.800779e+00  -4.550166e+01
  -6.527334e+01  -1.592925e+01
  -5.329696e+01  -2.779518e+01
  -2.763343e+01  -1.022703e+02
   1.825514e+01  -1.221172e+02
   7.412220e+01  -1.290352e+02
   1.535101e+02  -9.927349e+00
   1.230506e+02   7.175301e+01
   3.059251e+01   1.430502e+02
  -9.530165e+01   7.111307e+01
  -5.443421e+01  -3.281172e+00
   6.294627e+01  -4.195947e+01
   1.369164e+02   3.799067e+01
   9.433972e+01   1.073732e+02
  -9.490666e+01   1.093199e+02
  -1.324779e+02   7.053877e+01
  -1.358615e+02  -2.988416e+01
  -4.298753e+01  -7.432872e+01
   6.680623e+01  -5.303460e+01
   3.295272e+01  -1.886483e+01
  -5.376732e+01   4.199409e+01
  -1.046006e+02  -2.952489e+00
  -6.620854e+01  -1.198980e+02
   8.526663e+01  -1.324560e+02
   1.059197e+02  -5.771440e+01
   8.995285e+01   6.323461e+01
   6.907917e+00   1.708484e+02
  -7.069563e+01   1.445184e+02
  -6.550070e+01  -1.886406e+01
  -8.852377e+01  -1.224215e+02
   1.307385e+01  -7.701875e+01
   3.014535e+01  -6.850338e+00
   6.932163e+01   2.017533e+01
   7.177607e+00   3.128648e+01
  -3.760237e+01  -2.734781e+01
   7.441504e+00   1.890397e+01
   4.549791e+01   1.050362e+02
   5.321534e+01   1.022020e+02
  -5.489328e+01   7.789923e+01
  -1.271659e+02  -4.469491e+00
  -9.722631e+01  -3.024017e+01
   3.257285e+00  -4.193569e+01
   7.725906e+01  -1.902210e+01
   7.454806e+01   2.673629e-01
  -1.237631e+00  -1.290826e+01
  -3.256603e+01   5.634934e+00
  -3.991265e+01   1.628742e+01
   3.006769e+01   6.214066e+00
  -3.042543e+01  -2.218663e+01
  -6.287724e+01   1.472131e+01
  -6.513998e+01  -1.150387e+01
  -2.957712e+01  -7.485757e+01
   8.771988e+01  -1.107982e+02
   1.663963e+02  -6.264601e+01
   1.406670e+02   3.158097e+01
   2.548242e+01   1.386554e+02
  -8.905404e+01   1.587044e+02
  -8.918234e+01   9.711133e+01
  -6.087623e+01   1.964848e+01
  -5.117253e+01  -4.443112e+01
   2.512864e+01   1.270922e+00
  -3.135947e+00   4.867733e+00
  -2.399624e+01  -1.951077e+01
  -3.052318e+01  -9.459614e+01
   1.973428e+01  -3.714481e+01
   5.779118e+01   1.065564e+01
   5.962113e+01   9.056993e+01
  -2.439744e+00   1.023235e+02
  -8.191149e+01   3.562483e+01
  -1.046365e+02  -5.741861e+01
  -5.052535e+01  -9.804918e+01
   8.239218e+01  -6.798885e+01
   9.660832e+01  -3.368211e+01
   2.822915e+01   5.391905e+01
  -2.081268e+01   6.219733e+01
  -2.752495e+01   4.931110e+01
   1.461041e+01   4.437749e+00
   7.296323e+01   5.747104e+00
   2.849186e+01   7.300519e+00
  -7.286226e+01   4.816000e+01
  -8.573073e+01   5.977001e+01
  -5.660646e+01  -9.309558e+00
   1.391448e+01  -6.951489e+01
   6.259654e+01  -7.371918e+01
   4.529300e+01   8.481422e+00
   8.752825e-01   4.218972e+01
  -2.030046e+01   4.015451e+01
  -3.639992e+01  -2.092525e+01
  -8.299230e+00  -6.667112e+01
   1.260042e+00  -3.260151e+01
   3.388814e+01   6.941270e-01
   4.028075e+01   3.610221e+01
   3.771241e+01   2.488719e+01
  -3.586103e+01  -2.067159e+01
   1.449152e+00  -5.519279e+00
  -2.128128e+01   4.306987e+01
  -2.464517e+01   3.388955e+01
  -4.373048e+01   2.630661e+01
  -6.987487e+01  -3.191366e+01
  -2.951137e+01  -3.229014e+01
   4.710230e+01  -1.314361e+01
   2.620666e+01   2.559859e+01
   1.610714e+01   4.397024e+01
  -4.414961e+01   3.337151e+01
  -7.058343e+01  -2.867990e+01
  -3.791863e+01  -6.284230e+01
   1.389486e+01  -4.361689e+01
   7.571580e+01  -2.123928e+01
   6.542326e+00  -7.038003e-01
  -2.459531e+01   2.853308e+01
  -1.878113e+01  -1.498375e+01
   2.328169e+01  -4.612114e+01
   8.310497e+01  -3.513846e+01
