
 $NMID
 id='ANONYMOUS ', fmtdat='(2E16.6)'
 volume=1.0
 tramp=1.0
 $END
   2.895197e+03   9.461397e+01
   2.119235e+03   1.341207e+03
  -2.639703e+02   2.234467e+03
  -1.439388e+03   3.476634e+02
  -7.885322e+02  -4.307796e+02
   3.879530e+02  -4.779025e+02
   5.359843e+02   3.659824e+02
   6.784131e+01   7.467235e+02
  -6.463880e+02   4.765472e+02
  -6.060086e+02  -1.613207e+02
  -3.054717e+02  -6.046195e+02
   1.612304e+02  -5.796138e+02
   4.894122e+02  -9.030715e+01
   3.404647e+02   4.584464e+02
  -2.574596e+02   4.606387e+02
  -4.118413e+02  -1.774152e+01
  -1.816828e+02  -4.326522e+02
   2.601701e+02  -4.616201e+02
   3.738380e+02  -3.077148e+01
   2.967321e+02   2.424002e+02
  -3.305352e+01   3.762490e+02
  -1.403398e+02   1.890113e+02
  -1.196417e+02   4.342201e+00
   5.941107e+01   9.534236e+00
   2.828155e+02   2.100141e+02
   6.617600e+01   2.833940e+02
  -3.040587e+02   1.715429e+02
  -5.445864e+02  -1.445359e+02
  -2.552004e+02  -2.513185e+02
   2.562860e+02  -3.152954e+02
   4.427958e+02   4.995953e+01
   2.155442e+02   3.249386e+02
  -2.174632e+02   2.905749e+02
  -4.014502e+02   1.284291e+02
  -2.538929e+02  -1.278433e+02
  -5.094159e+01  -3.044431e+02
   1.007710e+02  -1.791970e+02
   1.256151e+02   1.330815e+02
  -8.212190e+01   1.925834e+02
  -3.070444e+02  -1.480051e+00
  -1.543927e+02  -4.956309e+02
   2.928793e+02  -4.183643e+02
   3.749653e+02   5.651827e+01
   1.806706e+02   3.728639e+02
  -1.700761e+02   2.076494e+02
  -2.161481e+02  -2.992708e+02
   1.322969e+02  -3.779205e+02
   3.882233e+02  -3.676523e+01
   3.118372e+02   2.493376e+02
   5.490982e+01   4.254753e+02
  -2.859065e+02   2.274461e+02
  -3.677607e+02  -9.683741e+01
  -2.313020e+02  -2.491505e+02
   7.010946e+01  -2.705784e+02
   3.236060e+02  -3.662749e+01
   1.616941e+02   1.234894e+02
  -3.842960e+01   7.296408e+01
  -7.880616e+01  -7.909429e+01
   7.823902e+01  -8.330187e+01
   2.131739e+02   6.727822e+01
   1.069080e+02   1.940551e+02
  -1.241589e+02   1.895421e+02
  -2.595145e+02   2.496826e+01
  -1.105032e+02  -8.319958e+01
   6.413449e+01  -1.676411e+02
   1.702398e+02  -1.977753e+02
   2.574495e+02  -9.578460e+01
   2.053069e+02   1.317389e+02
   1.378636e+01   2.579583e+02
  -8.831706e+01   2.658149e+02
  -1.162615e+02   8.621491e+01
  -3.709786e+01  -3.343475e+01
  -7.094750e+01   7.955976e+01
  -1.287098e+02   4.054380e+01
  -1.735028e+02  -5.519737e+01
  -1.040322e+02  -1.839763e+02
   5.862450e+01  -1.598213e+02
   1.504777e+02   4.568310e+01
   1.337506e+02   1.864899e+02
   7.756047e+00   1.738197e+02
  -1.688758e+02   5.709623e+01
  -2.662292e+02  -1.412904e+02
  -1.621973e+02  -2.327957e+02
   8.609566e+01  -1.801653e+02
   1.377425e+02  -8.203201e+01
   1.230656e+02   1.871343e+01
   6.669513e+01  -4.505223e+00
   1.438105e+02  -3.844632e+00
   2.655640e+02   2.565188e+01
   2.098367e+02   2.352459e+02
   1.652631e+01   2.540861e+02
  -2.759113e+02   2.166897e+02
  -3.898450e+02   9.964592e+01
  -2.255909e+02  -1.088432e+02
   2.687211e+00  -2.024046e+02
   8.437177e+01  -1.869181e+02
   4.415846e+01  -4.684989e+01
  -4.957965e+01   5.246473e+01
  -1.176947e+02  -2.447559e+00
  -1.732450e+01  -1.165157e+02
   1.142211e+02  -9.065090e+01
   1.029879e+02   5.429130e+01
  -2.906950e+01   1.302560e+02
  -9.825659e+01   3.051411e+01
  -1.247383e+02  -1.791671e+02
   1.097498e+02  -2.179961e+02
   1.810970e+02  -1.625936e+02
   2.276154e+02   8.695901e+01
   1.643893e+02   1.831864e+02
   4.777765e+01   1.784640e+02
  -5.569361e+01   9.440835e+01
  -9.923894e+01   3.472118e+01
  -6.010227e+01  -1.764992e+01
   4.438642e+01   5.282404e+01
   2.673017e+01   6.939319e+01
  -7.293771e+01   7.368857e+01
  -1.369113e+02  -4.119452e+01
  -4.435247e+01  -7.322818e+01
   3.127404e+01  -3.420774e+01
   2.890290e+01   2.855783e+01
  -9.989717e+01   6.572215e+01
  -1.971360e+02  -2.334989e+01
  -1.571385e+02  -1.191756e+02
  -1.480126e+01  -1.976058e+02
   1.222219e+02  -1.699164e+02
   1.993249e+02  -9.169494e+01
   6.903999e+01   4.576933e+01
   3.704664e-01   4.898752e+01
  -8.654524e+01   8.507904e+00
   1.057767e+01  -7.593536e+01
   1.383790e+02  -2.163333e+01
   1.001051e+02   8.465264e+01
   2.171813e+01   1.336616e+02
  -5.684631e+01   1.061584e+02
  -1.086651e+02   1.370468e+01
  -3.880184e+01  -5.715822e+01
   9.449201e+00   1.754617e+00
   2.800599e+01   6.026028e+01
  -8.999149e+01   6.716016e+01
  -1.270262e+02   9.930127e+00
  -1.186423e+02  -1.052085e+02
   3.260926e+00  -1.468273e+02
   1.119633e+02  -8.173084e+01
   1.397483e+02  -3.356622e+01
   1.267187e+01   7.889924e+01
  -5.004710e+01   9.099332e+01
  -6.285505e+01  -3.880126e+00
  -2.183200e+01   1.392326e+01
  -8.276957e+00  -3.079756e+01
  -1.448249e+01   1.008513e+00
  -5.350437e+01   1.573261e+01
  -6.258923e+01  -8.677781e+01
   1.325082e+01  -1.325798e+02
   1.282317e+02  -7.054451e+01
   1.647760e+02   1.259532e+01
   1.472868e+02   1.112746e+02
   3.159846e+01   1.803357e+02
  -1.034877e+02   1.435051e+02
  -1.050654e+02   4.178738e+00
  -5.562674e+01  -2.188932e+01
  -1.794561e+01  -1.957268e+01
  -3.598193e+01   2.498331e+01
  -4.906799e+01   4.368675e+00
  -2.966454e+01  -2.167734e+01
   4.498225e+01  -7.178590e+01
   8.852895e+01  -3.801039e+01
   8.280499e+01   4.275582e+01
  -2.854935e+01   8.619524e+01
  -1.077156e+02   2.407103e+01
  -1.610187e+02  -3.429827e+01
  -3.315699e+01  -1.467692e+02
   9.923229e+01  -1.810689e+02
   1.865303e+02  -1.732755e+01
   1.707085e+02   7.728030e+01
   4.335620e+01   1.239528e+02
  -5.026386e+01   1.054825e+02
  -6.436887e+01   3.756035e+01
  -7.236014e+01   3.900482e+01
  -4.484139e+01   8.865365e+01
  -6.533174e+01   5.433123e+01
  -9.566750e+01  -2.562387e+01
  -5.047421e+01  -9.414688e+01
  -2.742540e+00  -1.585164e+02
   6.029370e+01  -9.524738e+01
   1.010567e+02   5.021794e+00
   6.183123e+01   1.155377e+02
  -1.835389e+00   1.309950e+02
  -5.341571e+01   4.359727e+01
  -5.849892e+01  -3.903906e+01
   1.216375e+00  -6.954218e+00
   1.589332e+01   3.224085e+00
  -3.435404e+01  -1.015311e+01
  -4.045122e+01  -2.369317e+01
   7.402129e-01  -2.140834e+01
   8.619129e+01  -1.112669e+01
   9.867371e+01   2.762224e+00
   9.663058e+01   7.576459e+01
   8.095808e+00   6.684799e+01
  -7.103235e+01   4.536448e+01
  -1.012111e+02   2.853464e+01
  -2.416220e+01  -3.950323e+01
   2.449611e+01  -2.915156e+01
   2.738908e+01   1.576429e+01
  -1.218709e+01   2.653870e+01
  -5.283646e+01   5.883994e+01
  -4.621139e+01  -2.656198e+01
  -2.055725e+01  -5.763624e+01
  -3.949887e+01  -1.654849e+01
  -3.300693e+01  -3.491157e+00
  -5.420466e+01  -2.762238e+01
  -5.754368e+01  -6.858498e+01
   3.414448e+01  -9.361702e+01
   1.119090e+02  -1.006691e+02
   1.325272e+02  -3.025511e+01
   6.291272e+01   7.180196e+01
   4.924687e-01   9.307204e+01
  -7.335541e+01   5.704199e+01
  -3.716051e+01  -2.314187e+01
   6.091088e+01  -5.819971e+01
   8.957968e+01   2.547901e+01
   6.037448e+01   6.429627e+01
  -5.370357e+01   8.629925e+01
  -1.291456e+02  -1.822631e+01
  -1.190865e+02  -4.816330e+01
  -1.041183e+01  -6.984070e+01
   4.822937e+01  -5.885840e+01
   5.727431e+01  -1.795944e+00
  -1.282268e+01   3.343689e+01
  -5.430333e+01  -8.555290e+00
  -2.230882e+01  -7.729903e+01
   7.115545e+01  -9.775794e+01
   1.407039e+02  -2.095017e+01
   7.563550e+01   5.814348e+01
  -1.731152e+01   1.438189e+02
  -6.950740e+01   1.038711e+02
  -6.347091e+01  -4.650060e+00
  -2.916044e+01  -6.355471e+01
   6.972713e-01  -7.653118e+01
   2.420388e+01  -1.757224e+01
   2.726695e+01   2.192599e+01
   1.662782e+01   7.074142e+00
  -4.127575e+00  -1.665779e+01
   3.749593e+01   1.644895e+00
   3.320271e+01   5.311389e+01
   2.938650e+01   7.590012e+01
  -3.685914e+01   3.101106e+01
  -9.475491e+01  -2.819521e-01
  -6.134437e+01  -8.238264e+01
  -1.803962e+01  -3.215565e+01
   6.386502e+01  -1.180595e+01
   6.806900e+01  -1.108527e+01
  -2.322399e+01   1.352276e+01
  -2.599642e+01   6.543043e+00
  -8.411061e+00  -2.487566e+00
   1.559424e+01   1.170491e+01
  -7.694353e+00  -1.881055e+01
  -2.811881e+01  -1.967796e+01
  -4.770530e+01  -1.448043e+01
   1.859466e+01  -5.385726e+01
   9.048073e+01  -3.648087e+01
   1.241207e+02  -1.458167e+00
   8.535297e+01   7.831474e+01
   1.890607e+01   1.122342e+02
  -8.475173e+01   1.027022e+02
  -1.020808e+02   2.969894e+01
  -4.958256e+01  -4.046768e+01
  -3.686657e-01  -3.447390e+01
  -3.085841e+00  -7.015943e+00
   4.677187e+00  -1.416869e+01
  -9.152767e+00  -2.542000e+01
  -2.816903e+01  -5.396055e+01
   4.347920e+01  -3.333597e+01
   5.718330e+01   2.139408e+01
   4.219275e+01   8.136534e+01
  -2.130678e+01   7.989926e+01
  -5.974421e+01   2.179789e+01
  -7.781449e+01  -5.044377e+01
  -3.016379e+01  -7.359493e+01
   4.810990e+01  -2.621791e+01
   7.337366e+01   1.396159e+01
   1.287071e+00   5.928526e+01
  -2.026397e+01   1.606694e+01
  -2.743180e+01   1.940186e+01
   2.090856e+01   9.062831e+00
   3.613780e+01   2.148861e+00
   2.459871e+01   6.565508e+00
  -4.011490e+01   5.576632e+01
  -9.460222e+01   2.451715e+01
  -5.891168e+01  -2.514700e+01
   2.004269e+01  -7.562547e+01
   1.897475e+01  -7.249278e+01
   1.521857e+01  -8.051637e+00
  -1.247007e+01   4.123258e+01
  -6.886110e+00   1.792871e+01
  -2.789935e+01  -3.078743e+01
   2.647599e+01  -1.929275e+01
   4.100594e+00  -3.516754e+01
   2.544047e+01   2.959162e+01
   3.097693e+01  -5.284766e+00
   2.756521e+01   7.034906e+00
   1.590191e+01  -7.805474e+00
   9.555403e+00  -7.265665e+00
  -7.455066e+00   1.279526e+01
  -7.825326e+00   2.736551e+01
  -2.261035e+00   9.284836e-01
  -7.687510e+01  -5.666163e+01
   1.739718e+01  -5.595965e+01
   3.257739e+01   5.359431e-01
   4.043096e+01   3.553676e+01
   3.289864e+01   3.592257e+01
  -1.337562e+01   3.038930e+01
  -4.157323e+01  -2.813916e+01
  -1.538547e+01  -3.113075e+01
   2.218707e+01  -6.402913e+01
   4.367671e+01  -2.456670e+00
  -1.018982e+00  -1.164807e+01
  -2.532879e+01  -5.781828e+00
  -3.697791e+01  -2.633320e+01
   3.940701e+01  -1.234486e+01
   5.547460e+01  -3.689915e+01
