
 $NMID
 id='ANONYMOUS ', fmtdat='(2E16.6)'
 volume=1.0
 tramp=1.0
 $END
  -3.291716e+03  -8.046683e+01
  -2.367966e+03  -2.153634e+03
   3.861739e+02  -2.569071e+03
   1.675387e+03  -8.628656e+02
   8.855405e+02   4.979297e+02
  -5.010280e+02   6.921823e+02
  -6.209828e+02  -3.951172e+02
  -3.389951e+01  -8.851087e+02
   6.347326e+02  -5.486771e+02
   7.857903e+02   7.787696e+01
   2.936201e+02   7.597595e+02
  -1.820336e+02   7.633261e+02
  -5.474057e+02   1.945453e+02
  -2.526660e+02  -5.773542e+02
   1.966003e+02  -6.181043e+02
   5.647895e+02  -1.132822e+01
   2.484778e+02   5.531099e+02
  -3.111233e+02   5.607878e+02
  -5.536616e+02   4.585851e+01
  -3.803326e+02  -3.646581e+02
  -2.453677e+01  -3.647254e+02
   2.047409e+02  -2.001176e+02
   1.676623e+02  -4.331865e+01
  -4.309562e+01   1.376832e+01
  -3.542282e+02  -1.816160e+02
  -1.195696e+02  -3.438902e+02
   3.803136e+02  -2.727417e+02
   6.905519e+02   1.398483e+02
   3.852958e+02   4.518180e+02
  -2.937113e+02   3.121637e+02
  -5.747329e+02  -7.942426e+01
  -2.154949e+02  -3.922000e+02
   2.706544e+02  -3.943269e+02
   4.765462e+02  -1.407630e+02
   3.515363e+02   1.495113e+02
   2.400738e+01   4.009401e+02
  -1.441853e+02   2.399809e+02
  -1.242052e+02  -1.071280e+02
   1.697678e+02  -2.988476e+02
   4.183463e+02  -6.759273e+00
   1.748424e+02   6.310923e+02
  -2.972743e+02   5.898690e+02
  -5.335327e+02  -7.402896e+00
  -1.960339e+02  -4.293971e+02
   2.596557e+02  -2.683553e+02
   2.601497e+02   2.865063e+02
  -9.915617e+01   4.491398e+02
  -4.054033e+02   5.794068e+01
  -4.182698e+02  -3.082906e+02
  -1.177603e+02  -4.675016e+02
   3.048418e+02  -2.739930e+02
   4.755481e+02   9.896670e+01
   2.964648e+02   3.070101e+02
  -8.195071e+01   3.625534e+02
  -3.716140e+02   7.470827e+01
  -2.016684e+02  -1.165105e+02
   3.577832e+01  -1.027821e+02
   1.583602e+02   9.079259e+01
  -1.095340e+02   1.498699e+02
  -3.187437e+02  -7.776397e+01
  -1.140749e+02  -2.458348e+02
   2.080772e+02  -2.349872e+02
   3.055262e+02  -6.052319e+01
   1.942060e+02   1.117419e+02
  -7.160286e+01   1.882913e+02
  -2.398975e+02   2.640286e+02
  -3.179317e+02   1.040264e+02
  -2.511002e+02  -1.533881e+02
  -8.606371e+01  -3.534245e+02
   9.194693e+01  -3.035244e+02
   8.859934e+01  -1.272980e+02
   5.308030e+01  -2.884491e+01
   3.852788e+01  -1.057792e+02
   1.661418e+02  -5.876490e+01
   2.191751e+02   4.485042e+01
   1.052906e+02   2.653413e+02
  -1.249393e+02   1.896076e+02
  -1.908251e+02  -2.071195e+01
  -1.338818e+02  -2.366120e+02
  -2.173835e+00  -2.240250e+02
   2.272960e+02  -8.243450e+01
   3.346937e+02   2.032988e+02
   1.726973e+02   3.288938e+02
  -6.085189e+01   2.087322e+02
  -1.793106e+02   1.061148e+02
  -1.496054e+02   2.282351e+01
  -1.143167e+02   1.884592e+01
  -2.033452e+02   3.100154e+01
  -3.961745e+02  -1.180395e+02
  -2.840181e+02  -3.016446e+02
   1.068338e+01  -3.915351e+02
   3.510407e+02  -3.112385e+02
   3.943199e+02  -1.462282e+02
   2.914879e+02   1.118539e+02
   5.807820e+00   2.671974e+02
  -1.271508e+02   2.218247e+02
  -5.779233e+01   3.825830e+01
   6.168008e+01  -7.078805e+01
   1.406457e+02   2.090560e+01
   4.935015e+01   1.322586e+02
  -1.457345e+02   1.544277e+02
  -1.555589e+02  -4.236232e+01
   1.335318e+01  -1.282347e+02
   1.498002e+02  -1.141287e+01
   1.555996e+02   2.130214e+02
  -9.633295e+01   2.553433e+02
  -2.116314e+02   1.775014e+02
  -2.698929e+02  -4.780444e+01
  -2.178401e+02  -2.146129e+02
  -6.920309e+01  -2.259937e+02
   1.191391e+02  -1.311835e+02
   1.441454e+02  -3.736506e+01
   4.638765e+01   2.877198e+01
  -6.826785e+01  -5.108203e+01
  -3.109697e+01  -8.320278e+01
   1.088116e+02  -1.031035e+02
   1.735994e+02   4.834098e+01
   5.348437e+01   1.169851e+02
  -7.942426e+01   1.732509e+01
  -6.839940e+01  -6.701942e+01
   1.214141e+02  -7.372634e+01
   2.168997e+02   1.894542e+01
   2.161551e+02   1.454890e+02
   5.799434e+00   2.061972e+02
  -1.566163e+02   1.976323e+02
  -2.823145e+02   1.266589e+02
  -1.279861e+02  -6.079825e+01
   1.938400e+01  -9.383727e+01
   6.456381e+01  -3.573469e+00
  -5.611197e+01   8.208047e+01
  -1.775083e+02   5.238301e+01
  -1.690540e+02  -1.044585e+02
  -4.711935e+01  -1.848350e+02
   9.858776e+01  -1.085280e+02
   1.418932e+02  -1.908954e+01
   4.425355e+01   2.882381e+01
  -1.799793e+01  -8.795541e+00
  -1.848881e+01  -8.455390e+01
   1.234396e+02  -1.124096e+02
   1.840693e+02  -5.257413e+01
   1.245823e+02   1.426595e+02
   3.352802e+00   2.012221e+02
  -1.517561e+02   1.630377e+02
  -1.653429e+02   7.597761e+00
  -2.009369e+01  -1.228282e+02
   9.463666e+01  -9.344283e+01
   7.909500e+01  -3.084490e+01
   1.067704e+01   1.772962e+01
  -2.967791e+01   1.363636e-02
   1.206076e+01  -1.256418e+01
   5.829359e+01   1.846697e+01
   8.905832e+01   7.178361e+01
  -1.409103e+01   1.609820e+02
  -1.250059e+02   1.122195e+02
  -2.090857e+02  -8.367674e-01
  -1.390167e+02  -1.328087e+02
  -2.721833e+01  -1.857887e+02
   1.177958e+02  -1.660750e+02
   1.342854e+02  -1.908040e+01
   5.858807e+01   4.361452e+01
   3.977666e+01   7.050557e+01
   6.495019e+01  -2.118864e+01
   7.766465e+01  -1.791967e+01
   4.277548e+01   4.235805e+01
  -5.551330e+01   6.807646e+01
  -1.102915e+02   1.650167e+01
  -8.674490e+01  -4.186369e+01
   1.309413e+01  -6.557489e+01
   1.281975e+02  -7.451996e+01
   1.595922e+02   3.082331e+01
   8.414785e+01   2.097926e+02
  -1.040950e+02   1.847260e+02
  -2.672131e+02   4.393980e+01
  -2.099246e+02  -9.439109e+01
  -5.568251e+01  -1.500411e+02
   9.313656e-01  -9.079424e+01
   7.904232e+01  -6.926543e+01
   7.476929e+01  -6.737385e+01
   5.013571e+01  -6.608790e+01
   8.191623e+01  -7.016612e+01
   1.064054e+02   1.391165e+01
   7.558553e+01   1.423403e+02
   5.705009e+01   2.025979e+02
  -8.586311e+01   1.554459e+02
  -1.638670e+02  -1.226895e+01
  -1.243167e+02  -1.490200e+02
  -5.137578e+00  -1.783549e+02
   8.411136e+01  -8.394081e+01
   4.848294e+01  -1.316108e+01
  -3.565127e+00   5.257595e+01
  -2.474232e+01   1.994492e+01
   4.409116e+00   1.158705e+01
   6.075180e+01  -1.031870e+01
   5.477155e+00   6.650129e+01
  -5.054724e+01   2.745969e+01
  -1.546966e+02  -2.682613e+01
  -1.115558e+02  -4.437677e+01
   1.060782e+01  -8.701612e+01
   9.080868e+01  -4.695294e+01
   1.287908e+02  -1.628827e+01
   3.060448e+01   9.741474e+00
  -2.892909e+01   1.738635e+01
  -6.227475e+01  -1.017582e+01
  -2.925361e+01  -5.375342e+01
   8.850456e+01  -5.480416e+01
   6.645619e+01  -4.344248e+00
   1.325822e+01   6.794857e+01
   6.514850e+01   2.729224e+01
   4.214126e+01   1.971825e+01
   4.850471e+01   1.338134e+01
   3.084451e+01   4.896467e+01
  -3.327963e+01   1.400696e+02
  -1.180875e+02   1.400141e+02
  -1.837890e+02   5.185515e+01
  -9.435014e+01  -8.595317e+01
  -8.380409e+00  -1.160146e+02
   9.960658e+01  -3.864730e+01
   6.105967e+01   1.743523e+01
  -4.594677e+01   2.531929e+01
  -1.449882e+02  -2.893334e+01
  -7.167066e+01  -8.480149e+01
   6.147395e+01  -7.354479e+01
   1.451522e+02  -2.291569e+01
   1.758780e+02   2.211700e+01
   5.041153e+01   6.078640e+01
  -3.928317e+01   4.161309e+01
  -2.611390e+01   2.278896e+01
   2.880530e+01  -2.395807e+00
   9.532772e+01   7.895310e+00
  -8.413823e+00   9.893006e+01
  -1.025736e+02   1.265983e+02
  -1.555656e+02   4.660653e+01
  -1.081754e+02  -8.601632e+01
  -1.513591e+01  -1.615994e+02
   9.958418e+01  -1.402540e+02
   9.508811e+01  -1.474473e+01
   2.666057e+01   6.653533e+01
  -1.614166e+01   1.101792e+02
  -5.377288e+01   3.735164e+00
  -4.983357e+01  -2.539740e+01
   1.059112e+01  -1.048399e+01
   2.129939e+01   3.910599e+01
  -1.128309e+01  -2.066598e+01
  -1.646737e+01  -6.529047e+01
  -5.594374e+01  -9.614833e+01
   4.212466e+01  -2.573559e+01
   1.301572e+02   7.778129e+01
   9.976983e+01   1.501899e+01
   1.452682e+01   7.595887e+01
  -8.544625e+01   2.387835e+01
  -8.276483e+01   8.258268e+00
   1.507124e+00  -4.195036e-01
   1.617064e+01  -3.761145e+01
   1.118791e+01  -1.710807e+01
  -2.459985e+01  -8.188829e+00
   2.817233e+00   2.765769e+01
   7.471650e+01   1.446429e+01
   7.650773e+01   4.197652e+01
  -1.283218e+01   6.885202e+01
  -1.234376e+02   8.055412e+01
  -1.547609e+02   4.400683e+01
  -1.213435e+02  -6.758707e+01
  -6.002333e+01  -1.560299e+02
   7.228929e+01  -1.183721e+02
   1.128421e+02  -7.671699e+01
   7.199188e+01   1.121183e+01
   1.437972e+01   4.754762e+01
   5.190444e+00   2.007632e+01
  -2.789165e+01   2.342634e+01
   4.834060e+01   9.469937e+00
  -1.007807e+01   5.891342e+01
  -1.084907e+01   5.077087e+01
  -6.793557e+01  -4.282547e+01
  -8.771410e+01  -1.066511e+02
  -3.922261e+00  -8.065765e+01
   1.015480e+02  -1.795598e+01
   8.737750e+01   1.133277e+02
   3.157179e+01   7.543440e+01
  -5.377848e+01   5.388864e+01
  -8.587755e+01  -4.754547e+01
  -1.976953e+01  -5.794756e+01
   9.272783e+00  -5.870298e+01
   4.848275e+01  -1.170030e+00
  -4.533802e+01  -1.976279e+01
  -7.886333e+01  -1.633448e+01
  -2.683049e+01  -1.608930e+01
   2.654872e+01  -4.549273e+01
   7.233573e+01  -2.993620e+01
   6.634468e+01   9.103187e+00
   1.492179e+01   7.347814e+01
  -3.999941e+01   6.689663e+01
  -1.324121e+01   1.871824e+01
   2.190481e+00  -3.270400e+01
   1.936420e+01  -3.098730e+01
   2.567341e+01   1.889999e+01
   2.275745e+01   3.586205e+01
  -1.803892e+01   4.381119e+01
  -5.891853e+01  -1.842928e+00
  -3.936910e+01  -3.431181e+01
  -1.618728e+01  -6.829119e+00
   2.972039e+01   1.643483e+01
   9.089884e+00   2.403847e+01
  -5.352035e-02  -2.759831e+01
   1.958347e+01  -4.168977e+01
   2.416656e+01  -1.942407e+00
   5.027569e+01   5.225159e+01
   3.302982e+00   1.011425e+02
  -2.903443e+01   1.313970e+01
  -1.478433e+01  -7.750052e+01
  -1.369326e+01  -5.450525e+01
   2.965011e+01  -5.052953e+01
   7.957741e+01   8.174349e+00
   1.145982e+01   3.323163e+01
  -3.777379e+01   5.485643e+01
  -5.414146e+01   2.756433e+01
  -8.393720e+00   2.874103e+01
   6.358210e+00  -2.353533e+01
  -1.352062e+01   2.452639e+01
  -6.025728e+01   1.586441e+01
  -1.037058e+02   4.896048e+01
