
 $NMID
 id='ANONYMOUS ', fmtdat='(2E16.6)'
 volume=1.0
 tramp=1.0
 $END
   3.301404e+03   1.583971e+02
   2.005576e+03   1.581031e+03
  -4.409513e+02   1.811380e+03
  -1.559019e+03   6.673430e+02
  -8.610710e+02  -2.081705e+02
   1.654838e+02  -3.847790e+02
   2.688848e+02   3.489200e+02
   1.563631e+02   6.464596e+02
  -6.162235e+02   5.795584e+02
  -6.325338e+02  -2.119220e+01
  -3.989582e+02  -5.907207e+02
   2.172454e+02  -6.253887e+02
   3.895160e+02  -7.480894e+01
   3.177601e+02   3.371147e+02
  -2.229994e+02   5.566645e+02
  -4.475973e+02   4.179365e+00
  -2.736233e+02  -4.170817e+02
   2.095474e+02  -5.859658e+02
   4.887376e+02  -9.744479e+01
   3.528974e+02   2.050060e+02
   1.917401e+01   3.620847e+02
  -1.694532e+02   2.695095e+02
  -6.375440e+01   7.688874e+01
   1.555709e+02   5.131698e+01
   2.297561e+02   2.996217e+02
   2.445209e+01   3.109560e+02
  -3.808574e+02   1.731434e+02
  -5.797117e+02  -1.742670e+02
  -2.228874e+02  -3.840732e+02
   3.290676e+02  -2.454165e+02
   5.481582e+02   1.865402e+02
   1.129624e+02   4.200413e+02
  -3.014502e+02   2.711605e+02
  -4.823544e+02   8.519894e+01
  -3.155831e+02  -1.834038e+02
  -7.168318e+01  -3.264050e+02
   8.893392e+01  -1.993337e+02
  -7.300454e+00   6.834224e+01
  -1.905228e+02   2.111299e+02
  -2.985190e+02  -1.071217e+02
  -9.411496e+01  -4.810347e+02
   3.186816e+02  -4.486743e+02
   3.655235e+02   1.334700e+02
   1.707454e+02   2.892765e+02
  -1.802073e+02   1.394879e+02
  -1.386992e+02  -3.233426e+02
   2.104628e+02  -4.631593e+02
   4.099830e+02   1.231131e+00
   4.426356e+02   3.701739e+02
   7.083810e+01   4.664157e+02
  -3.046284e+02   2.694431e+02
  -4.616777e+02  -1.809383e+02
  -3.765794e+02  -2.729673e+02
   1.428073e+02  -2.884781e+02
   2.960500e+02  -5.206104e+01
   1.822418e+02   9.808210e+01
  -3.064463e+01   5.083487e+01
  -9.012807e+01  -6.071674e+01
   8.035054e+01  -7.640836e+01
   2.246520e+02   7.856019e+01
   8.792671e+01   2.242822e+02
  -1.253871e+02   2.042859e+02
  -3.241447e+02   4.491725e+01
  -2.080657e+02  -1.406668e+02
   2.170445e+01  -2.532390e+02
   3.068617e+02  -3.176663e+02
   3.602925e+02  -1.342833e+02
   2.151753e+02   1.913462e+02
   5.341343e+01   3.253326e+02
  -3.726364e+01   3.174712e+02
  -6.989376e+01   1.359761e+02
  -3.916273e+01   8.509897e+01
  -1.234411e+02   6.792058e+01
  -2.409224e+02   3.630923e+01
  -2.367419e+02  -1.663489e+02
  -9.140666e+01  -2.609553e+02
   1.177332e+02  -1.973440e+02
   2.009176e+02   3.639421e+01
   1.120009e+02   2.582808e+02
  -7.713108e+01   2.737404e+02
  -2.610341e+02   1.432155e+00
  -2.883361e+02  -1.873784e+02
  -1.718772e+02  -3.070837e+02
   1.138245e+02  -2.449483e+02
   1.741098e+02  -1.170176e+02
   1.325273e+02  -6.448175e+01
   1.689370e+02  -1.728930e+01
   2.390342e+02  -2.486938e+01
   3.354305e+02   1.350472e+02
   2.507551e+02   2.911130e+02
  -5.781853e+01   4.172212e+02
  -3.905389e+02   3.062537e+02
  -4.893425e+02   7.146014e+01
  -2.527253e+02  -1.358538e+02
   1.453971e+01  -2.319931e+02
   1.061522e+02  -1.739686e+02
   1.669780e+01  -3.703523e+00
  -9.659488e+01   5.384876e+01
  -1.160879e+02  -3.579278e+01
   2.851388e+01  -1.614606e+02
   1.150198e+02  -1.085216e+02
   9.691298e+01   4.047256e+01
  -4.312898e+01   9.131264e+01
  -1.250761e+02  -2.094066e+01
  -1.523912e+02  -2.313340e+02
   8.747950e+01  -3.271006e+02
   2.096074e+02  -1.839996e+02
   3.250039e+02   1.191505e+02
   2.292181e+02   2.833651e+02
   2.412459e+01   2.776628e+02
  -1.120902e+02   1.155463e+02
  -1.175234e+02  -3.407485e+00
  -2.777135e+01  -4.752339e+01
   2.376518e+01   7.598743e+01
  -4.731704e+00   9.138012e+01
  -1.345436e+02   3.874836e+01
  -1.625456e+02  -5.471228e+01
  -3.209755e+00  -5.840091e+01
   5.615656e+01  -4.285082e-01
   2.780072e+01   8.253949e+01
  -1.399582e+02   4.216002e+01
  -2.900053e+02  -4.815547e+01
  -1.990466e+02  -1.920849e+02
   8.729042e+00  -2.441065e+02
   2.027073e+02  -1.584250e+02
   2.378825e+02  -8.907890e+01
   1.232452e+02   3.343521e+01
  -3.745068e+01   8.779757e+01
  -6.094582e+01  -3.352452e+01
   6.542931e+01  -9.745455e+01
   1.703811e+02  -1.196988e+01
   1.627898e+02   9.514533e+01
   4.587854e+01   1.909320e+02
  -7.211247e+01   1.298719e+02
  -1.369360e+02  -4.542429e+00
  -2.635559e+01  -3.411078e+01
   1.103700e+01   2.877810e+01
  -3.002062e+00   1.307501e+02
  -1.266455e+02   9.843094e+01
  -2.031987e+02  -6.646638e+00
  -1.448147e+02  -1.131106e+02
   6.466224e-01  -1.572771e+02
   1.667867e+02  -1.080442e+02
   1.417039e+02   1.474089e+01
   2.330587e+01   8.486530e+01
  -4.481194e+01   1.226236e+02
  -7.408612e+01   1.512906e+01
   3.886278e+01  -2.764170e+01
   3.473490e+01   3.202154e+00
  -6.720905e+00   3.428659e+01
  -8.024048e+01  -2.092298e+01
  -1.105291e+02  -9.095219e+01
   1.685220e+01  -1.707957e+02
   1.687077e+02  -1.024236e+02
   2.499556e+02   2.221154e+01
   1.935881e+02   1.573351e+02
  -2.371827e+01   2.221658e+02
  -1.228959e+02   1.131620e+02
  -1.308231e+02   1.011504e+01
  -4.387678e+01  -5.761784e+01
  -2.679240e+01  -9.654032e+00
  -8.274138e+01   2.492456e+01
  -8.210194e+01  -1.660438e+00
  -6.426182e+01  -7.557248e+01
   6.294603e+01  -1.113316e+02
   1.066588e+02  -5.679204e+01
   1.100944e+02   4.030235e+01
  -1.619717e+01   1.328379e+02
  -1.380414e+02   2.495277e+01
  -1.622053e+02  -8.296761e+01
  -2.243277e+01  -1.966662e+02
   1.309774e+02  -1.639161e+02
   2.670595e+02  -4.141135e+01
   2.130176e+02   9.323980e+01
   7.181550e+01   2.044976e+02
  -3.800167e+01   1.310494e+02
  -1.113782e+02   6.112567e+01
  -5.546200e+01   5.870061e+01
  -3.065445e+01   5.976766e+01
  -7.130146e+01   4.294808e+01
  -9.117879e+01  -5.390215e+01
  -7.939560e+01  -1.476916e+02
  -7.073935e+00  -2.079572e+02
   1.301074e+02  -1.004416e+02
   1.511792e+02  -7.451577e+00
   8.782020e+01   1.577262e+02
   4.383560e+00   1.755139e+02
  -6.406124e+01   8.630983e+01
  -4.207664e+01  -2.475301e+01
   1.511698e+01  -5.101617e+01
   1.811332e+00  -2.369731e+01
   1.175535e+00  -4.892933e+01
  -8.845160e+01  -3.533477e+01
  -4.438632e+01  -5.517599e+01
   6.207224e+01  -4.216654e+01
   1.573466e+02   4.050774e+01
   1.233746e+02   8.549645e+01
  -7.066033e+00   1.086754e+02
  -1.029089e+02   6.193310e+01
  -1.399435e+02  -2.890235e+01
  -4.613650e+01  -3.563173e+01
   3.858324e+01  -2.161493e+01
   2.782049e+01   3.367837e+01
   2.238086e+00   5.188309e+01
  -1.726881e+01   1.656461e+01
  -4.822516e+01  -5.712796e+00
  -5.403633e+01  -4.090353e+01
  -2.988369e+01  -7.298942e+01
  -3.560029e+01  -3.368633e+01
  -6.161941e+01  -8.305153e+00
  -1.642283e+00  -8.201840e+01
   3.043203e+01  -1.452878e+02
   1.378510e+02  -9.051654e+01
   1.881069e+02   9.111853e+00
   1.215147e+02   9.744252e+01
  -3.824953e+01   1.231588e+02
  -1.073159e+02   6.527362e+01
  -6.930544e+01  -1.586597e+01
   6.130050e+01  -1.736047e+01
   1.210232e+02   3.760485e+01
   9.511069e+01   9.980527e+01
  -1.006650e+02   8.937361e+01
  -1.965059e+02   1.103349e+01
  -1.413704e+02  -6.036732e+01
  -3.165428e+01  -8.563214e+01
   8.907193e+01  -5.112302e+01
   2.511108e+01   4.509787e+00
  -4.842459e+01   4.341330e+01
  -6.529534e+01  -4.096775e+01
  -6.585727e+00  -6.881367e+01
   8.837863e+01  -1.139700e+02
   1.549820e+02  -3.542244e+01
   8.674450e+01   1.057540e+02
  -5.746814e+00   1.665591e+02
  -5.969705e+01   1.283697e+02
  -1.050601e+02  -2.232114e+01
  -4.865644e+01  -1.245595e+02
   3.917058e+01  -9.740824e+01
   5.646837e+01   6.795210e+00
   5.474518e+01   5.655085e+01
   3.088145e+01   6.926045e+00
   1.514773e+01  -1.901098e+01
   4.859823e+01   3.815889e+01
   4.527925e+01   5.277412e+01
  -7.990170e-01   7.938716e+01
  -4.692348e+01   3.531380e+01
  -1.281502e+02  -1.973114e+01
  -6.420168e+01  -7.905711e+01
  -6.259978e+00  -4.569560e+01
   6.836452e+01   1.392750e+01
   8.322782e+01   1.816844e+01
  -4.993988e+00  -1.175744e+01
  -3.408576e+01   4.327798e+01
  -1.332095e+01  -4.618042e+01
   6.430211e+01   1.461867e+00
   6.677711e+00  -8.302997e+00
  -7.420604e+01  -8.420125e+00
  -6.409003e+01  -4.836801e+01
   6.218153e+00  -5.938460e+01
   1.179524e+02  -8.618172e+01
   2.118173e+02  -3.591005e+01
   1.333891e+02   7.191086e+01
   1.591609e+01   1.645528e+02
  -8.189871e+01   1.301425e+02
  -1.111181e+02   3.399188e+01
  -3.452645e+01  -1.916407e+01
  -8.705062e+00  -3.744353e+01
   1.283901e+01  -1.501931e+01
  -7.695163e+00  -1.985052e+01
  -5.813191e+00  -2.195576e+01
  -1.759837e+01  -1.124863e+02
   1.165570e+01  -7.103367e+01
   5.886021e+01   2.852079e+01
   5.202815e+01   1.143799e+02
   1.894134e+01   1.122167e+02
  -7.534944e+01   2.807298e+01
  -8.225206e+01  -6.258511e+01
  -3.024122e+01  -1.282310e+02
   5.379707e+01  -6.650804e+01
   9.228065e+01  -1.519518e+01
   4.713642e+01   5.239191e+01
  -2.785350e+01   3.445258e+01
  -4.471375e+01   3.507660e+01
   2.831400e+01   1.548596e+01
   8.639494e+01   4.249817e+00
   3.477923e+01   2.310909e+01
  -9.699250e+01   6.675703e+01
  -9.648779e+01   5.041288e+01
  -7.624282e+01  -1.549930e+01
  -6.279590e-01  -9.679598e+01
   3.029217e+01  -7.333547e+01
   4.796332e+01  -1.039102e+01
   2.183551e+00   4.647309e+01
  -4.016647e+01   4.779906e+01
  -3.765079e+01  -3.210052e+01
  -3.277110e+00  -5.327561e+01
   1.789909e+01  -2.421372e+01
   5.909319e+01  -2.609106e+00
   3.347506e+01   3.125904e+01
   1.050446e+01   4.031089e+00
  -2.986258e+01  -1.364766e+01
  -2.322573e+01  -7.513701e-01
   4.794592e+00   2.876593e+01
   1.366292e+01   2.282663e+01
  -3.116795e+01   1.350569e+01
  -4.005184e+01  -4.427583e+00
   2.130355e+01  -9.896923e+01
   2.565888e+01  -1.387832e+01
   7.184387e+01   2.983734e+01
   5.182127e+00   4.729094e+01
  -5.102549e+01   5.753456e+01
  -5.956323e+01  -4.087264e+01
  -4.651792e+01  -4.186844e+01
   5.244677e+00  -4.936476e+01
   6.356526e+01  -4.680013e+01
   1.300915e+00  -3.491382e+01
  -5.587283e+01   1.277266e+01
  -2.796494e+01  -4.320964e+01
   2.195705e+01  -1.193166e+01
   6.975688e+01   1.585410e+01
