
 $NMID
 id='ANONYMOUS ', fmtdat='(2E16.6)'
 volume=1.0
 tramp=1.0
 $END
  -3.460320e+03   1.573621e+02
  -2.517918e+03  -1.527120e+03
   2.084270e+01  -1.985371e+03
   1.589058e+03  -9.061924e+02
   1.101768e+03  -4.413702e+01
  -1.531291e+02   3.319129e+02
  -5.412298e+02  -7.182038e+01
  -1.063343e+02  -7.944416e+02
   4.068320e+02  -6.366887e+02
   7.052630e+02  -5.771543e+01
   4.742895e+02   6.595942e+02
  -8.408380e+01   6.871348e+02
  -3.435481e+02   1.647527e+02
  -3.155732e+02  -3.260261e+02
   1.737282e+02  -6.456906e+02
   4.517905e+02  -1.226678e+02
   2.711158e+02   4.644495e+02
  -2.400423e+02   6.026011e+02
  -4.918908e+02   2.061692e+02
  -4.241059e+02  -2.879457e+02
  -4.422020e+01  -3.891932e+02
   1.176020e+02  -2.856510e+02
   1.093448e+02  -8.241201e+01
  -1.270599e+02  -6.739680e+01
  -2.900835e+02  -2.995938e+02
  -9.503795e+01  -3.120160e+02
   4.190812e+02  -1.562844e+02
   7.068519e+02   1.751875e+02
   3.367163e+02   4.252848e+02
  -2.706913e+02   2.256717e+02
  -4.995494e+02  -1.377125e+02
  -2.132060e+02  -4.213636e+02
   2.687904e+02  -3.372138e+02
   4.653736e+02  -9.026784e+01
   3.484528e+02   1.614873e+02
   8.073648e+01   3.470029e+02
  -5.656708e+01   1.878094e+02
   1.846874e+01  -1.037161e+02
   1.465800e+02  -1.986169e+02
   2.863953e+02   7.969410e+01
   1.783383e+02   4.370219e+02
  -3.472469e+02   4.881478e+02
  -3.770538e+02   2.421149e+01
  -2.702648e+02  -2.776165e+02
   2.234547e+02  -1.871102e+02
   2.365944e+02   2.885249e+02
  -1.696563e+02   4.143015e+02
  -4.774424e+02   1.871638e+01
  -4.029439e+02  -3.154933e+02
  -7.482022e+01  -4.584251e+02
   2.959761e+02  -2.744058e+02
   4.641583e+02   1.346358e+02
   3.251374e+02   2.582405e+02
  -1.111283e+02   3.064489e+02
  -3.621509e+02   9.192216e+01
  -2.333455e+02  -1.179577e+02
  -1.885410e+01  -2.506914e+01
   1.003464e+02   4.229729e+01
  -9.865009e+01   9.312488e+01
  -2.986316e+02  -4.086566e+01
  -1.174876e+02  -2.412042e+02
   1.597603e+02  -2.344067e+02
   3.450185e+02  -1.057447e+02
   2.301929e+02   8.234481e+01
  -5.932743e+01   2.356293e+02
  -3.155855e+02   3.561741e+02
  -3.720402e+02   1.475741e+02
  -2.418302e+02  -1.541648e+02
  -6.636727e+01  -3.981994e+02
   3.705011e+01  -3.245670e+02
   5.853561e+01  -1.597704e+02
   1.898988e+01  -6.940160e+01
   1.197633e+02  -6.743648e+01
   2.077227e+02  -6.715793e+01
   2.055302e+02   8.476302e+01
   9.137600e+01   2.856676e+02
  -1.246170e+02   1.873477e+02
  -1.718593e+02  -6.470733e+01
  -1.298215e+02  -2.413589e+02
   3.487089e+01  -2.843381e+02
   2.416147e+02  -1.019969e+02
   3.628044e+02   2.304360e+02
   1.855668e+02   3.375050e+02
  -8.556674e+01   2.793041e+02
  -1.892194e+02   1.499190e+02
  -1.491092e+02   7.193297e+01
  -1.335812e+02   4.666149e+01
  -2.696687e+02   2.846783e+01
  -3.919744e+02  -1.073959e+02
  -2.438780e+02  -3.021763e+02
   2.980413e+01  -4.166008e+02
   3.834787e+02  -3.408766e+02
   4.704838e+02  -1.442707e+02
   2.505819e+02   5.205492e+01
   1.114018e+01   2.538600e+02
  -8.991445e+01   2.331651e+02
   4.247465e+00   1.305925e+01
   8.189082e+01  -7.045004e+01
   1.453546e+02   4.865177e+01
   3.149568e+00   1.494970e+02
  -1.331224e+02   1.020743e+02
  -1.357542e+02  -4.189418e+01
   3.234122e+01  -1.325591e+02
   1.388785e+02   2.919554e+01
   1.702118e+02   2.563130e+02
  -7.635856e+01   3.284325e+02
  -2.159607e+02   1.922629e+02
  -3.002271e+02  -9.553950e+01
  -2.581160e+02  -3.065775e+02
  -8.781891e+01  -2.521982e+02
   1.495565e+02  -1.120651e+02
   1.398609e+02  -2.614828e+01
   1.618444e+01   3.623683e+01
  -3.245822e+01  -6.059644e+01
  -4.924378e+00  -1.197982e+02
   1.394483e+02  -5.036032e+01
   1.496677e+02   5.008524e+01
   3.579794e+01   6.777148e+01
  -8.623425e+01   1.926015e+01
  -3.160573e+01  -7.563147e+01
   1.461067e+02  -1.088688e+02
   2.755814e+02   3.732866e+01
   2.263101e+02   1.908745e+02
  -4.209824e-01   2.647836e+02
  -1.850762e+02   1.811863e+02
  -3.059407e+02   9.139412e+01
  -1.507626e+02  -2.002816e+01
   3.501438e+00  -8.389119e+01
   8.196832e+01   2.706616e+01
  -5.139939e+01   8.518433e+01
  -1.791367e+02   8.175364e+00
  -1.746084e+02  -1.092906e+02
  -2.811814e+01  -2.128353e+02
   8.200223e+01  -1.479385e+02
   1.327396e+02  -2.274865e+01
   7.411966e+01   4.793199e+01
  -1.966575e+01  -3.008961e+01
  -3.039125e+00  -1.074855e+02
   1.080201e+02  -1.229765e+02
   2.091541e+02  -7.807179e+00
   1.714426e+02   1.146071e+02
  -1.319823e+01   1.883746e+02
  -1.867859e+02   1.880149e+02
  -1.779337e+02  -5.380967e+00
  -4.124082e+01  -8.880463e+01
   6.809032e+01  -1.093476e+02
   5.623959e+01  -3.843445e-01
  -2.559080e+01   2.625027e+01
  -5.891320e+01   9.923814e-01
   1.261847e+01  -4.464859e+01
   7.816088e+01   4.026538e-01
   1.110987e+02   6.447121e+01
   6.595540e+00   1.841786e+02
  -1.453650e+02   1.099777e+02
  -2.088317e+02  -9.621845e+00
  -1.337884e+02  -1.618184e+02
  -3.110763e+01  -2.151654e+02
   1.119638e+02  -1.365592e+02
   1.450687e+02  -2.699181e+01
   6.114311e+01   6.653716e+01
   2.657662e+01   3.916474e+01
   5.266565e+01   4.012573e+00
   8.698560e+01   3.390958e+00
   3.344587e+01   5.658962e+01
  -3.480598e+01   9.953042e+01
  -1.174083e+02   5.233595e+01
  -7.589253e+01  -6.114306e+01
   2.618893e+00  -1.062907e+02
   1.398308e+02  -5.869451e+01
   1.931212e+02   8.229796e+01
   7.188186e+01   2.340053e+02
  -1.105608e+02   2.269779e+02
  -2.566510e+02   7.807419e+01
  -2.538191e+02  -9.785483e+01
  -9.148882e+01  -1.784882e+02
   6.988750e+01  -1.214887e+02
   8.912673e+01  -8.050469e+01
   7.407380e+01  -7.388930e+01
   4.648280e+01  -9.495175e+01
   6.497469e+01  -7.101483e+01
   1.206320e+02   2.918405e+01
   1.069659e+02   1.214460e+02
   2.739224e+01   2.406325e+02
  -8.993650e+01   1.771479e+02
  -1.450738e+02  -2.130387e+00
  -8.583569e+01  -1.381905e+02
  -3.999303e-01  -1.729090e+02
   7.768190e+01  -7.616395e+01
   7.386877e+01   2.891396e+01
  -2.866548e+00   5.356217e+01
  -9.568017e-01   4.006940e+01
   1.362132e+01   7.142848e+00
   6.734030e+01   3.951653e+01
   5.964898e+01   6.887994e+01
  -4.655969e+01   3.135257e+01
  -1.501141e+02  -1.743299e+00
  -1.421816e+02  -7.235738e+01
  -9.025255e-01  -9.436170e+01
   1.061951e+02  -5.157738e+01
   1.363650e+02   1.705415e+01
   7.545320e+01   5.100851e+01
  -3.922913e+01   4.815764e+01
  -6.359470e+01  -1.426908e+01
  -8.777175e-01  -5.807885e+01
   3.346188e+01  -4.414250e+01
   7.143675e+01   1.047280e+01
   2.947674e+01   7.252283e+01
   2.017503e+01   4.335441e+01
   4.434541e+01  -6.789571e+00
   6.146007e+01  -2.645993e-01
   4.312750e+01   8.265642e+01
  -2.838143e+01   1.655641e+02
  -1.035173e+02   1.310332e+02
  -2.034012e+02   7.897057e+00
  -1.295206e+02  -1.084836e+02
   5.670355e+00  -1.178678e+02
   1.055308e+02  -5.427189e+01
   5.891753e+01   1.964371e+01
  -5.932786e+01   5.072879e+01
  -1.393595e+02  -3.412393e+01
  -7.619510e+01  -1.081598e+02
   1.121368e+02  -9.043411e+01
   1.833309e+02   8.991899e+00
   1.878058e+02   7.036127e+01
   1.464199e+01   8.065753e+01
  -6.595508e+01   3.378227e+01
  -2.919513e+01   1.965996e+01
   2.877731e+01  -1.969456e+01
   6.260928e+01   2.309496e+01
   3.584184e+01   1.162321e+02
  -8.645509e+01   1.350510e+02
  -1.676472e+02   4.702421e+01
  -1.094939e+02  -9.984254e+01
  -1.375249e+01  -1.833537e+02
   7.087499e+01  -1.380183e+02
   9.017154e+01   2.362944e+01
   2.787517e+01   1.101165e+02
  -5.030624e+01   7.478165e+01
  -2.973531e+01   2.340117e+01
  -2.566976e+01  -3.043064e+01
   1.155209e+01  -1.475945e+01
  -4.574083e+00   6.200952e+00
  -2.274034e+01  -2.826813e+01
  -5.337463e+01  -9.264875e+01
  -3.011182e+01  -1.048269e+02
   5.304351e+01  -2.689407e+01
   1.183074e+02   3.340641e+01
   1.038773e+02   5.124110e+01
   8.252314e+00   4.885875e+01
  -8.360131e+01   5.814360e+00
  -9.455943e+01  -2.395787e+00
  -2.767200e+01  -1.990119e+01
   2.258955e+01  -7.590066e+00
   2.787450e+01  -6.111793e+00
  -3.291887e+01   8.739535e+00
   1.107107e+01   1.080530e+01
   7.677197e+01   8.683511e+00
   9.445051e+01   2.146196e+01
  -2.291530e+01   7.731210e+01
  -1.254320e+02   9.845318e+01
  -1.911867e+02   4.315471e+01
  -1.497321e+02  -5.939326e+01
  -3.626456e+01  -1.913142e+02
   8.754615e+01  -1.709844e+02
   1.440241e+02  -2.968157e+01
   4.847392e+01   3.432688e+01
  -3.581182e+00   4.745938e+01
   9.050199e+00  -2.327739e+00
  -8.565124e-01   4.745984e+00
   4.340019e+01   5.058750e+01
   3.005013e+01   9.209383e+01
  -3.408840e+01   5.776452e+01
  -6.148874e+01  -3.168302e+01
  -5.195637e+01  -1.161266e+02
  -3.275449e+01  -1.159199e+02
   9.457478e+01  -4.394035e+01
   1.276827e+02   6.861480e+01
  -6.515166e+00   1.028880e+02
  -5.172533e+01   4.937279e+01
  -1.022831e+02   1.204520e+01
  -6.413230e+01  -4.642059e+01
   2.088688e+01  -6.106186e+01
   2.977973e+01  -3.181940e+00
  -4.922356e+01  -8.967335e+00
  -3.206638e+01   2.498748e+01
  -2.347615e+01  -2.876196e+01
   7.756593e+01  -5.336574e+01
   7.605483e+01  -3.569716e+01
   6.384772e+01   9.304142e-01
   1.631435e+01   9.789295e+01
  -5.839699e+01   3.975115e+01
  -7.201231e+01   2.031541e+01
  -1.359343e+01  -4.933937e+01
   4.784208e+01  -8.491201e+01
   2.730813e+01   1.833982e+01
   2.652677e+01   7.776587e+01
   1.256268e+00   4.876595e+01
  -5.827739e+01  -1.973243e+01
  -6.894164e+01  -2.280563e+01
  -1.820050e+01  -2.131543e+01
   7.763493e+00   5.962358e+00
   1.831511e+01   1.533991e+01
   1.499069e+01  -2.886313e+01
  -9.461446e+00  -3.523884e+01
   3.841527e+01  -8.362233e+00
   3.586161e+01   4.995208e+01
   6.484486e+00   8.021071e+01
  -4.752687e+01   1.738976e+01
  -6.349323e+01  -2.456124e+01
  -2.454132e+01  -7.771704e+01
   3.473978e+01  -2.315166e+01
   1.010763e+02   9.911429e+00
   3.011419e+01   3.544893e+01
  -1.861239e+01   1.958302e+01
  -5.575804e+01   3.016260e+01
  -1.692360e+01   2.537710e+01
   1.757194e+01  -1.349644e+01
   3.775066e+01  -3.688884e-01
  -5.932379e+00   8.378067e+00
  -6.803946e+01   3.183462e+01
