
 $NMID
 id='ANONYMOUS ', fmtdat='(2E16.6)'
 volume=1.0
 tramp=1.0
 $END
  -2.961512e+03   4.220106e+02
  -2.042762e+03  -1.214497e+03
  -1.503346e+02  -1.789590e+03
   9.468576e+02  -1.547152e+03
   8.645108e+02  -1.697382e+02
   2.172573e+02   1.747386e+02
  -3.566776e+02  -8.340793e+01
  -2.141253e+02  -5.566914e+02
   2.519701e+02  -5.829802e+02
   6.002537e+02  -2.131174e+02
   4.490604e+02   4.394543e+02
   1.720404e+02   6.039117e+02
  -2.724267e+02   3.346717e+02
  -2.025529e+02  -4.272288e+02
  -4.343977e+01  -5.369943e+02
   3.840517e+02  -5.770339e+01
   3.036384e+02   4.327486e+02
  -4.820814e-02   5.782291e+02
  -3.610398e+02   2.881899e+02
  -4.228211e+02  -1.261761e+02
  -1.570864e+02  -2.532257e+02
   6.648031e+01  -1.698390e+02
   7.901791e+01  -1.128611e+02
  -1.276365e+02  -1.088611e+02
  -2.091173e+02  -1.337995e+02
  -1.434519e+01  -2.611719e+02
   3.596425e+02  -2.065026e+02
   5.080841e+02   1.463554e+02
   2.605998e+02   3.565257e+02
  -2.013085e+02   1.445032e+02
  -3.957848e+02  -4.420395e+01
  -2.802829e+02  -1.951963e+02
   2.135360e+02  -3.398903e+02
   3.471907e+02  -1.316420e+02
   2.583744e+02   9.153834e+01
   7.552375e+01   2.678950e+02
   7.737562e+01   1.693357e+02
  -1.507431e+01   4.929484e+01
   1.112965e+02  -9.528642e+01
   1.683242e+02   1.530128e+02
   6.096315e+01   4.627848e+02
  -4.217328e+00   3.993548e+02
  -1.745112e+02   1.301003e+02
  -1.533425e+02  -3.337318e+02
   9.144447e+01  -6.560863e+01
   1.696870e+02   2.557582e+02
  -4.109104e+00   3.108316e+02
  -3.314033e+02   6.131735e+01
  -4.839233e+02  -2.776987e+02
  -1.924178e+02  -3.656912e+02
   1.726697e+02  -2.390782e+02
   4.045948e+02  -1.096738e+02
   2.720298e+02   1.530164e+02
   4.510412e+01   2.402183e+02
  -2.522464e+02   1.781659e+02
  -2.588949e+02   2.462435e+01
  -3.261384e+01  -4.760823e+01
   1.078846e+02  -4.379720e+01
  -4.797373e+01   6.556777e+01
  -1.964113e+02  -9.933796e+00
  -1.462349e+02  -8.553291e+01
   1.207691e+02  -2.495111e+02
   2.388412e+02  -1.663820e+02
   2.182551e+02   4.659598e+01
  -4.209733e+01   2.669244e+02
  -2.471534e+02   3.211198e+02
  -2.626510e+02   1.607243e+02
  -2.021007e+02  -7.865399e+01
  -6.283240e+01  -2.527025e+02
   3.065682e+01  -2.938720e+02
   2.452955e+01  -1.461367e+02
   3.656466e+01  -1.049881e+02
   1.153665e+02  -1.155073e+02
   1.826637e+02  -4.738889e+01
   2.180615e+02   8.668106e+01
   1.078718e+02   2.125979e+02
  -4.983923e+01   1.701808e+02
  -1.531292e+02  -4.887164e+01
  -1.434167e+02  -1.780711e+02
   3.601239e+01  -2.083261e+02
   1.872726e+02  -7.240655e+01
   2.791816e+02   1.590744e+02
   2.003354e+02   2.609630e+02
  -3.776012e+00   2.659851e+02
  -1.540351e+02   1.605864e+02
  -1.101426e+02   6.973344e+01
  -1.156937e+02   6.024830e+01
  -2.356453e+02   7.226009e+01
  -4.043822e+02  -7.977619e+01
  -3.269503e+02  -1.928459e+02
  -2.299638e+01  -3.950484e+02
   3.032288e+02  -3.005112e+02
   3.076777e+02  -1.789544e+02
   3.033207e+02   7.886493e+01
   6.321735e+01   1.846853e+02
  -8.715589e+01   1.709671e+02
  -3.729662e+00   5.566051e+01
   7.097148e+01  -4.541355e+01
   1.346339e+02   2.161554e+01
   3.498159e+01   1.431137e+02
  -5.678256e+01   1.129073e+02
  -1.186146e+02   4.059611e+00
  -1.118390e+01  -1.094106e+02
   1.268361e+02   1.753507e+01
   1.505850e+02   2.110657e+02
   5.124924e+00   2.967619e+02
  -2.465671e+02   2.088266e+02
  -3.080514e+02  -2.515251e+01
  -2.189216e+02  -2.259723e+02
  -6.068116e+01  -1.875406e+02
   9.297921e+01  -1.129583e+02
   1.192859e+02  -1.439569e+01
   4.215841e+01  -1.105990e+01
  -6.322188e+01  -2.604447e+01
  -2.515963e+01  -9.742828e+01
   8.052078e+01  -8.331610e+01
   1.121948e+02  -3.176982e+00
   5.444855e+01   5.894323e+01
  -7.588125e+01  -2.079648e+00
  -5.115619e+01  -8.109725e+01
   1.258110e+02  -7.927560e+01
   2.508265e+02   5.998315e-01
   2.109074e+02   1.047703e+02
   2.993458e+01   2.090421e+02
  -1.668123e+02   1.999566e+02
  -2.408398e+02   1.281172e+02
  -1.728086e+02  -1.164451e+01
   6.908773e+01  -6.897737e+01
   5.585750e+01  -9.860360e+00
  -1.782879e+01   6.812564e+01
  -1.321336e+02   6.771559e+00
  -1.316429e+02  -7.119844e+01
  -6.011687e+01  -1.330224e+02
   6.771265e+01  -1.262999e+02
   9.160410e+01  -2.847371e+01
   4.280777e+01   1.293148e+01
  -2.143313e+01  -3.559810e+01
  -1.854053e+01  -9.234232e+01
   7.421314e+01  -1.081859e+02
   2.089571e+02  -9.228905e+00
   2.103026e+02   9.143653e+01
   1.041195e+01   1.762249e+02
  -1.630305e+02   1.164761e+02
  -1.246572e+02   1.774982e+01
  -6.805415e+01  -6.343763e+01
   5.074346e+01  -9.951092e+01
   3.929565e+01  -3.657498e+01
  -1.015862e+01   1.666342e+01
  -1.614101e+01   3.023074e+01
   1.929968e+01  -1.472082e+01
   1.001885e+02   1.851297e+01
   1.169602e+02   5.663067e+01
   2.869430e+01   1.672219e+02
  -8.855234e+01   1.591123e+02
  -1.885292e+02   9.489054e+00
  -1.595702e+02  -1.246974e+02
  -5.004696e+01  -2.076431e+02
   6.098172e+01  -1.069939e+02
   9.867968e+01  -4.732590e+01
   6.720708e+01   1.417393e+01
   9.001198e+01   5.756064e+00
   6.397558e+01  -1.812227e+00
   6.860484e+01  -3.558552e+01
   4.642828e+01   6.279578e+01
  -4.743251e+00   1.084398e+02
  -1.018404e+02   4.765168e+01
  -9.121751e+01  -2.643451e+01
  -4.386299e-01  -1.255437e+02
   1.361632e+02  -9.041727e+01
   1.648587e+02   5.555402e+01
   1.199581e+02   1.713528e+02
  -5.823374e+01   2.176029e+02
  -2.298547e+02   9.203321e+01
  -2.430793e+02  -7.746077e+01
  -1.135112e+02  -9.206847e+01
  -1.100712e+01  -1.363511e+02
   3.216740e+01  -5.971781e+01
   5.955452e+01  -4.466988e+01
   1.450423e+01  -5.694926e+01
   5.357448e+01  -7.351807e+01
   1.189883e+02   1.011342e+01
   9.580276e+01   1.190187e+02
   3.343155e+01   2.097793e+02
  -7.239619e+01   1.539713e+02
  -1.129921e+02   3.220041e+00
  -1.021159e+02  -1.043146e+02
  -2.187162e+01  -1.465790e+02
   6.774976e+01  -7.305547e+01
   5.992095e+01   6.965677e+00
  -2.500090e+01   5.021682e+01
  -3.551594e+01   1.881524e+01
   2.955950e+01   1.785291e+01
   9.049506e+01  -1.995730e+00
   3.373199e+01   2.846256e+01
  -5.998067e+01   2.634659e+01
  -1.428519e+02   3.222989e+01
  -1.230582e+02  -3.301962e+01
  -2.744228e-01  -4.158713e+01
   1.162161e+02  -5.530330e+01
   8.236540e+01  -3.790203e+00
   4.569421e+01   4.075860e+01
  -5.543426e+01   4.505408e+00
  -6.185160e+01  -2.376932e+01
  -4.047442e+00  -7.255303e+01
   4.194319e+01  -5.514630e+01
   5.797533e+01  -4.554271e+00
   6.018695e+01   5.516834e+00
   5.492735e+01   4.811749e+01
   7.015366e+01   1.187729e+01
   3.386433e+01  -3.154278e+01
   2.895022e+01   8.197507e+01
  -6.663835e+00   1.313634e+02
  -1.205865e+02   1.324150e+02
  -1.686895e+02   2.877504e+01
  -1.042354e+02  -8.310605e+01
  -1.786123e+01  -1.243358e+02
   9.586488e+01  -8.405799e+01
   4.577633e+01   6.919019e+00
  -5.908024e+01   2.962912e+01
  -1.295576e+02  -4.815140e+01
  -1.014893e+02  -7.656163e+01
   8.151295e+01  -7.683406e+01
   1.275515e+02  -3.657594e+01
   1.235430e+02   1.298165e+01
   3.124744e+01   8.932838e+01
  -4.754059e+01   5.250057e+01
  -3.763185e+01   3.048800e+01
   2.834497e+01  -1.982061e+01
   1.194591e+02   5.226959e+00
   7.217810e+01   1.056110e+02
  -7.296640e+01   1.188710e+02
  -1.223454e+02   6.726080e+01
  -1.110075e+02  -4.919766e+01
   8.667138e+00  -1.235701e+02
   3.928299e+01  -9.692262e+01
   6.700337e+01   6.557340e+00
   5.076792e+01   1.159879e+02
  -1.936514e+01   7.874425e+01
  -4.188373e+01  -1.058302e+01
  -5.200410e+01  -3.270438e+01
  -1.868920e+01  -9.903536e+00
   9.971804e+00  -2.007974e+01
  -2.548800e+01  -4.891021e+01
  -5.634416e+01  -8.829646e+01
  -3.704962e+01  -5.837369e+01
   4.473397e+01  -5.209439e+01
   1.300908e+02   1.581465e+00
   1.069985e+02   5.343735e+01
  -1.613748e+01   2.295195e+01
  -7.821011e+01   3.345745e+01
  -4.541519e+01   3.523035e+01
  -9.950971e+00  -1.405260e+01
   3.197609e+01  -1.298055e+01
   6.202465e+01   8.201444e+00
  -1.586480e+01   1.075147e+00
   9.300718e+00   1.212134e+01
   6.895177e+01  -1.063706e+01
   3.010306e+01  -6.045234e+00
   4.082978e+01   9.134657e+01
  -6.909543e+01   1.044847e+02
  -1.593409e+02   5.596105e+01
  -1.229219e+02  -1.636990e+01
  -2.442479e+01  -1.435455e+02
   5.983507e+01  -1.495986e+02
   8.177726e+01  -6.714299e+01
   4.867058e+01   7.091317e+00
   2.782987e+01   2.738662e+01
   4.629935e-01  -8.979646e+00
   1.780574e+01   3.795237e+01
   9.007884e+00   3.509781e+01
   3.960228e+01   7.548869e+01
  -2.275095e+01   7.246449e+01
  -6.771265e+01  -1.069751e+01
  -6.875840e+01  -6.079459e+01
  -5.114448e+00  -1.000387e+02
   8.729112e+01  -6.712926e+01
   1.041681e+02   9.867223e+00
   5.726279e+01   6.496553e+01
  -4.742557e+01   7.270827e+01
  -1.007400e+02   1.366984e+01
  -5.992043e+01  -5.519478e+01
   3.948197e+01  -5.033018e+01
   3.060066e+01  -2.578411e+01
  -1.703026e+01  -2.218940e+01
  -6.879284e+01   3.681589e+00
  -2.558278e+01  -3.373705e+00
   5.290191e+01  -3.382977e+01
   1.165547e+02  -6.486754e+01
   5.715348e+01   1.992772e+01
   2.313549e+01   6.382123e+01
  -5.646559e+01   9.583259e+01
  -3.582501e+01   4.160852e+01
   6.214444e+00  -5.141729e+01
   2.620581e+01  -6.423698e+01
   4.937790e+01   1.933780e+01
   1.715609e+01   7.039651e+01
   4.335808e+00   3.816621e+01
  -5.048240e+01  -4.106588e+00
  -3.566909e+01  -9.097600e-01
  -1.882100e+01  -1.244526e+01
   3.176499e+01   2.598482e+01
   1.130919e+01   2.526577e+01
   1.241350e+01  -4.810356e+01
   6.316185e+00  -4.099759e+01
   8.632154e+00  -3.323729e+01
   3.158348e+01   2.544948e+01
   3.074116e+01   4.962032e+01
  -4.004424e+01   1.020057e+00
  -5.650029e+01  -1.885418e+01
  -1.699403e+01  -3.642999e+01
   4.661953e+01  -2.020456e+01
   6.830319e+01   8.828856e+00
   4.422595e+01   5.218019e+01
  -1.501179e+00   1.014542e+01
  -5.324456e+01   4.387695e+01
  -1.336662e+01  -7.180484e+00
   1.558841e+01   2.305311e+00
   3.004966e+01   7.786035e+00
  -1.480228e+01   2.688491e+01
  -7.821152e+01   3.305255e+01
