
 $NMID
 id='ANONYMOUS ', fmtdat='(2E16.6)'
 volume=1.0
 tramp=1.0
 $END
  -1.761850e+03   6.848916e+02
  -1.388026e+03  -8.480638e+02
   4.268149e+01  -1.611719e+03
   7.169440e+02  -1.289296e+03
   7.362844e+02  -2.313965e+02
   7.723276e+01   4.155955e+02
  -2.787599e+02  -1.458942e+01
  -1.275365e+02  -3.289751e+02
   3.253163e+02  -5.551209e+02
   4.814231e+02  -2.142699e+02
   2.544853e+02   2.869264e+02
   1.026686e+02   4.670866e+02
  -2.313045e+02   2.298068e+02
  -2.993272e+02  -2.902666e+02
  -4.989220e+01  -4.640446e+02
   1.857816e+02  -1.766228e+02
   1.791286e+02   3.137649e+02
   8.732836e+00   3.688813e+02
  -3.021523e+02   2.190493e+02
  -3.284970e+02   2.033947e+01
  -1.137974e+02  -2.826503e+02
   8.553418e+01  -1.901499e+02
   5.371543e+01  -1.109500e+02
  -7.667377e+01  -3.902332e+01
  -2.494669e+02  -1.592949e+02
  -3.120919e+01  -2.188355e+02
   3.052259e+02  -1.407081e+02
   3.658996e+02   1.291099e+01
   9.795530e+01   1.791118e+02
  -1.798230e+02   2.576330e+02
  -2.841160e+02   3.397156e+01
  -2.014034e+02  -1.453113e+02
   7.765417e+01  -2.557383e+02
   3.614660e+02  -1.421748e+02
   2.776500e+02   1.000119e+02
   1.988472e+01   2.668102e+02
  -9.246493e+00   1.773034e+02
   2.131026e+00  -4.664520e+01
   3.691653e+01  -1.049653e+02
   8.246726e+01   1.872565e+01
   1.185358e+02   2.894009e+02
  -5.933187e+01   3.889126e+02
  -2.211304e+02   1.232863e+02
  -1.396621e+02  -1.809771e+02
   6.708842e+01  -9.610528e+01
   1.505885e+02   1.578137e+02
   8.793103e+00   3.297435e+02
  -2.436839e+02   1.120975e+02
  -3.593172e+02  -2.136665e+02
  -1.530921e+02  -3.038325e+02
   1.735408e+02  -2.029410e+02
   3.491470e+02   1.411311e+01
   3.081775e+02   1.312112e+02
  -3.671979e+01   1.451283e+02
  -2.629735e+02   9.961140e+01
  -1.625368e+02   1.274633e+01
  -1.059225e+01  -5.337227e+01
   2.850807e+01   2.109886e+01
  -2.685834e+01   5.941366e+01
  -1.319363e+02   2.412748e+01
  -1.432885e+02  -1.652438e+02
   7.095234e+01  -1.389335e+02
   2.338016e+02  -1.017565e+02
   1.772186e+02   6.050460e+01
  -1.026632e+01   2.269322e+02
  -1.771990e+02   2.125327e+02
  -2.262064e+02   1.484772e+02
  -1.539069e+02  -5.552175e+01
  -1.466889e+02  -1.892375e+02
  -2.667739e+01  -2.187466e+02
  -1.689016e+00  -1.138151e+02
   1.237992e+01  -7.033881e+01
   8.181090e+01  -1.022705e+02
   1.137653e+02  -5.998059e+01
   1.425288e+02   5.847945e+01
   6.807940e+01   1.225402e+02
  -7.377005e+01   1.480497e+02
  -1.144388e+02   4.388229e+00
  -9.489816e+01  -1.136137e+02
   9.703290e-01  -1.658076e+02
   1.269382e+02  -7.547297e+01
   1.871282e+02   8.356382e+01
   1.421220e+02   1.453634e+02
   2.871005e+01   2.010353e+02
  -1.036538e+02   1.099527e+02
  -8.373286e+01   3.723923e+01
  -8.575302e+01   1.895264e+01
  -1.634751e+02   3.280727e+01
  -2.451780e+02  -2.440609e+01
  -2.121242e+02  -1.178351e+02
  -2.773812e+01  -2.698847e+02
   2.018230e+02  -3.172410e+02
   3.289150e+02  -1.780436e+02
   2.017952e+02   4.342641e+01
   5.620788e+01   1.656268e+02
  -4.906264e+01   1.451555e+02
  -3.172888e+01  -1.181866e+01
   4.184890e+01  -2.069253e+01
   1.021016e+02  -1.871764e+01
   7.597477e+00   1.040526e+02
  -5.034406e+01   1.125443e+02
  -9.262256e+01  -2.518378e+01
   1.072616e+01  -4.740251e+01
   9.358200e+01  -2.503226e+01
   1.057109e+02   1.421393e+02
   6.903604e+00   2.653562e+02
  -1.558740e+02   1.563030e+02
  -2.290190e+02  -1.737097e+01
  -2.030072e+02  -1.503994e+02
  -9.968713e+01  -1.916740e+02
   6.960964e+01  -1.124586e+02
   9.086577e+01  -6.379805e+00
   4.326992e+01  -9.678626e+00
  -3.569113e+01  -2.768387e+01
  -7.495210e+00  -4.522350e+01
   6.622879e+01  -6.831637e+01
   1.041159e+02  -1.428721e+01
   4.040073e+01   4.539232e+01
  -4.682334e+01  -2.401274e+01
  -4.624761e+01  -4.741238e+01
   9.856156e+01  -7.785852e+01
   2.247299e+02  -2.811774e+01
   1.983002e+02   1.021385e+02
   6.399581e+01   1.421514e+02
  -8.996650e+01   1.946159e+02
  -1.956493e+02   7.273933e+01
  -1.009224e+02   7.876020e+00
   5.784696e-02  -2.398188e+01
   6.103454e+01   1.241079e+01
  -2.121136e+01   7.832335e+01
  -1.037672e+02   5.502311e+01
  -1.570111e+02  -3.522686e+01
  -5.810135e+01  -1.549208e+02
   3.678987e+01  -7.346732e+01
   7.085840e+01  -2.436596e+01
   3.950674e+01   2.833528e+01
  -3.748460e+01  -1.136630e+01
  -1.927939e+01  -7.060082e+01
   5.076605e+01  -6.490401e+01
   1.031620e+02  -3.038768e+01
   1.188357e+02   7.235850e+01
   2.991232e+01   1.433817e+02
  -8.466179e+01   9.762453e+01
  -1.029229e+02   5.008776e+01
  -4.245175e+01  -5.435935e+01
   4.248342e+01  -7.354696e+01
   2.915030e+01  -2.217846e+01
   1.405136e+00   5.037770e+00
  -1.722644e+01   9.336730e+00
   1.480462e+01  -1.977210e+01
   4.566056e+01   8.636232e+00
   8.752421e+01   7.073908e+01
   6.914461e+00   1.060146e+02
  -6.118566e+01   1.097072e+02
  -1.588763e+02   1.154204e+01
  -1.182907e+02  -1.051952e+02
  -4.957509e+01  -1.704204e+02
   5.882919e+01  -1.205550e+02
   8.616045e+01  -1.528166e+01
   6.022615e+01   1.688110e+01
   1.068683e+01   3.102986e+01
   3.976507e+01   7.360090e+00
   6.373895e+01   9.881251e+00
   1.678751e+01   3.975776e+01
  -3.204359e+01   1.199577e+02
  -9.577919e+01   6.210352e+01
  -7.425160e+01  -3.932269e+01
  -1.077097e+01  -8.449993e+01
   8.845143e+01  -7.424131e+01
   1.747754e+02   1.635189e+01
   8.376451e+01   1.634815e+02
  -7.670503e+00   1.536158e+02
  -1.385330e+02   4.588846e+01
  -1.464971e+02  -2.012136e+01
  -1.034688e+02  -7.107407e+01
   4.425953e+00  -9.395910e+01
   5.277361e+01  -6.083102e+01
   5.388880e+01  -3.736197e+01
   5.080985e+01  -4.842108e+01
   3.072558e+01  -7.352595e+01
   1.129367e+02  -1.490628e+01
   9.345756e+01   1.050858e+02
   1.772707e+01   1.812598e+02
  -5.037804e+01   1.278501e+02
  -1.448713e+02   1.612601e+01
  -9.142881e+01  -7.255514e+01
  -3.414650e+01  -1.053672e+02
   4.136926e+01  -4.243477e+01
   5.014805e+01   3.151848e+01
   1.475243e+01   4.773840e+01
  -2.862305e+00  -2.036255e+01
   3.561436e+01  -8.852914e+00
   5.335290e+01   1.721262e+01
   3.312611e+01   1.834525e+01
  -5.872784e+01   4.027507e+01
  -1.163916e+02  -1.591820e+01
  -1.079725e+02  -2.791200e+01
   5.926818e+00  -6.037778e+01
   8.166950e+01  -5.218843e+01
   1.031581e+02  -1.366282e+01
   3.876289e+01   2.392274e+01
  -4.599936e+01   3.186180e+01
  -6.870031e+01  -1.379273e+00
  -3.458951e+01  -6.034431e+01
   3.081965e+01  -4.530108e+01
   3.921844e+01  -1.365694e+01
   4.002080e+01   4.201461e+01
   4.787665e+01   1.748442e+01
   3.832795e+01  -4.461832e+00
   2.935851e+01   1.688404e+01
   5.642242e+01   5.603876e+01
   2.782964e+00   9.927294e+01
  -5.695069e+01   1.095751e+02
  -1.403898e+02   2.330799e+01
  -8.345527e+01  -4.200371e+01
  -1.836312e+01  -9.716134e+01
   4.984738e+01  -1.551173e+01
   3.694763e+01   1.718007e+00
  -1.346421e+01  -7.632132e+00
  -8.898830e+01  -2.669856e+01
  -3.708937e+01  -6.486240e+01
   6.859867e+01  -8.549282e+01
   1.495564e+02  -5.873306e+01
   1.218827e+02   1.247812e+01
   3.692049e+01   6.199406e+01
  -3.544540e+01   6.038634e+01
  -2.697191e+00  -1.006760e+01
   2.678501e+01  -3.854983e+01
   5.070100e+01  -1.577794e+01
   3.213760e+01   8.351427e+01
  -7.026764e+01   1.172860e+02
  -1.275971e+02   5.106204e+01
  -1.250238e+02  -5.071256e+01
  -1.558093e+01  -1.351081e+02
   5.371766e+01  -9.203613e+01
   8.448947e+01  -9.751409e+00
   5.959987e+01   5.623816e+01
   2.143592e+01   6.505173e+01
  -1.888829e+01   1.829276e+01
  -4.157191e+01  -1.022105e+01
  -9.732539e+00  -6.144527e+00
   7.916154e+00   4.696933e+00
  -1.900577e+01  -1.197544e+01
  -4.593631e+01  -6.756109e+01
  -3.368348e+01  -5.844558e+01
   3.300393e+01  -6.324354e+01
   8.182839e+01   6.593108e+00
   9.414703e+01   4.429240e+01
   2.110445e+01   9.613449e+00
  -4.932147e+01   3.283823e-01
  -6.023753e+01   1.732104e+01
  -1.515451e+01   6.743158e+00
   2.498695e+00  -2.651950e+01
   1.601130e+01   2.623052e+00
   4.572464e+00  -1.442932e+00
   4.123281e+01   9.048041e+00
   4.394073e+01   8.801460e+00
   6.821266e+01   6.364361e+00
   2.925007e+01   4.491428e+01
  -6.660075e+01   1.035046e+02
  -1.078890e+02   3.555202e+01
  -9.062310e+01  -6.493226e+00
  -3.646455e+01  -6.771520e+01
   3.877223e+01  -1.127806e+02
   9.436792e+01  -6.216589e+01
   6.905452e+01   1.814659e+01
   2.841246e+00   3.089536e+01
  -2.385351e+01   2.635655e+01
  -1.867271e+01   1.701862e+01
   1.695604e+01   1.060901e+01
   2.228930e+01   3.743555e+01
  -3.008064e+01   4.930483e+01
  -6.965061e+01  -2.844744e+00
  -8.541179e+01  -6.035384e+01
  -1.572534e+01  -1.021714e+02
   3.626995e+01  -3.369236e+01
   8.760920e+01   1.537441e+01
   4.318390e+01   1.147893e+02
  -3.207714e+01   4.833425e+01
  -6.464501e+01   3.567194e+01
  -3.627276e+01  -4.183819e+01
   4.697621e+01  -5.405866e+01
   4.450651e+01   2.737690e+00
  -1.985364e+01  -1.402476e+01
  -3.152422e+01   1.141764e+01
  -2.239459e+01   1.086641e+01
   4.631128e+01  -5.595450e+01
   8.545446e+01  -3.449188e+01
   4.703813e+01   2.783525e+01
   2.125159e+01   4.089767e+01
  -1.287523e+01   5.379504e+01
  -2.626799e+01   1.563804e+01
   5.598086e-01  -1.465483e+01
  -1.173708e+01  -3.250471e+01
   1.138116e+00  -1.521201e+01
   6.793403e+00   5.883288e+01
   6.381368e+00   4.086894e+01
  -4.396072e+01   2.271526e+01
  -1.771716e+01  -1.320522e+01
   1.207100e+01  -1.953493e+01
   1.647057e+01   1.053326e+01
   1.141586e+01   1.651645e+01
   1.770897e+00  -1.811126e+01
  -1.840546e+00  -4.028533e+01
   1.277054e+01  -1.352063e+01
   1.633659e+01   3.099154e+01
   3.089479e+01   2.604986e+01
  -2.545134e+01   1.211443e+01
  -3.059357e+01   7.495465e+00
  -3.173398e+01  -1.251025e+01
   5.640225e+01  -4.239416e+01
   9.066804e+01  -9.189955e+00
   2.358367e+01   3.788524e+01
  -3.894621e+01   3.296929e+01
  -6.070322e+01   1.660857e+01
  -1.459138e+01  -1.193801e+01
   4.194125e+01  -2.462570e-03
   1.999968e+01   2.705856e+01
  -9.229071e+00   1.034288e+01
  -4.064401e+01   1.629016e+01
