
 $NMID
 id='ANONYMOUS ', fmtdat='(2E16.6)'
 volume=1.0
 tramp=1.0
 $END
   2.676250e+03  -4.608935e+02
   1.661854e+03   9.547151e+02
   4.835745e+02   1.481036e+03
  -6.015108e+02   1.171658e+03
  -7.337282e+02   2.660289e+02
  -2.754606e+02  -2.432036e+02
   1.149062e+02   1.935915e+01
   1.059257e+02   3.388099e+02
  -2.148915e+01   4.611294e+02
  -4.646943e+02   2.213357e+02
  -3.874732e+02  -2.499703e+02
  -1.503436e+02  -5.187648e+02
   1.751096e+02  -3.105166e+02
   2.190936e+02   2.015322e+02
  -1.610057e+01   3.656401e+02
  -2.808487e+02   7.809249e+01
  -3.155820e+02  -3.680082e+02
  -4.557383e+01  -4.361569e+02
   2.609753e+02  -3.171841e+02
   3.335339e+02   8.647557e+01
   1.727129e+02   1.990948e+02
  -1.335577e+01   1.584277e+02
  -3.446902e+01   1.206387e+02
   1.210551e+02   9.826292e+01
   1.453660e+02   1.118177e+02
   5.146701e+01   2.195371e+02
  -2.295549e+02   1.373485e+02
  -4.048031e+02  -1.020239e+02
  -1.323099e+02  -2.062028e+02
   1.269227e+02  -4.153879e+01
   3.202518e+02   9.405818e+01
   1.721539e+02   1.601266e+02
  -9.147812e+01   2.614690e+02
  -2.246470e+02   1.423908e+02
  -2.570689e+02  -2.542192e+01
  -8.767612e+01  -1.909371e+02
  -1.237004e+02  -1.887935e+02
  -2.285489e+00  -6.262891e+01
  -1.978154e+00   1.688179e+01
  -1.796852e+01  -1.688214e+02
  -6.981592e+01  -2.714944e+02
   1.647253e+01  -2.536120e+02
   1.627027e+02  -1.249303e+02
   9.001400e+01   1.527024e+02
  -6.341984e+01   2.744077e+01
  -2.166908e+01  -1.312814e+02
   2.237920e+01  -2.074953e+02
   2.497297e+02  -7.773508e+01
   4.067498e+02   1.789026e+02
   1.666625e+02   3.118522e+02
  -1.114767e+02   1.710889e+02
  -2.916850e+02   7.514172e+01
  -2.694783e+02  -4.639045e+01
  -2.332992e+01  -1.493255e+02
   1.800630e+02  -1.117530e+02
   2.234862e+02  -5.205613e+01
   6.533544e+01   4.330009e+00
  -7.429002e+01   2.647750e+01
   2.215551e+01  -1.270851e+01
   8.315559e+01   2.485356e+01
   1.002077e+02   7.877725e+01
  -9.021759e+01   1.460709e+02
  -2.221528e+02   1.407851e+02
  -2.136290e+02  -4.913406e+01
   1.234880e+01  -2.491323e+02
   1.696048e+02  -3.260378e+02
   2.591699e+02  -1.264941e+02
   1.694178e+02   2.863755e+01
   3.503615e+01   2.373518e+02
  -2.165349e+00   2.211579e+02
   4.963631e+01   1.469186e+02
  -5.453632e+00   9.423575e+01
  -9.970723e+01   1.210076e+02
  -1.590155e+02   2.134058e+01
  -1.884057e+02  -6.733411e+01
  -6.153774e+01  -1.316348e+02
   6.126508e+01  -1.317964e+02
   9.071188e+01   1.523057e+01
   1.004292e+02   1.357678e+02
  -3.942009e+01   1.126592e+02
  -1.560400e+02   5.456907e+01
  -2.144024e+02  -1.145672e+02
  -1.255438e+02  -1.856239e+02
   1.822870e+01  -2.117661e+02
   1.043819e+02  -1.393213e+02
   1.183379e+02  -8.657679e+01
   9.377076e+01  -6.896166e+01
   1.677940e+02  -7.098696e+01
   2.558082e+02   4.584184e+01
   2.833950e+02   1.281643e+02
  -1.865613e+01   2.884851e+02
  -2.821478e+02   2.487216e+02
  -2.791268e+02   1.497446e+02
  -1.939267e+02  -7.691214e+01
  -6.411496e+01  -1.325411e+02
   5.419158e+01  -1.265525e+02
   2.343830e+01  -4.346523e+01
  -5.634554e+01   4.094271e+01
  -4.751283e+01   3.389727e+00
  -5.787327e+01  -1.211239e+02
   7.234093e+01  -4.005931e+01
   9.764809e+01   3.842405e+01
   2.111158e+01   7.016317e+01
  -8.004555e+01  -4.046237e+00
  -1.524467e+02  -1.946400e+02
  -1.172792e+01  -2.066579e+02
   1.561332e+02  -1.396818e+02
   2.787764e+02  -3.101731e+00
   2.281701e+02   1.439931e+02
   3.634708e+01   1.935441e+02
  -9.306298e+01   1.288383e+02
  -1.079728e+02  -1.997720e+00
  -4.441642e+01  -4.242541e+00
   3.483289e+01   3.655496e-01
  -2.936178e+01   4.417444e+01
  -6.260999e+01   6.855082e+01
  -7.678116e+01   4.655091e+00
  -2.320023e+01  -1.487387e+01
   8.886559e+01   1.117779e+00
   1.249839e+01   7.083333e+01
  -1.115324e+02   6.332575e+01
  -2.090507e+02   5.671313e+00
  -1.828344e+02  -8.193790e+01
  -1.545159e+01  -1.791681e+02
   1.302219e+02  -1.968483e+02
   1.317028e+02  -9.105260e+01
   1.065579e+02   1.902361e+01
  -1.970159e+01   2.639012e+01
  -6.883533e+01  -7.600398e-01
   5.156040e+00  -5.301387e+01
   9.746595e+01  -1.614929e+01
   1.118925e+02   6.953066e+01
   4.329982e+01   1.155447e+02
  -7.036995e+01   7.402132e+01
  -5.843120e+01   1.189070e+00
  -2.792490e+01  -2.554405e+01
   3.257055e+01   2.955059e+01
   2.188541e+01   8.552690e+01
  -6.674208e+01   6.960588e+01
  -1.519249e+02   3.458722e+01
  -1.129867e+02  -6.028004e+01
   1.144519e+01  -1.219746e+02
   1.058580e+02  -1.365652e+02
   1.086582e+02  -6.225569e+01
   7.807451e+01   4.685827e+01
  -4.254294e+01   8.577267e+01
  -2.455842e+01   7.833932e+00
   1.382059e+01  -6.023330e+00
   3.622140e+01  -3.757698e+01
  -2.898394e+01   5.317298e+01
  -9.799666e+01   2.716385e+01
  -8.227829e+01  -6.960560e+01
  -4.794682e+01  -1.387946e+02
   8.824396e+01  -1.081144e+02
   1.582507e+02  -2.936277e+01
   1.100561e+02   9.659944e+01
   4.622072e+01   1.655417e+02
  -6.290264e+01   1.132716e+02
  -7.849701e+01   2.299194e+01
  -5.219909e+01  -2.414072e+01
  -4.174707e+01  -1.649105e+01
  -6.153503e+01  -1.065746e+01
  -7.817607e+01   1.604147e+01
  -4.754735e+01  -6.976091e+01
   1.108557e+01  -5.999666e+01
   1.077804e+02  -7.756817e+01
   3.571185e+01   3.377705e+01
  -4.412995e+00   9.465394e+01
  -1.257556e+02   6.873463e+01
  -1.609249e+02  -3.070059e+01
  -6.266104e+01  -1.383354e+02
   8.036800e+01  -1.969202e+02
   1.622742e+02  -9.820612e+01
   2.241352e+02   3.984940e+01
   9.316638e+01   1.160570e+02
  -2.651851e+01   7.865426e+01
  -6.977942e+01   4.520108e+01
  -2.201555e+01   4.834261e+01
  -4.495150e+01   3.893084e+01
  -3.381427e+01   7.096572e+01
  -8.223172e+01   7.824262e+00
  -1.027855e+02  -9.766262e+01
  -5.186161e+01  -1.673661e+02
   3.811665e+01  -1.348433e+02
   1.162697e+02   6.256660e+00
   5.290788e+01   9.499320e+01
   1.238719e+01   1.182798e+02
  -3.798399e+01   5.645317e+01
  -4.636557e+01   1.130472e+01
  -1.876083e+01  -1.519053e+01
   4.361090e+01  -2.253183e+01
  -1.975509e+01  -6.804780e+00
  -5.482538e+01  -2.232643e+01
  -4.616377e+01  -9.089467e+00
   3.985385e+01  -4.668794e+01
   1.081210e+02  -1.040028e+01
   6.206087e+01   2.169675e+01
  -1.177830e+01   6.750935e+01
  -8.531793e+01   5.490596e+01
  -7.792007e+01   4.350596e-01
  -2.308208e+01  -4.154956e+01
   3.933844e+01  -4.796420e+01
   3.671259e+01   3.309854e+01
   1.379229e+00   3.224077e+01
  -4.223782e+01   4.144371e+01
  -4.259741e+01   6.992935e+00
  -5.895893e+01  -5.110131e+01
  -3.120475e+01  -4.951738e+01
  -6.804194e+01   1.342772e+01
  -2.694526e+01   1.201796e-01
  -2.021585e+01  -8.057648e+01
   2.618594e+01  -9.829819e+01
   4.541156e+01  -9.672729e+01
   1.293886e+02  -3.366730e+01
   1.087043e+02   5.314038e+01
   1.431786e+01   1.021429e+02
  -8.253967e+01   9.228484e+01
  -1.768390e+01  -2.260732e+01
   5.743879e+01  -2.111000e+01
   1.071661e+02   9.014466e+00
   8.041186e+01   7.605155e+01
  -4.865731e+01   7.080547e+01
  -1.037276e+02   3.022492e+01
  -1.393710e+02  -4.869975e+01
  -9.527558e+00  -5.701432e+01
   3.806617e+01  -6.765241e+01
   1.719037e+01  -2.300663e+01
  -1.705668e+01   2.045099e+01
  -8.290506e+01  -2.289035e+01
  -4.178445e+01  -8.173468e+01
   7.266853e+01  -9.002725e+01
   1.017291e+02  -7.489159e+01
   1.053707e+02   5.412460e+01
   2.482270e+01   1.316954e+02
  -5.184036e+01   7.964756e+01
  -8.645949e+01   9.594649e+00
  -5.325874e+01  -8.775389e+01
   1.507791e+00  -8.146450e+01
   2.298838e+01   1.018885e+01
   4.404013e+01   5.141805e+01
  -7.030651e+00  -4.328722e+00
  -2.399423e+01  -7.494360e+00
   3.282291e+01   1.812448e+01
   7.570142e+01   8.716616e+01
   2.273992e+01   4.570036e+01
  -2.956799e+01   6.217934e+01
  -8.714867e+01   8.969736e-01
  -9.147084e+01  -5.016781e+01
  -6.323851e+00  -5.052991e+01
   3.372239e+01  -3.473433e+01
   6.528874e+01  -3.262007e+01
   1.609696e+01   4.084539e+01
   2.374287e+01   2.270123e+01
  -2.336408e+01  -2.805135e+00
   7.119923e+00  -8.294677e+00
  -4.605384e+00  -9.905327e+00
  -5.642377e+01   1.418728e+01
  -8.105457e+01  -1.087921e+01
  -2.411548e+01  -5.271359e+01
   8.422513e+01  -1.015876e+02
   1.289613e+02  -7.501423e+01
   1.018480e+02   4.072016e+01
   8.170954e+00   1.116971e+02
  -3.776852e+01   9.789446e+01
  -7.110252e+01   4.540187e+01
  -7.016755e+01   1.874471e+00
  -4.168743e+01  -1.902639e+01
  -5.994729e+00  -4.050522e+01
  -9.822578e+00   1.993565e+00
  -2.054655e+01  -2.909600e+01
  -3.499723e+01  -4.617324e+01
   2.006189e+01  -4.248611e+01
   6.820611e+01  -5.672671e+00
   9.232302e+01   6.262698e+01
   4.674113e+00   4.940535e+01
  -6.226636e+01   6.772056e+01
  -7.725454e+01  -4.068786e+01
  -4.980431e+01  -9.107889e+01
   4.802610e+01  -4.788423e+01
   7.423292e+01  -3.107310e+01
   5.937639e+00   2.169677e+01
  -3.027543e+01   6.286912e+01
  -3.035954e+01   2.578801e+01
   3.156628e+01  -2.180898e+01
   3.701989e+01  -1.161072e-02
   2.828118e+01   1.165716e+01
  -7.904097e+01   5.481852e+01
  -1.076454e+02   1.936320e+01
  -6.244251e+01  -5.558928e+00
  -1.752724e+01  -5.180373e+01
   5.649926e+01  -6.459108e+01
   4.269978e+01  -2.313948e+01
  -4.895581e+00   3.986701e+01
  -2.823665e+01   4.573898e+01
  -1.925231e+01   1.459652e+01
  -5.222026e+01  -6.623399e+01
  -4.958691e-01  -1.397090e+01
   3.517052e+01  -1.686272e+01
   3.540767e+01   5.492013e+00
   1.630558e+01  -7.507376e+00
  -2.109695e+01  -2.756914e+01
   1.317976e+01   2.217272e+00
  -5.882942e+00   2.765381e+01
  -5.153792e+00   3.879311e+00
  -2.721060e+00   2.608431e+01
  -2.216381e+01  -1.833614e+01
  -1.698905e+01  -4.297229e+01
   4.340305e+01  -1.452838e+01
   6.365924e+01   3.115207e+01
   2.756671e+01   2.461308e+01
  -2.566057e+01   3.247684e+01
  -3.181186e+01   2.732447e+01
  -2.287021e+01  -2.534945e+01
  -4.180936e+00  -2.283331e+01
   6.155492e+01  -1.922814e+01
   2.224384e+01  -9.025870e+00
  -5.325472e+01  -6.496236e+00
  -9.739753e+00   1.092785e+01
   3.706377e+00  -2.747708e+01
   5.373251e+01  -3.413709e+00
