
 $NMID
 id='ANONYMOUS ', fmtdat='(2E16.6)'
 volume=1.0
 tramp=1.0
 $END
   2.825230e+03   1.616972e+02
   1.570110e+03   1.915113e+03
  -3.151348e+02   1.447818e+03
  -8.857685e+02   1.056378e+03
  -6.135635e+02   2.362015e+02
  -4.005082e+01  -7.012544e+01
   2.604308e+02   1.030448e+02
   1.187391e+02   3.605184e+02
  -4.653554e+02   4.282983e+02
  -5.673412e+02   6.547508e+01
  -3.844076e+02  -3.048450e+02
  -5.871716e+01  -6.046544e+02
   2.735563e+02  -1.238949e+02
   8.349297e+01   4.804956e+02
  -1.847744e+02   4.774396e+02
  -3.783527e+02   3.647430e+01
  -2.007644e+02  -3.881812e+02
   7.281606e+01  -5.068550e+02
   3.602182e+02  -2.983301e+02
   4.169127e+02   1.944537e+02
   1.332494e+02   2.982313e+02
  -1.668010e+02   1.962280e+02
  -9.714132e+01   3.575617e+01
   1.660452e+02   1.322341e+02
   3.049979e+02   2.840626e+02
  -4.790089e+01   3.607344e+02
  -4.790210e+02   1.261612e+02
  -5.476987e+02  -1.956233e+02
  -6.319232e+01  -2.991670e+02
   2.724980e+02  -2.418676e+02
   4.980934e+02   1.570197e+02
   1.534053e+02   3.423688e+02
  -2.337025e+02   3.679948e+02
  -3.855841e+02   3.973425e+01
  -2.399121e+02  -1.646513e+02
  -5.777612e+01  -2.703149e+02
   2.372965e+01  -1.795289e+02
  -1.314504e+01   1.198741e+02
  -1.924118e+02   1.532089e+02
  -1.708295e+02  -1.577021e+02
  -2.699762e+01  -4.653556e+02
   2.023096e+02  -4.139618e+02
   2.962279e+02   2.813652e+01
   1.054187e+02   2.868277e+02
  -1.396951e+02   1.713853e+02
  -1.680255e+02  -2.242050e+02
   1.171872e+02  -3.313540e+02
   4.356785e+02  -3.025830e+01
   3.803831e+02   3.229398e+02
   1.489862e+02   4.825368e+02
  -2.915665e+02   1.605504e+02
  -4.891223e+02  -6.809302e+01
  -2.677874e+02  -2.689048e+02
  -2.253880e+01  -1.957380e+02
   2.617104e+02  -9.539230e+01
   1.774358e+02  -1.521116e+00
   2.413118e+01   3.124507e+01
   9.934274e+00  -4.891007e+01
   1.056943e+02  -5.951960e+01
   1.445821e+02   7.288002e+01
   1.649980e+02   1.726158e+02
  -1.708821e+02   2.435747e+02
  -2.495102e+02   9.704610e+01
  -2.276015e+02  -8.420900e+01
   1.161724e+01  -2.745327e+02
   2.642250e+02  -3.567853e+02
   3.085791e+02  -1.185896e+02
   2.402694e+02   1.640772e+02
   7.838458e+01   3.355431e+02
  -3.235522e+00   2.680973e+02
   2.599368e+01   7.671565e+01
  -1.359127e+01   9.421246e+01
  -1.253104e+02   1.319557e+02
  -2.504178e+02   4.781306e+01
  -2.240377e+02  -1.038879e+02
  -1.122911e+02  -2.537059e+02
   8.839355e+01  -1.839225e+02
   1.882486e+02   2.675505e+01
   1.169057e+02   2.267796e+02
  -8.724009e+01   2.400258e+02
  -1.994213e+02   6.034473e+01
  -2.546677e+02  -1.371901e+02
  -1.235666e+02  -2.103351e+02
   5.527476e+01  -2.381914e+02
   1.250442e+02  -9.511823e+01
   1.391115e+02  -7.539716e+01
   1.432465e+02  -1.070896e+02
   2.369796e+02  -3.015429e+01
   3.681388e+02   7.269288e+01
   2.793309e+02   2.737250e+02
   3.740408e+01   3.959838e+02
  -3.141132e+02   3.685736e+02
  -4.276069e+02   1.692031e+02
  -2.776978e+02  -6.558556e+01
  -6.421223e+00  -2.210925e+02
   9.259464e+01  -1.539079e+02
   2.719175e+01  -1.999674e+01
  -1.195533e+02   4.251983e+01
  -9.874237e+01  -3.355648e+01
   5.662410e+00  -1.330520e+02
   9.845195e+01  -1.072658e+02
   1.168587e+02   6.708191e+01
  -2.509066e+01   1.732993e+02
  -1.455338e+02  -1.136868e+01
  -1.095413e+02  -1.849167e+02
  -2.689660e+01  -2.727056e+02
   1.937972e+02  -1.765052e+02
   3.634731e+02   3.921464e+01
   2.599253e+02   2.351557e+02
   7.217562e+01   2.697577e+02
  -1.038353e+02   1.241214e+02
  -1.234629e+02  -7.180146e+00
  -3.159557e+01  -2.809739e+01
   3.705040e+01   6.957513e+01
  -1.124898e+01   9.711702e+01
  -1.194270e+02   4.871429e+01
  -1.060549e+02   2.141948e+00
  -2.411282e+01  -4.507225e+01
   8.519828e+01   2.195816e+01
   5.440573e+01   1.108071e+02
  -1.301568e+02   6.805451e+01
  -2.708931e+02  -1.488705e+01
  -2.428751e+02  -1.592028e+02
  -4.881703e+00  -2.900110e+02
   2.260456e+02  -2.405131e+02
   2.002291e+02  -1.007441e+02
   1.441268e+02   1.864514e+01
  -2.838818e+01   6.476648e+01
  -4.042930e+01  -1.416064e+01
   4.107353e+01  -7.482332e+01
   1.845496e+02   3.045383e+01
   2.130257e+02   8.143459e+01
   3.131781e+01   1.753522e+02
  -5.618873e+01   1.087867e+02
  -1.026752e+02   1.124027e+01
  -4.474896e+01  -3.723146e+01
   5.944338e+01   1.834778e+01
   2.651772e+01   9.849190e+01
  -9.977635e+01   1.150549e+02
  -2.216189e+02   2.815808e+01
  -1.947799e+02  -7.475690e+01
  -1.710075e+01  -1.769164e+02
   1.140122e+02  -1.278897e+02
   1.742214e+02   1.416708e+01
   6.125230e+01   9.902820e+01
  -4.953852e+01   4.424150e+01
  -5.993952e+01  -2.165635e+00
   4.887828e+00  -8.231157e+00
   2.167367e+01  -2.115129e+01
   1.221598e+01   2.427980e+01
  -9.528648e+01   1.261969e+01
  -1.091388e+02  -5.864986e+01
   9.728394e+00  -1.354349e+02
   1.007670e+02  -1.400925e+02
   1.989259e+02  -2.370699e+01
   1.924180e+02   1.346355e+02
   1.337042e+00   2.381286e+02
  -1.113048e+02   1.411054e+02
  -1.308043e+02   1.020138e+01
  -5.245416e+01  -3.063337e+01
  -1.309745e+01   7.484459e+00
  -4.555765e+01   1.411946e+01
  -8.581995e+01   7.381964e+00
  -5.734375e+01  -3.654147e+01
   3.616511e+01  -9.833862e+01
   1.012863e+02  -6.227614e+01
   1.128478e+02   4.302315e+01
  -1.787916e+01   9.959661e+01
  -1.324855e+02   6.201024e+01
  -1.913550e+02  -9.756013e+01
  -6.232495e+01  -1.909971e+02
   1.103888e+02  -1.978408e+02
   2.194218e+02  -8.751914e+01
   1.997244e+02   8.337771e+01
   7.407633e+01   1.365929e+02
  -7.059417e+01   1.370104e+02
  -5.811779e+01   8.603925e+01
  -4.002344e+01   9.055895e+01
  -6.085868e+00   9.298925e+01
  -9.257653e+01   8.488056e+01
  -1.027443e+02  -4.872309e+01
  -1.071540e+02  -1.534158e+02
   7.709687e+00  -1.677093e+02
   7.527284e+01  -1.900702e+02
   1.611338e+02   2.014134e+01
   1.256916e+02   7.622042e+01
  -7.485907e+00   1.372070e+02
  -5.220049e+01   4.925867e+01
  -5.862623e+01  -3.375137e+01
   1.314554e+01  -2.941095e+01
   2.141680e+01  -3.293152e+01
  -7.231873e+00   2.204941e+01
  -8.468198e+01  -1.443659e+01
  -5.938212e+01  -4.811541e+01
   7.849085e+01  -4.519149e+01
   1.337093e+02  -1.999707e+01
   1.395137e+02   8.124634e+01
  -1.373449e+01   8.614907e+01
  -1.621255e+02   6.544399e+01
  -1.442886e+02   8.810930e-01
  -1.268798e+01  -6.088786e+01
   9.510801e+01  -4.108338e+01
   8.132415e+01  -1.245418e+01
   7.255569e+00   8.326122e+01
  -2.523584e+01   3.929402e+01
  -6.234168e+01   1.201067e+00
  -8.662373e+01  -5.334491e+01
  -6.140323e+01  -3.388345e+01
  -1.606166e+01  -5.200355e+00
  -7.010234e+01  -4.263189e-01
  -4.768753e+01  -5.843192e+01
   3.392710e+01  -1.002708e+02
   1.171630e+02  -1.750101e+02
   1.346907e+02  -4.049587e+01
   1.365947e+02   8.065922e+01
  -1.458929e+01   8.233213e+01
  -6.013958e+01   2.480347e+01
  -4.332001e+01  -1.000582e+00
   3.734094e+01  -1.796059e+01
   1.069945e+02   5.454265e+01
   5.038465e+01   1.152665e+02
  -6.873782e+01   9.398110e+01
  -1.822991e+02   6.558282e+01
  -1.507923e+02  -5.744038e+01
  -2.291410e+01  -6.793300e+01
   7.020975e+01  -4.566128e+01
   5.176524e+01   2.927518e+00
  -6.037114e+01   1.085787e+01
  -7.414388e+01  -2.028057e+01
  -1.806174e+01  -7.523088e+01
   6.063990e+01  -1.674343e+02
   1.075397e+02  -3.138787e+01
   1.647421e+02   7.445814e+01
  -4.118786e+01   1.547113e+02
  -7.511211e+01   1.447571e+02
  -1.060153e+02  -2.173704e+01
  -2.235247e+01  -9.588339e+01
   2.260142e+01  -8.588725e+01
   5.054044e+01  -1.219641e+01
   3.714153e+01   2.183748e+01
  -8.103703e+00   1.694533e+01
  -1.395331e+01  -1.617730e+01
   2.062717e+01  -2.460761e+00
   5.018880e+01   5.308536e+01
   3.861856e+01   9.180788e+01
  -5.973628e+01   2.344825e+01
  -1.106813e+02  -2.061007e+01
  -1.231290e+02  -8.016386e+01
  -1.298043e+01  -6.970211e+01
   9.902066e+01  -4.302751e+01
   8.726577e+01   1.504313e-01
  -1.721650e+00   1.446459e+00
   1.293909e+01   2.077612e+00
  -3.968922e+01   2.619186e+01
  -5.092259e+00   6.692370e+00
  -1.535905e+01   1.568918e+01
  -5.584617e+01  -7.896562e+00
  -8.149854e+01   1.166508e+01
  -2.592950e+01  -9.249911e+01
   8.843644e+01  -8.855458e+01
   1.491578e+02  -3.982496e+01
   1.198979e+02   5.517925e+01
   3.811702e+01   1.133872e+02
  -8.341552e+01   1.069585e+02
  -1.236972e+02   8.635176e+01
  -7.210934e+01  -4.683918e+01
  -1.064054e+01  -3.000026e+01
  -1.403712e+01   7.878764e+00
  -2.342673e+01  -1.450865e+01
  -2.892870e+01  -3.481998e+01
  -2.333931e+01  -8.943250e+01
   2.458983e+01  -4.150873e+01
   6.684579e+01   3.918776e+00
   1.067655e+02   8.370382e+01
   4.963938e+00   7.921732e+01
  -6.351245e+01   4.198760e+01
  -6.002145e+01  -4.853242e+01
  -5.346224e+01  -1.011022e+02
   7.065610e+01  -7.403048e+01
   1.054650e+02   3.273423e+01
   8.829662e+01   4.541997e+01
  -1.270839e+01   2.367799e+01
  -2.305873e+01   3.260806e+01
   1.234296e+01  -1.757021e+01
   5.134698e+01  -1.751743e+01
   2.605734e+01   6.859237e+00
  -7.767929e+01   6.352145e+01
  -7.556303e+01   9.168435e+01
  -6.456117e+01   6.999565e+00
   2.850251e+00  -7.955347e+01
   4.847215e+01  -8.340372e+01
   4.238795e+01   6.805296e+00
   4.429126e+00   3.455855e+01
  -1.681746e+01   3.944658e+01
  -3.989561e+01  -1.854951e+01
  -1.189112e+01  -2.509591e+01
  -3.239156e+00  -3.304947e+01
   1.176525e+01   1.971705e+01
   1.110745e+01   2.507555e+01
  -2.492835e+00   1.780189e+01
  -2.909015e+01   1.005883e+01
  -1.298764e+01   4.935426e+00
  -8.022737e+00   3.060771e+01
   1.739593e+01   3.857255e+01
  -2.962685e+00   2.043276e+01
  -5.373965e+01  -3.208633e+01
  -1.738801e+01  -2.264990e+01
   5.589961e+01  -2.345357e+01
   5.599317e+01   1.686993e+01
   8.610246e+00   8.666464e+01
  -5.873511e+01   3.325825e+01
  -1.129702e+02  -2.056346e+01
  -6.077155e+01  -2.591252e+01
   1.376709e+01  -4.255284e+01
   5.417751e+01  -1.664325e+01
   2.711197e+01  -5.479949e+01
  -3.688140e+01   1.537874e+01
  -4.680521e+01  -2.279993e+01
   2.599695e+01  -4.477174e+01
   7.050500e+01  -1.693775e+01
