
 $NMID
 id='ANONYMOUS ', fmtdat='(2E16.6)'
 volume=1.0
 tramp=1.0
 $END
   2.849676e+03   4.493080e+02
   2.146963e+03   1.414010e+03
   1.164544e+02   1.948239e+03
  -1.349950e+03   1.208077e+03
  -8.644972e+02   1.240601e+02
   4.319557e+01  -9.635363e+01
   1.354895e+02   2.403382e+01
   1.017587e+02   6.430119e+02
  -5.889668e+02   5.060868e+02
  -6.856696e+02   2.572870e+01
  -3.483512e+02  -4.345913e+02
   4.382151e+01  -5.943479e+02
   2.979993e+02  -1.594912e+02
   2.932773e+02   3.279431e+02
  -1.599017e+02   5.193609e+02
  -4.141646e+02   6.909187e+01
  -3.124183e+02  -5.309183e+02
   1.557147e+02  -5.744409e+02
   4.071696e+02  -2.115868e+02
   4.179964e+02   1.962646e+02
   1.070872e+02   3.433224e+02
  -1.556991e+02   2.442548e+02
  -7.377499e+01   6.284925e+01
   1.245174e+02   1.258941e+02
   2.402743e+02   3.247336e+02
   7.277180e+00   2.995247e+02
  -4.382495e+02   8.525944e+01
  -5.407466e+02  -2.028462e+02
  -2.311585e+02  -3.077944e+02
   4.015404e+02  -2.509041e+02
   4.919918e+02   1.634020e+02
   1.499333e+02   3.167320e+02
  -2.925460e+02   3.183130e+02
  -4.131433e+02   8.189098e+01
  -3.223303e+02  -1.657437e+02
  -1.208619e+02  -3.427862e+02
   1.926393e+01  -1.865898e+02
  -5.254789e+01   4.141125e+01
  -2.125679e+02   1.023124e+02
  -2.244400e+02  -1.725150e+02
   2.332875e+01  -4.875269e+02
   2.418600e+02  -4.220032e+02
   2.669502e+02   5.829917e+01
   9.901674e+01   3.246907e+02
  -7.685885e+01   1.327073e+02
  -9.922406e+01  -2.958054e+02
   1.212823e+02  -3.412729e+02
   4.118385e+02  -1.829316e-01
   4.768196e+02   4.349072e+02
   1.010141e+02   4.357281e+02
  -2.677209e+02   2.777852e+02
  -4.992065e+02  -1.098076e+02
  -3.473046e+02  -2.395458e+02
   7.849666e+01  -2.109843e+02
   3.006951e+02  -2.433342e+01
   1.956464e+02   2.786004e+01
   2.781169e+00   3.680831e+01
  -6.259629e+01  -1.069955e+01
   5.467830e+01  -4.852635e+01
   2.339853e+02   5.073869e+00
   8.747833e+01   1.996714e+02
  -1.534097e+02   2.910525e+02
  -3.133290e+02   1.092681e+02
  -2.259232e+02  -1.357941e+02
   4.336705e+01  -2.884246e+02
   2.838865e+02  -3.033699e+02
   3.378816e+02  -7.692096e+01
   1.858782e+02   1.747882e+02
   8.408809e+00   3.399076e+02
  -1.433178e+01   2.766115e+02
  -2.813440e-01   1.099495e+02
  -3.807168e+01   8.043533e+01
  -1.620204e+02   1.146755e+02
  -2.382438e+02   3.675979e+01
  -2.229287e+02  -1.207096e+02
  -5.327296e+01  -2.535814e+02
   1.097824e+02  -1.671564e+02
   1.624983e+02   3.168435e+01
   8.108252e+01   2.325141e+02
  -6.297509e+01   2.038482e+02
  -2.192773e+02   4.885354e+01
  -3.075978e+02  -2.228480e+02
  -1.358135e+02  -2.938869e+02
   7.977131e+01  -2.466289e+02
   1.334220e+02  -1.467290e+02
   1.432211e+02  -6.242621e+01
   1.505835e+02  -2.747885e+01
   2.512038e+02  -2.862173e+01
   3.963326e+02   1.408692e+02
   3.046954e+02   3.082689e+02
  -5.481968e+01   4.436751e+02
  -4.288815e+02   4.153459e+02
  -4.893990e+02   9.813934e+01
  -2.734422e+02  -1.621893e+02
   2.595623e+01  -2.484090e+02
   6.085464e+01  -1.596565e+02
   3.167617e+01  -3.444254e+01
  -7.597663e+01   3.454281e+01
  -1.560619e+02  -6.378985e+01
  -1.057596e+00  -1.652465e+02
   1.307741e+02  -1.220504e+02
   1.174765e+02   3.419921e+01
  -4.146374e+01   1.624269e+02
  -1.313848e+02   7.130441e+00
  -1.190716e+02  -2.132693e+02
   6.470734e+01  -3.091170e+02
   2.308826e+02  -1.494868e+02
   3.731416e+02   1.013147e+02
   2.337324e+02   2.774762e+02
   1.169621e+01   3.080410e+02
  -9.107325e+01   1.178272e+02
  -1.588897e+02  -3.151520e+01
  -1.175377e+01   1.060095e+01
   3.740940e+01   8.996209e+01
  -1.160265e+01   8.599969e+01
  -8.839761e+01   3.107072e+01
  -1.177876e+02  -6.540674e+01
  -2.585887e+01  -6.115390e+01
   8.778110e+01   2.734563e+01
   1.787341e+01   1.178628e+02
  -1.333812e+02   4.484756e+01
  -3.033328e+02  -6.862032e+01
  -2.603096e+02  -2.028667e+02
   9.346356e-01  -2.552473e+02
   2.248497e+02  -1.952352e+02
   2.543823e+02  -5.296285e+01
   1.304263e+02   6.744222e+01
  -3.973467e+01   6.730969e+01
  -5.312884e+01  -4.899083e+01
   7.328256e+01  -5.396128e+01
   1.469799e+02  -2.089406e+01
   1.696587e+02   9.902867e+01
   3.602362e+01   1.601725e+02
  -8.886419e+01   1.015069e+02
  -9.946976e+01  -1.679313e+01
  -4.179683e+01  -3.972474e+01
   1.517266e+01   2.123269e+01
   3.866315e+01   1.090626e+02
  -1.180794e+02   9.065049e+01
  -2.118592e+02  -2.487359e+01
  -1.576904e+02  -1.477021e+02
   1.771683e+01  -1.955757e+02
   1.875961e+02  -1.514231e+02
   1.556484e+02   1.428626e-01
   5.821667e+01   9.136485e+01
  -6.416165e+01   1.072901e+02
  -7.481751e+01   9.249655e+00
  -4.026533e+01  -2.178696e+01
   5.043061e+01  -5.692110e+00
  -1.053348e+01   3.311152e+01
  -9.191806e+01  -6.007530e+00
  -9.249751e+01  -1.075133e+02
   2.210673e+01  -1.710946e+02
   1.399583e+02  -1.119658e+02
   2.186274e+02   2.752776e+01
   1.775116e+02   1.964818e+02
   3.778480e+01   2.449343e+02
  -9.556606e+01   1.388874e+02
  -1.024637e+02   4.125133e+01
  -4.692054e+01  -4.451318e+01
  -4.938392e+01  -2.761092e+01
  -4.969915e+01  -1.441087e+01
  -9.162750e+01  -1.707710e+01
  -5.790773e+01  -7.301201e+01
   4.244251e+01  -1.236506e+02
   1.412918e+02  -8.126841e+01
   1.046370e+02   5.727368e+01
  -2.192039e+01   1.279847e+02
  -1.395452e+02   8.358971e+01
  -1.812381e+02  -8.812255e+01
  -2.692124e+01  -1.871484e+02
   1.314667e+02  -1.907580e+02
   2.694019e+02  -5.222894e+01
   1.777426e+02   9.426145e+01
   9.763170e+01   2.216319e+02
  -3.505049e+01   1.207608e+02
  -1.041909e+02   5.038770e+01
  -5.465258e+01   6.998972e+01
  -5.821281e+01   6.828543e+01
  -9.100391e+01   8.505304e+01
  -1.280895e+02  -1.844925e+01
  -1.186487e+02  -1.641796e+02
  -2.261663e+01  -2.108961e+02
   1.242509e+02  -1.363532e+02
   1.405300e+02   6.407662e+00
   8.444821e+01   1.602122e+02
  -4.073703e+01   1.412201e+02
  -6.957309e+01   5.634549e+01
  -9.037297e+01  -3.467415e+01
   2.085126e+01  -5.118449e+01
   1.982197e+01  -5.076157e+01
  -2.538755e+01  -1.765332e+01
  -6.343122e+01  -2.126295e+01
  -4.938685e+01  -2.559557e+01
   6.862319e+01  -1.164653e+01
   1.499701e+02  -8.880281e+00
   1.610774e+02   7.594466e+01
  -2.662227e+00   1.064161e+02
  -1.208690e+02   8.280078e+01
  -1.506888e+02   5.112959e+00
  -4.316591e+01  -7.809569e+01
   5.576355e+01  -2.860760e+01
   6.934065e+01   3.888476e+01
  -7.613802e+00   6.805132e+01
  -1.949990e+01   3.919267e+01
  -5.817961e+01  -9.980875e+00
  -6.334114e+01  -5.146514e+01
  -3.037879e+01  -5.120983e+01
  -6.437441e+01  -3.047162e+01
  -6.172461e+01  -8.366680e+00
  -3.239875e+01  -8.229142e+01
   4.843281e+01  -1.412445e+02
   1.424147e+02  -1.333993e+02
   1.866751e+02  -1.825513e+01
   1.326841e+02   9.700577e+01
  -4.671580e+00   1.425919e+02
  -4.115680e+01   8.964065e+01
  -5.288079e+01  -1.923315e+01
   7.189119e+01  -6.280051e+00
   1.070947e+02   2.522737e+01
   7.443626e+01   7.658248e+01
  -8.774749e+01   1.098957e+02
  -1.834817e+02   5.486483e+01
  -1.713995e+02  -5.101357e+01
  -3.433300e+01  -9.306539e+01
   3.027703e+01  -5.398501e+01
   7.304339e+01   1.198055e+01
  -6.381796e+01   7.587491e+00
  -1.005196e+02  -1.168321e+01
  -2.927733e+01  -8.698075e+01
   1.145731e+02  -1.560263e+02
   1.617818e+02  -6.034398e+01
   8.373395e+01   6.147741e+01
   1.838861e-01   1.648559e+02
  -1.072142e+02   1.504291e+02
  -8.390374e+01  -3.455117e+01
  -2.049608e+01  -1.009414e+02
   5.435308e+01  -1.040823e+02
   3.354239e+01   1.661648e+00
   2.821417e+01   2.355531e+01
   2.230794e+01   1.823751e+00
   8.722390e-01  -2.808087e+01
   4.309959e+01   5.962670e+00
   4.716457e+01   8.219900e+01
   1.414953e+01   9.277050e+01
  -2.921221e+01   3.787704e+01
  -8.864044e+01  -4.112276e+01
  -1.296770e+02  -8.679772e+01
  -1.177839e+01  -9.364240e+00
   9.466955e+01  -4.041316e+01
   5.924392e+01  -1.169963e+00
   2.229644e+01  -2.404987e+01
  -6.346441e+00   2.267926e+01
  -2.629407e+01  -3.280209e+00
   1.505498e+01   1.697001e+00
  -3.365251e+01  -1.421638e+01
  -6.603124e+01  -4.732003e+00
  -9.579277e+01   2.888897e-01
  -2.088500e+01  -7.093005e+01
   8.937007e+01  -1.076925e+02
   1.672821e+02  -2.171253e+01
   1.462261e+02   7.945894e+01
   3.191889e+01   1.502581e+02
  -8.672108e+01   1.520361e+02
  -1.197786e+02   5.252459e+01
  -6.582771e+01  -1.395531e+01
  -1.181334e+01  -6.805195e+01
   2.268811e+00  -3.899559e+01
  -2.972009e+01   6.242096e+00
  -3.941405e+01  -6.653769e+01
  -2.192343e+01  -5.914633e+01
   2.486055e+01  -4.511245e+01
   8.105996e+01   2.567696e+01
   7.121240e+01   6.804561e+01
  -1.691636e+00   1.145039e+02
  -8.072289e+01   1.051428e+01
  -7.622655e+01  -5.113005e+01
  -4.079275e+01  -1.157151e+02
   7.416860e+01  -3.549326e+01
   1.058234e+02   3.930023e+01
   3.564888e+01   1.406895e+01
  -3.564313e+01   4.946780e+01
  -5.229271e+01   3.571733e+01
   2.893276e+01   3.068059e+01
   5.631447e+01  -8.063639e+00
   1.890729e+00   2.650872e+01
  -8.008464e+01   5.525930e+01
  -1.043428e+02   4.892962e+01
  -1.006007e+02   4.792176e+00
   1.004747e+01  -1.178729e+02
   5.118141e+01  -9.514776e+01
   4.479257e+01  -3.830202e+01
  -4.767703e-01   6.701568e+01
  -3.092946e+01   3.250099e+01
  -3.898393e+01  -2.175417e+01
  -1.413625e+01  -5.139095e+01
   3.945281e+00  -5.015772e+01
   1.855489e+01  -4.812897e+00
   4.299703e+01   1.987970e+01
   1.355158e+01   6.071081e+00
   9.054729e-01  -2.005471e+01
   5.636022e+00  -3.735258e+01
  -2.269314e+00   3.689057e+01
  -1.883892e+01   4.339920e+01
  -1.404264e+01   2.657245e+01
  -7.030015e+01  -3.630832e+01
   1.170406e+01  -4.960210e+01
   4.788997e+01  -1.921299e+01
   6.985915e+01   1.607491e+01
   1.790216e+01   4.277683e+01
  -6.775443e+01   4.331441e+01
  -1.237490e+02  -3.664495e+01
  -3.787049e+01  -2.570125e+01
   4.655079e+01  -2.661419e+01
   7.374416e+01  -2.007636e+01
   4.014265e+01  -1.872135e+01
  -2.616253e+01   2.482609e+01
  -2.480279e+01   1.080748e+01
   3.120627e+01  -4.454607e+01
   9.318058e+01  -4.778873e+00
