
 $NMID
 id='ANONYMOUS ', fmtdat='(2E16.6)'
 volume=1.0
 tramp=1.0
 $END
  -6.371293e+07   6.195428e+05
  -3.829078e+07  -3.993054e+07
   8.766136e+06  -4.343317e+07
   3.135717e+07  -1.594782e+07
   1.829480e+07   8.698593e+06
  -4.093387e+06   1.051441e+07
  -1.094751e+07  -1.893088e+06
  -2.664091e+06  -1.106988e+07
   7.238001e+06  -9.993914e+06
   1.078315e+07  -1.870159e+06
   7.774289e+06   6.817811e+06
   1.003050e+06   9.399683e+06
  -4.340289e+06   3.198919e+06
  -2.887711e+06  -5.658131e+06
   4.208973e+06  -6.926641e+06
   8.743077e+06   1.671808e+06
   4.864108e+06   1.139419e+07
  -4.281644e+06   1.314069e+07
  -1.130126e+07   6.701863e+06
  -1.223793e+07  -2.083129e+06
  -7.780030e+06  -8.361454e+06
  -1.032079e+06  -1.003798e+07
   3.513207e+06  -7.161429e+06
   2.695220e+06  -2.896421e+06
  -8.667837e+05  -1.795497e+06
  -5.377812e+05  -4.150206e+06
   5.417121e+06  -4.949684e+06
   1.034439e+07  -9.817712e+05
   7.903174e+06   4.253889e+06
   7.217343e+05   5.624795e+06
  -3.692675e+06   3.173101e+06
  -2.745636e+06   4.928008e+05
   1.366786e+05  -7.188795e+05
   1.912794e+06  -6.888372e+05
   2.320397e+06   1.073125e+06
   1.128768e+06   4.006625e+06
  -1.782367e+06   4.417225e+06
  -3.862636e+06   2.061349e+05
  -2.295695e+06  -4.061070e+06
   8.314050e+05  -2.546929e+06
   6.383164e+05   2.332511e+06
  -2.564649e+06   2.397991e+06
  -2.652657e+06  -3.611942e+06
   2.938078e+06  -6.887322e+06
   8.116367e+06  -1.098598e+06
   5.894687e+06   7.889397e+06
  -2.208621e+06   9.680838e+06
  -8.318690e+06   2.780296e+06
  -7.557775e+06  -4.870964e+06
  -1.858894e+06  -6.532456e+06
   3.795143e+06  -2.815194e+06
   5.559843e+06   1.784736e+06
   2.443303e+06   3.847356e+06
  -2.780066e+06   2.376612e+06
  -5.011285e+06  -1.090424e+06
  -2.104775e+06  -3.074477e+06
   1.925558e+06  -1.529627e+06
   1.818832e+06   1.133939e+06
  -1.637956e+06   8.737739e+05
  -2.728348e+06  -2.253774e+06
   9.888990e+05  -4.062856e+06
   5.463745e+06  -2.079501e+06
   5.959925e+06   1.713275e+06
   2.515692e+06   4.526350e+06
  -1.865840e+06   5.800965e+06
  -5.221932e+06   5.374127e+06
  -6.664702e+06   2.103739e+06
  -5.166240e+06  -3.276768e+06
  -1.193550e+06  -6.677006e+06
   2.087166e+06  -5.122437e+06
   2.027062e+06  -1.097255e+06
   3.576379e+04   5.572310e+05
  -4.242189e+05  -9.625742e+05
   1.366344e+06  -2.114584e+06
   2.901363e+06  -6.073650e+05
   2.285627e+06   1.742688e+06
   2.672556e+05   2.141197e+06
  -1.433568e+06   3.036297e+05
  -1.731199e+06  -2.002930e+06
  -1.226922e+05  -3.036757e+06
   2.857746e+06  -1.908846e+06
   4.892973e+06   1.072346e+06
   3.684548e+06   4.024046e+06
   7.320214e+04   4.739303e+06
  -2.536192e+06   3.109709e+06
  -2.548893e+06   1.250136e+06
  -2.025393e+06   6.538604e+05
  -3.113545e+06   4.483327e+05
  -4.582876e+06  -8.177172e+05
  -3.673619e+06  -2.897572e+06
  -1.671905e+05  -4.311507e+06
   3.271359e+06  -4.115388e+06
   4.275879e+06  -2.349364e+06
   2.812775e+06   2.831952e+05
   4.527043e+05   2.295322e+06
  -1.025453e+06   2.101081e+06
  -6.077816e+05   1.797016e+04
   1.079524e+06  -1.408185e+06
   2.021489e+06  -4.623053e+05
   1.044465e+06   1.270644e+06
  -4.816953e+05   1.174159e+06
  -3.759359e+05  -4.091567e+05
   1.221627e+06  -6.157864e+05
   1.947612e+06   1.603580e+06
   4.617825e+05   3.823001e+06
  -1.956767e+06   3.451008e+06
  -3.382471e+06   8.712882e+05
  -3.311887e+06  -1.669659e+06
  -2.200865e+06  -2.816157e+06
  -4.402643e+05  -2.616212e+06
   1.240560e+06  -1.527949e+06
   1.619339e+06  -2.859550e+05
   5.158109e+05   4.257271e+04
  -3.797032e+05  -7.838870e+05
   4.488834e+05  -1.439835e+06
   2.052144e+06  -6.300729e+05
   2.167799e+06   9.649171e+05
   3.893636e+05   1.523765e+06
  -1.232854e+06   5.918572e+05
  -8.822475e+05  -4.696396e+05
   9.158280e+05  -4.615503e+05
   2.203184e+06   4.212072e+05
   1.699674e+06   1.401403e+06
  -3.085694e+05   1.969114e+06
  -2.380876e+06   1.677101e+06
  -2.881044e+06   2.895728e+05
  -1.292828e+06  -1.343678e+06
   9.701368e+05  -1.632331e+06
   1.691620e+06  -2.276037e+05
   2.555592e+05   1.161475e+06
  -1.591534e+06   7.990098e+05
  -1.799923e+06  -8.308540e+05
  -3.133689e+05  -1.732432e+06
   1.178885e+06  -9.754708e+05
   1.300663e+06   3.828940e+05
   2.145426e+05   8.366504e+05
  -8.627403e+05   5.353888e+04
  -7.934923e+05  -1.102487e+06
   5.730883e+05  -1.504079e+06
   2.089090e+06  -6.077559e+05
   2.151820e+06   1.068527e+06
   4.224608e+05   2.178376e+06
  -1.515373e+06   1.734783e+06
  -1.816835e+06   2.129454e+05
  -5.120495e+05  -9.178408e+05
   6.933683e+05  -8.324394e+05
   6.289198e+05  -9.278551e+04
  -1.456767e+05   3.145160e+05
  -4.591410e+05   1.599410e+05
  -2.907632e+04  -4.688911e+04
   5.170074e+05   1.659935e+05
   5.123989e+05   7.684429e+05
  -2.592041e+05   1.252226e+06
  -1.456890e+06   9.304919e+05
  -2.179218e+06  -4.265328e+05
  -1.551101e+06  -2.023642e+06
   2.036034e+05  -2.518795e+06
   1.665738e+06  -1.444894e+06
   1.719373e+06   1.518301e+05
   8.358491e+05   8.863629e+05
   3.180818e+05   5.754772e+05
   5.552956e+05   1.636171e+05
   7.199438e+05   3.488060e+05
   1.064904e+05   8.406245e+05
  -9.312639e+05   9.326098e+05
  -1.494726e+06   3.106074e+05
  -1.049087e+06  -7.345616e+05
   2.830007e+05  -1.467163e+06
   1.780963e+06  -1.089505e+06
   2.324784e+06   4.980835e+05
   1.166250e+06   2.191155e+06
  -1.084802e+06   2.478410e+06
  -2.681747e+06   1.059269e+06
  -2.431236e+06  -7.230396e+05
  -9.314363e+05  -1.388898e+06
   2.467849e+05  -9.207747e+05
   3.530337e+05  -4.760220e+05
  -1.019811e+04  -7.974411e+05
   5.538124e+04  -1.419713e+06
   7.035788e+05  -1.390882e+06
   1.374708e+06  -3.574426e+05
   1.419957e+06   1.108528e+06
   6.078856e+05   1.967586e+06
  -6.255867e+05   1.506252e+06
  -1.334650e+06  -3.927146e+00
  -8.431463e+05  -1.355681e+06
   4.359880e+05  -1.462671e+06
   1.255065e+06  -3.823691e+05
   8.548654e+05   7.963811e+05
  -1.732016e+05   1.163367e+06
  -6.183194e+05   8.084175e+05
  -1.104314e+05   4.068168e+05
   4.685030e+05   3.325007e+05
   7.405547e+04   3.938464e+05
  -1.219929e+06   2.193298e+05
  -2.187609e+06  -3.432305e+05
  -1.696531e+06  -1.089064e+06
   6.814732e+04  -1.526410e+06
   1.696332e+06  -1.217718e+06
   1.924842e+06  -2.768832e+05
   8.566006e+05   5.623755e+05
  -2.906223e+05   6.215873e+05
  -5.477079e+05   1.601225e+04
  -5.142192e+04  -4.748988e+05
   4.425514e+05  -2.864296e+05
   5.143006e+05   3.510214e+05
   3.170042e+05   7.420024e+05
   1.471537e+05   4.983352e+05
   1.362869e+05  -7.004068e+04
   2.520545e+05  -2.713476e+05
   2.791839e+05   2.444801e+05
  -1.149839e+05   1.015816e+06
  -9.277735e+05   1.129576e+06
  -1.471210e+06   2.256941e+05
  -9.525092e+05  -9.441265e+05
   4.206501e+05  -1.235794e+06
   1.340922e+06  -4.104221e+05
   7.812839e+05   5.740905e+05
  -7.366056e+05   6.749331e+05
  -1.636069e+06  -1.074307e+05
  -9.954013e+05  -8.987448e+05
   5.384595e+05  -9.952697e+05
   1.541053e+06  -4.491635e+05
   1.242063e+06   2.185526e+05
   1.213896e+05   5.216292e+05
  -6.781026e+05   2.648447e+05
  -4.192304e+05  -3.172889e+05
   5.801940e+05  -5.782673e+05
   1.241811e+06   2.850104e+04
   7.666185e+05   1.203826e+06
  -5.324660e+05   1.809151e+06
  -1.507919e+06   9.866262e+05
  -1.326868e+06  -7.479585e+05
  -2.501198e+05  -1.851567e+06
   7.471156e+05  -1.331969e+06
   9.539793e+05   2.018575e+05
   4.317050e+05   1.235963e+06
  -2.570400e+05   9.826368e+05
  -5.955087e+05   7.566230e+04
  -4.573345e+05  -3.752277e+05
  -1.354724e+05  -1.256486e+05
  -6.277120e+04   8.764709e+04
  -3.486995e+05  -3.316604e+05
  -5.665792e+05  -1.009165e+06
  -1.711998e+05  -1.107457e+06
   7.893501e+05  -4.112105e+05
   1.534847e+06   4.564281e+05
   1.301670e+06   8.461052e+05
   1.981918e+05   7.329072e+05
  -8.413053e+05   4.589172e+05
  -1.004995e+06   1.929834e+05
  -4.088023e+05  -7.479375e+04
   1.315253e+05  -2.433669e+05
   7.987579e+04  -1.877301e+05
  -2.274945e+05  -6.181280e+04
  -7.586833e+04  -1.351432e+05
   6.292465e+05  -2.843364e+05
   1.099092e+06  -2.917570e+04
   5.454554e+05   7.245856e+05
  -7.995183e+05   1.285022e+06
  -1.792383e+06   8.700987e+05
  -1.551994e+06  -3.866821e+05
  -3.459755e+05  -1.451984e+06
   7.797415e+05  -1.472743e+06
   1.083983e+06  -6.264284e+05
   6.837779e+05   1.937244e+05
   1.727622e+05   3.722942e+05
  -2.616695e+04   1.060226e+05
   9.983962e+04   1.843942e+04
   2.968323e+05   3.908404e+05
   2.578658e+05   8.357001e+05
  -1.568831e+05   7.265329e+05
  -7.056194e+05  -6.784009e+04
  -8.353763e+05  -9.357564e+05
  -2.136189e+05  -1.082981e+06
   7.480052e+05  -3.375989e+05
   1.124165e+06   6.709301e+05
   4.343588e+05   1.131855e+06
  -7.165638e+05   7.714779e+05
  -1.198567e+06  -2.811805e+04
  -6.036627e+05  -6.619268e+05
   2.847231e+05  -7.668924e+05
   4.300812e+05  -4.055227e+05
  -2.101054e+05   2.012769e+04
  -6.643349e+05   7.031844e+04
  -1.797321e+05  -3.278275e+05
   8.406024e+05  -7.278920e+05
   1.339635e+06  -5.633173e+05
   8.502491e+05   2.037088e+05
  -6.930694e+04   9.316839e+05
  -5.949780e+05   9.305274e+05
  -4.920992e+05   2.170849e+05
  -1.000211e+05  -4.791248e+05
   2.272204e+05  -4.910476e+05
   3.721548e+05   9.605010e+04
   2.923167e+05   5.931791e+05
  -3.016076e+04   4.910934e+05
  -4.130789e+05  -1.287633e+04
  -5.212167e+05  -3.102147e+05
  -2.557498e+05  -1.217056e+05
   6.277041e+04   1.932399e+05
   8.504548e+04   1.181447e+05
  -9.123062e+04  -3.419009e+05
  -5.711792e+04  -6.325921e+05
   3.000152e+05  -3.269570e+05
   5.577473e+05   3.267677e+05
   2.713302e+05   6.677504e+05
  -3.922199e+05   3.681432e+05
  -7.378090e+05  -2.376609e+05
  -3.116064e+05  -5.718700e+05
   5.317960e+05  -4.068394e+05
   9.547088e+05   2.620878e+04
   5.290288e+05   3.765074e+05
  -2.938264e+05   4.654916e+05
  -6.746459e+05   3.061415e+05
  -2.996747e+05   3.452530e+04
   3.076204e+05  -1.262433e+05
   4.100165e+05  -4.319538e+03
  -1.192836e+05   2.801819e+05
  -6.946604e+05   3.172433e+05
