
 $NMID
 id='ANONYMOUS ', fmtdat='(2E16.6)'
 volume=1.0
 tramp=1.0
 $END
   3.636987e+07   4.999642e+05
   2.258089e+07   2.070375e+07
  -3.241650e+06   2.397533e+07
  -1.716987e+07   1.155544e+07
  -1.166322e+07  -2.288071e+06
   1.041754e+06  -6.236897e+06
   6.792333e+06  -7.497477e+05
   3.232076e+06   6.182043e+06
  -3.200762e+06   7.612046e+06
  -6.522159e+06   2.490432e+06
  -5.028743e+06  -4.368454e+06
  -5.302395e+05  -6.417092e+06
   2.990149e+06  -1.663249e+06
   2.092696e+06   4.690679e+06
  -2.393622e+06   5.514179e+06
  -5.511745e+06  -3.066379e+05
  -3.464539e+06  -6.884786e+06
   2.232765e+06  -8.201228e+06
   6.768757e+06  -3.941548e+06
   7.015478e+06   1.736245e+06
   3.707741e+06   5.004919e+06
  -1.025957e+04   4.962438e+06
  -1.235575e+06   3.200376e+06
   3.260172e+05   2.153379e+06
   1.721543e+06   2.964194e+06
  -3.475376e+05   4.121317e+06
  -5.116589e+06   3.042664e+06
  -7.715479e+06  -4.768165e+05
  -4.859007e+06  -3.545457e+06
   7.774413e+05  -3.564631e+06
   3.636834e+06  -1.148570e+06
   1.768745e+06   1.106956e+06
  -1.728574e+06   1.514033e+06
  -3.152243e+06   5.995605e+04
  -1.890623e+06  -2.276122e+06
   3.251190e+05  -3.685171e+06
   1.754010e+06  -2.407677e+06
   1.609701e+06   8.298411e+05
   2.931546e+05   2.466215e+06
  -5.870511e+05   3.291534e+05
   3.377880e+05  -2.724079e+06
   2.090723e+06  -2.075477e+06
   1.959282e+06   2.016135e+06
  -9.307469e+05   4.135789e+06
  -3.801511e+06   9.260754e+05
  -3.184024e+06  -4.208873e+06
   9.281407e+05  -5.434698e+06
   4.941224e+06  -1.600086e+06
   5.358795e+06   3.128292e+06
   1.909971e+06   4.600334e+06
  -2.540028e+06   2.489367e+06
  -4.444728e+06  -7.181358e+05
  -2.432082e+06  -2.476283e+06
   1.387766e+06  -1.786387e+06
   3.245602e+06   3.644662e+05
   1.606315e+06   1.737823e+06
  -1.116955e+06   9.965316e+05
  -1.550024e+06  -6.969683e+05
   4.507152e+05  -1.067687e+06
   1.839536e+06   3.629737e+05
   4.603781e+05   1.788729e+06
  -2.336986e+06   1.519640e+06
  -3.550822e+06  -2.951238e+05
  -1.855217e+06  -2.447484e+06
   1.518394e+06  -3.840344e+06
   4.302067e+06  -3.505750e+06
   4.864676e+06  -9.271368e+05
   3.083262e+06   2.718796e+06
   4.232502e+05   4.785684e+06
  -1.160631e+06   3.861576e+06
  -1.056071e+06   1.575893e+06
  -5.227623e+05   5.362485e+05
  -9.770349e+05   1.003955e+06
  -2.156410e+06   9.746420e+05
  -2.567624e+06  -6.355153e+05
  -1.421010e+06  -2.363125e+06
   5.313543e+05  -2.172505e+06
   1.867556e+06  -1.184248e+04
   1.613997e+06   2.222754e+06
  -2.236466e+05   2.684520e+06
  -2.491173e+06   1.072089e+06
  -3.403600e+06  -1.388973e+06
  -2.099610e+06  -2.994946e+06
   2.312255e+05  -2.894138e+06
   1.543902e+06  -1.742016e+06
   1.391467e+06  -8.853785e+05
   1.324922e+06  -7.916169e+05
   2.496634e+06  -6.173111e+05
   3.775112e+06   5.383903e+05
   3.073596e+06   2.382356e+06
   1.142379e+05   3.682322e+06
  -2.991708e+06   3.439634e+06
  -3.910281e+06   1.640378e+06
  -2.300454e+06  -7.147271e+05
   1.164276e+05  -2.099975e+06
   1.262608e+06  -1.567233e+06
   4.690114e+05   1.504966e+05
  -1.089509e+06   1.104246e+06
  -1.638893e+06   2.930797e+05
  -6.602832e+05  -1.037778e+06
   5.852673e+05  -1.002748e+06
   5.736329e+05   3.259316e+05
  -6.728655e+05   9.240349e+05
  -1.663643e+06  -4.832188e+05
  -1.156272e+06  -2.675860e+06
   6.569400e+05  -3.367304e+06
   2.557705e+06  -1.755101e+06
   3.346431e+06   8.696967e+05
   2.507518e+06   2.622566e+06
   5.209875e+05   2.611230e+06
  -1.236674e+06   1.340851e+06
  -1.497251e+06   1.144494e+05
  -4.479927e+05  -4.926125e+04
   3.240564e+05   6.795479e+05
  -3.144250e+05   1.133433e+06
  -1.586669e+06   4.961182e+05
  -1.766103e+06  -6.901040e+05
  -4.072745e+05  -1.184120e+06
   1.032448e+06  -5.502372e+05
   9.161925e+05   4.096500e+05
  -6.983716e+05   6.542677e+05
  -2.143908e+06  -8.423643e+04
  -1.862552e+06  -1.253364e+06
   1.036044e+05  -1.989304e+06
   2.152525e+06  -1.634923e+06
   2.561074e+06  -2.655188e+05
   1.079516e+06   1.095455e+06
  -7.980118e+05   1.244870e+06
  -1.288372e+06   1.301497e+05
  -1.019584e+05  -9.114423e+05
   1.358524e+06  -6.271461e+05
   1.567033e+06   6.664496e+05
   4.076574e+05   1.494916e+06
  -9.079444e+05   9.998253e+05
  -1.180434e+06  -1.514008e+05
  -3.253571e+05  -6.678112e+05
   6.546073e+05  -6.654460e+04
   6.273556e+05   9.449026e+05
  -5.713064e+05   1.265229e+06
  -1.842698e+06   4.257032e+05
  -1.815222e+06  -1.000997e+06
  -3.237198e+05  -1.871682e+06
   1.283097e+06  -1.477544e+06
   1.555278e+06  -2.197915e+05
   4.977456e+05   7.714776e+05
  -5.821892e+05   7.573720e+05
  -6.461753e+05   5.460147e+04
   5.699234e+04  -4.510240e+05
   5.516625e+05  -3.094424e+05
   3.093824e+05   9.941441e+04
  -3.095561e+05   1.002787e+05
  -5.287155e+05  -4.794173e+05
   9.970597e+04  -1.058050e+06
   1.232657e+06  -8.307574e+05
   1.892901e+06   3.801536e+05
   1.307774e+06   1.780350e+06
  -2.284020e+05   2.235749e+06
  -1.510936e+06   1.364340e+06
  -1.638387e+06  -6.515679e+04
  -9.120834e+05  -9.185867e+05
  -3.218173e+05  -8.115116e+05
  -3.207076e+05  -3.335014e+05
  -4.388321e+05  -2.410013e+05
  -5.810644e+04  -6.121860e+05
   7.681435e+05  -8.398776e+05
   1.356103e+06  -3.532996e+05
   1.050738e+06   6.984941e+05
  -1.825407e+05   1.446233e+06
  -1.601904e+06   1.043964e+06
  -2.099188e+06  -4.450329e+05
  -1.081468e+06  -1.914382e+06
   8.477641e+05  -2.149269e+06
   2.263177e+06  -9.919376e+05
   2.199472e+06   5.195094e+05
   1.015379e+06   1.234906e+06
  -1.185723e+05   9.976634e+05
  -4.583327e+05   5.822847e+05
  -2.500630e+05   6.692030e+05
  -1.911942e+05   1.087965e+06
  -5.978547e+05   1.093081e+06
  -1.133521e+06   2.515466e+05
  -1.185937e+06  -1.016135e+06
  -4.722275e+05  -1.748924e+06
   6.032530e+05  -1.308732e+06
   1.189611e+06  -3.824614e+03
   7.600762e+05   1.135963e+06
  -2.923803e+05   1.267820e+06
  -9.775017e+05   4.573149e+05
  -7.269887e+05  -4.985899e+05
   2.004916e+04  -9.027415e+05
   3.706796e+05  -7.314977e+05
   3.126856e+04  -4.343489e+05
  -3.676242e+05  -3.410652e+05
  -3.389454e+04  -3.633858e+05
   1.009622e+06  -1.968782e+05
   1.822711e+06   3.004326e+05
   1.468937e+06   9.241972e+05
   2.945628e+04   1.255218e+06
  -1.374472e+06   1.000878e+06
  -1.648707e+06   2.916440e+05
  -7.904446e+05  -3.567132e+05
   2.020921e+05  -4.692154e+05
   4.416528e+05  -6.922426e+04
  -8.034481e+03   3.212842e+05
  -4.430004e+05   2.108551e+05
  -4.239489e+05  -3.216467e+05
  -1.435434e+05  -6.862649e+05
  -7.929078e+03  -4.437053e+05
  -1.376545e+05   1.388372e+05
  -3.221864e+05   3.297339e+05
  -2.649884e+05  -2.081817e+05
   1.817747e+05  -9.283842e+05
   8.343602e+05  -9.513125e+05
   1.158726e+06  -9.392417e+04
   6.782989e+05   8.503616e+05
  -3.940054e+05   9.670335e+05
  -1.103771e+06   2.195819e+05
  -6.526263e+05  -5.603871e+05
   6.337467e+05  -6.022421e+05
   1.493309e+06   6.684000e+04
   1.016078e+06   7.893288e+05
  -3.846313e+05   9.691573e+05
  -1.408789e+06   5.281343e+05
  -1.203159e+06  -1.374167e+05
  -1.557471e+05  -4.944367e+05
   5.935259e+05  -2.760473e+05
   3.261464e+05   2.512119e+05
  -5.795919e+05   4.350945e+05
  -1.078968e+06  -1.465434e+05
  -5.329103e+05  -1.123700e+06
   6.464120e+05  -1.529213e+06
   1.417549e+06  -7.430534e+05
   1.143138e+06   7.465168e+05
   1.485979e+05   1.676166e+06
  -7.079626e+05   1.224960e+06
  -8.692994e+05  -1.327791e+05
  -4.290682e+05  -1.106035e+06
   1.595755e+05  -9.310098e+05
   5.051449e+05  -9.574700e+04
   4.693328e+05   3.688366e+05
   1.968634e+05   1.473495e+05
   2.870583e+04  -1.033110e+05
   1.874278e+05   2.420299e+05
   4.323881e+05   8.878835e+05
   2.177633e+05   1.015681e+06
  -6.028034e+05   3.685737e+05
  -1.369719e+06  -4.557303e+05
  -1.227995e+06  -7.974218e+05
  -1.679478e+05  -6.391520e+05
   8.436631e+05  -3.681184e+05
   9.333058e+05  -1.707861e+05
   2.957047e+05   2.544801e+04
  -1.562741e+05   2.011089e+05
   1.651979e+04   2.187943e+05
   2.997896e+05   1.252224e+05
   2.225956e+04   1.268090e+05
  -6.766971e+05   1.827123e+05
  -9.606487e+05  -4.644835e+04
  -3.056522e+05  -6.357069e+05
   8.523172e+05  -1.038181e+06
   1.547203e+06  -6.285061e+05
   1.227472e+06   4.541899e+05
   2.057542e+05   1.314684e+06
  -7.201795e+05   1.240248e+06
  -9.784087e+05   4.409324e+05
  -6.085209e+05  -2.579211e+05
  -9.367606e+04  -3.322145e+05
   1.116277e+05  -2.649864e+04
  -5.953947e+04   5.101754e+04
  -2.965402e+05  -3.307187e+05
  -2.346662e+05  -7.529209e+05
   1.890790e+05  -6.130525e+05
   6.365535e+05   1.603811e+05
   6.331546e+05   9.269853e+05
   3.139345e+04   9.481905e+05
  -7.293232e+05   1.654393e+05
  -9.251309e+05  -7.301225e+05
  -2.689835e+05  -1.010124e+06
   6.788986e+05  -5.761367e+05
   1.007997e+06   1.038067e+05
   4.531213e+05   5.421617e+05
  -2.733513e+05   5.773731e+05
  -3.176769e+05   3.239256e+05
   2.713525e+05   3.182888e+04
   6.124945e+05  -1.623037e+04
   1.148484e+05   2.785618e+05
  -7.766409e+05   6.176689e+05
  -1.138929e+06   5.091939e+05
  -6.593954e+05  -1.429576e+05
   1.091508e+05  -7.843893e+05
   4.886058e+05  -7.645545e+05
   3.524306e+05  -1.119456e+05
   1.689336e+04   4.608096e+05
  -2.367809e+05   3.742804e+05
  -3.235452e+05  -1.810010e+05
  -2.175295e+05  -5.399143e+05
   6.598576e+04  -3.586715e+05
   3.582434e+05   6.558821e+04
   4.218608e+05   2.416023e+05
   2.228160e+05   7.003957e+04
  -1.075625e+04  -1.088101e+05
  -7.747859e+04   2.017005e+04
  -4.967670e+04   3.493668e+05
  -1.301108e+05   4.628268e+05
  -3.203154e+05   1.255406e+05
  -3.639722e+05  -4.026847e+05
  -6.477205e+04  -6.051370e+05
   4.020623e+05  -2.632376e+05
   5.824341e+05   2.955373e+05
   2.033751e+05   5.495964e+05
  -4.648310e+05   3.227245e+05
  -7.913981e+05  -1.033285e+05
  -4.241218e+05  -3.591115e+05
   2.783978e+05  -3.360212e+05
   5.837915e+05  -1.640378e+05
   2.023002e+05  -7.155281e+03
  -3.611767e+05   2.458075e+04
  -3.899413e+05  -1.093283e+05
   1.956517e+05  -2.894229e+05
   7.473435e+05  -2.324988e+05
