
 $NMID
 id='ANONYMOUS ', fmtdat='(2E16.6)'
 volume=1.0
 tramp=1.0
 $END
  -3.101597e+07   1.272009e+05
  -2.007994e+07  -1.567716e+07
   1.088861e+06  -1.988291e+07
   1.366589e+07  -1.171849e+07
   1.051423e+07  -5.197892e+04
   7.780236e+04   5.388695e+06
  -5.942191e+06   1.960192e+06
  -3.931827e+06  -4.957261e+06
   1.808286e+06  -7.626725e+06
   5.588588e+06  -3.176186e+06
   4.794307e+06   3.809505e+06
   6.933146e+05   6.073151e+06
  -2.813697e+06   1.450811e+06
  -2.293318e+06  -4.753985e+06
   1.751992e+06  -5.678123e+06
   4.956105e+06  -3.179083e+05
   3.577221e+06   5.931322e+06
  -1.492396e+06   7.437153e+06
  -5.828881e+06   3.636110e+06
  -6.078679e+06  -1.599926e+06
  -2.883833e+06  -4.346042e+06
   2.767960e+05  -3.818044e+06
   5.752474e+05  -2.181642e+06
  -1.467826e+06  -1.978847e+06
  -2.411651e+06  -3.518941e+06
   4.303594e+05  -4.592253e+06
   5.435472e+06  -3.015356e+06
   7.719235e+06   6.536087e+05
   4.529394e+06   3.504868e+06
  -1.224704e+06   3.356049e+06
  -4.006968e+06   8.139472e+05
  -1.760821e+06  -1.687583e+06
   2.312540e+06  -2.109896e+06
   3.915535e+06  -9.933390e+04
   2.130394e+06   2.821384e+06
  -6.384998e+05   4.043281e+06
  -1.868585e+06   2.088400e+06
  -1.118398e+06  -1.262565e+06
   2.638638e+05  -2.254398e+06
   6.393767e+05   3.549869e+05
  -5.173219e+05   3.197352e+06
  -2.035040e+06   2.286695e+06
  -1.985363e+06  -1.599615e+06
   2.159738e+05  -3.610060e+06
   2.695129e+06  -1.012556e+06
   2.702785e+06   3.325855e+06
  -4.419125e+05   4.568683e+06
  -4.267265e+06   1.525704e+06
  -5.287332e+06  -2.631116e+06
  -2.321215e+06  -4.306593e+06
   2.242548e+06  -2.739420e+06
   4.527644e+06   2.099469e+05
   2.773766e+06   2.126795e+06
  -9.786074e+05   1.803388e+06
  -2.981327e+06  -3.282983e+04
  -1.657924e+06  -1.393734e+06
   9.210632e+05  -9.574296e+05
   1.645633e+06   5.388580e+05
  -2.349085e+04   1.222401e+06
  -1.674232e+06   3.103207e+05
  -1.009932e+06  -1.120557e+06
   1.458249e+06  -1.498216e+06
   3.066397e+06  -2.632139e+05
   1.884666e+06   1.917918e+06
  -1.410638e+06   3.654130e+06
  -4.305084e+06   3.459445e+06
  -4.755576e+06   8.448287e+05
  -2.842679e+06  -2.713854e+06
  -4.182563e+05  -4.652496e+06
   7.898578e+05  -3.869395e+06
   7.265554e+05  -1.922092e+06
   6.641560e+05  -1.008331e+06
   1.484731e+06  -1.236780e+06
   2.629653e+06  -8.560688e+05
   2.809504e+06   9.745193e+05
   1.448420e+06   2.763485e+06
  -7.184366e+05   2.473816e+06
  -2.216922e+06   4.956709e+04
  -1.887091e+06  -2.430858e+06
   2.131201e+05  -2.871802e+06
   2.594996e+06  -1.038884e+06
   3.352722e+06   1.494708e+06
   1.922067e+06   2.899100e+06
  -2.609717e+05   2.600793e+06
  -1.323847e+06   1.513300e+06
  -1.109282e+06   8.878509e+05
  -1.172408e+06   9.687403e+05
  -2.500738e+06   8.621047e+05
  -3.911677e+06  -3.059152e+05
  -3.310207e+06  -2.293735e+06
  -3.051759e+05  -3.844523e+06
   3.024838e+06  -3.735339e+06
   4.120315e+06  -1.793132e+06
   2.427941e+06   8.141239e+05
  -1.989588e+05   2.281746e+06
  -1.399624e+06   1.637979e+06
  -4.885313e+05  -1.983275e+05
   1.149279e+06  -1.183426e+06
   1.668747e+06  -3.520563e+05
   6.542794e+05   1.042274e+06
  -6.252214e+05   1.090820e+06
  -7.159905e+05  -2.857704e+05
   4.863832e+05  -1.140059e+06
   1.719278e+06   6.632260e+04
   1.621626e+06   2.465377e+06
  -8.676660e+04   3.670247e+06
  -2.399355e+06   2.352249e+06
  -3.721054e+06  -4.869703e+05
  -3.019567e+06  -2.662752e+06
  -7.599285e+05  -2.842983e+06
   1.289683e+06  -1.490663e+06
   1.611494e+06  -1.544215e+05
   4.751005e+05   3.249810e+04
  -3.760543e+05  -6.963586e+05
   2.444975e+05  -1.160319e+06
   1.568349e+06  -5.799835e+05
   1.844055e+06   5.767944e+05
   5.150676e+05   1.165851e+06
  -1.037573e+06   6.486544e+05
  -1.043982e+06  -3.719493e+05
   6.474427e+05  -8.177171e+05
   2.333105e+06  -1.479664e+05
   2.177713e+06   1.211380e+06
   7.675540e+04   2.197336e+06
  -2.199047e+06   1.909952e+06
  -2.702248e+06   4.271814e+05
  -1.175996e+06  -1.068349e+06
   7.625085e+05  -1.284942e+06
   1.282318e+06  -1.730353e+05
   1.069357e+05   9.213876e+05
  -1.388383e+06   7.074482e+05
  -1.683901e+06  -5.934758e+05
  -5.632448e+05  -1.540083e+06
   8.475597e+05  -1.155682e+06
   1.261158e+06   2.090091e+04
   4.312340e+05   6.543288e+05
  -6.452435e+05   1.092898e+05
  -6.857100e+05  -9.562218e+05
   5.621556e+05  -1.347936e+06
   1.929994e+06  -5.091428e+05
   1.946080e+06   9.849730e+05
   4.247205e+05   1.945444e+06
  -1.258059e+06   1.611634e+06
  -1.614592e+06   3.287908e+05
  -5.864392e+05  -7.719397e+05
   5.606227e+05  -8.416873e+05
   7.168550e+05  -8.906693e+04
   1.618705e+03   5.415680e+05
  -6.125387e+05   4.288109e+05
  -4.428147e+05  -9.531081e+04
   2.536228e+05  -2.084586e+05
   6.038988e+05   3.992880e+05
  -1.452831e+03   1.099992e+06
  -1.237807e+06   9.467950e+05
  -2.011628e+06  -3.013784e+05
  -1.457519e+06  -1.812559e+06
   1.367480e+05  -2.385645e+06
   1.534980e+06  -1.563208e+06
   1.780390e+06  -5.339508e+04
   1.089474e+06   9.659724e+05
   4.161288e+05   9.557874e+05
   3.021422e+05   4.165500e+05
   3.983439e+05   2.156120e+05
   7.367402e+04   5.968367e+05
  -7.462339e+05   9.336414e+05
  -1.425404e+06   4.787439e+05
  -1.199064e+06  -6.952372e+05
   8.152301e+04  -1.594106e+06
   1.644891e+06  -1.224311e+06
   2.263221e+06   3.556630e+05
   1.268196e+06   1.955442e+06
  -7.383789e+05   2.300002e+06
  -2.297106e+06   1.190649e+06
  -2.370429e+06  -3.802817e+05
  -1.217042e+06  -1.244332e+06
   2.306684e+04  -1.127872e+06
   5.008906e+05  -7.107587e+05
   3.287394e+05  -7.217749e+05
   2.053424e+05  -1.105932e+06
   5.704544e+05  -1.136972e+06
   1.158204e+06  -3.000437e+05
   1.286864e+06   1.027679e+06
   5.720239e+05   1.832357e+06
  -5.866386e+05   1.412669e+06
  -1.262523e+06   7.190613e+04
  -8.696616e+05  -1.135753e+06
   2.052508e+05  -1.343812e+06
   9.527852e+05  -5.769091e+05
   7.752995e+05   4.105740e+05
   7.291850e+04   9.016401e+05
  -2.836661e+05   7.919971e+05
   2.029461e+04   4.868893e+05
   3.923577e+05   3.617569e+05
   4.411365e+04   3.904477e+05
  -1.031589e+06   2.610786e+05
  -1.903018e+06  -2.229061e+05
  -1.591856e+06  -8.842874e+05
  -1.299538e+05  -1.285961e+06
   1.355645e+06  -1.099583e+06
   1.706606e+06  -4.150463e+05
   8.619220e+05   2.782362e+05
  -1.713986e+05   4.741290e+05
  -4.445696e+05   1.163228e+05
   1.698729e+04  -3.058903e+05
   4.801317e+05  -2.341033e+05
   4.555199e+05   3.235609e+05
   1.386242e+05   7.378904e+05
  -1.394565e+04   4.771363e+05
   1.408538e+05  -1.847593e+05
   3.561508e+05  -4.060853e+05
   2.976857e+05   2.020465e+05
  -1.712879e+05   1.008311e+06
  -8.388636e+05   1.034800e+06
  -1.172048e+06   1.145962e+05
  -7.023859e+05  -8.776316e+05
   3.791897e+05  -9.981616e+05
   1.132749e+06  -2.335481e+05
   7.099355e+05   5.799304e+05
  -6.310450e+05   6.737143e+05
  -1.601436e+06   2.445144e+04
  -1.171066e+06  -7.708400e+05
   3.143714e+05  -1.076701e+06
   1.473459e+06  -6.892790e+05
   1.318679e+06   5.236650e+04
   2.124739e+05   5.250918e+05
  -6.084806e+05   3.408143e+05
  -3.404120e+05  -2.388321e+05
   6.191343e+05  -4.666427e+05
   1.149365e+06   1.433493e+05
   5.734748e+05   1.190829e+06
  -6.715732e+05   1.637013e+06
  -1.499482e+06   8.195407e+05
  -1.244538e+06  -7.620296e+05
  -2.236494e+05  -1.785602e+06
   6.979964e+05  -1.356616e+06
   9.351029e+05   7.386932e+04
   5.339429e+05   1.149852e+06
  -8.824570e+04   1.014527e+06
  -5.195139e+05   1.390105e+05
  -5.440389e+05  -3.753232e+05
  -2.481417e+05  -1.547949e+05
  -1.298089e+04   1.195700e+05
  -1.624333e+05  -2.326357e+05
  -4.801122e+05  -9.181724e+05
  -3.141507e+05  -1.073849e+06
   5.809970e+05  -4.202661e+05
   1.483036e+06   4.265290e+05
   1.376368e+06   7.916034e+05
   2.095550e+05   6.644725e+05
  -9.135571e+05   4.270018e+05
  -9.959540e+05   2.345773e+05
  -2.869523e+05   1.369148e+03
   1.705333e+05  -2.184090e+05
  -6.584445e+04  -2.465153e+05
  -3.658711e+05  -1.378966e+05
  -1.355047e+04  -1.380629e+05
   7.563555e+05  -2.105788e+05
   1.019101e+06   2.470885e+04
   2.902792e+05   6.638052e+05
  -9.065083e+05   1.116211e+06
  -1.596665e+06   6.943145e+05
  -1.274897e+06  -4.644904e+05
  -2.531791e+05  -1.397926e+06
   7.095115e+05  -1.330376e+06
   1.025300e+06  -4.780544e+05
   6.644380e+05   2.727120e+05
   9.479313e+04   3.507527e+05
  -1.543751e+05   1.300383e+04
   4.552651e+04  -8.162201e+04
   3.443949e+05   3.262064e+05
   2.932340e+05   7.890835e+05
  -1.872362e+05   6.508213e+05
  -6.929320e+05  -1.726061e+05
  -6.861867e+05  -9.905019e+05
  -2.436990e+04  -1.007089e+06
   7.964408e+05  -1.678009e+05
   1.000607e+06   7.785694e+05
   2.965232e+05   1.064537e+06
  -7.103213e+05   6.089149e+05
  -1.057183e+06  -8.771840e+04
  -4.760502e+05  -5.367623e+05
   2.713949e+05  -5.885337e+05
   2.961032e+05  -3.436307e+05
  -3.248305e+05  -3.333673e+04
  -6.597258e+05   3.443533e+04
  -1.192783e+05  -2.866815e+05
   8.025516e+05  -6.885257e+05
   1.159665e+06  -6.036145e+05
   6.684346e+05   1.057743e+05
  -9.295496e+04   8.239433e+05
  -4.639942e+05   8.119099e+05
  -3.394857e+05   1.025553e+05
  -1.765408e+04  -5.051916e+05
   2.472234e+05  -3.881299e+05
   3.556056e+05   2.112009e+05
   2.450547e+05   5.678427e+05
  -6.938892e+04   3.563981e+05
  -3.831547e+05  -7.096828e+04
  -4.431724e+05  -2.220894e+05
  -2.364696e+05  -4.762766e+04
  -3.224768e+03   9.309298e+04
   7.504544e+04  -7.376398e+04
   8.102003e+04  -3.978251e+05
   1.871053e+05  -4.698204e+05
   3.623398e+05  -9.053598e+04
   3.639386e+05   4.571746e+05
   3.517259e+04   6.523194e+05
  -4.358953e+05   2.798005e+05
  -6.105676e+05  -3.175945e+05
  -2.200919e+05  -5.915283e+05
   4.743234e+05  -3.526600e+05
   8.275693e+05   9.961357e+04
   4.534065e+05   3.693230e+05
  -2.875014e+05   3.430058e+05
  -6.099728e+05   1.640778e+05
  -1.909986e+05   6.297280e+03
   4.200851e+05  -1.729079e+04
   4.356175e+05   1.363342e+05
  -2.236373e+05   3.381717e+05
  -8.323476e+05   2.760615e+05
