
 $NMID
 id='ANONYMOUS ', fmtdat='(2E16.6)'
 volume=1.0
 tramp=1.0
 $END
   2.003797e+07   2.778781e+06
   1.178488e+07   1.044926e+07
  -1.433537e+06   1.203871e+07
  -8.999536e+06   7.655723e+06
  -7.061529e+06   7.660282e+05
  -3.471456e+05  -3.438699e+06
   4.017672e+06  -1.837797e+06
   3.026983e+06   3.194690e+06
  -1.012740e+06   5.642335e+06
  -3.847017e+06   2.403794e+06
  -3.164776e+06  -2.995141e+06
  -9.325489e+04  -4.521690e+06
   2.214803e+06  -7.062201e+05
   1.535267e+06   3.933123e+06
  -1.355346e+06   4.325456e+06
  -3.396776e+06   2.233166e+05
  -2.241142e+06  -4.201979e+06
   1.347815e+06  -5.000205e+06
   4.189894e+06  -1.977062e+06
   3.871099e+06   1.793089e+06
   1.159690e+06   3.240201e+06
  -8.905741e+05   2.112618e+06
  -2.571425e+05   7.978786e+05
   1.818993e+06   1.408187e+06
   2.159492e+06   3.300293e+06
  -7.491115e+05   3.911506e+06
  -4.750064e+06   1.888910e+06
  -5.986417e+06  -1.322354e+06
  -2.971119e+06  -3.138583e+06
   1.611987e+06  -2.404750e+06
   3.516589e+06  -7.400549e+04
   1.287282e+06   1.912888e+06
  -2.364894e+06   1.964881e+06
  -3.641201e+06  -1.490664e+05
  -1.659883e+06  -2.780023e+06
   1.053463e+06  -3.411333e+06
   1.769386e+06  -1.235312e+06
   4.394164e+05   1.471927e+06
  -8.528194e+05   1.639337e+06
  -5.867070e+05  -8.493246e+05
   7.673378e+05  -2.830220e+06
   1.722470e+06  -1.758116e+06
   1.380537e+06   1.101996e+06
  -3.255807e+02   2.311742e+06
  -1.335305e+06   4.898742e+05
  -1.344416e+06  -2.211807e+06
   4.761156e+05  -2.803947e+06
   2.955179e+06  -6.778293e+05
   3.777994e+06   2.145917e+06
   1.710276e+06   3.291006e+06
  -1.733918e+06   2.096558e+06
  -3.517680e+06  -1.641894e+05
  -2.198521e+06  -1.598509e+06
   6.060623e+05  -1.289565e+06
   2.083397e+06   6.338716e+04
   1.173058e+06   9.652181e+05
  -6.561183e+05   6.151414e+05
  -1.292279e+06  -4.329159e+05
  -2.201162e+05  -1.021447e+06
   1.129486e+06  -5.912115e+05
   1.033530e+06   3.883105e+05
  -5.995443e+05   9.214675e+05
  -1.980377e+06   3.044978e+05
  -1.261392e+06  -1.254795e+06
   1.364120e+06  -2.570349e+06
   3.672968e+06  -2.281818e+06
   3.710643e+06  -1.622489e+05
   1.793119e+06   2.392841e+06
  -1.038399e+05   3.565901e+06
  -6.742898e+05   2.912892e+06
  -4.467748e+05   1.661987e+06
  -6.626452e+05   1.103692e+06
  -1.628195e+06   1.068273e+06
  -2.499961e+06   3.990494e+05
  -2.328072e+06  -1.237979e+06
  -9.541352e+05  -2.584717e+06
   8.847815e+05  -2.118450e+06
   1.995540e+06   8.572514e+04
   1.491357e+06   2.188473e+06
  -3.885635e+05   2.363322e+06
  -2.198682e+06   5.689985e+05
  -2.457035e+06  -1.548377e+06
  -1.096604e+06  -2.379324e+06
   4.907593e+05  -1.785675e+06
   1.025980e+06  -8.628176e+05
   7.288136e+05  -5.626141e+05
   8.630395e+05  -7.687328e+05
   2.000482e+06  -6.383667e+05
   3.100062e+06   3.912136e+05
   2.548977e+06   1.986309e+06
   6.330040e+04   3.126494e+06
  -2.679525e+06   2.875089e+06
  -3.514500e+06   1.175893e+06
  -1.931299e+06  -9.095607e+05
   3.976529e+05  -1.910390e+06
   1.332425e+06  -1.225305e+06
   3.848584e+05   2.307384e+05
  -1.036067e+06   8.894558e+05
  -1.348362e+06   1.774696e+05
  -4.154647e+05  -8.742920e+05
   6.028576e+05  -8.690675e+05
   6.374452e+05   2.369237e+05
  -3.106811e+05   9.891876e+05
  -1.327335e+06   1.224056e+05
  -1.377654e+06  -1.850204e+06
  -7.968325e+04  -3.019736e+06
   1.888038e+06  -2.060264e+06
   3.100866e+06   3.729139e+05
   2.516059e+06   2.314815e+06
   5.511603e+05   2.433554e+06
  -1.160954e+06   1.169267e+06
  -1.353708e+06   2.214103e+04
  -3.868225e+05  -5.143052e+04
   2.737434e+05   5.824800e+05
  -2.356678e+05   8.953788e+05
  -1.249816e+06   3.765294e+05
  -1.433965e+06  -5.155522e+05
  -3.806205e+05  -9.274535e+05
   8.571696e+05  -4.909004e+05
   8.741289e+05   3.367343e+05
  -5.181021e+05   6.980753e+05
  -1.948588e+06   1.086384e+05
  -1.826580e+06  -1.067519e+06
  -2.817813e+04  -1.857692e+06
   1.886655e+06  -1.510891e+06
   2.234350e+06  -2.349252e+05
   8.941433e+05   9.049552e+05
  -6.757336e+05   9.618342e+05
  -1.005953e+06   5.463559e+04
  -7.897601e+03  -7.347122e+05
   1.157978e+06  -4.944819e+05
   1.341780e+06   5.413429e+05
   4.283630e+05   1.266957e+06
  -6.978058e+05   9.392488e+05
  -1.028165e+06  -1.721029e+04
  -3.590310e+05  -5.247492e+05
   4.990622e+05  -5.995408e+04
   4.952092e+05   8.069421e+05
  -5.406430e+05   1.062335e+06
  -1.606239e+06   2.999148e+05
  -1.528290e+06  -9.123689e+05
  -2.453336e+05  -1.599073e+06
   1.088471e+06  -1.245624e+06
   1.321311e+06  -2.047078e+05
   4.581895e+05   6.434933e+05
  -4.841651e+05   6.693494e+05
  -6.167806e+05   4.195265e+04
  -9.667653e+03  -4.837009e+05
   5.469471e+05  -3.783605e+05
   4.377286e+05   9.395679e+04
  -1.605360e+05   2.151765e+05
  -4.828225e+05  -2.952027e+05
   1.915662e+04  -8.777984e+05
   1.039443e+06  -7.174620e+05
   1.623175e+06   3.391150e+05
   1.094209e+06   1.549479e+06
  -2.299874e+05   1.952405e+06
  -1.330319e+06   1.238667e+06
  -1.488202e+06  -8.285304e+03
  -9.061655e+05  -8.654854e+05
  -3.296756e+05  -8.822462e+05
  -1.943249e+05  -4.180952e+05
  -2.568877e+05  -1.893403e+05
  -1.367855e+04  -4.585450e+05
   6.375618e+05  -7.306213e+05
   1.192251e+06  -3.502034e+05
   9.860187e+05   6.291089e+05
  -1.106103e+05   1.336923e+06
  -1.402836e+06   9.513939e+05
  -1.848035e+06  -3.903374e+05
  -9.633672e+05  -1.646103e+06
   6.776301e+05  -1.830041e+06
   1.898767e+06  -8.811533e+05
   1.929172e+06   3.791796e+05
   9.948336e+05   1.061053e+06
  -2.883594e+04   9.658714e+05
  -4.708304e+05   6.136587e+05
  -3.746028e+05   5.837259e+05
  -2.671380e+05   8.599067e+05
  -5.195234e+05   8.664593e+05
  -9.429195e+05   1.713445e+05
  -9.911615e+05  -9.123020e+05
  -3.701734e+05  -1.531611e+06
   5.574014e+05  -1.127373e+06
   1.038466e+06  -5.297857e+03
   6.613276e+05   9.492036e+05
  -2.031840e+05   1.077317e+06
  -7.604040e+05   4.540304e+05
  -5.941407e+05  -3.154904e+05
  -4.791439e+04  -6.971232e+05
   2.171317e+05  -6.279513e+05
  -1.884570e+04  -4.156264e+05
  -2.952700e+05  -3.303009e+05
  -1.053133e+04  -3.281597e+05
   8.368136e+05  -1.634744e+05
   1.516178e+06   2.742329e+05
   1.252035e+06   7.854518e+05
   6.798370e+04   1.025179e+06
  -1.128222e+06   8.101174e+05
  -1.397016e+06   2.739984e+05
  -6.925980e+05  -2.242077e+05
   1.517940e+05  -3.543429e+05
   3.534395e+05  -8.759398e+04
  -4.969817e+04   2.265808e+05
  -4.215057e+05   1.624217e+05
  -3.511272e+05  -2.907726e+05
  -4.482374e+04  -6.286315e+05
   6.614459e+04  -3.995608e+05
  -1.231935e+05   1.672090e+05
  -3.304869e+05   3.477444e+05
  -2.379824e+05  -1.755770e+05
   2.060579e+05  -8.311998e+05
   7.396560e+05  -7.964577e+05
   9.316159e+05  -1.793640e+03
   4.910742e+05   7.652841e+05
  -3.696948e+05   7.665172e+05
  -9.249802e+05   9.513281e+04
  -5.485791e+05  -5.237176e+05
   5.413589e+05  -5.238936e+05
   1.323196e+06   4.001015e+04
   9.616618e+05   6.720918e+05
  -2.737359e+05   8.857502e+05
  -1.240306e+06   5.383588e+05
  -1.102052e+06  -7.844896e+04
  -1.664598e+05  -4.449414e+05
   5.081742e+05  -2.633584e+05
   2.534852e+05   2.051365e+05
  -5.509884e+05   3.378214e+05
  -9.373742e+05  -2.031294e+05
  -3.805931e+05  -1.026650e+06
   6.759145e+05  -1.303182e+06
   1.296448e+06  -5.746227e+05
   9.828950e+05   7.047925e+05
   8.659848e+04   1.487727e+06
  -6.413023e+05   1.096045e+06
  -7.659335e+05  -8.740388e+04
  -4.000714e+05  -9.649040e+05
   9.374258e+04  -8.385217e+05
   4.229867e+05  -9.707783e+04
   4.491562e+05   3.367558e+05
   2.202435e+05   1.419649e+05
   6.542741e+03  -1.027113e+05
   8.525736e+04   1.918876e+05
   3.330588e+05   7.762905e+05
   2.309911e+05   8.981599e+05
  -4.671806e+05   3.129177e+05
  -1.202343e+06  -4.282796e+05
  -1.116539e+06  -7.170652e+05
  -1.392542e+05  -5.512483e+05
   7.972982e+05  -3.057273e+05
   8.379928e+05  -1.511049e+05
   2.136751e+05   5.088752e+03
  -1.613387e+05   1.703851e+05
   7.096514e+04   2.133331e+05
   3.255975e+05   1.415890e+05
  -7.204572e+03   1.185961e+05
  -6.667362e+05   1.282038e+05
  -8.348847e+05  -8.621618e+04
  -1.586135e+05  -5.674119e+05
   8.388193e+05  -8.566937e+05
   1.337225e+06  -4.557216e+05
   9.907052e+05   4.784167e+05
   1.195697e+05   1.171234e+06
  -6.527386e+05   1.042208e+06
  -8.738962e+05   3.155773e+05
  -5.387763e+05  -2.764515e+05
  -4.567703e+04  -2.961284e+05
   1.563532e+05   8.661040e+03
  -2.801944e+04   8.141181e+04
  -2.757285e+05  -2.755532e+05
  -2.079633e+05  -6.619429e+05
   1.979117e+05  -5.196996e+05
   5.700353e+05   1.987916e+05
   4.956636e+05   8.761515e+05
  -6.898403e+04   8.340934e+05
  -6.878126e+05   7.006477e+04
  -7.753125e+05  -7.246041e+05
  -1.641822e+05  -8.953839e+05
   6.286725e+05  -4.406269e+05
   8.525630e+05   1.444132e+05
   3.400909e+05   4.541080e+05
  -2.614728e+05   4.429219e+05
  -2.423718e+05   2.538244e+05
   2.920344e+05   4.938961e+04
   5.518027e+05   1.215062e+04
   7.176989e+04   2.400217e+05
  -6.984964e+05   5.232402e+05
  -9.623238e+05   4.425703e+05
  -5.140222e+05  -1.124761e+05
   1.286766e+05  -6.628007e+05
   4.094886e+05  -6.250701e+05
   2.651872e+05  -4.055459e+04
  -2.519701e+04   4.298696e+05
  -2.339411e+05   2.925941e+05
  -2.871522e+05  -2.158500e+05
  -1.651169e+05  -4.828886e+05
   8.901746e+04  -2.704171e+05
   3.124465e+05   9.061464e+04
   3.396937e+05   1.950588e+05
   1.878278e+05   3.924368e+04
   2.373049e+04  -6.193907e+04
  -5.629435e+04   9.197115e+04
  -1.168118e+05   3.445810e+05
  -2.312562e+05   3.624788e+05
  -3.278109e+05   1.650516e+04
  -2.499205e+05  -4.313833e+05
   4.785572e+04  -5.522905e+05
   3.891042e+05  -1.963300e+05
   4.723294e+05   3.158975e+05
   1.369531e+05   5.113533e+05
  -4.050176e+05   2.568749e+05
  -6.639846e+05  -1.443384e+05
  -3.444882e+05  -3.327820e+05
   2.610975e+05  -2.483362e+05
   5.107048e+05  -7.674657e+04
   1.409480e+05   1.434314e+04
  -3.756836e+05  -2.211087e+04
  -3.664102e+05  -1.603019e+05
   2.200141e+05  -2.850695e+05
   7.340286e+05  -1.854720e+05
