
 $NMID
 id='ANONYMOUS ', fmtdat='(2E16.6)'
 volume=1.0
 tramp=1.0
 $END
   3.044455e+06  -5.011360e+05
   2.703268e+06   8.714818e+05
   7.018871e+05   2.072349e+06
  -1.267239e+06   1.984585e+06
  -1.563191e+06   5.735985e+05
  -3.276567e+05  -7.245779e+05
   8.506540e+05  -5.953254e+05
   8.237511e+05   5.748096e+05
  -5.651794e+04   1.250542e+06
  -7.152215e+05   6.550016e+05
  -6.217564e+05  -4.347832e+05
  -7.848687e+04  -7.868336e+05
   3.314546e+05  -1.238561e+05
   2.595618e+05   7.420021e+05
  -2.204200e+05   8.919782e+05
  -6.559024e+05   1.962021e+05
  -5.671870e+05  -6.666457e+05
   3.456200e+04  -9.301724e+05
   5.851828e+05  -4.738652e+05
   5.961641e+05   1.396304e+05
   2.248793e+05   3.462721e+05
   2.269266e+04   1.921960e+05
   2.166120e+05   1.542324e+05
   4.699439e+05   4.543850e+05
   3.328756e+05   7.814189e+05
  -2.489064e+05   7.185314e+05
  -8.724271e+05   2.450378e+05
  -1.010982e+06  -2.808241e+05
  -4.779531e+05  -4.975994e+05
   3.032774e+05  -3.057448e+05
   5.934616e+05   1.112014e+05
   1.050105e+05   4.033601e+05
  -6.010801e+05   2.869112e+05
  -7.286422e+05  -1.842544e+05
  -2.010394e+05  -6.001417e+05
   3.022643e+05  -5.729175e+05
   2.676185e+05  -1.525435e+05
  -6.541577e+04   2.132687e+05
  -1.775221e+05   1.545113e+05
   2.540944e+04  -2.359640e+05
   2.576304e+05  -5.103256e+05
   3.449681e+05  -3.340894e+05
   3.189937e+05   1.595748e+05
   1.659431e+05   4.844513e+05
  -1.334756e+05   2.989609e+05
  -3.407695e+05  -2.079542e+05
  -1.196448e+05  -4.887418e+05
   4.352554e+05  -2.246733e+05
   7.397009e+05   3.277567e+05
   3.848249e+05   6.323773e+05
  -3.295150e+05   4.431697e+05
  -7.220493e+05  -6.340191e+03
  -4.818342e+05  -3.175911e+05
   7.093178e+04  -3.023596e+05
   3.992394e+05  -6.504896e+04
   2.721014e+05   1.468801e+05
  -8.922580e+04   1.373163e+05
  -2.649171e+05  -8.296580e+04
  -5.073208e+04  -2.777559e+05
   3.107116e+05  -2.026639e+05
   3.656602e+05   1.047448e+05
  -1.059178e+04   3.232906e+05
  -4.028290e+05   1.966062e+05
  -3.194122e+05  -1.745958e+05
   2.045819e+05  -4.455614e+05
   6.473305e+05  -3.781389e+05
   6.250354e+05  -2.293107e+04
   2.785774e+05   3.823488e+05
  -1.015178e+04   6.101280e+05
  -9.318590e+04   5.795029e+05
  -1.160640e+05   3.901213e+05
  -2.265551e+05   2.154535e+05
  -3.905160e+05   1.088367e+05
  -4.699005e+05  -4.481999e+04
  -3.646103e+05  -3.114230e+05
  -8.183726e+04  -5.068423e+05
   2.429961e+05  -3.644248e+05
   3.946292e+05   8.709391e+04
   2.410953e+05   4.656287e+05
  -1.139544e+05   4.350759e+05
  -3.934928e+05   6.599611e+04
  -3.983870e+05  -2.852221e+05
  -1.804150e+05  -3.787456e+05
   4.191165e+04  -2.738766e+05
   1.169132e+05  -1.639645e+05
   1.006644e+05  -1.495046e+05
   1.724896e+05  -1.791401e+05
   4.014511e+05  -1.282143e+05
   6.016589e+05   8.436029e+04
   4.806853e+05   3.963610e+05
  -1.403074e+04   6.031637e+05
  -5.441390e+05   5.178092e+05
  -6.744442e+05   1.663661e+05
  -3.294745e+05  -2.038410e+05
   1.224795e+05  -3.373825e+05
   2.678123e+05  -1.902527e+05
   5.916235e+04   5.119662e+04
  -2.076891e+05   1.481795e+05
  -2.517305e+05   2.525415e+04
  -6.706604e+04  -1.546504e+05
   1.308783e+05  -1.512542e+05
   1.334469e+05   6.749150e+04
  -8.036433e+04   2.307164e+05
  -3.188503e+05   4.928436e+04
  -3.233079e+05  -3.972327e+05
  -3.654917e+03  -6.716129e+05
   4.377297e+05  -4.473833e+05
   6.560374e+05   1.099347e+05
   4.785778e+05   5.199665e+05
   6.700372e+04   5.004065e+05
  -2.435850e+05   2.060125e+05
  -2.576659e+05  -1.983290e+04
  -7.377422e+04  -1.412366e+04
   4.758303e+04   1.152909e+05
  -4.335198e+04   1.721559e+05
  -2.351434e+05   7.249005e+04
  -2.789827e+05  -9.999136e+04
  -7.723775e+04  -1.829360e+05
   1.721185e+05  -9.136835e+04
   1.725671e+05   8.376388e+04
  -1.202260e+05   1.473969e+05
  -4.074446e+05  -1.313426e+03
  -3.576472e+05  -2.516980e+05
   2.408214e+04  -3.831088e+05
   3.958251e+05  -2.771280e+05
   4.393481e+05  -2.125520e+04
   1.681773e+05   1.784310e+05
  -1.269656e+05   1.765817e+05
  -1.842101e+05   1.054637e+04
   3.617080e+03  -1.309348e+05
   2.241533e+05  -8.413284e+04
   2.593638e+05   1.158179e+05
   7.728372e+04   2.588010e+05
  -1.500402e+05   1.896748e+05
  -2.137283e+05  -9.282702e+03
  -7.424837e+04  -1.123868e+05
   9.516950e+04  -1.421975e+04
   8.714662e+04   1.566833e+05
  -1.150016e+05   1.947550e+05
  -3.089845e+05   3.734941e+04
  -2.812394e+05  -1.907429e+05
  -3.230997e+04  -3.091277e+05
   2.198030e+05  -2.327259e+05
   2.599424e+05  -3.018925e+04
   8.671267e+04   1.318877e+05
  -1.019006e+05   1.281861e+05
  -1.224766e+05  -5.419556e+03
   1.177828e+04  -1.058519e+05
   1.272781e+05  -6.496878e+04
   9.153986e+04   4.369419e+04
  -4.396655e+04   5.939292e+04
  -1.069139e+05  -5.990010e+04
   4.908723e+03  -1.774635e+05
   2.087049e+05  -1.327033e+05
   3.113604e+05   8.138486e+04
   1.948958e+05   3.093418e+05
  -6.821756e+04   3.753863e+05
  -2.798209e+05   2.280662e+05
  -2.991012e+05  -2.266154e+04
  -1.651786e+05  -1.949369e+05
  -3.657255e+04  -1.897958e+05
  -1.452797e+04  -7.970720e+04
  -4.486778e+04  -2.412718e+04
  -4.955395e+03  -8.209620e+04
   1.309335e+05  -1.397820e+05
   2.425820e+05  -5.633226e+04
   1.870205e+05   1.430426e+05
  -4.295313e+04   2.695741e+05
  -2.899580e+05   1.718240e+05
  -3.575155e+05  -9.889630e+04
  -1.736598e+05  -3.336955e+05
   1.447112e+05  -3.552589e+05
   3.791658e+05  -1.606392e+05
   3.818384e+05   9.329826e+04
   1.895063e+05   2.303714e+05
  -2.414588e+04   2.015809e+05
  -1.145326e+05   1.112538e+05
  -8.690696e+04   9.149974e+04
  -5.585729e+04   1.490830e+05
  -1.007451e+05   1.597005e+05
  -1.783383e+05   2.617121e+04
  -1.784607e+05  -1.853594e+05
  -5.264636e+04  -2.987180e+05
   1.212082e+05  -2.096970e+05
   2.031874e+05   1.058027e+04
   1.234468e+05   1.907281e+05
  -4.593245e+04   2.130003e+05
  -1.558619e+05   9.360650e+04
  -1.248044e+05  -5.809306e+04
  -1.522124e+04  -1.403106e+05
   4.339759e+04  -1.322836e+05
   3.129285e+03  -8.845749e+04
  -4.914143e+04  -6.630082e+04
   3.662803e+03  -6.258255e+04
   1.624249e+05  -2.754000e+04
   2.885817e+05   6.227361e+04
   2.370573e+05   1.630364e+05
   1.191039e+04   2.028905e+05
  -2.188934e+05   1.511771e+05
  -2.763718e+05   4.371752e+04
  -1.431218e+05  -4.791941e+04
   2.601914e+04  -6.796033e+04
   7.180854e+04  -1.820035e+04
  -7.724925e+03   3.631469e+04
  -8.311961e+04   2.209503e+04
  -6.339276e+04  -5.887577e+04
   5.253331e+03  -1.152323e+05
   2.209126e+04  -6.930882e+04
  -3.148690e+04   3.311044e+04
  -7.784674e+04   6.123789e+04
  -4.575467e+04  -3.760675e+04
   5.409671e+04  -1.557441e+05
   1.501437e+05  -1.446510e+05
   1.692724e+05   4.342079e+03
   8.023636e+04   1.443206e+05
  -7.290169e+04   1.392164e+05
  -1.688190e+05   8.486504e+03
  -9.640693e+04  -1.075186e+05
   1.108504e+05  -9.768859e+04
   2.611857e+05   2.397475e+04
   1.858612e+05   1.500419e+05
  -6.518411e+04   1.791676e+05
  -2.579500e+05   9.367710e+04
  -2.217276e+05  -3.183246e+04
  -2.737213e+04  -9.298999e+04
   1.044321e+05  -4.791378e+04
   4.745253e+04   3.867690e+04
  -1.086206e+05   5.268437e+04
  -1.719206e+05  -5.306935e+04
  -5.374494e+04  -1.970431e+05
   1.479087e+05  -2.326232e+05
   2.537060e+05  -8.762552e+04
   1.773310e+05   1.492707e+05
  -4.429138e+03   2.877384e+05
  -1.417103e+05   2.055333e+05
  -1.523901e+05  -2.518224e+04
  -6.862546e+04  -1.960365e+05
   2.872909e+04  -1.693347e+05
   8.458536e+04  -1.692455e+04
   8.404813e+04   7.615807e+04
   4.202134e+04   3.649708e+04
   3.046436e+03  -2.270459e+04
   1.327937e+04   2.843100e+04
   5.426722e+04   1.502747e+05
   3.556345e+04   1.833689e+05
  -9.111866e+04   6.243441e+04
  -2.269031e+05  -9.924027e+04
  -2.097414e+05  -1.587371e+05
  -2.154509e+04  -1.081463e+05
   1.600994e+05  -4.306137e+04
   1.667384e+05  -1.755243e+04
   4.174158e+04  -2.598322e+03
  -3.390970e+04   2.832339e+04
   1.143397e+04   5.009452e+04
   6.114398e+04   4.027280e+04
  -4.864608e+03   2.038761e+04
  -1.314945e+05   7.321841e+03
  -1.567004e+05  -2.780399e+04
  -1.837391e+04  -1.005587e+05
   1.719092e+05  -1.447358e+05
   2.549349e+05  -7.156262e+04
   1.750942e+05   9.872735e+04
   4.877441e+03   2.242608e+05
  -1.355543e+05   1.918118e+05
  -1.671281e+05   4.651785e+04
  -9.656431e+04  -6.325994e+04
  -3.271566e+03  -5.447221e+04
   2.938533e+04   1.175154e+04
  -9.643581e+03   2.005076e+04
  -5.310002e+04  -5.834485e+04
  -3.279917e+04  -1.322803e+05
   4.417781e+04  -9.479054e+04
   1.029293e+05   4.956372e+04
   7.666428e+04   1.730714e+05
  -2.784617e+04   1.512074e+05
  -1.287525e+05  -3.296169e+03
  -1.317683e+05  -1.503535e+05
  -1.736707e+04  -1.691508e+05
   1.220899e+05  -7.211836e+04
   1.575118e+05   3.693554e+04
   6.117528e+04   8.523483e+04
  -4.994630e+04   7.827109e+04
  -4.529943e+04   4.967844e+04
   5.644017e+04   2.029104e+04
   1.054061e+05   1.169639e+04
   1.046458e+04   4.423824e+04
  -1.413888e+05   9.134254e+04
  -1.913569e+05   7.939012e+04
  -9.789810e+04  -1.995274e+04
   3.145829e+04  -1.231960e+05
   8.128305e+04  -1.177010e+05
   4.370559e+04  -7.409291e+03
  -1.471632e+04   8.027915e+04
  -4.619826e+04   4.987987e+04
  -4.715530e+04  -4.850091e+04
  -2.442859e+04  -9.383050e+04
   1.681233e+04  -4.628266e+04
   5.612462e+04   2.264739e+04
   6.478556e+04   3.786077e+04
   3.853690e+04   8.002473e+03
   2.940184e+03  -6.499577e+03
  -2.022783e+04   2.197642e+04
  -3.457670e+04   5.919464e+04
  -4.959986e+04   5.263037e+04
  -5.548177e+04  -1.020727e+04
  -3.166470e+04  -8.269520e+04
   2.296129e+04  -9.624596e+04
   7.601189e+04  -2.808446e+04
   8.041087e+04   6.535412e+04
   1.556172e+04   9.812776e+04
  -7.908690e+04   4.467264e+04
  -1.206268e+05  -3.488515e+04
  -6.020143e+04  -6.672589e+04
   4.933263e+04  -4.149255e+04
   9.291575e+04  -6.213541e+03
   2.337919e+04   1.100655e+03
  -7.074259e+04  -1.754248e+04
  -6.335733e+04  -4.134423e+04
   5.216597e+04  -4.891465e+04
   1.470887e+05  -1.770788e+04
