
 $NMID
 id='ANONYMOUS ', fmtdat='(2E16.6)'
 volume=1.0
 tramp=1.0
 $END
  -5.746337e+07   1.514778e+06
  -3.543880e+07  -3.469486e+07
   6.615412e+06  -3.906237e+07
   2.772027e+07  -1.562956e+07
   1.693528e+07   6.728201e+06
  -3.139771e+06   9.580571e+06
  -1.002132e+07  -9.998938e+05
  -3.069864e+06  -9.864318e+06
   6.055271e+06  -9.649750e+06
   9.760523e+06  -2.281809e+06
   7.298793e+06   6.120003e+06
   1.082043e+06   8.736346e+06
  -3.991970e+06   2.917523e+06
  -2.847910e+06  -5.449605e+06
   3.640047e+06  -6.756697e+06
   8.047748e+06   1.153337e+06
   4.801929e+06   1.027259e+07
  -3.530705e+06   1.212028e+07
  -1.013899e+07   6.301277e+06
  -1.108863e+07  -1.788942e+06
  -6.975092e+06  -7.463562e+06
  -9.418386e+05  -8.825148e+06
   2.830659e+06  -6.258233e+06
   1.839583e+06  -2.763948e+06
  -1.199975e+06  -2.121350e+06
  -4.132123e+05  -4.236337e+06
   5.356146e+06  -4.662680e+06
   9.832334e+06  -8.182050e+05
   7.314115e+06   3.995206e+06
   4.204083e+05   5.171844e+06
  -3.711815e+06   2.761969e+06
  -2.544798e+06   1.063301e+05
   5.521176e+05  -9.881555e+05
   2.291401e+06  -6.034100e+05
   2.301081e+06   1.368791e+06
   8.538723e+05   3.989402e+06
  -1.723093e+06   3.995552e+06
  -3.323447e+06  -1.318793e+04
  -1.861901e+06  -3.675627e+06
   7.547694e+05  -2.000446e+06
   4.496578e+05   2.492848e+06
  -2.427365e+06   2.421174e+06
  -2.578999e+06  -3.184582e+06
   2.312798e+06  -6.308699e+06
   7.063610e+06  -1.209269e+06
   5.407407e+06   6.930251e+06
  -1.721750e+06   8.745358e+06
  -7.506602e+06   2.671719e+06
  -7.207257e+06  -4.330753e+06
  -2.052233e+06  -6.083544e+06
   3.457526e+06  -2.859116e+06
   5.393364e+06   1.399789e+06
   2.564262e+06   3.476832e+06
  -2.401922e+06   2.301001e+06
  -4.637459e+06  -8.160546e+05
  -2.059771e+06  -2.717530e+06
   1.713616e+06  -1.444094e+06
   1.800554e+06   9.935687e+05
  -1.319427e+06   9.632940e+05
  -2.561080e+06  -1.722965e+06
   5.468423e+05  -3.515741e+06
   4.667197e+06  -2.055029e+06
   5.434168e+06   1.238861e+06
   2.468633e+06   3.987233e+06
  -1.684327e+06   5.423923e+06
  -4.961979e+06   5.096025e+06
  -6.269330e+06   1.970555e+06
  -4.774916e+06  -3.088389e+06
  -1.149809e+06  -6.271254e+06
   1.756434e+06  -4.914764e+06
   1.754810e+06  -1.288638e+06
   1.603226e+05   2.508210e+05
  -7.019880e+04  -1.015290e+06
   1.584627e+06  -1.896205e+06
   2.880430e+06  -3.439384e+05
   2.150065e+06   1.909457e+06
   1.050433e+05   2.201561e+06
  -1.582487e+06   2.713021e+05
  -1.790182e+06  -2.064601e+06
  -1.012808e+05  -3.004937e+06
   2.780699e+06  -1.784190e+06
   4.615950e+06   1.079098e+06
   3.410916e+06   3.750855e+06
   8.534840e+04   4.328410e+06
  -2.252565e+06   2.846023e+06
  -2.251629e+06   1.224894e+06
  -1.852862e+06   7.498073e+05
  -2.994576e+06   5.790122e+05
  -4.475115e+06  -6.470707e+05
  -3.655197e+06  -2.727070e+06
  -2.607142e+05  -4.226021e+06
   3.165515e+06  -4.100262e+06
   4.214991e+06  -2.310853e+06
   2.744178e+06   3.447673e+05
   3.602627e+05   2.288348e+06
  -1.066644e+06   2.026035e+06
  -5.822516e+05  -1.774572e+04
   1.075738e+06  -1.381392e+06
   1.948585e+06  -4.682862e+05
   9.864905e+05   1.212748e+06
  -4.950493e+05   1.162143e+06
  -4.474005e+05  -3.854233e+05
   1.076676e+06  -7.376250e+05
   1.935964e+06   1.281493e+06
   7.473469e+05   3.561478e+06
  -1.546227e+06   3.529597e+06
  -3.185693e+06   1.212066e+06
  -3.421887e+06  -1.390753e+06
  -2.405059e+06  -2.755685e+06
  -5.429297e+05  -2.657209e+06
   1.226995e+06  -1.542270e+06
   1.613779e+06  -2.856813e+05
   5.082537e+05   3.229093e+04
  -3.907311e+05  -7.637459e+05
   3.902316e+05  -1.395483e+06
   1.953563e+06  -6.508875e+05
   2.121812e+06   8.614522e+05
   4.331935e+05   1.452228e+06
  -1.192219e+06   6.198531e+05
  -9.226761e+05  -4.431143e+05
   8.618245e+05  -5.489038e+05
   2.242598e+06   2.778831e+05
   1.818008e+06   1.343020e+06
  -2.053871e+05   2.022859e+06
  -2.324816e+06   1.761227e+06
  -2.845630e+06   3.600129e+05
  -1.290782e+06  -1.272409e+06
   9.074197e+05  -1.580759e+06
   1.610369e+06  -2.414527e+05
   2.426581e+05   1.113220e+06
  -1.543946e+06   8.054179e+05
  -1.792322e+06  -7.605090e+05
  -3.862807e+05  -1.693381e+06
   1.103895e+06  -1.027734e+06
   1.300594e+06   2.970248e+05
   2.662127e+05   8.017119e+05
  -8.256292e+05   7.687896e+04
  -7.932472e+05  -1.067128e+06
   5.494909e+05  -1.488586e+06
   2.054488e+06  -6.233198e+05
   2.133113e+06   1.021225e+06
   4.567890e+05   2.130549e+06
  -1.441480e+06   1.736087e+06
  -1.775607e+06   2.621217e+05
  -5.380693e+05  -8.835790e+05
   6.586179e+05  -8.443615e+05
   6.453235e+05  -9.843897e+04
  -1.155703e+05   3.640549e+05
  -4.906528e+05   2.194345e+05
  -1.113780e+05  -5.857087e+04
   4.709234e+05   8.266382e+04
   5.458149e+05   6.894112e+05
  -1.882031e+05   1.230518e+06
  -1.402387e+06   9.600157e+05
  -2.158342e+06  -3.681969e+05
  -1.568181e+06  -1.961894e+06
   1.515598e+05  -2.499610e+06
   1.620597e+06  -1.494659e+06
   1.735226e+06   8.623669e+04
   8.978180e+05   8.889711e+05
   3.445782e+05   6.424611e+05
   5.098661e+05   2.014951e+05
   6.667837e+05   3.106412e+05
   1.166827e+05   7.931188e+05
  -8.804930e+05   9.508328e+05
  -1.479250e+06   3.699615e+05
  -1.093061e+06  -7.100244e+05
   2.201773e+05  -1.499409e+06
   1.740669e+06  -1.147375e+06
   2.325595e+06   4.341993e+05
   1.222627e+06   2.132382e+06
  -9.818674e+05   2.466837e+06
  -2.596775e+06   1.128510e+06
  -2.435015e+06  -6.215298e+05
  -1.008268e+06  -1.350153e+06
   1.914984e+05  -9.660495e+05
   3.751159e+05  -5.261476e+05
   4.145306e+04  -7.823225e+05
   6.062712e+04  -1.361579e+06
   6.565345e+05  -1.355386e+06
   1.329498e+06  -3.690116e+05
   1.413847e+06   1.072197e+06
   6.324971e+05   1.935023e+06
  -5.958185e+05   1.500009e+06
  -1.323359e+06   3.389073e+04
  -8.712439e+05  -1.303367e+06
   3.698856e+05  -1.449930e+06
   1.194863e+06  -4.404975e+05
   8.555961e+05   7.108020e+05
  -1.073846e+05   1.119562e+06
  -5.436444e+05   8.180269e+05
  -8.044557e+04   4.245503e+05
   4.600048e+05   3.297648e+05
   7.550986e+04   3.919717e+05
  -1.182308e+06   2.484095e+05
  -2.143038e+06  -2.842020e+05
  -1.697317e+06  -1.024868e+06
   6.116685e+03  -1.486004e+06
   1.615010e+06  -1.225468e+06
   1.882449e+06  -3.337045e+05
   8.688621e+05   4.968651e+05
  -2.577061e+05   5.998871e+05
  -5.292151e+05   4.436924e+04
  -4.798025e+04  -4.416846e+05
   4.439696e+05  -2.833471e+05
   5.089725e+05   3.370533e+05
   2.957692e+05   7.349367e+05
   1.249763e+05   4.910769e+05
   1.365071e+05  -9.414031e+04
   2.688887e+05  -3.009964e+05
   2.886860e+05   2.319670e+05
  -1.082658e+05   1.017520e+06
  -8.937757e+05   1.129542e+06
  -1.413332e+06   2.311778e+05
  -9.225198e+05  -9.159265e+05
   3.920962e+05  -1.199774e+06
   1.295332e+06  -4.005648e+05
   7.774659e+05   5.625864e+05
  -7.065577e+05   6.873881e+05
  -1.633121e+06  -5.675479e+04
  -1.044169e+06  -8.608309e+05
   4.814943e+05  -1.021261e+06
   1.524219e+06  -5.192267e+05
   1.262256e+06   1.687432e+05
   1.465949e+05   5.215563e+05
  -6.624974e+05   2.901073e+05
  -4.104986e+05  -2.963610e+05
   5.785535e+05  -5.669570e+05
   1.225574e+06   3.015356e+04
   7.500301e+05   1.189190e+06
  -5.293767e+05   1.785513e+06
  -1.490526e+06   9.795847e+05
  -1.323725e+06  -7.296062e+05
  -2.747850e+05  -1.836186e+06
   7.178010e+05  -1.349555e+06
   9.554802e+05   1.630402e+05
   4.712187e+05   1.215210e+06
  -2.109742e+05   9.952246e+05
  -5.816653e+05   9.762611e+04
  -4.799710e+05  -3.694028e+05
  -1.582976e+05  -1.303770e+05
  -5.252451e+04   9.482026e+04
  -3.203629e+05  -3.066920e+05
  -5.671505e+05  -9.836570e+05
  -2.150105e+05  -1.100601e+06
   7.450030e+05  -4.270679e+05
   1.533508e+06   4.270044e+05
   1.330074e+06   8.169167e+05
   2.126777e+05   7.176684e+05
  -8.477135e+05   4.658359e+05
  -1.001399e+06   2.166486e+05
  -3.882839e+05  -5.315621e+04
   1.349251e+05  -2.403224e+05
   5.028458e+04  -2.009892e+05
  -2.541116e+05  -7.370955e+04
  -6.669389e+04  -1.344677e+05
   6.484437e+05  -2.797956e+05
   1.084413e+06  -3.686741e+04
   5.102470e+05   7.032754e+05
  -7.986927e+05   1.266006e+06
  -1.742287e+06   8.675289e+05
  -1.506937e+06  -3.747804e+05
  -3.521571e+05  -1.436762e+06
   7.430203e+05  -1.460400e+06
   1.063086e+06  -6.170421e+05
   6.834420e+05   1.978053e+05
   1.645386e+05   3.655675e+05
  -4.767404e+04   8.827167e+04
   9.096971e+04  -2.241453e+03
   3.126884e+05   3.750409e+05
   2.779518e+05   8.243457e+05
  -1.511030e+05   7.153384e+05
  -7.042190e+05  -7.659025e+04
  -8.221893e+05  -9.326956e+05
  -1.958318e+05  -1.064698e+06
   7.508222e+05  -3.173043e+05
   1.111366e+06   6.728958e+05
   4.272587e+05   1.112144e+06
  -7.024374e+05   7.531021e+05
  -1.173238e+06  -1.924210e+04
  -5.920351e+05  -6.288207e+05
   2.690091e+05  -7.392132e+05
   3.990215e+05  -4.023430e+05
  -2.305013e+05   1.261156e+04
  -6.625648e+05   7.426449e+04
  -1.741903e+05  -3.170171e+05
   8.225063e+05  -7.344427e+05
   1.298824e+06  -5.935131e+05
   8.210590e+05   1.708670e+05
  -5.840364e+04   9.131209e+05
  -5.555523e+05   9.195410e+05
  -4.596807e+05   2.050808e+05
  -9.206983e+04  -4.819345e+05
   2.224474e+05  -4.757024e+05
   3.697863e+05   1.114644e+05
   2.932271e+05   5.839158e+05
  -2.861225e+04   4.665621e+05
  -4.074769e+05  -1.704524e+04
  -5.126429e+05  -2.853402e+05
  -2.548510e+05  -1.038552e+05
   5.445622e+04   1.733034e+05
   8.679144e+04   8.121700e+04
  -6.409389e+04  -3.495672e+05
  -2.308910e+04  -5.997034e+05
   3.045394e+05  -2.873577e+05
   5.260150e+05   3.407744e+05
   2.382289e+05   6.589851e+05
  -3.940497e+05   3.577539e+05
  -7.177492e+05  -2.399922e+05
  -3.036512e+05  -5.702935e+05
   5.146975e+05  -4.059359e+05
   9.316044e+05   2.387668e+04
   5.212698e+05   3.665917e+05
  -2.846067e+05   4.476480e+05
  -6.570575e+05   2.909070e+05
  -2.787643e+05   3.493106e+04
   3.258625e+05  -1.096978e+05
   4.136294e+05   1.579509e+04
  -1.350483e+05   2.920094e+05
  -7.154348e+05   3.192448e+05
