
 $NMID
 id='ANONYMOUS ', fmtdat='(2E16.6)'
 volume=1.0
 tramp=1.0
 $END
   3.503692e+07  -1.247466e+06
   2.260173e+07   1.902110e+07
  -2.162493e+06   2.324860e+07
  -1.602057e+07   1.171773e+07
  -1.119972e+07  -1.851449e+06
   8.332739e+05  -6.027898e+06
   6.469331e+06  -9.080050e+05
   3.277225e+06   5.810402e+06
  -2.789751e+06   7.346581e+06
  -6.133760e+06   2.596875e+06
  -4.996228e+06  -3.954146e+06
  -7.951916e+05  -6.088299e+06
   2.788004e+06  -1.738720e+06
   2.219739e+06   4.337946e+06
  -2.036760e+06   5.321784e+06
  -5.274351e+06  -7.969110e+04
  -3.603028e+06  -6.425691e+06
   1.775390e+06  -7.925655e+06
   6.294510e+06  -4.081307e+06
   6.815451e+06   1.317076e+06
   3.835057e+06   4.634616e+06
   2.398708e+05   4.826533e+06
  -1.110302e+06   3.174675e+06
   2.936935e+05   1.985172e+06
   1.741945e+06   2.618344e+06
  -7.276570e+04   3.876270e+06
  -4.650265e+06   3.182142e+06
  -7.350586e+06  -1.614710e+04
  -4.831803e+06  -3.128188e+06
   5.173875e+05  -3.474601e+06
   3.376721e+06  -1.337652e+06
   1.767967e+06   8.982352e+05
  -1.472524e+06   1.490730e+06
  -2.897876e+06   2.512733e+05
  -1.895620e+06  -1.984115e+06
   7.574854e+04  -3.471367e+06
   1.533209e+06  -2.399868e+06
   1.631202e+06   6.819819e+05
   4.570505e+05   2.369088e+06
  -5.590979e+05   4.199629e+05
   1.343055e+05  -2.554885e+06
   1.861922e+06  -2.052705e+06
   1.943678e+06   1.853215e+06
  -7.543178e+05   4.005638e+06
  -3.669604e+06   1.037480e+06
  -3.272771e+06  -3.928489e+06
   6.590611e+05  -5.279810e+06
   4.667918e+06  -1.774322e+06
   5.241093e+06   2.723639e+06
   2.005956e+06   4.269480e+06
  -2.299332e+06   2.458269e+06
  -4.224846e+06  -4.942746e+05
  -2.378748e+06  -2.245970e+06
   1.278497e+06  -1.753260e+06
   3.119025e+06   2.228405e+05
   1.590789e+06   1.606949e+06
  -1.037211e+06   1.005601e+06
  -1.490454e+06  -5.967685e+05
   4.180933e+05  -1.009355e+06
   1.761609e+06   3.281181e+05
   4.484639e+05   1.732428e+06
  -2.228532e+06   1.541624e+06
  -3.408839e+06  -1.658549e+05
  -1.865668e+06  -2.271570e+06
   1.243181e+06  -3.727609e+06
   3.875988e+06  -3.551563e+06
   4.564177e+06  -1.146290e+06
   3.089253e+06   2.413901e+06
   6.514411e+05   4.520869e+06
  -9.350151e+05   3.699847e+06
  -9.381170e+05   1.489550e+06
  -4.258185e+05   4.812903e+05
  -7.978487e+05   9.981662e+05
  -1.939734e+06   1.078788e+06
  -2.456814e+06  -4.119491e+05
  -1.489163e+06  -2.120363e+06
   3.575764e+05  -2.066485e+06
   1.736100e+06  -1.209453e+05
   1.630563e+06   1.990694e+06
  -6.321119e+04   2.538004e+06
  -2.294668e+06   1.157475e+06
  -3.307096e+06  -1.122537e+06
  -2.162363e+06  -2.737608e+06
   7.117406e+04  -2.781614e+06
   1.396314e+06  -1.745275e+06
   1.294549e+06  -9.003594e+05
   1.217684e+06  -7.970805e+05
   2.318762e+06  -6.977179e+05
   3.578524e+06   3.191832e+05
   3.010490e+06   2.085923e+06
   2.965213e+05   3.456181e+06
  -2.627388e+06   3.391112e+06
  -3.584502e+06   1.757462e+06
  -2.209447e+06  -5.391684e+05
  -1.925462e+04  -1.981357e+06
   1.098251e+06  -1.549315e+06
   4.562154e+05   1.159762e+05
  -9.652752e+05   1.102738e+06
  -1.537227e+06   3.603197e+05
  -6.831629e+05  -9.518105e+05
   4.996916e+05  -9.767803e+05
   5.514411e+05   2.793890e+05
  -5.996002e+05   8.886564e+05
  -1.586210e+06  -4.042609e+05
  -1.186460e+06  -2.475663e+06
   4.890659e+05  -3.173052e+06
   2.321165e+06  -1.733005e+06
   3.159079e+06   6.685189e+05
   2.461298e+06   2.324060e+06
   6.185264e+05   2.410083e+06
  -1.085725e+06   1.321009e+06
  -1.397399e+06   1.872373e+05
  -4.224612e+05  -2.448460e+04
   3.410323e+05   6.236944e+05
  -2.419090e+05   1.088916e+06
  -1.477900e+06   5.490228e+05
  -1.702774e+06  -5.693535e+05
  -4.392180e+05  -1.104299e+06
   9.486571e+05  -5.729812e+05
   8.824999e+05   3.374688e+05
  -6.206136e+05   6.440819e+05
  -2.006630e+06   2.552749e+04
  -1.800116e+06  -1.075967e+06
  -1.079789e+03  -1.862178e+06
   1.934115e+06  -1.639661e+06
   2.390703e+06  -3.780081e+05
   1.070246e+06   9.808023e+05
  -6.927736e+05   1.218439e+06
  -1.214938e+06   1.869957e+05
  -1.465218e+05  -8.600239e+05
   1.248669e+06  -6.628162e+05
   1.507968e+06   5.504276e+05
   4.524950e+05   1.386674e+06
  -8.098926e+05   9.802421e+05
  -1.117872e+06  -9.138610e+04
  -3.353093e+05  -6.179227e+05
   6.179893e+05  -1.003722e+05
   6.456983e+05   8.542009e+05
  -4.643757e+05   1.222113e+06
  -1.707260e+06   5.021721e+05
  -1.759899e+06  -8.433494e+05
  -4.014659e+05  -1.743531e+06
   1.133269e+06  -1.454321e+06
   1.452316e+06  -2.809610e+05
   5.039165e+05   7.050220e+05
  -5.123747e+05   7.427361e+05
  -6.049360e+05   8.501922e+04
   2.880794e+04  -4.231210e+05
   4.948487e+05  -3.176251e+05
   2.876978e+05   7.112294e+04
  -2.856312e+05   1.007896e+05
  -5.151297e+05  -4.264604e+05
   4.252395e+04  -9.963909e+05
   1.113280e+06  -8.423316e+05
   1.796122e+06   2.577577e+05
   1.321125e+06   1.602779e+06
  -9.866262e+04   2.108969e+06
  -1.347542e+06   1.353491e+06
  -1.535481e+06   1.883178e+04
  -8.939071e+05  -8.108543e+05
  -3.398935e+05  -7.334812e+05
  -3.231346e+05  -2.887477e+05
  -4.303173e+05  -2.042050e+05
  -8.715324e+04  -5.726889e+05
   6.766150e+05  -8.238819e+05
   1.247811e+06  -3.990149e+05
   1.014485e+06   5.953298e+05
  -9.733560e+04   1.357315e+06
  -1.444453e+06   1.058932e+06
  -1.989467e+06  -3.076127e+05
  -1.112534e+06  -1.740947e+06
   6.880078e+05  -2.062819e+06
   2.076967e+06  -1.045596e+06
   2.089399e+06   3.796791e+05
   1.009252e+06   1.107543e+06
  -6.378991e+04   9.360581e+05
  -3.948610e+05   5.639465e+05
  -1.912553e+05   6.417979e+05
  -1.192538e+05   1.036416e+06
  -5.064119e+05   1.061004e+06
  -1.053830e+06   2.963784e+05
  -1.167557e+06  -8.915285e+05
  -5.353018e+05  -1.617035e+06
   4.975773e+05  -1.260469e+06
   1.116849e+06  -6.487528e+04
   7.719605e+05   1.029202e+06
  -2.123424e+05   1.206066e+06
  -8.987194e+05   4.760695e+05
  -7.094142e+05  -4.367775e+05
  -2.386587e+04  -8.525601e+05
   3.157256e+05  -7.060460e+05
   1.001310e+04  -4.074127e+05
  -3.625036e+05  -2.986520e+05
  -5.114424e+04  -3.371777e+05
   9.379064e+05  -2.364924e+05
   1.727620e+06   1.867627e+05
   1.427072e+06   7.920471e+05
   9.091241e+04   1.180277e+06
  -1.241552e+06   1.013491e+06
  -1.534745e+06   3.568967e+05
  -7.603512e+05  -2.990842e+05
   1.666255e+05  -4.530864e+05
   4.119172e+05  -8.608154e+04
   1.034639e+04   3.031311e+05
  -4.028462e+05   2.196278e+05
  -4.138410e+05  -2.799145e+05
  -1.726691e+05  -6.339230e+05
  -3.335659e+04  -4.148896e+05
  -1.212078e+05   1.342825e+05
  -2.816071e+05   3.232716e+05
  -2.583476e+05  -1.794542e+05
   1.191742e+05  -8.767474e+05
   7.308227e+05  -9.369864e+05
   1.084415e+06  -1.535208e+05
   6.848779e+05   7.601487e+05
  -3.177067e+05   9.307072e+05
  -1.024785e+06   2.672720e+05
  -6.410270e+05  -4.903565e+05
   5.642838e+05  -5.966917e+05
   1.402335e+06  -1.195217e+04
   9.887852e+05   6.891899e+05
  -3.145241e+05   9.258935e+05
  -1.293544e+06   5.630143e+05
  -1.132789e+06  -6.939723e+04
  -1.698186e+05  -4.552511e+05
   5.435505e+05  -2.886706e+05
   3.212129e+05   2.194383e+05
  -5.185059e+05   4.402529e+05
  -1.019628e+06  -7.796177e+04
  -5.614598e+05  -1.023946e+06
   5.227011e+05  -1.468093e+06
   1.288351e+06  -7.719955e+05
   1.110155e+06   6.395120e+05
   2.263139e+05   1.562735e+06
  -6.004815e+05   1.183217e+06
  -8.217447e+05  -8.135874e+04
  -4.580550e+05  -1.015329e+06
   1.037541e+05  -8.807985e+05
   4.696033e+05  -1.158858e+05
   4.574706e+05   3.211323e+05
   1.903088e+05   1.279002e+05
   2.296705e+04  -9.796430e+04
   1.923209e+05   2.176263e+05
   4.532355e+05   8.105576e+05
   2.540555e+05   9.418433e+05
  -5.494998e+05   3.775571e+05
  -1.307430e+06  -3.563369e+05
  -1.190034e+06  -6.845985e+05
  -1.905287e+05  -5.907279e+05
   7.693051e+05  -3.882231e+05
   8.653785e+05  -2.075736e+05
   2.806795e+05   9.108903e+03
  -1.355088e+05   1.966304e+05
   2.341713e+04   2.035357e+05
   2.844449e+05   1.005788e+05
   2.917253e+04   1.168594e+05
  -6.211050e+05   2.070202e+05
  -9.032848e+05   8.129190e+03
  -3.243063e+05  -5.789996e+05
   7.415666e+05  -1.018872e+06
   1.418855e+06  -6.729982e+05
   1.177257e+06   3.586839e+05
   2.627004e+05   1.220617e+06
  -6.100684e+05   1.201562e+06
  -8.930236e+05   4.670248e+05
  -5.832401e+05  -2.078496e+05
  -1.070318e+05  -3.059997e+05
   1.000823e+05  -3.170197e+04
  -5.457802e+04   4.940157e+04
  -2.945738e+05  -2.955678e+05
  -2.589493e+05  -6.941382e+05
   1.441592e+05  -5.856825e+05
   6.044993e+05   1.149021e+05
   6.437349e+05   8.336584e+05
   8.227719e+04   8.868691e+05
  -6.727581e+05   1.953795e+05
  -9.056618e+05  -6.333302e+05
  -3.069575e+05  -9.322796e+05
   6.048787e+05  -5.775016e+05
   9.513134e+05   4.283059e+04
   4.557329e+05   4.853335e+05
  -2.246984e+05   5.582175e+05
  -2.825595e+05   3.222769e+05
   2.530885e+05   1.589373e+04
   5.722800e+05  -4.764690e+04
   1.232066e+05   2.550908e+05
  -6.958017e+05   6.195531e+05
  -1.043748e+06   5.362252e+05
  -6.287133e+05  -1.004353e+05
   6.066643e+04  -7.420248e+05
   4.195765e+05  -7.441166e+05
   3.260378e+05  -1.260216e+05
   4.085033e+04   4.295444e+05
  -2.012322e+05   3.642906e+05
  -3.117425e+05  -1.506220e+05
  -2.326170e+05  -4.944145e+05
   4.166279e+04  -3.413766e+05
   3.390983e+05   4.170919e+04
   4.095481e+05   2.055692e+05
   2.130128e+05   5.530633e+04
  -1.762483e+04  -1.027058e+05
  -7.294225e+04   1.956050e+04
  -2.576985e+04   3.276922e+05
  -9.262188e+04   4.414495e+05
  -2.908958e+05   1.377947e+05
  -3.641822e+05  -3.547886e+05
  -9.616735e+04  -5.620091e+05
   3.614602e+05  -2.685266e+05
   5.623282e+05   2.442758e+05
   2.204389e+05   5.030485e+05
  -4.191063e+05   3.276000e+05
  -7.481984e+05  -5.359389e+04
  -4.171803e+05  -3.139969e+05
   2.427376e+05  -3.313525e+05
   5.386077e+05  -1.866481e+05
   1.907688e+05  -1.812429e+04
  -3.345507e+05   4.298477e+04
  -3.696460e+05  -8.007415e+04
   1.668828e+05  -2.796519e+05
   6.853106e+05  -2.562301e+05
