
 $NMID
 id='ANONYMOUS ', fmtdat='(2E16.6)'
 volume=1.0
 tramp=1.0
 $END
   1.990060e+07   6.892090e+05
   1.278230e+07   1.000153e+07
  -6.807865e+05   1.259425e+07
  -8.874180e+06   7.808817e+06
  -7.057849e+06   3.961184e+05
  -2.279011e+05  -3.534920e+06
   3.996762e+06  -1.538893e+06
   2.806459e+06   3.251453e+06
  -1.128603e+06   5.291430e+06
  -3.748789e+06   2.238688e+06
  -3.129979e+06  -2.648866e+06
  -3.074936e+05  -4.142424e+06
   1.944044e+06  -8.384818e+05
   1.460352e+06   3.417461e+06
  -1.251454e+06   3.950865e+06
  -3.310230e+06   2.431243e+05
  -2.327221e+06  -3.968907e+06
   1.065786e+06  -4.901417e+06
   3.884244e+06  -2.243055e+06
   3.871812e+06   1.263613e+06
   1.606524e+06   2.886173e+06
  -3.693935e+05   2.271987e+06
  -2.319272e+05   1.209623e+06
   1.299800e+06   1.434437e+06
   1.717632e+06   2.742509e+06
  -5.304930e+05   3.309237e+06
  -3.987211e+06   1.850693e+06
  -5.320544e+06  -8.152354e+05
  -2.902838e+06  -2.582016e+06
   1.109850e+06  -2.192267e+06
   2.908463e+06  -2.837619e+05
   1.122709e+06   1.418809e+06
  -1.897430e+06   1.525984e+06
  -2.957240e+06  -1.126589e+05
  -1.412854e+06  -2.222064e+06
   7.177197e+05  -2.874708e+06
   1.398906e+06  -1.270831e+06
   5.531666e+05   1.028968e+06
  -4.336277e+05   1.460303e+06
  -4.115830e+05  -4.851276e+05
   5.649609e+05  -2.334210e+06
   1.496191e+06  -1.573029e+06
   1.342343e+06   1.061397e+06
  -4.718352e+04   2.368639e+06
  -1.573010e+06   6.763055e+05
  -1.637416e+06  -2.118565e+06
   2.961200e+05  -2.908355e+06
   2.809404e+06  -8.984918e+05
   3.565125e+06   1.879071e+06
   1.579794e+06   3.009619e+06
  -1.585137e+06   1.902765e+06
  -3.182910e+06  -1.732540e+05
  -1.962453e+06  -1.494773e+06
   6.246313e+05  -1.237565e+06
   2.001448e+06   2.577209e+04
   1.127919e+06   9.288767e+05
  -6.142353e+05   6.250630e+05
  -1.157413e+06  -3.950223e+05
  -5.946447e+04  -9.156767e+05
   1.155890e+06  -3.645549e+05
   8.585196e+05   6.383373e+05
  -7.992087e+05   1.017862e+06
  -2.015994e+06   2.565044e+05
  -1.266277e+06  -1.243828e+06
   1.081939e+06  -2.426813e+06
   3.123224e+06  -2.214031e+06
   3.295090e+06  -3.766044e+05
   1.790048e+06   1.982492e+06
   1.100540e+05   3.202866e+06
  -5.879721e+05   2.673708e+06
  -4.962373e+05   1.427816e+06
  -5.682292e+05   8.117726e+05
  -1.247540e+06   8.452600e+05
  -1.998194e+06   4.287503e+05
  -1.967583e+06  -9.044864e+05
  -8.832094e+05  -2.099172e+06
   6.692216e+05  -1.770800e+06
   1.649022e+06   5.946426e+04
   1.286006e+06   1.838736e+06
  -2.680616e+05   2.041700e+06
  -1.871659e+06   6.019904e+05
  -2.245315e+06  -1.200388e+06
  -1.168014e+06  -2.049381e+06
   2.792484e+05  -1.702053e+06
   8.996660e+05  -9.375821e+05
   7.182772e+05  -5.864810e+05
   8.137848e+05  -6.873644e+05
   1.782473e+06  -5.734566e+05
   2.754865e+06   3.033947e+05
   2.282129e+06   1.707530e+06
   1.092527e+05   2.738407e+06
  -2.272034e+06   2.559976e+06
  -3.001902e+06   1.116390e+06
  -1.686084e+06  -6.982365e+05
   2.632760e+05  -1.626673e+06
   1.081642e+06  -1.095599e+06
   3.345128e+05   1.724815e+05
  -8.665236e+05   7.964388e+05
  -1.183445e+06   1.945672e+05
  -4.103069e+05  -7.499208e+05
   4.934586e+05  -7.568839e+05
   5.308625e+05   2.212068e+05
  -3.359148e+05   8.469538e+05
  -1.227429e+06   1.105453e+04
  -1.180314e+06  -1.732919e+06
   4.565441e+04  -2.663966e+06
   1.738814e+06  -1.727874e+06
   2.696288e+06   3.866726e+05
   2.144425e+06   2.005100e+06
   4.760404e+05   2.085631e+06
  -9.778182e+05   1.026266e+06
  -1.161235e+06   4.969214e+04
  -3.375095e+05  -3.759599e+04
   2.482399e+05   5.056864e+05
  -1.955843e+05   8.067131e+05
  -1.109352e+06   3.665302e+05
  -1.285632e+06  -4.423268e+05
  -3.449995e+05  -8.286236e+05
   7.517327e+05  -4.385018e+05
   7.502834e+05   2.942033e+05
  -4.741987e+05   5.940148e+05
  -1.693981e+06   7.162366e+04
  -1.561379e+06  -9.297652e+05
  -1.090798e+04  -1.600212e+06
   1.629424e+06  -1.319640e+06
   1.942960e+06  -2.315528e+05
   8.043185e+05   7.842360e+05
  -5.710326e+05   8.750185e+05
  -8.965567e+05   8.256545e+04
  -3.854162e+04  -6.465499e+05
   1.004303e+06  -4.586252e+05
   1.183946e+06   4.619688e+05
   3.751093e+05   1.112205e+06
  -6.228735e+05   8.188385e+05
  -9.051227e+05  -2.840038e+04
  -3.063185e+05  -4.718782e+05
   4.509916e+05  -6.349048e+04
   4.546966e+05   6.970504e+05
  -4.451334e+05   9.384123e+05
  -1.390127e+06   2.974752e+05
  -1.351744e+06  -7.624062e+05
  -2.445500e+05  -1.394118e+06
   9.357550e+05  -1.110377e+06
   1.156718e+06  -1.945300e+05
   4.034120e+05   5.631589e+05
  -4.197675e+05   5.884549e+05
  -5.241000e+05   4.044446e+04
   6.959967e+03  -4.062880e+05
   4.665730e+05  -3.066104e+05
   3.445088e+05   8.911460e+04
  -1.724907e+05   1.704367e+05
  -4.301023e+05  -2.802623e+05
   1.680090e+04  -7.808412e+05
   9.038345e+05  -6.428764e+05
   1.423909e+06   2.709477e+05
   9.833222e+05   1.332836e+06
  -1.690888e+05   1.700182e+06
  -1.144258e+06   1.083323e+06
  -1.286770e+06  -4.328346e+03
  -7.697105e+05  -7.367818e+05
  -2.727044e+05  -7.286930e+05
  -1.833083e+05  -3.257627e+05
  -2.565328e+05  -1.558120e+05
  -3.278115e+04  -4.131812e+05
   5.529198e+05  -6.479437e+05
   1.035592e+06  -3.104078e+05
   8.499884e+05   5.365588e+05
  -9.636447e+04   1.153185e+06
  -1.212131e+06   8.371000e+05
  -1.610769e+06  -3.175985e+05
  -8.571884e+05  -1.428887e+06
   5.777147e+05  -1.617779e+06
   1.661169e+06  -7.938202e+05
   1.688633e+06   3.238022e+05
   8.562828e+05   9.244223e+05
  -3.789791e+04   8.262083e+05
  -3.951615e+05   5.105945e+05
  -2.836145e+05   5.000219e+05
  -1.917961e+05   7.639284e+05
  -4.348066e+05   7.808640e+05
  -8.254245e+05   1.756679e+05
  -8.822559e+05  -7.727423e+05
  -3.503965e+05  -1.324518e+06
   4.632475e+05  -9.894033e+05
   9.044278e+05  -1.692199e+04
   5.916926e+05   8.278624e+05
  -1.728953e+05   9.516517e+05
  -6.821720e+05   4.001530e+05
  -5.405511e+05  -2.910759e+05
  -4.320704e+04  -6.325660e+05
   2.045756e+05  -5.608811e+05
  -8.014975e+03  -3.572150e+05
  -2.644378e+05  -2.742489e+05
  -1.686129e+04  -2.815293e+05
   7.360319e+05  -1.586219e+05
   1.339867e+06   2.107202e+05
   1.108801e+06   6.707208e+05
   6.818461e+04   9.115953e+05
  -9.833984e+05   7.399554e+05
  -1.224276e+06   2.549980e+05
  -6.125723e+05  -2.067195e+05
   1.286725e+05  -3.250917e+05
   3.162518e+05  -7.728217e+04
  -2.601320e+04   2.064737e+05
  -3.550243e+05   1.487159e+05
  -3.128006e+05  -2.447755e+05
  -6.279077e+04  -5.331972e+05
   3.702077e+04  -3.397518e+05
  -1.083036e+05   1.365438e+05
  -2.774273e+05   2.893431e+05
  -2.088007e+05  -1.518567e+05
   1.597736e+05  -7.178958e+05
   6.288096e+05  -7.098723e+05
   8.229060e+05  -3.830886e+04
   4.583760e+05   6.465761e+05
  -2.999384e+05   6.876883e+05
  -8.048921e+05   1.197058e+05
  -4.861345e+05  -4.394701e+05
   4.673151e+05  -4.643624e+05
   1.149704e+06   2.404675e+04
   8.302733e+05   5.832874e+05
  -2.446382e+05   7.709070e+05
  -1.077396e+06   4.658614e+05
  -9.523857e+05  -6.834857e+04
  -1.424290e+05  -3.849160e+05
   4.434367e+05  -2.313416e+05
   2.315821e+05   1.761780e+05
  -4.618815e+05   3.068428e+05
  -8.135290e+05  -1.477437e+05
  -3.596206e+05  -8.717174e+05
   5.441855e+05  -1.140973e+06
   1.101957e+06  -5.284063e+05
   8.635423e+05   5.879971e+05
   1.017670e+05   1.285071e+06
  -5.416527e+05   9.543468e+05
  -6.688692e+05  -7.362764e+04
  -3.546747e+05  -8.375726e+05
   8.380704e+04  -7.293962e+05
   3.724727e+05  -8.827084e+04
   3.851131e+05   2.876729e+05
   1.813714e+05   1.220043e+05
   9.701879e+03  -8.817956e+04
   9.615938e+04   1.638604e+05
   3.096752e+05   6.678099e+05
   2.019533e+05   7.800268e+05
  -4.156481e+05   2.852819e+05
  -1.048170e+06  -3.515558e+05
  -9.692425e+05  -6.094418e+05
  -1.304378e+05  -4.791804e+05
   6.751980e+05  -2.746041e+05
   7.226794e+05  -1.396206e+05
   1.977382e+05   1.881719e+03
  -1.322298e+05   1.493866e+05
   4.970160e+04   1.845183e+05
   2.680482e+05   1.173102e+05
   6.522697e+02   9.939684e+04
  -5.590190e+05   1.207050e+05
  -7.251057e+05  -5.395201e+04
  -1.688434e+05  -4.801207e+05
   6.939116e+05  -7.597149e+05
   1.153917e+06  -4.358506e+05
   8.801589e+05   3.786484e+05
   1.304732e+05   1.007912e+06
  -5.464564e+05   9.229424e+05
  -7.467024e+05   2.999159e+05
  -4.666103e+05  -2.229686e+05
  -5.120585e+04  -2.529176e+05
   1.201433e+05   3.297835e+03
  -3.198222e+04   6.486674e+04
  -2.408252e+05  -2.409716e+05
  -1.882036e+05  -5.730809e+05
   1.571335e+05  -4.557678e+05
   4.906342e+05   1.538638e+05
   4.498454e+05   7.366909e+05
  -2.824702e+04   7.175261e+05
  -5.800601e+05   8.219611e+04
  -6.841062e+05  -5.986309e+05
  -1.691201e+05  -7.685227e+05
   5.284126e+05  -4.027257e+05
   7.459182e+05   1.004959e+05
   3.161437e+05   3.909075e+05
  -2.117866e+05   4.010344e+05
  -2.134946e+05   2.336352e+05
   2.404323e+05   3.906135e+04
   4.745181e+05  -9.019203e+02
   7.228872e+04   2.064025e+05
  -5.956650e+05   4.662282e+05
  -8.395744e+05   4.005085e+05
  -4.641020e+05  -8.911839e+04
   9.430346e+04  -5.809098e+05
   3.490695e+05  -5.605181e+05
   2.352620e+05  -5.530911e+04
  -9.777740e+03   3.649243e+05
  -1.909222e+05   2.632076e+05
  -2.467535e+05  -1.715358e+05
  -1.544908e+05  -4.136801e+05
   6.333750e+04  -2.436729e+05
   2.704273e+05   6.737225e+04
   3.060865e+05   1.668203e+05
   1.674207e+05   3.625472e+04
   9.525297e+03  -5.898813e+04
  -5.677015e+04   6.475490e+04
  -8.400415e+04   2.862271e+05
  -1.664376e+05   3.180192e+05
  -2.663181e+05   3.563583e+04
  -2.317131e+05  -3.485086e+05
   1.295776e+04  -4.671596e+05
   3.248158e+05  -1.802365e+05
   4.185863e+05   2.528762e+05
   1.322469e+05   4.329168e+05
  -3.475440e+05   2.344928e+05
  -5.815415e+05  -1.027558e+05
  -3.083648e+05  -2.788959e+05
   2.163243e+05  -2.282336e+05
   4.378505e+05  -8.826488e+04
   1.292786e+05   2.994109e+03
  -3.099217e+05  -9.778466e+03
  -3.095837e+05  -1.224266e+05
   1.795569e+05  -2.393730e+05
   6.167193e+05  -1.677007e+05
