
 $NMID
 id='ANONYMOUS ', fmtdat='(2E16.6)'
 volume=1.0
 tramp=1.0
 $END
  -4.728189e+03  -2.091527e+02
  -2.422897e+03  -2.791858e+03
   9.797731e+02  -2.843823e+03
   2.277526e+03  -6.243174e+02
   8.694780e+02   9.259145e+02
  -8.213183e+02   5.304740e+02
  -9.627269e+02  -5.782745e+02
   8.059438e+01  -1.167153e+03
   9.182695e+02  -8.120561e+02
   9.995865e+02   2.067861e+02
   3.703483e+02   9.370289e+02
  -3.474384e+02   9.582653e+02
  -7.494264e+02   8.937118e+00
  -3.322155e+02  -8.976806e+02
   3.092132e+02  -8.019556e+02
   6.704918e+02   6.758545e+01
   2.045069e+02   7.470655e+02
  -4.212072e+02   6.692125e+02
  -6.189033e+02   6.823593e+00
  -3.851359e+02  -4.210479e+02
   5.976707e+01  -4.786157e+02
   2.900869e+02  -2.691002e+02
   2.292587e+02   1.110051e+01
  -1.127456e+02   1.151802e+02
  -5.132381e+02  -1.096896e+02
  -1.670550e+02  -5.135485e+02
   5.319724e+02  -4.828566e+02
   9.247517e+02   1.017172e+02
   4.292129e+02   6.298878e+02
  -4.081550e+02   5.170532e+02
  -8.370485e+02  -4.601378e+01
  -4.078955e+02  -5.404011e+02
   3.204538e+02  -5.815899e+02
   6.345494e+02  -2.087367e+02
   4.580264e+02   2.524245e+02
   4.278253e+01   5.597765e+02
  -2.846422e+02   3.204631e+02
  -2.337534e+02  -3.267806e+02
   2.190737e+02  -4.559388e+02
   5.376654e+02   6.816908e+01
   2.830173e+02   8.101649e+02
  -4.148471e+02   7.065922e+02
  -7.018522e+02  -5.488320e+00
  -2.129621e+02  -6.096241e+02
   3.355158e+02  -3.568107e+02
   4.149308e+02   3.989530e+02
  -4.442212e+01   6.138779e+02
  -5.799292e+02   1.436995e+02
  -6.501230e+02  -4.664487e+02
  -1.703223e+02  -6.280253e+02
   3.807266e+02  -3.786063e+02
   6.991711e+02   1.400808e+02
   3.568374e+02   4.293599e+02
  -2.027055e+02   3.989333e+02
  -5.493811e+02   1.659129e+01
  -2.496995e+02  -2.688806e+02
   1.983553e+02  -1.057655e+02
   1.528317e+02   1.895084e+02
  -2.102034e+02   1.766086e+02
  -3.600953e+02  -9.755787e+01
  -1.339836e+02  -3.204787e+02
   2.483572e+02  -2.462001e+02
   3.075704e+02  -2.454417e+01
   2.171275e+02   5.952275e+01
  -3.532371e+01   1.679069e+02
  -2.565723e+02   3.467079e+02
  -3.528575e+02   2.099511e+02
  -3.267940e+02  -1.552191e+02
  -7.523402e+01  -4.853963e+02
   1.590343e+02  -4.080866e+02
   1.187599e+02  -1.127657e+02
  -1.242782e+01   5.483105e+01
   4.626021e+01  -8.905221e+01
   1.936077e+02  -1.580591e+02
   3.028309e+02   1.564596e+01
   1.956768e+02   3.214493e+02
  -7.782332e+01   2.942964e+02
  -2.585813e+02   6.646036e+00
  -2.276733e+02  -2.639439e+02
   3.146386e+01  -3.280643e+02
   2.643663e+02  -1.627913e+02
   4.396279e+02   1.762565e+02
   1.990616e+02   3.514230e+02
  -9.730249e+01   3.380816e+02
  -2.312075e+02   1.062439e+02
  -1.107940e+02   1.693561e+01
  -5.741871e+01   3.001852e+01
  -2.370904e+02   5.873960e+01
  -4.204632e+02  -9.325591e+01
  -3.203252e+02  -3.027352e+02
   3.403147e+01  -4.921895e+02
   3.713852e+02  -4.446206e+02
   4.740388e+02  -1.763095e+02
   3.641352e+02   1.126720e+02
   6.486436e+01   3.168187e+02
  -1.422259e+02   2.646524e+02
  -6.632621e+01   1.807733e+01
   1.451260e+02  -7.757637e+01
   2.393254e+02  -8.167123e+00
   4.115611e+01   2.001749e+02
  -1.592737e+02   1.672910e+02
  -1.886529e+02  -4.519497e+01
   5.047990e+01  -2.098291e+02
   2.620814e+02  -2.190144e+01
   1.899355e+02   2.487419e+02
  -6.734790e+01   3.869838e+02
  -2.624510e+02   1.793442e+02
  -3.149250e+02  -1.712595e+01
  -2.597140e+02  -2.878431e+02
  -1.027306e+02  -2.617964e+02
   1.520179e+02  -1.845902e+02
   1.493888e+02  -3.443965e+01
   4.790138e+01   3.430929e+01
  -1.041790e+02  -5.126630e+01
  -4.991421e+01  -1.061315e+02
   1.042006e+02  -1.015991e+02
   2.054574e+02   1.588298e+01
   5.544630e+01   7.747392e+01
  -5.069569e+01   3.274961e+01
  -7.358879e+01  -3.467190e+01
   8.341047e+01  -1.259988e+02
   2.901128e+02  -2.911752e+01
   2.416099e+02   1.459105e+02
   7.622585e+01   2.100303e+02
  -1.748254e+02   2.862340e+02
  -3.113158e+02   1.183588e+02
  -1.777977e+02  -4.871774e+01
   2.747183e+01  -1.016090e+02
   9.679532e+01  -4.348277e+00
  -3.854318e+01   9.300370e+01
  -2.100364e+02   3.101579e+01
  -2.163204e+02  -1.255303e+02
  -8.238163e+01  -2.088023e+02
   8.540856e+01  -1.354991e+02
   1.310186e+02  -3.706003e+01
   8.062279e+01   4.534381e+01
   1.124459e+01  -1.280763e+00
  -5.085405e+01  -5.970661e+01
   8.063595e+01  -1.043365e+02
   2.160871e+02  -7.840828e+01
   2.211450e+02   1.443495e+02
  -2.152932e+01   2.122680e+02
  -2.192013e+02   1.492143e+02
  -1.850653e+02   2.127694e+01
  -5.693391e+01  -1.078186e+02
   8.097960e+01  -1.220458e+02
   7.470529e+01  -2.481305e+01
   1.665632e+00   6.058614e+01
  -1.369619e+01   2.529264e+01
   4.235499e+00  -4.125072e+00
   6.602733e+01   1.046952e+01
   9.011116e+01   7.912723e+01
   3.043004e+01   1.356447e+02
  -1.607932e+02   1.542934e+02
  -2.624927e+02   2.342294e+01
  -2.032530e+02  -1.474470e+02
  -3.322879e+01  -2.102820e+02
   1.320455e+02  -1.889420e+02
   1.365117e+02   4.156685e+00
   6.807857e+01   6.266969e+01
   1.441117e+01   3.211611e+01
   2.144391e+01  -2.747115e+01
   6.923075e+01  -3.817094e+01
   6.063774e+01   1.930571e+01
   2.898601e+00   1.014330e+02
  -1.213927e+02   7.131204e+01
  -8.525880e+01  -1.065221e+01
   3.089113e+01  -1.060329e+02
   1.351519e+02  -9.529803e+01
   2.215857e+02   4.398271e+01
   1.004476e+02   2.038565e+02
  -1.203332e+02   2.271866e+02
  -3.029209e+02   7.905726e+01
  -2.638825e+02  -8.411504e+01
  -1.024607e+02  -2.068439e+02
   4.798251e+01  -1.580757e+02
   1.013050e+02  -7.022125e+01
   6.510853e+01  -6.735005e+01
   5.063889e+01  -4.605981e+01
   8.247963e+01  -6.387025e+01
   1.624826e+02   3.643062e+01
   1.162691e+02   1.142487e+02
   3.819474e+01   2.343640e+02
  -1.201518e+02   1.533956e+02
  -2.370183e+02   3.944604e+01
  -9.665821e+01  -1.143543e+02
  -4.927933e+01  -1.529339e+02
   9.021800e+01  -7.833580e+01
   6.414563e+01  -3.880207e+00
   4.391089e+01   3.037758e+01
  -2.260146e+01   6.880683e+01
   1.057296e+01  -2.651820e+00
   6.954509e+01  -5.412435e+00
   5.304905e+01   6.450370e+01
  -5.540665e+01   5.939996e+01
  -1.516451e+02   3.476154e+00
  -1.816258e+02  -2.168655e+00
  -3.836959e+01  -1.242396e+02
   1.391834e+02  -8.910720e+01
   1.620445e+02  -1.642276e+01
   5.527146e+01   2.253993e+01
  -6.083286e+01  -9.795262e+00
  -6.774337e+01  -3.570725e+01
  -1.455125e+01  -5.826695e+01
   2.840599e+01  -3.297438e+01
   5.954730e+01   4.420161e+01
   9.303402e+00   6.725909e+01
   3.707719e+01   8.332856e+01
   9.044306e+01  -1.541439e+01
   9.074784e+01   3.065578e+00
   2.454855e+01   6.105528e+01
  -3.303110e+01   1.236822e+02
  -1.366831e+02   1.287909e+02
  -1.290408e+02   4.076001e+01
  -9.790824e+01  -1.023186e+02
  -1.563671e+01  -1.405508e+02
   9.199544e+01  -4.313445e+01
   5.279778e+01   1.297162e+01
  -6.944193e+01   4.714031e+00
  -1.148207e+02  -5.889691e+01
  -4.591139e+01  -1.087759e+02
   7.906713e+01  -1.040761e+02
   1.878454e+02  -3.973135e+01
   1.982135e+02   4.033677e+01
   2.562485e+01   8.539788e+01
  -6.321633e+01   6.463215e+01
  -4.088524e+01   3.104107e+01
   2.486804e+01  -2.189701e+01
   9.563718e+01   6.995972e+01
   1.878541e+01   1.253923e+02
  -1.023687e+02   1.522665e+02
  -2.060990e+02   2.269512e+01
  -8.887631e+01  -7.822949e+01
  -8.129656e+00  -1.850301e+02
   7.749840e+01  -1.422210e+02
   1.076355e+02   2.927706e+01
   7.397492e+01   1.415200e+02
   1.060396e+01   7.884910e+01
  -5.619641e+01   4.783307e+00
  -2.293091e+01  -5.427032e+01
  -3.793947e+01   2.479332e+01
  -2.261395e+01  -2.880565e+00
  -2.231677e+01  -2.589914e+01
  -6.716598e+01  -1.095875e+02
  -2.346542e+01  -1.401859e+02
   4.814884e+01  -2.664246e+01
   1.537406e+02   4.189585e+01
   9.935592e+01   9.022894e+01
  -1.873446e+01   6.193520e+00
  -6.985870e+01   3.752776e+01
  -1.005565e+02  -1.134657e+00
   1.430481e+01   2.791365e+01
   4.611331e+01   1.612116e+00
   6.692983e+00  -6.770972e+01
  -2.543652e+01   8.865627e+00
   5.766986e+01  -3.295382e+01
   5.063081e+01   5.619324e+01
   9.804415e+01  -2.966884e+01
   6.021802e+00   8.370621e+01
  -1.223491e+02   9.454367e+01
  -1.598204e+02   4.586242e+01
  -1.267100e+02  -4.462132e+01
   1.861762e+01  -1.767762e+02
   2.393330e+01  -1.417511e+02
   1.322622e+02  -5.013169e+01
   7.992276e+01   2.852052e+00
   4.467216e+01   5.966174e+01
   1.438975e+01   1.391130e+01
  -2.577957e+01   3.951283e+01
   1.371605e+01   6.710712e+01
   4.415936e+00   1.004366e+02
  -3.969230e+01   1.851934e+01
  -7.797834e+01  -5.653246e+01
  -6.714177e+01  -1.175935e+02
   1.305394e+01  -1.035698e+02
   3.794381e+01  -2.857244e+01
   1.110059e+02   6.708868e+01
   2.929467e+01   1.403745e+02
  -7.090595e+01   4.672592e+01
  -8.565871e+01   2.979196e+01
  -4.563765e+01   1.185192e+00
   7.683805e+00  -6.843545e+01
   3.809139e+01  -7.224214e+01
  -2.515416e+01  -8.626801e+00
  -4.834179e+01   5.604542e+01
  -2.761100e+00  -2.620712e+01
   6.781025e+01  -6.572746e+01
   1.342270e+02  -6.720467e+01
   7.822037e+01   2.233240e+01
  -2.957129e+01   6.609669e+01
  -2.656001e+01   6.423083e+01
  -7.071436e+00   3.776049e+01
  -5.461803e+00  -5.485312e+01
   2.413543e+01  -7.077051e+01
   6.728685e+01   5.268716e+01
   5.425110e+01   2.877579e+01
   3.416026e+01   3.147981e+00
  -5.218814e+01   1.176419e+01
  -1.683679e+01   6.074298e+00
  -5.701128e+01   1.753269e+01
   2.664467e+01   2.667861e+01
   1.835241e+01   1.121382e+01
   7.401597e+00  -4.228883e+01
   4.918694e-01  -7.755223e+00
   4.313130e+01  -1.713461e+01
   2.841418e+01   4.430474e+01
  -3.123041e+00   7.175089e+01
  -8.909193e+01  -3.401542e+01
  -3.140914e+01  -2.663006e+01
  -1.116173e+01  -7.656126e+01
   4.949156e+01  -2.701600e+01
   1.367984e+02  -2.543567e+00
   4.235015e+01   7.859955e+01
  -1.146489e+01   3.176564e+01
  -5.162865e+01   2.497746e+01
  -3.046298e+01   4.115735e+01
   4.414041e+01   3.698831e+01
   3.871101e+01   2.541531e+00
  -3.321660e+01   4.954637e+01
  -1.161515e+02   2.516933e+01
