
 $NMID
 id='ANONYMOUS ', fmtdat='(2E16.6)'
 volume=1.0
 tramp=1.0
 $END
  -4.297313e+03  -4.550096e+02
  -2.497372e+03  -2.825339e+03
   9.290565e+02  -2.859347e+03
   2.358438e+03  -8.887494e+02
   9.411113e+02   8.116506e+02
  -6.458810e+02   5.786880e+02
  -9.156716e+02  -4.498422e+02
   3.661723e+01  -1.020708e+03
   8.669452e+02  -8.543993e+02
   9.816823e+02   7.318626e+01
   4.959692e+02   8.749330e+02
  -2.938810e+02   8.914493e+02
  -6.817634e+02   3.767387e+01
  -3.700044e+02  -7.159783e+02
   3.164876e+02  -7.918417e+02
   5.876367e+02   6.145935e+01
   3.068811e+02   7.089160e+02
  -3.766422e+02   6.446866e+02
  -6.372526e+02   2.445901e+00
  -4.262774e+02  -3.407345e+02
  -3.166575e+00  -4.540876e+02
   2.475254e+02  -2.691595e+02
   1.942053e+02  -2.611429e+01
  -7.976347e+01   1.040624e+02
  -3.467492e+02  -1.284631e+02
  -1.954219e+02  -4.593392e+02
   4.569022e+02  -4.261589e+02
   8.423458e+02   5.474291e+01
   4.439883e+02   5.703182e+02
  -3.853069e+02   4.489207e+02
  -8.015609e+02  -5.094088e+01
  -3.651031e+02  -5.031855e+02
   3.247290e+02  -5.479930e+02
   6.109866e+02  -1.806243e+02
   3.542016e+02   2.816554e+02
   5.853659e+01   5.028626e+02
  -2.540182e+02   3.145081e+02
  -1.658451e+02  -2.530719e+02
   1.794234e+02  -4.718834e+02
   4.589359e+02  -2.557194e+01
   2.811816e+02   7.306287e+02
  -3.076592e+02   7.162905e+02
  -5.625409e+02  -1.268157e+01
  -2.763611e+02  -5.824791e+02
   2.923721e+02  -3.485427e+02
   3.863116e+02   3.030791e+02
  -7.776350e+01   5.455034e+02
  -5.866825e+02   1.500257e+02
  -6.173281e+02  -4.105787e+02
  -1.716297e+02  -5.769806e+02
   3.706111e+02  -3.579121e+02
   6.386329e+02   1.007566e+02
   3.763087e+02   3.999905e+02
  -1.871682e+02   3.977629e+02
  -4.569425e+02   3.363486e+01
  -2.655687e+02  -1.969283e+02
   1.328641e+02  -1.486028e+02
   1.016651e+02   1.210322e+02
  -1.623706e+02   2.052811e+02
  -3.782171e+02  -5.148037e+01
  -1.275716e+02  -3.107018e+02
   2.042144e+02  -2.794461e+02
   3.781267e+02  -6.532756e+01
   1.747673e+02   1.072184e+02
  -7.417316e+01   2.288577e+02
  -2.040853e+02   3.156322e+02
  -3.398361e+02   2.338958e+02
  -2.777481e+02  -1.295712e+02
  -3.826334e+01  -4.536558e+02
   1.190011e+02  -4.433291e+02
   1.585018e+02  -1.166370e+02
   2.230765e+01   9.167524e+00
   5.442135e+01  -9.373955e+01
   1.859411e+02  -1.104943e+02
   2.576266e+02   4.262460e+01
   1.675272e+02   3.223553e+02
  -4.140031e+01   2.509528e+02
  -2.630925e+02   6.952639e+01
  -2.118477e+02  -2.250706e+02
  -3.863283e+01  -2.939105e+02
   2.871504e+02  -1.437406e+02
   3.617099e+02   1.218974e+02
   1.761610e+02   3.912001e+02
  -1.105480e+02   3.173063e+02
  -2.252125e+02   1.305755e+02
  -1.687899e+02   1.091941e+01
  -1.133135e+02   2.383677e+01
  -2.325639e+02   6.510294e+01
  -4.016295e+02  -5.500014e+01
  -3.284858e+02  -2.629182e+02
  -8.485691e+00  -4.252014e+02
   3.625153e+02  -4.304604e+02
   5.066045e+02  -2.308955e+02
   3.398580e+02   9.797796e+01
   2.811530e+01   2.869998e+02
  -1.390524e+02   2.397224e+02
  -8.538306e+01   4.922108e+01
   1.265083e+02  -1.218007e+02
   2.320512e+02   1.046873e+01
   2.042342e+01   1.811381e+02
  -1.856394e+02   1.392818e+02
  -1.647419e+02  -6.118555e+01
  -7.356707e-01  -1.936201e+02
   2.133653e+02  -4.889017e+01
   1.733601e+02   2.243668e+02
  -5.712097e+01   3.499540e+02
  -2.419577e+02   1.748363e+02
  -3.270233e+02  -6.635745e+01
  -2.664139e+02  -2.264525e+02
  -6.221053e+01  -2.737036e+02
   8.800651e+01  -1.902329e+02
   1.606370e+02  -2.038563e+01
   3.005923e+01   3.592018e+01
  -3.807105e+01  -4.403028e+01
  -2.844734e+01  -1.394910e+02
   1.385338e+02  -8.401410e+01
   1.632665e+02   1.392960e+01
   5.221016e+01   4.016802e+01
  -5.392974e+01   2.935469e+00
   5.891076e+00  -4.463213e+01
   1.378058e+02  -1.075148e+02
   2.857756e+02   3.137671e+01
   2.570760e+02   1.301176e+02
   5.973510e+01   2.175424e+02
  -1.432686e+02   2.771188e+02
  -2.638601e+02   1.504202e+02
  -1.614180e+02  -6.660256e+01
   3.362296e+01  -8.240207e+01
   1.047244e+02   5.704933e+00
  -1.973352e+01   8.169833e+01
  -1.859154e+02   6.597097e+01
  -2.193600e+02  -1.326081e+02
  -4.333119e+01  -1.911647e+02
   7.995239e+01  -1.464963e+02
   1.761392e+02   1.149296e+01
   6.641159e+01   5.558842e+01
  -1.161096e+01   4.220370e+01
  -6.482744e+01  -9.094397e+01
   7.359623e+01  -9.947186e+01
   1.900404e+02  -4.439647e+01
   2.038761e+02   1.706935e+02
   2.201582e+01   2.286182e+02
  -1.911512e+02   1.482044e+02
  -2.118069e+02  -2.367720e+01
  -3.978687e+01  -1.181099e+02
   5.745673e+01  -1.413265e+02
   8.383146e+01  -2.632179e+01
   2.634545e+01   1.472134e+00
  -4.141470e+01   1.142603e+01
  -5.801466e+00  -7.699874e+01
   9.421478e+01  -1.088921e+01
   1.013760e+02   1.049657e+02
   8.195836e+00   1.735438e+02
  -8.375822e+01   1.369246e+02
  -2.188724e+02   2.944304e+01
  -2.319972e+02  -1.245075e+02
  -2.651366e+01  -2.605235e+02
   1.399249e+02  -1.716175e+02
   1.697386e+02  -6.017575e+01
   8.934213e+01   4.494104e+01
   1.184506e+01   2.755241e+01
   2.895667e+01  -1.378176e+01
   5.477778e+01   9.324289e+00
   3.636207e+01   4.804740e+01
  -2.822705e+01   7.152256e+01
  -9.128927e+01   5.707507e+01
  -9.519149e+01   1.317422e+01
   1.090673e+01  -1.070044e+02
   1.448864e+02  -5.929359e+01
   1.591738e+02   5.870359e+01
   1.204781e+02   2.066909e+02
  -1.176182e+02   2.277824e+02
  -2.725711e+02   8.458489e+01
  -2.225469e+02  -1.083284e+02
  -6.902478e+01  -1.878738e+02
   3.300098e+00  -1.571340e+02
   1.061003e+02  -1.385964e+02
   5.313301e+01  -3.301762e+01
   6.582405e+01  -1.306507e+02
   8.471200e+01  -8.571416e+01
   1.299961e+02   3.160894e+01
   1.701763e+02   1.650052e+02
   1.986725e+01   2.175288e+02
  -1.088331e+02   1.727558e+02
  -1.748733e+02   1.722657e+01
  -1.407317e+02  -1.146870e+02
  -6.377277e-01  -1.345219e+02
   1.122305e+02  -4.868016e+01
   9.423782e+01  -4.382946e+00
   3.013524e+01   5.733440e+01
  -1.605032e+01   6.811037e+00
   1.829363e+01   3.519871e+01
   9.981135e+01   4.599218e+01
   3.863678e+01   2.353075e+01
  -3.969192e+01   4.894341e+01
  -1.647850e+02  -7.295344e-01
  -1.163036e+02  -3.739134e+01
   6.283427e+01  -5.773488e+01
   1.177259e+02  -6.121181e+01
   1.279889e+02   1.061616e+01
   5.127597e+01   4.267788e+01
  -1.086409e+02   2.909421e+01
  -7.830098e+01  -1.989578e+01
  -5.367192e+00  -1.146000e+02
   7.862939e+01  -7.416023e+01
   6.251954e+01  -2.597084e+01
   4.626613e+01   5.019533e+01
   5.684212e+01   3.281574e+01
   4.587330e+01  -1.238195e+01
   9.302554e+01  -3.509507e+01
   5.902721e+01   5.716945e+01
  -1.254145e+01   1.173528e+02
  -1.213338e+02   1.261246e+02
  -1.672986e+02   2.821748e+01
  -9.280546e+01  -9.941658e+01
   5.361576e+00  -1.160932e+02
   3.853535e+01  -5.973319e+01
   1.693033e+01  -1.409379e+01
  -6.841326e+01   3.678384e+01
  -1.291700e+02  -1.950881e+01
  -1.026005e+02  -1.223595e+02
   1.099720e+02  -1.046524e+02
   1.579478e+02  -4.456147e+01
   1.557854e+02   3.592720e+01
   4.553027e+01   8.318215e+01
  -6.259759e+01   1.163464e+02
  -2.606896e+01   7.173798e+01
   1.176991e+01  -3.824496e+01
   1.105513e+02   1.350169e+01
   3.296496e+00   1.013046e+02
  -1.103330e+02   1.035372e+02
  -1.596211e+02   6.398318e+01
  -1.380338e+02  -1.363262e+02
  -3.075346e+01  -1.660275e+02
   7.850131e+01  -1.373846e+02
   1.172171e+02   2.411487e+01
   5.457433e+01   8.509437e+01
   2.690018e+00   1.042498e+02
  -5.826714e+01   1.294503e+01
  -7.669540e+01  -3.942287e+01
  -2.608012e+01   1.683399e+01
  -9.344622e+00   9.859699e-02
  -6.342964e+01  -2.670937e+01
  -6.466346e+01  -8.544436e+01
  -6.298491e+01  -1.008422e+02
   8.495078e+01  -4.774055e+01
   1.060929e+02   8.625972e+00
   9.359553e+01   3.546137e+01
   2.854802e+01   2.991758e+01
  -7.826229e+01   6.548512e+01
  -8.948744e+01   3.907911e+01
   2.328367e+01  -8.212853e+01
   6.438829e+01  -2.674510e+01
   2.184338e+01  -3.346732e+01
  -4.921584e+01   1.857863e+01
   2.097530e+01   8.043294e+00
   6.803892e+01   9.097109e-01
   8.410920e+01   3.690458e+01
  -3.031004e+01   6.660145e+01
  -1.101410e+02   1.173202e+02
  -1.913734e+02   1.050248e+02
  -1.542093e+02  -5.165527e+01
  -2.773480e+01  -1.349724e+02
   7.443608e+01  -1.702318e+02
   1.096220e+02  -5.269039e+01
   7.748989e+01   4.590102e+01
   3.075247e+01   2.448731e+01
  -1.910606e+01  -1.184612e+01
  -5.874682e+00   2.122648e+01
   9.179119e+00   6.336027e+01
   1.873864e+01   8.612672e+01
  -5.195199e+01   7.813049e+01
  -8.490682e+01  -1.946246e+01
  -7.519341e+01  -1.188724e+02
  -2.622401e+01  -1.070237e+02
   9.472296e+01   4.391910e+00
   1.074007e+02   4.313551e+01
   3.177021e+01   7.496508e+01
  -4.273906e+01   5.402159e+01
  -1.147496e+02   1.340579e+01
  -4.267277e+01  -6.423679e+01
   4.348067e+01  -6.868214e+01
   6.322921e+01  -1.914576e+01
   1.885422e+01  -2.897829e+01
  -4.406188e+01   1.326865e+01
  -4.250693e+01  -5.341894e+00
   5.798460e+01  -8.162926e+01
   1.068241e+02  -5.342862e+01
   5.601932e+01   1.073762e+01
  -2.020336e+01   6.330007e+01
  -3.128906e+01   6.551199e+01
  -2.683361e+01   1.545064e+01
   1.406986e-01  -6.210568e+01
   6.559715e+01  -5.011698e+01
   2.470419e+01  -7.092943e+00
   8.349147e+00   5.727825e+01
  -1.216408e+01   1.800226e+01
  -6.186836e+01   4.045082e-02
  -5.081351e+01  -3.061191e+01
  -3.877231e+01   1.649656e+01
   2.153179e+01  -1.687625e+01
   1.219211e+01   2.711221e+01
  -9.794032e+00  -6.260364e+01
   5.891692e+01  -6.069019e+01
   4.477530e+01  -1.129987e+01
   5.156636e+01   5.906954e+01
  -3.341873e+01   1.059445e+02
  -1.965185e+01   3.454768e+01
  -6.126402e+01  -6.823068e+01
  -1.112725e+01  -7.918238e+01
   4.357247e+01   9.572917e+00
   8.295073e+01  -1.780764e+01
   6.233070e+01   6.981611e+01
  -5.153604e+01   2.754530e+01
  -3.910639e+01   1.939001e+01
  -2.911335e+01  -1.978289e+01
   4.465098e+01  -4.562140e+01
   5.360936e+01   4.212315e+01
  -9.046686e+01   2.353570e+01
  -7.162756e+01   7.281472e+00
