
 $NMID
 id='ANONYMOUS ', fmtdat='(2E16.6)'
 volume=1.0
 tramp=1.0
 $END
   4.874630e+03  -1.285298e+02
   2.725620e+03   2.922991e+03
  -8.479050e+02   2.812823e+03
  -2.468354e+03   9.265604e+02
  -9.319575e+02  -9.102920e+02
   7.779943e+02  -7.189560e+02
   1.056429e+03   4.451232e+02
   5.152971e-01   1.148693e+03
  -9.054584e+02   8.529991e+02
  -1.007501e+03  -1.500898e+02
  -4.628720e+02  -9.565807e+02
   3.117038e+02  -1.014806e+03
   7.319879e+02  -8.202625e+01
   3.860458e+02   8.723332e+02
  -3.201026e+02   8.099171e+02
  -6.705848e+02  -1.289905e+01
  -2.386194e+02  -7.594858e+02
   3.967706e+02  -6.437116e+02
   6.298285e+02  -5.157953e+01
   4.318645e+02   3.981396e+02
  -2.290444e+00   4.607957e+02
  -2.836023e+02   2.678304e+02
  -2.297535e+02   4.134268e+01
   1.026957e+02  -1.006438e+02
   4.531748e+02   1.071051e+02
   2.140460e+02   4.262491e+02
  -5.062265e+02   4.958600e+02
  -8.710009e+02  -1.157774e+02
  -5.290048e+02  -6.490593e+02
   4.301828e+02  -5.597394e+02
   8.302180e+02  -4.347041e+00
   3.643652e+02   5.179804e+02
  -2.862100e+02   6.133494e+02
  -5.972019e+02   2.324070e+02
  -4.437419e+02  -2.545687e+02
  -6.862061e+01  -5.007537e+02
   2.019989e+02  -3.430698e+02
   2.171198e+02   2.357641e+02
  -2.201866e+02   4.951491e+02
  -5.124498e+02  -5.975059e+00
  -3.248033e+02  -7.828583e+02
   3.428117e+02  -7.717670e+02
   6.894092e+02   4.849663e+01
   2.868457e+02   6.102847e+02
  -2.958662e+02   4.067954e+02
  -4.798593e+02  -3.409534e+02
   5.914624e+01  -5.818174e+02
   6.197307e+02  -1.559111e+02
   6.654096e+02   5.027261e+02
   2.044746e+02   6.470052e+02
  -4.573732e+02   3.582132e+02
  -6.669609e+02  -4.773327e+01
  -3.760982e+02  -4.358531e+02
   2.118279e+02  -4.450676e+02
   4.408434e+02  -4.973461e+01
   2.843290e+02   2.618382e+02
  -1.064964e+02   1.517416e+02
  -1.705606e+02  -1.442526e+02
   1.193448e+02  -1.795810e+02
   3.393872e+02   7.333348e+01
   1.397522e+02   3.634578e+02
  -2.295191e+02   2.344363e+02
  -3.731999e+02   8.394890e+01
  -1.716344e+02  -7.373218e+01
   1.771836e+01  -2.077278e+02
   1.832564e+02  -3.384250e+02
   3.848036e+02  -2.115246e+02
   3.511393e+02   1.559240e+02
   9.015486e+01   4.983786e+02
  -1.713872e+02   4.551326e+02
  -1.253601e+02   1.067404e+02
  -2.037893e+01  -2.431130e+01
  -7.172819e+01   8.401883e+01
  -1.877831e+02   1.958194e+02
  -3.022982e+02  -7.334338e+01
  -2.003503e+02  -2.877008e+02
   5.515692e+01  -3.211455e+02
   2.946780e+02  -4.549823e+01
   2.026691e+02   2.927507e+02
  -8.335925e+00   3.098086e+02
  -2.827956e+02   1.544756e+02
  -3.799282e+02  -1.835684e+02
  -2.206034e+02  -3.387541e+02
   8.736765e+01  -3.359403e+02
   2.597523e+02  -1.112078e+02
   1.364957e+02   7.149046e+00
   1.161357e+02  -7.874647e+01
   2.506407e+02  -9.820926e+01
   4.044317e+02   3.218892e+01
   3.650217e+02   2.626639e+02
  -6.862727e+00   4.031023e+02
  -3.598158e+02   4.603079e+02
  -5.474877e+02   1.952689e+02
  -3.584776e+02  -9.994971e+01
  -4.944824e+01  -2.957394e+02
   1.664164e+02  -2.373902e+02
   1.483370e+02  -2.689792e+01
  -9.708114e+01   1.169658e+02
  -2.083503e+02   6.414259e+00
  -6.709266e+01  -2.416018e+02
   1.343088e+02  -1.923971e+02
   1.935719e+02   5.599635e+01
   1.424778e+01   2.885532e+02
  -2.038774e+02   3.842201e+01
  -1.873332e+02  -2.891669e+02
   2.610531e+01  -3.581425e+02
   2.141246e+02  -2.050822e+02
   3.486261e+02   5.883729e+01
   2.646573e+02   2.514975e+02
   7.937704e+01   3.017390e+02
  -1.298186e+02   1.268047e+02
  -1.767499e+02   3.838243e+01
  -6.944431e+01  -2.741616e+01
   1.149505e+02   5.041664e+01
   4.090654e+01   1.038108e+02
  -1.397627e+02   1.360416e+02
  -1.713497e+02   2.092301e+01
  -4.622901e+01  -9.798230e+01
   1.197049e+02  -7.153359e+01
   6.737463e+01   7.252891e+01
  -7.138835e+01   1.001948e+02
  -3.134413e+02   2.157002e+01
  -2.784061e+02  -1.115621e+02
  -4.310322e+01  -2.732191e+02
   1.862945e+02  -2.813091e+02
   2.220053e+02  -1.223275e+02
   1.763123e+02   5.190762e+01
  -2.800006e+01   1.006924e+02
  -8.937657e+01   4.087177e+01
   7.045912e+01  -1.072853e+02
   1.936918e+02  -4.604254e+01
   2.366878e+02   1.125501e+02
   9.281590e+01   2.057588e+02
  -9.921671e+01   1.438627e+02
  -1.602856e+02   7.412270e+01
  -9.711885e+01  -6.216187e+01
   5.279050e+01   2.899915e+00
   4.329261e+01   1.123575e+02
  -1.050917e+02   1.260129e+02
  -1.653822e+02   5.371802e+01
  -2.212210e+02  -8.583268e+01
  -4.577924e+01  -2.431184e+02
   1.673964e+02  -1.454667e+02
   1.986358e+02  -3.388179e+01
   5.161435e+01   1.055027e+02
  -6.380445e+01   1.367541e+02
  -7.142220e+01   5.403030e+01
   1.484678e+01  -3.201566e+01
   1.369092e+01  -3.675762e+01
   5.431547e+01  -5.977183e+00
  -4.380936e+01  -1.657204e+01
  -8.699612e+01  -9.693160e+01
  -2.306411e+01  -1.490569e+02
   1.327725e+02  -1.432573e+02
   2.443076e+02  -2.518864e+01
   2.469705e+02   1.418377e+02
   7.334744e+01   2.918940e+02
  -8.910164e+01   2.114212e+02
  -1.405414e+02   6.829471e+01
  -8.138090e+01  -2.701221e+01
  -5.957261e+01  -5.864036e+01
  -1.873446e+01   1.969732e+01
  -8.304665e+01   2.131156e+01
  -7.490968e+00  -5.479600e+01
   4.919290e+01  -7.234396e+01
   7.937437e+01  -6.084160e+01
   7.547897e+01   4.204017e+01
  -2.556604e+01   1.029053e+02
  -1.175016e+02   8.017609e+01
  -2.265208e+02  -5.894952e+01
  -1.331521e+02  -1.943991e+02
   1.061066e+02  -2.029414e+02
   2.761544e+02  -9.365695e+01
   3.008723e+02   9.906214e+01
   9.237440e+01   2.163530e+02
  -9.388231e+01   1.763583e+02
  -7.190084e+01   1.251417e+02
  -8.015311e+01   6.539779e+01
  -7.804772e+01   1.177270e+02
  -1.219097e+02   5.434503e+01
  -1.488181e+02  -1.898945e+01
  -8.468511e+01  -1.530821e+02
   3.212002e+01  -2.489479e+02
   1.213317e+02  -1.434824e+02
   1.653849e+02  -6.375995e+00
   1.448710e+02   1.652820e+02
   3.957729e+01   1.354083e+02
  -7.596229e+01   5.266834e+01
  -7.019889e+01   7.011336e+00
   6.439630e+00  -5.499335e+01
   1.109802e+00  -1.000408e+01
  -5.296953e+01   1.303461e+01
  -6.106335e+01  -9.123251e+00
  -5.659200e+01  -6.853417e+01
   8.101021e+01  -2.749462e+01
   1.029668e+02  -3.219224e+01
   1.294483e+02   6.097298e+01
   3.528439e+01   9.846944e+01
  -1.242303e+02   7.849392e+01
  -1.406391e+02   1.657194e+01
  -6.866853e+01  -5.419501e+01
   5.593781e+01  -1.741527e+01
   1.085074e+02   5.563674e+01
   4.179253e+00   5.975901e+01
  -9.591757e+01   5.533673e+01
  -5.259449e+01  -2.247326e+01
  -1.636271e+01  -5.727598e+01
  -6.599144e+01  -6.455319e+01
  -5.095284e+01   1.836410e+01
  -4.792009e+01   1.453835e+01
  -3.741833e+01  -7.846091e+01
   6.008772e+01  -1.488268e+02
   9.472256e+01  -9.850409e+01
   1.976897e+02  -3.565257e+01
   1.092999e+02   9.858885e+01
  -1.561195e+00   9.862126e+01
  -7.630762e+01   6.831801e+01
  -3.562087e+01  -3.893124e+01
   8.226863e+01  -7.841632e+00
   1.470525e+02   1.897186e+01
   6.932296e+01   1.202329e+02
  -4.658536e+01   1.027779e+02
  -1.593000e+02   7.933911e+01
  -2.038046e+02  -2.030603e+01
  -6.415447e+01  -9.195459e+01
   5.085399e+01  -1.257456e+02
   1.000844e+02   5.122295e+00
  -8.388626e+00   2.274570e+01
  -1.120909e+02  -2.945933e+01
  -3.455637e+01  -1.124234e+02
   9.230735e+01  -1.385038e+02
   1.299641e+02  -5.731745e+01
   8.092314e+01   9.448552e+01
   2.061186e+01   2.181029e+02
  -9.441317e+01   1.558514e+02
  -9.044538e+01  -4.386956e+00
  -8.716768e+01  -1.070423e+02
   1.502118e+01  -1.049950e+02
   7.434150e+01  -1.271476e+01
   2.826857e+01   4.243640e+01
   1.395113e+01   1.391481e+01
  -1.862328e+01   1.554848e+01
  -9.225463e-01   5.399980e+00
   7.791053e+01   8.169084e+01
   5.883133e+01   1.109286e+02
  -3.401245e+01   5.046683e+01
  -1.581567e+02  -9.841046e+00
  -1.008446e+02  -6.922399e+01
  -2.268984e+01  -2.782489e+01
   3.975944e+01  -1.947600e+01
   9.476807e+01   1.467638e-01
  -1.559921e+00   2.672512e+01
  -6.044370e+01   3.489805e+01
  -8.971409e+00   7.279206e+01
   1.547061e+01   5.055702e+01
  -4.000292e+01  -2.536443e+01
  -7.456299e+01   6.881821e-01
  -1.088619e+02  -1.450365e+01
   2.994044e+01  -1.092189e+02
   8.322588e+01  -1.244384e+02
   1.791424e+02  -6.016151e+01
   1.447130e+02   8.222458e+01
   1.983777e+01   1.612433e+02
  -7.571875e+01   1.497829e+02
  -8.424563e+01   9.312722e+01
  -1.016253e+02   7.861803e-01
  -1.223770e+01  -3.843420e+01
  -3.039854e+01  -2.684256e+01
   3.967144e+01  -2.414227e+01
  -8.849390e+00  -6.699960e+01
  -3.643913e+00  -9.999281e+01
   3.783139e+01  -4.262260e+01
   5.384213e+01   1.928317e+01
   4.853468e+01   1.143608e+02
  -3.001104e+01   1.263610e+02
  -4.940970e+01   5.995310e+01
  -1.190557e+02  -5.788499e+01
  -4.124729e+01  -1.062861e+02
   5.371313e+01  -3.466122e+01
   9.715892e+01   2.330266e+01
  -3.167053e+00   2.993813e+00
  -1.131415e+01   2.036279e+01
  -2.528000e+01   5.216243e+00
   8.856273e+01   3.341184e+01
   5.328198e+01   1.078336e+01
  -1.082461e+00   6.576682e+01
  -7.592317e+01   6.415135e+01
  -1.289423e+02   5.240363e+01
  -7.712685e+01   8.028579e+00
   1.031783e+01  -7.126050e+01
   5.959311e+01  -6.116080e+01
   1.127204e+01  -4.552879e+01
   2.215088e+01   5.931443e+01
  -3.886278e+01   4.990272e+01
  -7.098878e+01  -7.342196e+01
  -3.674527e+01  -2.445456e+01
   2.771954e+00  -3.657626e+01
   3.022290e+01   1.821551e+01
   5.755845e+01   2.737515e+01
   1.357757e+01  -3.258960e+00
  -1.592673e+01  -3.741743e+01
  -3.440536e+01  -2.245463e+01
  -1.114499e+01  -1.846439e+01
  -3.768450e+01   1.758542e+01
  -8.222917e+01   3.054541e+00
  -3.082312e+01  -4.791407e+01
  -5.630100e+00  -4.427600e+01
   6.635034e+01  -4.755450e+01
   7.585257e+01   6.997891e+01
   2.031594e+01   1.703487e+01
  -5.098662e+01   8.225850e+01
  -1.371704e+02   1.440780e+01
  -3.868354e+01  -3.747650e+01
   6.547754e+01  -2.796876e+01
   6.895859e+01  -9.840934e+00
   2.569634e+01   1.760208e+01
  -2.232346e+01   2.626480e+00
  -7.415257e+01  -3.268521e+01
   2.243408e+01  -3.907161e+01
   9.432714e+01  -1.225132e+00
