
 $NMID
 id='ANONYMOUS ', fmtdat='(2E16.6)'
 volume=1.0
 tramp=1.0
 $END
  -3.696427e+03  -1.534640e+01
  -2.320065e+03  -2.219549e+03
   4.048908e+02  -2.573901e+03
   1.724659e+03  -1.092678e+03
   1.005282e+03   2.941221e+02
  -4.652587e+02   5.425189e+02
  -7.501428e+02  -2.698688e+02
  -3.070030e+01  -9.164380e+02
   7.138009e+02  -7.687032e+02
   8.327951e+02   3.097726e+01
   4.579308e+02   7.187271e+02
  -1.721953e+02   8.122236e+02
  -5.040161e+02   1.457268e+02
  -3.383996e+02  -6.228852e+02
   1.799534e+02  -6.886623e+02
   5.567183e+02  -6.393309e+01
   3.035969e+02   6.217289e+02
  -2.080744e+02   5.768388e+02
  -5.425114e+02   1.881077e+02
  -4.066623e+02  -2.965444e+02
  -8.056725e+01  -4.225507e+02
   2.181281e+02  -2.659018e+02
   1.640297e+02  -2.500806e+01
  -9.263150e+01  -2.799224e-02
  -3.645773e+02  -1.728067e+02
  -1.891960e+02  -4.184799e+02
   4.280520e+02  -3.502150e+02
   8.551459e+02   5.620619e+01
   3.697493e+02   4.483464e+02
  -3.699818e+02   3.887089e+02
  -6.281885e+02  -5.567825e+01
  -3.225262e+02  -4.460561e+02
   3.146989e+02  -4.436891e+02
   5.473411e+02  -1.868627e+02
   3.464008e+02   2.061914e+02
   8.131614e+01   4.778545e+02
  -1.844110e+02   2.624121e+02
  -1.158822e+02  -2.042216e+02
   1.522480e+02  -3.750707e+02
   3.852294e+02   6.123106e+01
   2.159328e+02   5.910028e+02
  -3.549664e+02   6.064497e+02
  -5.493246e+02   7.281511e+01
  -2.500010e+02  -4.654951e+02
   2.415507e+02  -2.473901e+02
   3.475546e+02   2.698414e+02
  -7.698471e+01   5.733988e+02
  -5.609028e+02   8.642393e+01
  -5.464230e+02  -4.207767e+02
  -1.387733e+02  -5.006104e+02
   3.346072e+02  -3.125164e+02
   5.862390e+02   5.158873e+01
   3.642354e+02   3.098257e+02
  -1.003169e+02   2.936349e+02
  -4.226352e+02   8.132192e+01
  -2.399563e+02  -1.059101e+02
   4.649876e+01  -6.973443e+01
   1.349288e+02   1.261820e+02
  -1.142287e+02   1.230146e+02
  -2.852442e+02  -4.121525e+01
  -1.627698e+02  -2.518170e+02
   1.812638e+02  -2.744510e+02
   3.209487e+02  -1.041608e+02
   2.425401e+02   6.470975e+01
  -3.132667e+01   2.370383e+02
  -2.725156e+02   3.725819e+02
  -3.937249e+02   2.137541e+02
  -2.729895e+02  -1.655007e+02
  -7.244890e+01  -4.372544e+02
   1.345923e+02  -3.534264e+02
   1.104072e+02  -1.494416e+02
   2.023040e+01   6.353596e+00
   5.981422e+01  -9.995735e+01
   1.600652e+02  -1.078536e+02
   2.781486e+02   3.779634e+01
   1.398681e+02   2.268742e+02
  -1.062934e+01   2.106162e+02
  -2.091166e+02   1.193641e+01
  -2.055481e+02  -2.502433e+02
   1.679904e+01  -2.811909e+02
   2.815281e+02  -8.903633e+01
   3.740581e+02   1.643664e+02
   1.868952e+02   3.338657e+02
  -1.298044e+02   2.570091e+02
  -2.001719e+02   1.482382e+02
  -1.489730e+02   9.606251e+00
  -9.661588e+01   4.917864e+01
  -2.387365e+02   3.272603e+01
  -4.231743e+02  -9.274833e+01
  -3.322184e+02  -3.108565e+02
  -2.810077e+01  -4.612445e+02
   3.528042e+02  -4.098642e+02
   4.722956e+02  -2.096791e+02
   2.658677e+02   1.208835e+02
   7.308772e+01   2.899338e+02
  -9.214344e+01   1.869255e+02
  -1.127398e+02  -3.776691e+01
   7.567931e+01  -8.713527e+01
   1.700131e+02   4.030485e+01
   2.851479e+01   1.810834e+02
  -1.686389e+02   1.414723e+02
  -1.384000e+02  -5.761773e+01
   6.028980e+01  -1.410870e+02
   1.694522e+02  -1.003571e+01
   1.729693e+02   2.736104e+02
  -1.609160e+01   3.627316e+02
  -1.962014e+02   2.082656e+02
  -3.203748e+02  -5.917497e+01
  -2.508019e+02  -2.769319e+02
  -6.663092e+01  -2.608824e+02
   1.446048e+02  -1.252748e+02
   1.498169e+02  -7.966737e+00
   6.544117e+01   9.787662e-01
  -4.355577e+01  -9.114947e+01
   8.574188e-01  -1.056133e+02
   1.243272e+02  -8.483365e+01
   2.143988e+02   2.123770e+01
   1.416908e+01   3.836729e+01
  -1.120013e+02  -2.441473e+01
  -6.907205e+01  -5.798605e+01
   1.276549e+02  -8.854041e+01
   2.940392e+02   2.584389e+01
   3.021919e+02   1.517002e+02
   1.531232e+01   2.449640e+02
  -1.714588e+02   2.423538e+02
  -2.600189e+02   1.249326e+02
  -1.379396e+02  -4.165061e+01
   5.716748e+01  -9.515813e+01
   5.617910e+01  -3.289779e+01
  -2.406776e+01   9.937323e+01
  -1.845390e+02   6.155270e+01
  -2.029579e+02  -1.062744e+02
  -5.553464e+01  -2.205247e+02
   9.565153e+01  -1.712652e+02
   1.574012e+02  -1.988046e+01
   5.708136e+01   2.530019e+01
  -9.542205e+00  -2.739912e+01
  -7.682664e+01  -1.375638e+02
   6.642740e+01  -1.246072e+02
   2.152815e+02  -3.180001e+01
   2.111045e+02   9.350367e+01
   5.614628e+00   1.891580e+02
  -1.748004e+02   1.459336e+02
  -1.866214e+02  -2.590073e+01
  -9.589047e+01  -1.173163e+02
   7.694291e+01  -5.103804e+01
   7.486188e+01  -4.328091e+01
   1.863104e+01   1.611856e+00
  -5.145716e+01  -8.570758e+00
  -3.579106e+01  -3.131828e+01
   2.550945e+01   2.868835e+01
   1.317175e+02   7.770034e+01
   3.252372e+01   1.786272e+02
  -1.311146e+02   1.376440e+02
  -2.924828e+02  -2.501389e+01
  -2.056009e+02  -1.322732e+02
  -5.523676e+01  -2.009090e+02
   1.227282e+02  -2.243318e+02
   1.476858e+02   8.658520e+00
   5.518648e+01   4.573236e+01
  -9.609601e+00   2.365069e+01
   3.031518e+01  -2.900374e+01
   6.136953e+01   2.416892e+00
   3.620305e+01   8.828083e+01
  -3.942443e+01   1.089965e+02
  -1.091291e+02   4.436461e+01
  -1.128638e+02  -1.945324e+01
  -3.520475e+00  -1.551775e+02
   1.667340e+02  -5.826584e+01
   2.279905e+02   7.422100e+01
   6.481776e+01   2.228312e+02
  -1.093243e+02   2.585463e+02
  -2.577353e+02   7.351540e+01
  -2.254965e+02  -7.654041e+01
  -8.182585e+01  -1.543126e+02
   4.806620e+01  -1.385972e+02
   9.274266e+01  -6.053128e+01
   6.173833e+01  -5.062857e+01
   4.391177e+01  -6.831837e+01
   5.031606e+01  -6.499527e+01
   1.161551e+02   8.519387e+00
   1.427438e+02   1.302572e+02
   2.349181e+01   2.107073e+02
  -9.681531e+01   1.572352e+02
  -1.645779e+02   9.874246e+00
  -1.231284e+02  -1.213856e+02
  -6.222917e+01  -1.746973e+02
   6.973572e+01  -6.966522e+01
   1.237380e+01   6.397601e+00
  -1.049541e+01   4.957915e+01
  -2.144121e+01   3.524201e+01
   4.327690e+01   3.387162e+01
   6.538822e+01  -2.132774e+01
   3.951191e+01   7.998639e+00
  -8.643510e+01   4.264508e+01
  -1.803064e+02   2.584771e+01
  -1.289795e+02  -4.106968e+01
  -2.967934e+01  -1.072081e+02
   1.198236e+02  -9.489164e+01
   1.476988e+02  -3.476993e+01
   5.065753e+01   5.488670e+01
  -3.845311e+01   3.933478e+01
  -7.468311e+01  -1.866342e+01
  -1.917544e+01  -8.984514e+01
   5.065267e+01  -8.537873e+01
   6.387001e+01  -6.920133e+00
   7.235445e+01   7.899713e+01
   1.081405e+02   4.971968e+01
   7.171791e+01  -4.316819e+01
   3.750657e+01  -2.979124e+00
   4.616260e+01   7.594568e+01
  -6.243649e+01   1.470815e+02
  -1.275964e+02   1.457561e+02
  -1.641555e+02   1.025725e+01
  -1.313218e+02  -1.097703e+02
   1.065194e+00  -1.235479e+02
   8.850023e+01  -3.046004e+01
   5.839897e+01   3.296866e+01
  -7.104771e+01   9.481886e+00
  -1.362945e+02  -4.312912e+01
  -3.599638e+01  -7.295110e+01
   8.623706e+01  -1.378253e+02
   1.883222e+02  -3.877291e+01
   1.860157e+02   2.254951e+01
   6.917314e+01   6.547176e+01
  -2.729531e+01   4.786845e+01
  -5.565282e+01   3.126427e+01
   1.342647e+01  -5.250616e+01
   5.157833e+01   5.029707e+01
   4.550526e+01   1.208853e+02
  -8.885676e+01   1.593488e+02
  -1.208266e+02   8.793246e+01
  -1.482753e+02  -9.386523e+01
   4.192591e+01  -1.779322e+02
   7.952900e+01  -1.361597e+02
   1.041234e+02   2.996537e+01
   6.006812e+01   1.235226e+02
  -3.281795e+01   9.488768e+01
  -5.358683e+01  -1.588487e+01
  -3.787786e+01  -1.211875e+01
  -5.594824e+01   1.259026e+01
  -6.703633e+00   4.427156e+01
  -4.291271e+01   3.476926e+00
  -5.662056e+01  -8.314735e+01
  -3.540981e+01  -1.095261e+02
   2.238522e+01  -5.095689e+01
   1.108039e+02   3.131527e+01
   1.497524e+02   1.029154e+02
   3.575257e+01   7.347093e+01
  -8.851383e+01   1.292620e+00
  -6.816719e+01  -2.458779e+01
  -9.097299e+00  -3.993088e+01
   6.769694e+01  -1.190478e+01
  -3.269185e+01  -3.988373e+01
   1.614204e+01  -1.429769e+01
   4.010561e+00   1.178788e+01
   6.719669e+01  -1.756096e+01
   9.038333e+01   4.649064e+01
   2.022410e+01   5.836737e+01
  -1.133459e+02   1.717894e+02
  -1.728712e+02   5.963809e+01
  -1.014140e+02  -6.902666e+01
  -4.876800e+01  -1.759116e+02
   7.544226e+01  -1.251085e+02
   6.986825e+01  -7.133520e+01
   7.979738e+01   2.681913e+01
   2.927698e+01   5.372667e+00
  -1.398431e+00   1.158131e+01
   5.391449e+01   3.057318e+01
   4.573351e+01   5.913141e+01
   1.633038e+01   1.150940e+02
  -5.022391e+01   9.129027e+01
  -5.033814e+01  -7.506039e+00
  -6.188588e+01  -1.120988e+02
  -2.319253e+01  -1.124349e+02
   7.108228e+01  -5.131838e+01
   6.988725e+01   6.433088e+01
   3.503921e+01   1.056282e+02
  -5.074259e+01   4.544324e+01
  -1.173717e+02   8.565163e+00
  -4.181116e+01  -5.892633e+01
   2.680162e+01  -4.987707e+01
   2.051531e+01  -8.813608e+00
  -2.309837e+01  -4.491812e+01
  -5.643346e+01   4.028800e+01
  -3.142789e+00  -2.265037e+01
   7.236449e+01  -7.377942e+01
   1.177870e+02  -5.555967e+01
   5.569131e+01   2.886703e+01
  -4.719849e+01   1.186233e+02
  -2.715481e+01   7.202452e+01
  -4.582034e+01   2.563212e+01
   4.406691e+01  -2.938402e+01
   6.823181e+01  -7.895662e+01
   1.370592e+01   2.406100e+01
   5.100732e+01   9.021994e+01
  -6.368691e+00   4.170049e+01
  -5.022897e+00   3.088294e+01
  -4.181526e+01  -3.112626e+01
  -6.138954e+00   1.369478e+01
  -3.447751e+00   2.129575e+01
   3.150675e+01   1.572768e+01
   3.246758e+01  -4.666112e+01
  -3.709182e+01  -6.345400e+01
   4.932209e+01  -2.678290e+01
   4.860466e+01   3.174535e+01
   1.664630e+01   8.845606e+01
  -2.539132e+01  -4.521480e+00
  -8.307936e+01  -6.119194e+01
  -1.108715e+00  -3.202660e+01
   6.833228e+01  -1.723596e+01
   1.149671e+02   2.431551e+01
   8.237271e+01   7.179175e+01
  -4.402932e+01   5.754975e+01
  -3.425419e+01   3.199225e+01
  -4.087394e+01   1.143051e+01
   4.374724e+01   4.606366e+00
   3.420097e+01   2.638607e+00
  -3.367192e+01   6.081337e+01
  -8.960027e+01   5.054671e+00
