
 $NMID
 id='ANONYMOUS ', fmtdat='(2E16.6)'
 volume=1.0
 tramp=1.0
 $END
  -4.531039e+03  -3.375283e+01
  -2.678401e+03  -3.026521e+03
   8.371343e+02  -2.946079e+03
   2.335840e+03  -9.769497e+02
   1.049053e+03   8.435460e+02
  -7.784419e+02   7.651197e+02
  -1.076720e+03  -4.452117e+02
  -4.799358e+01  -1.333237e+03
   9.444109e+02  -8.813623e+02
   1.108955e+03   1.290286e+02
   4.314906e+02   9.397953e+02
  -2.919095e+02   1.006515e+03
  -7.585467e+02   8.983268e+01
  -4.245924e+02  -8.084130e+02
   3.019426e+02  -8.321401e+02
   6.569529e+02   3.793407e+01
   2.585454e+02   7.638290e+02
  -4.158072e+02   6.901434e+02
  -6.037284e+02   1.125876e+02
  -3.972343e+02  -3.838628e+02
   2.039798e+01  -4.424138e+02
   3.024183e+02  -2.586661e+02
   3.026677e+02  -1.405352e+01
  -8.408698e+01   1.359105e+02
  -4.181222e+02  -5.853354e+01
  -2.419849e+02  -5.003944e+02
   5.242707e+02  -4.609663e+02
   9.508829e+02   1.001255e+02
   4.480586e+02   6.118088e+02
  -4.297633e+02   5.645924e+02
  -8.093759e+02  -1.963783e+01
  -3.873178e+02  -5.369114e+02
   2.924320e+02  -5.767278e+02
   6.222159e+02  -2.017927e+02
   4.181890e+02   2.433355e+02
   8.998048e+01   5.306015e+02
  -2.761298e+02   2.950933e+02
  -2.158571e+02  -2.940971e+02
   1.994691e+02  -5.200627e+02
   4.975262e+02  -2.803706e+01
   3.329990e+02   8.259961e+02
  -4.029971e+02   8.003429e+02
  -6.581089e+02  -1.596673e+01
  -2.602518e+02  -6.116974e+02
   4.037299e+02  -3.651182e+02
   4.801729e+02   4.296972e+02
  -4.713570e+01   6.316636e+02
  -6.154389e+02   1.393602e+02
  -6.362944e+02  -4.943121e+02
  -2.189034e+02  -6.606562e+02
   4.070151e+02  -3.891101e+02
   6.978884e+02   9.175387e+01
   4.210989e+02   4.940292e+02
  -1.636793e+02   4.038470e+02
  -5.147162e+02   2.679723e+01
  -2.928062e+02  -2.430786e+02
   1.917765e+02  -1.233837e+02
   1.548455e+02   1.969918e+02
  -1.705262e+02   1.963468e+02
  -3.388481e+02  -1.306890e+02
  -1.416710e+02  -3.407218e+02
   2.639428e+02  -2.987664e+02
   3.320493e+02  -7.245390e+01
   2.167399e+02   1.009421e+02
   2.058829e+01   2.328871e+02
  -2.100431e+02   3.263927e+02
  -3.182917e+02   2.357162e+02
  -3.278592e+02  -1.396357e+02
  -6.230826e+01  -4.606435e+02
   1.497493e+02  -4.156939e+02
   1.218651e+02  -1.658568e+02
   1.889630e+01   1.250976e+01
   5.130351e+01  -9.004628e+01
   2.104970e+02  -1.797202e+02
   3.014101e+02   2.904399e+01
   1.957813e+02   3.314601e+02
  -1.039478e+02   2.721271e+02
  -2.322487e+02   2.268616e+01
  -2.261459e+02  -2.768917e+02
  -1.938871e+01  -3.333447e+02
   2.560014e+02  -1.588758e+02
   3.805583e+02   1.737201e+02
   2.412526e+02   3.464541e+02
  -1.206401e+02   3.151794e+02
  -2.178565e+02   6.708212e+01
  -1.894581e+02  -2.286567e+01
  -5.962693e+01   2.156742e+01
  -2.276322e+02   7.829364e+01
  -4.370583e+02  -2.762089e+01
  -3.576922e+02  -2.830926e+02
  -1.470998e+01  -4.402318e+02
   3.771172e+02  -4.668304e+02
   5.453864e+02  -1.963600e+02
   3.328262e+02   1.300859e+02
   6.842470e+01   2.992722e+02
  -1.933081e+02   2.976012e+02
  -9.133686e+01   4.323428e+00
   1.323339e+02  -1.254654e+02
   2.203478e+02  -5.700286e+00
   3.080328e+01   1.882131e+02
  -1.839660e+02   1.756412e+02
  -1.690051e+02  -6.822936e+01
  -2.515520e+00  -2.218835e+02
   2.280777e+02  -6.572713e+01
   1.679970e+02   2.354899e+02
  -1.164387e+01   3.558321e+02
  -2.470590e+02   1.986264e+02
  -3.429426e+02  -9.883535e+01
  -2.796542e+02  -2.280322e+02
  -7.629974e+01  -3.058338e+02
   8.941157e+01  -2.132769e+02
   1.436556e+02   2.021866e+01
   4.648204e+01   1.814430e+01
  -6.209664e+01  -4.828909e+01
  -9.815915e+01  -1.587581e+02
   1.303174e+02  -6.819374e+01
   2.233060e+02   1.038638e+01
   5.963939e+01   7.955010e+01
  -9.850673e+01   4.390378e+01
  -8.855931e+01  -7.575766e+01
   1.399416e+02  -7.763067e+01
   3.092573e+02  -2.360420e+01
   2.812669e+02   1.029388e+02
   8.254087e+01   2.527894e+02
  -1.994900e+02   2.877095e+02
  -3.101953e+02   1.414492e+02
  -2.043914e+02  -5.631309e+01
   1.189494e+01  -1.428621e+02
   1.044807e+02  -2.920667e+01
  -7.926460e+01   9.014772e+01
  -2.004223e+02   3.364889e+01
  -2.598887e+02  -9.540734e+01
  -1.005907e+02  -2.328141e+02
   1.035431e+02  -1.801406e+02
   1.702298e+02  -3.053471e+01
   9.332214e+01   1.725957e+01
  -4.154866e+01   1.674783e+01
  -6.524098e+01  -6.954442e+01
   1.079560e+01  -9.345331e+01
   1.860413e+02  -4.969801e+01
   1.955563e+02   1.126552e+02
   4.235954e+01   2.292329e+02
  -1.585182e+02   1.585517e+02
  -2.081306e+02   9.387593e+00
  -6.296916e+01  -1.292953e+02
   2.663348e+01  -1.113965e+02
   5.820664e+01  -1.126106e+01
   1.018910e+01   8.807470e+00
   3.995809e+00   4.391697e+01
  -8.202986e+00  -2.164783e+01
   4.602607e+01  -2.172072e+01
   9.045870e+01   7.341095e+01
   2.327928e+00   1.803185e+02
  -1.002425e+02   1.432797e+02
  -2.294982e+02   4.813335e+01
  -2.296641e+02  -1.709418e+02
  -5.941581e+01  -2.713616e+02
   1.327312e+02  -1.640813e+02
   1.432093e+02  -6.097286e+01
   7.711588e+01   8.383146e+01
   7.593607e+01   3.279634e+01
   5.537113e+01   9.147043e+00
   3.453611e+01   1.327161e+01
   4.858570e+01   6.001397e+01
   1.930696e+01   1.168254e+02
  -1.223531e+02   6.733108e+01
  -9.907264e+01  -1.755688e+01
   7.509464e+00  -9.393970e+01
   1.403081e+02  -1.134006e+02
   1.915634e+02   3.128923e+01
   9.103731e+01   1.693857e+02
  -9.208786e+01   2.114837e+02
  -2.978009e+02   1.222418e+02
  -2.249789e+02  -1.082633e+02
  -7.919167e+01  -1.981314e+02
   1.338315e+01  -1.551110e+02
   7.717994e+01  -1.046779e+02
   4.953017e+01  -5.822420e+01
   1.046623e+02  -7.312441e+01
   5.262671e+01  -7.178241e+01
   1.394875e+02   5.823208e+01
   1.108971e+02   1.775505e+02
   2.061667e+01   2.401262e+02
  -1.113933e+02   1.817868e+02
  -2.033306e+02   2.039219e+01
  -1.727318e+02  -1.632641e+02
  -7.572654e+00  -1.773014e+02
   4.734757e+01  -9.183007e+01
   8.701641e+01  -1.665772e+00
  -3.410442e+01   2.869531e+01
  -1.181882e+00   2.217475e+01
   3.992267e+01   2.943109e+01
   7.953426e+01   1.491726e+01
   3.175344e+01   4.956051e+01
  -6.379197e+01   4.007977e+01
  -1.631365e+02   3.975612e+01
  -1.422712e+02  -5.825634e+01
  -1.368731e+01  -5.643785e+01
   9.764784e+01  -1.043794e+02
   1.760650e+02  -5.974630e+00
   7.936194e+01   4.725763e+01
  -5.136727e+01   4.740506e+01
  -8.140686e+01  -4.236708e+01
  -1.276749e+01  -8.466635e+01
   6.011178e+01  -1.271629e+01
   9.302573e+01   1.563723e+01
   4.822781e+00   4.271647e+01
   2.985124e+01   1.586942e+01
   7.150863e+01   4.371775e+00
   6.026960e+01  -2.657604e+00
   1.746784e+01   5.315531e+01
  -3.613534e+01   1.438017e+02
  -9.259745e+01   1.329198e+02
  -1.910417e+02   4.299636e+01
  -1.168617e+02  -9.581167e+01
   2.121763e+01  -1.279045e+02
   1.268348e+02  -9.107571e+01
   4.237269e+01   3.735494e+01
  -7.789357e+01   1.574183e+01
  -1.309904e+02  -3.832054e+01
  -8.892352e+01  -1.143164e+02
   8.263767e+01  -1.057020e+02
   1.852701e+02  -2.834572e+01
   1.600671e+02   1.643116e-01
   5.447480e+01   1.345758e+02
  -6.922359e+01   8.115870e+01
  -3.680477e+01  -1.410103e+01
   3.329839e+01  -4.351384e+01
   7.553061e+01   1.671903e+01
   3.373516e+01   9.665700e+01
  -9.659317e+01   1.337681e+02
  -1.842162e+02   7.963073e+01
  -1.231273e+02  -5.678439e+01
   2.802699e-01  -2.170229e+02
   1.037806e+02  -1.335062e+02
   1.125252e+02   6.128799e+00
   6.045341e+01   1.035437e+02
   1.876251e+01   1.214673e+02
  -6.681846e+01   7.865814e+00
  -5.081753e+01  -3.295906e+01
  -4.314377e+01  -1.408609e+01
   1.767798e+01   5.957029e+01
   1.173192e+01   1.380830e+01
  -4.614385e+01  -7.258164e+01
  -8.340005e+01  -3.829936e+01
   4.347600e+01  -5.153684e+01
   1.810296e+02   7.359413e+01
   1.547011e+02   1.279270e+02
  -2.039723e+01   7.650079e+01
  -7.883704e+01   3.966238e+01
  -1.061934e+02   2.767891e+01
  -9.147881e+00  -4.621340e+01
   5.195002e+01  -6.631655e+01
  -5.678460e+00  -7.525897e+00
   1.837594e+01  -9.922357e+00
   2.318259e+01   1.394542e+01
   8.514702e+01   1.725711e+01
   9.914467e+01   1.150346e+01
   4.412008e+01   9.373729e+01
  -6.826592e+01   1.019612e+02
  -2.306276e+02   6.523368e+01
  -1.288731e+02  -3.862409e+01
  -3.250563e+01  -1.554071e+02
   6.790677e+01  -1.836216e+02
   1.012804e+02  -5.841472e+01
   7.195867e+01   2.846768e+01
   4.868741e+01   4.562876e+01
  -1.065647e+01   2.034500e+01
  -1.695168e+01   2.675006e+01
   2.263435e+01   4.663437e+01
   3.863167e+01   1.035447e+02
  -1.834786e+01   7.140558e+01
  -5.380328e+01  -1.095322e+01
  -8.378037e+01  -1.140893e+02
  -2.351032e+01  -1.238052e+02
   9.982064e+01  -4.209730e+01
   8.220695e+01   7.349536e+01
   3.677744e+01   1.123375e+02
  -8.037464e+01   5.772898e+01
  -1.186934e+02  -3.215274e+00
  -6.514997e+01  -3.308919e+01
   5.996657e+00  -6.123224e+01
   9.501109e+00  -4.160317e+01
  -2.601104e+01  -9.828241e+00
  -5.187165e+01   2.865289e+01
  -2.974322e+01  -4.246171e+01
   8.874004e+01  -6.920650e+01
   1.120863e+02  -5.166179e+01
   7.779351e+01   5.142535e+01
  -3.652562e+01   7.484419e+01
  -7.346586e+01   6.908531e+01
  -3.278953e+01  -1.329581e+01
  -1.067864e+01  -5.801984e+01
   2.716676e+01  -5.360194e+01
   4.664932e+01   1.002174e+01
   3.769295e+01   3.606051e+01
  -7.353532e+00   4.082846e+01
  -2.492481e+01  -1.184924e+01
  -3.704395e+01  -2.981159e+01
  -3.049973e+01  -1.846189e+01
   2.354319e+01   2.420180e+01
  -2.682573e+01   3.361955e+01
  -6.625996e+00  -5.708390e+01
   4.621261e+01   2.373579e+01
   2.051059e+01   3.343471e+01
   7.272836e+01   8.249454e+01
   5.308128e+01   6.070904e+01
  -6.839762e+01   2.149252e+01
  -5.747246e+01  -3.917931e+01
  -3.324981e+01  -5.608292e+01
   3.956884e+01  -2.110706e+01
   8.702309e+01  -2.364505e+01
   3.516182e+01   5.710126e+01
  -6.553115e+00   5.240912e+01
  -7.908041e+01   3.229453e+01
  -3.117065e+01  -1.238672e+00
   5.208474e+01   5.411097e+00
   3.089497e+01   2.232217e+01
  -5.122120e+01   5.746428e+01
  -1.095358e+02   2.066754e+01
