
 $NMID
 id='ANONYMOUS ', fmtdat='(2E16.6)'
 volume=1.0
 tramp=1.0
 $END
   4.354683e+03  -1.153134e+02
   2.837413e+03   2.771106e+03
  -6.683104e+02   2.996935e+03
  -2.185074e+03   1.028984e+03
  -1.069819e+03  -7.848566e+02
   8.000817e+02  -7.854676e+02
   1.036715e+03   4.478920e+02
   1.071926e+01   1.227225e+03
  -9.038358e+02   9.388859e+02
  -1.009877e+03  -1.208598e+02
  -4.893971e+02  -9.526960e+02
   3.501806e+02  -9.589524e+02
   6.920088e+02  -1.512723e+02
   4.494731e+02   7.771078e+02
  -3.207996e+02   7.757834e+02
  -6.737778e+02   3.125460e+01
  -3.588397e+02  -7.576351e+02
   3.109887e+02  -6.981923e+02
   6.006754e+02  -1.079385e+02
   4.628391e+02   4.039013e+02
   1.392881e+00   4.671656e+02
  -3.143377e+02   3.062654e+02
  -2.714469e+02  -2.318698e+01
   8.471787e+01  -1.062196e+02
   4.656577e+02   5.840602e+01
   2.040502e+02   4.203285e+02
  -4.337992e+02   5.203226e+02
  -9.623348e+02  -3.976688e+01
  -4.404790e+02  -5.535409e+02
   4.008956e+02  -5.077615e+02
   7.369370e+02   1.311943e+01
   3.998812e+02   4.918611e+02
  -3.158675e+02   5.818823e+02
  -5.711472e+02   1.892445e+02
  -4.897529e+02  -1.970161e+02
  -8.164531e+01  -5.109939e+02
   2.705724e+02  -3.090582e+02
   2.402821e+02   2.424194e+02
  -1.042488e+02   5.453268e+02
  -4.958571e+02   4.190380e+00
  -2.686775e+02  -7.395633e+02
   3.119079e+02  -7.915328e+02
   6.745263e+02  -8.477848e+01
   3.014849e+02   5.895680e+02
  -2.866908e+02   3.786297e+02
  -4.642240e+02  -3.439403e+02
   4.788253e+01  -5.805923e+02
   5.956116e+02  -1.251078e+02
   5.901896e+02   4.031934e+02
   1.852074e+02   6.209882e+02
  -3.789613e+02   3.768058e+02
  -6.902422e+02  -1.699204e+01
  -4.356946e+02  -4.015134e+02
   1.591465e+02  -3.759932e+02
   4.855270e+02  -3.914835e+01
   3.110946e+02   2.398327e+02
  -1.558047e+02   1.266150e+02
  -1.625653e+02  -1.115263e+02
   1.542309e+02  -1.716124e+02
   3.992840e+02   5.548260e+01
   2.036520e+02   2.873688e+02
  -2.356695e+02   2.817717e+02
  -4.031658e+02   6.137835e+01
  -1.815307e+02  -7.713223e+01
   3.205712e+01  -2.321363e+02
   2.136065e+02  -3.029869e+02
   3.115547e+02  -2.195762e+02
   3.121818e+02   1.330169e+02
   8.856332e+01   4.076241e+02
  -1.295298e+02   3.302778e+02
  -1.450041e+02   1.814291e+02
  -3.547058e+01  -4.531220e+01
  -4.684103e+01   6.698667e+01
  -1.844517e+02   1.574962e+02
  -2.762817e+02  -6.285705e+00
  -2.095886e+02  -2.518637e+02
   5.397967e+01  -2.790795e+02
   2.587169e+02  -2.545347e+01
   1.991490e+02   2.391369e+02
   3.721698e+01   3.242516e+02
  -3.081685e+02   1.700851e+02
  -4.024808e+02  -1.939626e+02
  -2.136974e+02  -3.540720e+02
   1.340232e+02  -3.421740e+02
   2.140938e+02  -7.108069e+01
   1.313305e+02   3.633891e+01
   9.129244e+01  -5.943156e+01
   2.478976e+02  -1.170118e+02
   3.565377e+02   1.209677e+01
   3.537290e+02   2.966162e+02
   3.127591e+01   3.919410e+02
  -3.768476e+02   4.024396e+02
  -5.291513e+02   1.835273e+02
  -3.153860e+02  -8.916431e+01
  -5.613926e+01  -3.365664e+02
   1.336346e+02  -2.656205e+02
   1.049048e+02  -5.515190e+01
  -1.291841e+02   1.253144e+02
  -2.274417e+02  -2.222875e+01
  -4.177890e+01  -1.857412e+02
   1.952115e+02  -1.853159e+02
   2.173026e+02   6.953645e+01
   5.271311e-01   2.393544e+02
  -1.726139e+02   7.788834e+01
  -1.940366e+02  -2.489243e+02
   3.461679e+01  -3.472609e+02
   2.244360e+02  -1.797489e+02
   3.073522e+02   5.830062e+01
   2.541298e+02   2.476687e+02
   9.914995e+01   2.490381e+02
  -1.252057e+02   1.687922e+02
  -1.943309e+02   3.376434e+01
  -9.147190e+01  -5.338465e+01
   6.693873e+01   1.294102e+01
   6.517578e+01   1.707063e+02
  -1.379256e+02   1.224188e+02
  -1.984833e+02   6.264252e+00
  -6.579802e+01  -7.863200e+01
   4.241840e+01  -4.962293e+01
   7.590732e+01   6.860188e+01
  -1.263703e+02   6.085991e+01
  -2.871190e+02   3.724905e+01
  -3.031602e+02  -1.630390e+02
  -7.645146e+01  -2.514041e+02
   2.070339e+02  -3.216088e+02
   2.931457e+02  -1.495914e+02
   1.773512e+02   6.291360e+01
   1.092043e+00   8.891813e+01
  -8.216733e+01   4.047965e+01
   2.639236e+01  -1.115589e+02
   2.343366e+02  -8.946466e+01
   2.449988e+02   1.504310e+02
   7.803919e+01   2.333329e+02
  -7.570408e+01   1.803684e+02
  -1.344225e+02   6.249320e+01
  -5.315138e+01  -1.450769e+01
   1.996589e+01  -4.919261e+01
  -4.375217e+00   7.434929e+01
  -6.438011e+01   8.113098e+01
  -2.249482e+02   4.375146e+01
  -1.967529e+02  -1.029924e+02
  -2.271529e+01  -2.427956e+02
   1.588739e+02  -1.763449e+02
   1.673196e+02  -5.207935e+01
   4.832235e+01   9.947577e+01
  -4.290141e+01   1.105365e+02
  -7.073947e+01   2.104468e+01
  -1.938813e+01  -2.322928e+01
  -6.226359e+00  -2.226256e+01
  -1.260377e+01  -1.219572e+01
  -5.402854e+01   4.142687e+01
  -1.241693e+02  -3.100288e+01
  -1.105350e+01  -1.529726e+02
   1.051933e+02  -1.607707e+02
   2.293483e+02  -4.285279e+01
   1.865993e+02   1.169418e+02
   5.746271e+01   2.627489e+02
  -1.070170e+02   1.597348e+02
  -1.639252e+02   8.036031e+01
  -5.977433e+01  -1.003264e+02
  -6.365797e+00  -2.038098e+01
  -6.528088e+01   2.104186e+01
  -3.159536e+01   2.217185e+01
  -1.928120e+01  -1.386038e+01
   4.487026e+01  -9.961000e+01
   8.523419e+01  -6.253958e+01
   8.653182e+01   2.826144e+01
  -5.542798e+01   1.257896e+02
  -1.460309e+02   7.216981e+01
  -1.922274e+02  -1.309403e+01
  -9.823879e+01  -1.906328e+02
   8.099222e+01  -1.923779e+02
   2.341173e+02  -1.239234e+02
   2.979705e+02   7.745863e+01
   1.157055e+02   1.577916e+02
  -4.943814e+01   1.676928e+02
  -1.073497e+02   1.045548e+02
  -1.107839e+02   4.615574e+01
  -5.902166e+01   1.145302e+02
  -1.190667e+02   9.187815e+01
  -1.255405e+02  -2.107192e+01
  -1.192936e+02  -1.545553e+02
  -3.298209e+01  -2.365752e+02
   1.098283e+02  -1.508398e+02
   1.668377e+02  -3.332584e+01
   1.714978e+02   1.595891e+02
   3.766784e+00   1.684570e+02
  -2.143730e+01   1.301269e+01
  -7.839091e+01  -5.364812e+00
  -3.756091e+01  -2.896990e+01
  -1.495512e+01   3.762386e+00
  -2.831444e+01  -6.022916e+01
  -1.212952e+02  -3.124573e-01
  -5.606064e+01  -4.848951e+01
   7.449766e+01  -5.952785e+01
   1.483437e+02  -3.220088e+01
   1.282383e+02   4.887443e+01
   1.515211e+01   6.626734e+01
  -1.167121e+02   6.240599e+01
  -1.677570e+02   4.013219e+01
  -6.774683e+01  -1.551268e+01
   5.217613e+01  -4.260740e+01
   8.524120e+01  -2.184320e+01
  -1.073387e+01   9.808275e+01
  -5.860904e+01   5.524001e+01
  -9.040119e+01   1.690041e+00
  -7.018771e+01  -2.111421e+01
  -7.071132e+01  -4.730022e+01
  -5.670773e+01  -6.457506e-01
  -4.838220e+01   1.188155e+01
  -3.934495e+01  -6.486915e+01
   8.468530e+00  -1.390314e+02
   7.015470e+01  -1.206665e+02
   1.548289e+02  -7.741853e+01
   1.351575e+02   6.874181e+01
   5.336440e+01   1.176492e+02
  -1.099506e+02   6.594578e+01
  -2.851594e+01  -7.568686e+00
   4.286040e+01   3.233371e+00
   1.419220e+02   2.824205e+01
   7.537730e+01   9.872781e+01
  -1.024817e+02   1.308584e+02
  -2.111997e+02   3.540937e+01
  -1.873874e+02  -2.583451e+01
  -3.797809e+01  -8.680676e+01
   1.587363e+01  -7.780726e+01
   4.832518e+01   5.954771e+00
  -5.341095e+01   2.368901e+01
  -8.349694e+01   7.924851e+00
  -3.874964e+01  -1.108969e+02
   9.173547e+01  -1.132356e+02
   1.899579e+02  -3.819009e+01
   1.243426e+02   7.176450e+01
   1.075313e+01   2.157141e+02
  -5.276413e+01   1.501081e+02
  -1.119916e+02   1.508422e+01
  -9.677094e+01  -1.060889e+02
  -9.903565e+00  -1.165380e+02
   3.305844e+01  -2.401707e+01
   8.869618e+01   3.519852e+01
   7.608323e+00  -1.526648e+01
   9.972604e+00  -1.496518e+01
  -2.545440e+00   3.849036e-01
   7.559133e+01   6.118467e+01
   7.693597e+01   1.045364e+02
  -4.356969e+01   1.041687e+01
  -1.311095e+02  -5.262871e+01
  -1.167485e+02  -6.405889e+01
   1.226575e+00  -4.229613e+01
   9.865794e+01  -7.559601e+00
   8.368986e+01  -1.397749e+01
   1.562834e+01  -1.492357e+00
  -3.583364e+01  -2.069992e+01
  -5.178527e+01   9.347774e-01
   1.283179e+01  -7.501817e+00
  -5.046529e+01  -3.539474e+00
  -1.064672e+02  -5.680798e+00
  -1.103870e+02  -5.420849e+01
  -7.292657e+00  -8.055660e+01
   1.005517e+02  -1.245262e+02
   1.839696e+02  -4.783682e+01
   1.075026e+02   8.080622e+01
   5.501052e+01   1.885924e+02
  -7.742078e+01   1.584189e+02
  -1.446839e+02   3.660851e+01
  -8.629251e+01  -1.917008e+01
  -6.000389e+00  -6.257895e+01
   2.142300e+01   3.263387e+00
   5.563065e+01   1.948051e+01
  -6.284707e+00  -5.777893e+01
  -2.256713e+01  -1.397553e+02
   1.722696e+01  -7.790131e+01
   9.662390e+01   5.031804e+01
   1.026780e+02   1.158759e+02
  -1.863101e+01   1.342890e+02
  -8.198366e+01  -2.027343e+00
  -1.353752e+02  -1.070567e+02
  -3.689965e+01  -1.171489e+02
   9.014469e+01  -2.818323e+01
   9.801185e+01   4.980131e+01
   6.904729e+00   6.030029e+01
  -4.062611e+01   6.494797e+01
  -3.828120e+01   5.634298e+01
   3.877210e+01   1.308661e+01
   5.066290e+01  -1.202279e+01
   5.180189e+01   4.130900e+01
  -8.556869e+01   5.523114e+01
  -1.058803e+02   3.664838e+01
  -4.004958e+01  -3.026729e+01
  -1.251810e+01  -4.357280e+01
   7.956281e+01  -5.613331e+01
   7.528817e+01   6.451345e+00
   1.629143e+01   2.801772e+01
  -2.281313e+01   4.804501e+01
  -4.163113e+01  -2.346960e+01
  -6.046482e+01  -5.695851e+01
   2.726922e+01  -4.437694e+01
   5.452460e+01   2.282407e+01
   7.449242e+01   1.305139e+01
   3.124654e+01   3.549727e+01
   1.171830e+01  -3.046115e+01
   1.572666e+01  -3.181369e+01
  -5.592097e+00   4.234163e+01
  -6.081134e+00   1.154221e+00
  -6.086939e+01  -6.137579e+00
  -3.289305e+01  -6.425517e+01
   2.518084e+01  -9.522783e+01
   8.395666e+01   6.565783e+00
   3.837179e+01   4.532074e+01
   3.564854e+01   6.669341e+01
  -4.348326e+01  -1.099633e-01
  -8.202091e+01  -6.193269e+01
  -6.758698e+01  -4.259766e+01
   4.648184e+00  -4.020885e+01
   4.375569e+01  -2.780705e+01
   2.969544e+01   7.242385e+00
  -2.972070e+01  -2.412534e+00
  -5.520906e+01  -2.957049e+01
   4.777580e+01  -4.401104e+01
   9.550846e+01  -1.390674e+01
