
 $NMID
 id='ANONYMOUS ', fmtdat='(2E16.6)'
 volume=1.0
 tramp=1.0
 $END
   3.979476e+03   7.471095e+01
   2.368006e+03   2.416813e+03
  -5.235213e+02   2.716248e+03
  -1.937514e+03   9.662666e+02
  -1.000297e+03  -6.250595e+02
   5.756479e+02  -5.625336e+02
   8.130960e+02   3.322538e+02
   4.503044e+01   1.055524e+03
  -7.868699e+02   7.371271e+02
  -9.645831e+02  -3.728800e+01
  -4.628963e+02  -8.393968e+02
   2.204142e+02  -8.423007e+02
   6.159129e+02  -1.885038e+02
   4.239801e+02   6.776212e+02
  -2.709722e+02   7.280270e+02
  -6.263801e+02   1.112233e+01
  -2.971161e+02  -6.542961e+02
   2.735394e+02  -6.655650e+02
   5.620857e+02  -9.766234e+01
   4.062720e+02   3.238826e+02
   2.196677e+01   4.575024e+02
  -2.536932e+02   2.413583e+02
  -1.989910e+02   3.586553e+01
   1.076405e+02  -4.209559e+01
   4.118766e+02   1.706855e+02
   1.799999e+02   4.117345e+02
  -4.981103e+02   3.891863e+02
  -8.103309e+02  -8.322460e+01
  -4.016013e+02  -4.976364e+02
   3.682388e+02  -4.782432e+02
   6.913325e+02   1.205041e+02
   2.511256e+02   4.636194e+02
  -3.330820e+02   5.102589e+02
  -5.376237e+02   1.798481e+02
  -4.057209e+02  -2.237735e+02
  -8.739219e+01  -4.322420e+02
   1.760617e+02  -2.649312e+02
   1.583838e+02   1.981542e+02
  -1.779084e+02   3.984170e+02
  -4.040654e+02  -3.205619e+00
  -1.780389e+02  -7.201040e+02
   3.265000e+02  -6.762311e+02
   6.093098e+02   1.448547e+01
   2.304228e+02   5.043064e+02
  -2.711314e+02   2.508838e+02
  -4.163732e+02  -3.235512e+02
   8.817853e+01  -5.475672e+02
   5.443717e+02  -1.340219e+02
   5.955335e+02   4.120228e+02
   1.318489e+02   5.706244e+02
  -3.827948e+02   3.572708e+02
  -6.086693e+02  -1.119744e+02
  -3.887674e+02  -3.788416e+02
   1.850713e+02  -3.178746e+02
   4.111613e+02  -1.785650e+01
   2.308335e+02   1.738552e+02
  -1.040987e+02   7.487263e+01
  -1.554581e+02  -1.475417e+02
   1.741192e+02  -2.136207e+02
   3.170696e+02   3.809013e+01
   1.504414e+02   2.812978e+02
  -1.694174e+02   2.731440e+02
  -3.193171e+02   7.538488e+01
  -1.720748e+02  -1.206186e+02
   3.572165e+01  -2.744182e+02
   2.255695e+02  -3.112075e+02
   3.337181e+02  -2.414000e+02
   2.826684e+02   1.330743e+02
   7.448911e+01   4.426783e+02
  -1.141073e+02   3.599433e+02
  -9.822771e+01   8.132540e+01
  -3.376964e+01   5.842962e+01
  -6.940722e+01   1.211916e+02
  -1.923968e+02   1.312311e+02
  -2.591514e+02  -3.735494e+01
  -1.507175e+02  -2.938032e+02
   5.316409e+01  -2.547197e+02
   2.174595e+02  -4.525459e+01
   2.065489e+02   2.341775e+02
  -8.040125e+00   2.712206e+02
  -2.896772e+02   1.162189e+02
  -3.325203e+02  -1.636710e+02
  -1.556706e+02  -3.346964e+02
   8.625481e+01  -3.150602e+02
   2.097879e+02  -1.573803e+02
   1.824821e+02  -2.483496e+00
   1.031220e+02  -5.992749e+01
   2.388310e+02  -5.660299e+01
   3.746850e+02   3.812921e+01
   3.166904e+02   2.943211e+02
   1.345042e+01   4.142142e+02
  -3.501797e+02   4.050351e+02
  -5.133535e+02   1.879525e+02
  -3.054941e+02  -6.000953e+01
  -7.665894e+01  -2.982972e+02
   1.023773e+02  -2.237538e+02
   7.415234e+01  -9.712519e+00
  -1.278791e+02   1.115908e+02
  -2.250029e+02   3.901816e+00
  -4.349923e+01  -1.941964e+02
   1.669392e+02  -1.640457e+02
   1.490799e+02   5.718635e+01
  -4.070897e+01   2.131653e+02
  -1.719205e+02   2.566861e+01
  -2.007835e+02  -2.608581e+02
   3.489817e+01  -3.472603e+02
   2.365952e+02  -2.220891e+02
   2.740079e+02   3.250527e+01
   2.899603e+02   2.384768e+02
   8.582914e+01   2.168187e+02
  -1.024733e+02   1.632521e+02
  -1.706660e+02   1.879858e+01
  -6.906349e+01  -2.543991e+01
   6.475065e+01   5.323441e+01
   1.333800e+01   1.114274e+02
  -1.371050e+02   1.188190e+02
  -1.486023e+02   1.510692e+01
  -4.524493e+01  -6.431507e+01
   7.112269e+01   1.244964e+01
   4.930421e+01   5.990914e+01
  -1.083526e+02   1.082047e+02
  -2.570515e+02  -9.822121e+00
  -2.375103e+02  -1.418470e+02
  -7.663521e+01  -2.847301e+02
   1.748317e+02  -2.809553e+02
   2.726571e+02  -9.994892e+01
   1.685994e+02   2.902976e+01
  -1.485525e+01   1.078770e+02
  -1.002534e+02   2.197912e+01
  -8.052093e+00  -1.007440e+02
   1.635130e+02  -5.361837e+01
   1.829306e+02   8.467669e+01
   6.621032e+01   2.020157e+02
  -1.023453e+02   1.171775e+02
  -1.299770e+02  -1.031804e+00
  -6.715790e+01  -3.230093e+01
   2.435173e+01  -7.018391e-01
  -2.727041e+00   9.799414e+01
  -7.673297e+01   1.191511e+02
  -1.993963e+02  -1.356476e+01
  -1.823516e+02  -1.212045e+02
  -1.419584e+01  -1.788278e+02
   1.712034e+02  -1.491414e+02
   1.726912e+02  -7.849339e-02
   5.242285e+01   9.478034e+01
  -6.642715e+01   8.885559e+01
  -1.783888e+00   3.553105e+01
  -5.281155e+01  -3.627860e+01
   2.150981e+01  -2.651775e+01
   4.034238e+01   1.218963e+01
  -7.636281e+01  -4.546507e+01
  -5.886598e+01  -9.293349e+01
   2.414087e-03  -1.486568e+02
   9.443270e+01  -1.398281e+02
   2.300757e+02   1.264222e+01
   1.932900e+02   1.558709e+02
   2.716534e+01   2.756108e+02
  -9.404183e+01   1.807153e+02
  -9.295289e+01   5.625667e+00
  -6.293246e+01  -2.868340e+01
  -5.250704e+01  -3.837523e+01
  -2.401415e+01   1.086437e+01
  -5.009700e+01  -1.517683e+01
  -2.201513e+01  -5.142423e+01
   2.889518e+01  -8.550308e+01
   8.244782e+01  -1.725604e+01
   6.704277e+01   2.312837e+01
   6.359055e+00   1.058346e+02
  -1.465020e+02   6.828944e+01
  -2.087837e+02  -2.316694e+01
  -7.834603e+01  -1.780303e+02
   7.241805e+01  -2.160863e+02
   2.594385e+02  -1.001136e+02
   2.226813e+02   5.344681e+01
   9.746683e+01   1.757141e+02
  -5.488897e+01   1.702505e+02
  -1.257524e+02   5.398527e+01
  -1.030773e+02   9.520007e+01
  -5.422072e+01   6.636629e+01
  -3.145777e+01   5.415619e+01
  -1.590834e+02  -2.557545e+01
  -1.411247e+02  -1.561342e+02
  -3.306318e+01  -2.023791e+02
   1.566678e+02  -1.545244e+02
   1.360047e+02   2.670177e+01
   1.458038e+02   1.609293e+02
   3.771385e+01   1.705260e+02
  -5.922134e+01   6.209957e+01
  -2.140133e+01  -2.340597e+01
  -3.426616e+01  -2.623914e+01
   1.489440e+01  -2.593554e+01
  -5.018656e+01  -1.369230e+01
  -9.131986e+01  -6.882946e+00
  -3.848637e+01  -3.712582e+01
   6.511005e+01  -3.270868e+01
   1.762716e+02  -2.084348e+01
   1.632713e+02   2.992858e+01
  -1.718894e+01   7.912248e+01
  -1.584754e+02   4.531086e+01
  -1.385137e+02  -5.878884e+00
  -2.360528e+01  -7.057249e+01
   7.621131e+01  -6.095225e+01
   6.203677e+01   3.230633e+01
   1.286395e+01   6.306637e+01
  -6.836538e+01   6.670497e+01
  -8.865705e+01  -4.810437e+01
  -7.545271e+01  -7.113454e+01
  -6.777280e+01  -3.556870e+01
  -6.843395e+01  -1.548555e+01
  -8.310372e+01  -2.418251e+01
  -3.451730e+01  -2.376994e+01
   5.433359e+01  -1.482313e+02
   7.765561e+01  -1.447689e+02
   1.997129e+02  -3.818103e+01
   1.191582e+02   9.590417e+01
   9.679449e+00   1.146661e+02
  -1.140213e+02   6.293660e+01
  -5.553976e+01  -3.225499e+01
   3.593403e+01  -1.676616e+01
   1.131550e+02   7.531585e+01
   7.559942e+01   1.031843e+02
  -1.031233e+02   1.071688e+02
  -1.920620e+02   5.500795e+01
  -1.700522e+02  -2.098253e+01
  -8.436312e+01  -5.270494e+01
   5.841550e+01  -7.195837e+01
   3.790258e+01  -1.214018e+01
  -3.481190e+01   2.866376e+01
  -7.381285e+01   4.134188e+00
  -6.379086e+00  -9.937873e+01
   7.580884e+01  -1.553366e+02
   1.730681e+02  -2.237820e+01
   1.267597e+02   1.577278e+02
   1.436592e+00   2.314133e+02
  -3.906292e+01   1.346021e+02
  -1.136814e+02   3.412305e+00
  -3.916347e+01  -1.493426e+02
   1.565599e+01  -1.140822e+02
   2.378369e+01  -4.100363e+01
   4.873455e+01   4.262502e+01
   7.792994e+01   3.483415e+01
  -1.758678e+01  -2.883521e+01
   3.297534e+01  -1.331295e+00
   7.645347e+01   8.049721e+01
   6.294834e+01   1.280757e+02
  -4.865093e+01   8.858322e+01
  -1.123605e+02  -1.403554e+01
  -1.253018e+02  -7.095079e+01
  -1.186883e+01  -6.499574e+01
   8.380253e+01  -3.031559e+01
   6.700468e+01   1.048402e+01
   1.012149e+01   1.043898e+01
  -4.627278e+01   4.027297e+01
  -2.877920e+01   3.510933e+01
   2.193881e+01  -1.542620e+01
  -2.137283e+01   3.892739e+00
  -6.711804e+01  -2.052683e+01
  -8.151512e+01  -2.342800e+01
  -2.381641e+01  -1.048442e+02
   9.561256e+01  -1.424507e+02
   1.499187e+02  -4.994039e+01
   1.371614e+02   6.190237e+01
  -1.986337e+01   1.307451e+02
  -4.577555e+01   1.751432e+02
  -1.197758e+02   3.497899e+01
  -9.664341e+01  -3.748679e+01
  -5.157345e+01  -4.822809e+01
   1.298158e+01  -3.265339e+00
  -2.734090e+01  -8.688222e+00
  -2.447265e+01  -2.250168e+01
  -1.448635e+01  -5.564749e+01
   2.731140e+01  -5.253259e+01
   7.520971e+01  -7.476325e+00
   1.062147e+02   9.847029e+01
  -2.538582e+01   1.176231e+02
  -1.047241e+02   4.339022e+01
  -8.087974e+01  -5.983262e+01
  -3.984562e+01  -1.206137e+02
   7.805598e+01  -5.155174e+01
   1.115037e+02   5.049657e+00
   4.368137e+01   3.709366e+01
  -2.153222e+00   8.770289e+01
  -1.679182e+01   3.023815e+01
   1.443262e+01   1.503076e+01
   4.811597e+01  -9.089800e+00
   3.695683e+01  -1.345125e+01
  -7.235923e+01   6.617186e+01
  -6.601579e+01   5.589808e+01
  -5.594345e+01  -2.276168e+00
   4.163448e+01  -1.133678e+02
  -3.957695e-01  -3.612784e+01
   3.284773e+01  -3.559938e+00
  -7.934690e-01   6.049934e+01
   6.433750e-01   2.798339e+01
  -4.857085e+01  -5.542859e+01
   2.919714e+00  -2.557571e+01
  -1.855303e+01  -4.113272e+01
   3.949711e+01   1.346928e+01
   6.282445e+01   5.633690e+01
   1.160958e+01  -2.189773e+01
  -1.678043e+01  -2.645398e+01
  -5.754279e+01   2.657911e+01
  -2.823962e+01   5.568605e+01
   2.703063e+01   4.684340e+01
  -4.416685e+01  -8.548693e+00
  -5.378515e+01  -5.322725e+01
   1.840566e+01  -7.811499e+01
   5.424056e+01   5.528869e+00
   5.800409e+01   4.975094e+01
  -2.202718e+00   6.069821e+01
  -5.770594e+00   3.470695e+01
  -1.039708e+02  -4.798235e+00
  -4.699879e+01  -3.644291e+01
   5.939285e+01  -4.850807e+01
   1.088230e+02  -4.367659e+01
   4.050174e+01   7.350870e+00
  -5.639692e+01  -1.851632e+01
  -2.477200e+01  -3.156328e+01
   3.291054e+01  -2.403907e+01
   1.050633e+02  -2.394649e+01
