
 $NMID
 id='ANONYMOUS ', fmtdat='(2E16.6)'
 volume=1.0
 tramp=1.0
 $END
   3.395342e+03  -8.004924e+01
   2.312806e+03   1.444529e+03
   1.591239e+02   1.836453e+03
  -1.095697e+03   1.363391e+03
  -8.330952e+02   3.631779e+02
  -2.247383e+02  -1.285851e+02
   2.686225e+02   3.075936e+01
   4.500031e+01   4.320223e+02
  -3.360022e+02   5.410216e+02
  -5.415950e+02   1.143226e+02
  -4.136578e+02  -4.497248e+02
  -5.216978e+01  -6.186249e+02
   2.325427e+02  -1.820314e+02
   2.062796e+02   3.197747e+02
  -1.136909e+02   4.601733e+02
  -3.748670e+02   1.066486e+02
  -3.114531e+02  -4.820736e+02
   6.585014e+01  -5.914054e+02
   4.442340e+02  -2.685261e+02
   4.732923e+02   1.837330e+02
   1.095377e+02   3.445741e+02
  -1.073437e+02   2.505156e+02
  -6.953737e+01   7.987767e+01
   1.469681e+02   1.243570e+02
   1.902269e+02   2.747178e+02
  -4.703112e+01   3.189292e+02
  -4.865112e+02   1.008517e+02
  -5.984500e+02  -2.293773e+02
  -1.646057e+02  -3.262043e+02
   3.074227e+02  -1.118791e+02
   5.354171e+02   1.415228e+02
   1.915321e+02   3.413834e+02
  -2.358407e+02   3.236618e+02
  -4.159861e+02   1.401285e+02
  -2.753047e+02  -1.307206e+02
  -1.022604e+02  -3.109483e+02
   1.433839e+01  -1.619182e+02
  -8.234500e+01   7.749274e+01
  -2.070858e+02   1.538469e+02
  -1.879618e+02  -1.145201e+02
   2.317152e+01  -3.944387e+02
   2.316618e+02  -3.627037e+02
   2.033042e+02  -2.107983e+01
   9.952569e+01   2.957371e+02
  -1.586771e+02   4.043185e+01
  -1.110430e+02  -2.646677e+02
   1.042646e+02  -3.360622e+02
   4.003415e+02  -2.477061e+01
   4.608651e+02   2.964435e+02
   1.714814e+02   4.136415e+02
  -2.622512e+02   2.687198e+02
  -5.230494e+02  -4.767980e+01
  -3.441011e+02  -2.235129e+02
   4.624237e+01  -2.128984e+02
   2.840262e+02  -1.324738e+02
   2.411081e+02  -6.224023e+01
   2.561527e+01   1.032068e+01
  -1.483680e+01  -5.130722e+01
   9.238518e+01  -3.486343e+01
   1.636977e+02   5.110677e+01
   1.273699e+02   1.723679e+02
  -1.401651e+02   2.388343e+02
  -3.347461e+02   1.115726e+02
  -2.799014e+02  -8.752358e+01
   5.425166e+01  -3.317582e+02
   3.000009e+02  -3.627273e+02
   3.459880e+02  -1.483473e+02
   2.040122e+02   1.548884e+02
   2.459909e+01   3.687976e+02
  -5.896559e+01   2.756725e+02
   2.120643e+01   1.630200e+02
  -4.109891e+01   1.406592e+02
  -1.671760e+02   1.264768e+02
  -2.973032e+02   3.363075e+01
  -1.708033e+02  -1.234821e+02
  -8.367324e+01  -2.350157e+02
   8.539453e+01  -2.251737e+02
   1.748048e+02   4.320603e+01
   1.133789e+02   2.418175e+02
  -5.931636e+01   2.624755e+02
  -2.538379e+02   4.169859e+01
  -3.422933e+02  -1.544695e+02
  -1.668180e+02  -2.612064e+02
   4.169641e+01  -2.539023e+02
   1.779337e+02  -1.415839e+02
   1.539030e+02  -1.146594e+02
   1.157521e+02  -7.420123e+01
   2.943832e+02  -4.441452e+01
   4.090693e+02   7.124338e+01
   3.166085e+02   3.320029e+02
  -1.955459e+01   4.406920e+02
  -4.075801e+02   3.619995e+02
  -4.824457e+02   1.449553e+02
  -2.724915e+02  -1.280088e+02
  -6.261095e+01  -2.204538e+02
   7.730691e+01  -2.285053e+02
  -1.992172e+01  -3.556446e+01
  -1.088745e+02   2.632187e+01
  -1.779742e+02  -4.841145e+01
   4.932602e+01  -1.302689e+02
   1.238828e+02  -8.319990e+01
   9.127692e+01   3.965964e+01
  -3.825818e+01   1.221977e+02
  -1.749997e+02   1.982020e+01
  -1.681916e+02  -2.545300e+02
   9.566909e+00  -3.319025e+02
   2.228448e+02  -2.134678e+02
   3.685212e+02   8.593846e+01
   2.783078e+02   2.814300e+02
   3.423306e+01   2.359304e+02
  -1.430523e+02   1.430539e+02
  -1.105572e+02  -1.163662e+00
  -1.643833e+01  -1.400986e+01
   9.363225e+01   5.861109e+01
   1.028383e+01   1.373788e+02
  -1.804822e+02   8.701202e+01
  -1.352299e+02  -2.695402e+01
  -4.545816e+01  -1.406445e+01
   9.518488e+01   2.332622e+01
   5.966607e+01   1.128170e+02
  -1.764372e+02   9.226461e+01
  -3.105482e+02  -3.861183e+01
  -2.233032e+02  -1.959066e+02
  -3.398678e+01  -2.765123e+02
   1.858076e+02  -2.421139e+02
   2.314733e+02  -5.424712e+01
   1.008739e+02   4.538716e+01
   6.185651e+00   8.198889e+01
  -6.859372e+01  -8.269195e+00
   1.624810e+01  -7.697724e+01
   1.651670e+02  -3.174310e+01
   1.848083e+02   1.044245e+02
   5.082699e+01   1.633788e+02
  -5.761414e+01   6.380912e+01
  -9.786452e+01  -8.699349e+00
  -6.702249e+01  -1.305129e+01
   3.903945e+01   3.308358e+01
  -3.479858e+00   6.709768e+01
  -1.128112e+02   1.167148e+02
  -1.995000e+02   1.358566e+01
  -1.783372e+02  -1.421216e+02
  -2.687974e+01  -1.881769e+02
   1.173460e+02  -1.775056e+02
   2.139438e+02   2.976657e+01
   6.683521e+01   1.049129e+02
  -5.796502e+01   7.985980e+01
  -6.529607e+01  -4.473673e+01
   3.395036e+01  -5.729318e+01
   5.023053e+01   3.150249e+01
  -1.236757e+01  -3.892473e+00
  -1.172764e+02  -1.124099e+01
  -1.184868e+02  -1.038494e+02
   6.499205e+01  -1.909231e+02
   1.512324e+02  -1.510339e+02
   2.544724e+02   1.857908e+00
   1.102901e+02   1.985570e+02
   9.935508e+00   1.884135e+02
  -1.103381e+02   1.272264e+02
  -1.187790e+02   1.533783e+01
  -5.827584e+01  -3.628793e+01
  -5.139544e+01  -5.200532e+01
  -7.025428e+01   1.310723e+01
  -1.037452e+02  -2.133633e+01
  -3.314466e+01  -2.549857e+01
   6.202226e+01  -1.152725e+02
   1.262541e+02  -4.503533e+01
   1.178235e+02   7.592791e+01
  -3.802479e+01   1.211163e+02
  -1.680709e+02   6.427600e+01
  -2.240101e+02  -5.753833e+01
  -6.316289e+01  -2.218548e+02
   1.463484e+02  -1.888828e+02
   2.783895e+02  -6.690431e+01
   2.293959e+02   6.858136e+01
   8.385637e+01   1.802040e+02
  -3.194153e+01   1.617222e+02
  -8.601002e+01   5.268659e+01
  -1.538322e+01   7.202936e+01
  -7.082233e+01   7.237546e+01
  -1.239505e+02   6.681132e+01
  -1.290484e+02  -5.202906e+01
  -1.075404e+02  -1.482938e+02
  -1.819329e+01  -2.327120e+02
   1.048280e+02  -1.812566e+02
   1.510578e+02  -1.402723e+00
   1.332398e+02   1.304260e+02
  -1.214232e+01   1.228390e+02
  -5.092845e+01   5.756190e+01
  -2.780793e+01  -1.008686e+01
  -1.597016e+01  -3.593469e+01
   3.966163e+01  -5.890172e+01
  -2.311284e+01  -8.337197e+00
  -7.663099e+01  -4.509627e+01
  -7.311563e+01  -3.188358e+01
   8.144605e+01  -3.837928e+01
   1.453045e+02  -4.925390e+00
   1.340439e+02   7.236439e+01
   1.793994e+00   8.304900e+01
  -1.424978e+02   5.704714e+01
  -1.088159e+02  -3.998925e+01
  -7.598629e+01  -8.068341e+01
   5.012920e+01  -3.580408e+01
   8.722185e+01   2.489339e+01
   3.243851e+00   8.322422e+01
  -3.800823e+01   7.093204e+01
  -8.507968e+01  -1.745212e+01
  -8.812858e+01  -7.960817e+01
  -7.058215e+01  -6.560908e+01
  -3.903972e+01  -1.385013e+01
  -6.634158e+01  -3.054751e+01
  -3.006220e+01  -7.343761e+01
   6.476029e+01  -1.599155e+02
   1.136708e+02  -1.033798e+02
   1.444148e+02  -1.874592e+01
   1.176414e+02   7.890376e+01
  -1.075504e+01   1.332620e+02
  -9.143789e+01   4.162269e+01
  -6.963204e+01  -3.883171e+01
   7.427725e+01  -8.022968e+00
   1.308588e+02   9.552924e+01
   5.882201e+01   1.127645e+02
  -7.379268e+01   1.125079e+02
  -1.944678e+02   4.508901e+01
  -1.718686e+02  -3.924565e+01
  -5.866640e+01  -6.365433e+01
   3.094391e+01  -5.606632e+00
   3.478569e+01  -3.539205e+01
  -6.472342e+00   7.543826e+00
  -6.091866e+01  -8.554695e+00
  -5.903071e+01  -8.716325e+01
   7.470647e+01  -1.601632e+02
   1.570077e+02  -2.062611e+01
   1.205743e+02   1.134296e+02
   3.933787e+01   1.530475e+02
  -8.642630e+01   1.461996e+02
  -1.459982e+02   2.168834e+01
  -2.530936e+01  -1.175546e+02
   3.685193e+01  -1.172967e+02
   4.699029e+01  -2.599660e+01
   7.323942e+01   1.027896e+01
   3.570561e+01   1.585377e+01
  -7.528577e-01  -1.668973e+01
   2.155890e+01   3.456493e+01
   5.981001e+01   8.679156e+01
   3.402982e+01   1.122385e+02
  -8.616412e+01   3.925058e+01
  -1.620925e+02  -2.916522e+01
  -1.293270e+02  -9.364316e+01
  -2.001454e+01  -4.617890e+01
   7.343394e+01   3.952211e+00
   1.063394e+02  -4.644116e+01
  -2.020304e+01   5.022226e+01
  -2.721605e+01   2.648649e+00
  -5.934404e+00   3.665197e+01
   2.326217e+01   1.867777e+01
   2.832294e+01   9.182347e+00
  -6.138996e+01  -1.084645e+01
  -9.440147e+01  -2.564362e+01
   8.123829e+00  -8.797937e+01
   1.280164e+02  -8.780287e+01
   1.764205e+02  -5.784389e+01
   1.648256e+02   3.523406e+01
   3.611459e+01   1.822431e+02
  -1.094079e+02   1.293273e+02
  -7.461518e+01   8.337614e+01
  -1.225492e+02  -8.501129e+01
  -1.389274e+01  -2.679595e+01
   1.556184e+01  -6.465939e+00
  -6.584733e+01  -1.810183e+01
  -5.027612e+00  -4.436753e+01
   6.225002e+00  -8.121943e+01
  -2.683101e+01  -6.912343e+01
   4.491101e+01  -1.432465e+01
   5.066786e+01   8.965824e+01
   2.407293e+01   1.136412e+02
  -5.372933e+01   1.546566e+01
  -1.094716e+02  -7.398746e+01
  -1.233065e+01  -1.018666e+02
   5.252822e+01  -4.859659e+01
   1.324167e+02   3.257555e+01
   3.301333e+01   5.106848e+01
  -1.348084e+01   3.915388e+01
  -4.446699e+01   2.213047e+01
   2.041995e+01  -5.465226e+01
   7.261864e+01  -1.834573e+01
   5.140486e+01   5.874029e+00
  -7.821307e+01   1.045137e+02
  -1.059038e+02   5.516774e+01
  -5.929990e+01   1.442016e+01
   4.728438e+01  -4.390911e+01
   8.380600e+01  -4.757018e+01
   6.579890e+01   8.756223e+00
   3.486992e+00   3.257298e+01
  -9.111657e+00   5.294205e+01
  -3.169573e+01   1.787290e+01
  -3.009127e+01  -4.657380e+01
   2.221334e+01  -3.825400e+01
   1.837982e+01   1.947538e+01
   1.286524e+01   6.950581e+00
   2.730976e+01  -4.815547e+00
  -1.380046e+01  -1.275356e+01
   3.887307e+00  -2.555317e-01
   7.992454e+00   6.086830e+01
   3.172566e+01   5.628490e+01
  -7.638670e+01  -9.165562e+00
  -5.819676e+01  -3.546501e+01
  -7.860928e+00  -8.786368e+01
   3.793301e+01  -3.104511e+00
   7.624901e+01  -2.138750e+01
   1.409043e+01   4.103246e+01
  -5.182055e+01   2.623507e+01
  -7.019474e+01  -1.959482e+01
  -5.025125e+01  -6.150535e+01
  -9.807861e+00  -5.441438e+01
   1.124497e+02  -4.152558e+01
   4.008160e+01  -1.708137e+01
  -3.141465e+01   6.957031e+01
  -4.875378e+00   1.556010e+01
   2.859347e+00  -4.137855e+01
   7.479966e+01  -2.982037e+01
