
 $NMID
 id='ANONYMOUS ', fmtdat='(2E16.6)'
 volume=1.0
 tramp=1.0
 $END
   3.506973e+03   2.401071e+02
   2.087157e+03   2.037766e+03
  -4.129896e+02   2.330966e+03
  -1.564927e+03   1.044431e+03
  -9.553136e+02  -9.969093e+01
   7.268960e+01  -2.532367e+02
   4.330860e+02   2.342567e+02
   7.717071e+01   7.056651e+02
  -5.018589e+02   6.690909e+02
  -6.900991e+02   1.756760e+01
  -4.362558e+02  -6.269927e+02
   9.089930e+01  -6.862010e+02
   3.575902e+02  -1.971940e+02
   3.603781e+02   5.633558e+02
  -1.274925e+02   6.058176e+02
  -4.593194e+02   8.336041e+01
  -2.398831e+02  -5.396060e+02
   1.609795e+02  -5.316852e+02
   4.470274e+02  -1.900219e+02
   4.040500e+02   2.110071e+02
   9.494877e+01   3.430350e+02
  -1.191975e+02   2.483668e+02
  -7.575127e+01   9.482758e+01
   1.552178e+02   6.308542e+01
   2.649138e+02   2.351637e+02
   1.505420e+01   3.573919e+02
  -4.257505e+02   2.796617e+02
  -6.550710e+02  -1.729257e+02
  -2.717465e+02  -3.644302e+02
   2.764896e+02  -2.675018e+02
   5.169557e+02   8.879155e+01
   2.303974e+02   3.851962e+02
  -3.020244e+02   3.906566e+02
  -5.137148e+02   1.431581e+02
  -3.216464e+02  -1.801145e+02
  -3.885660e+01  -3.711729e+02
   3.001708e+01  -1.887525e+02
   3.245528e+01   1.230038e+02
  -1.753868e+02   2.554726e+02
  -2.054528e+02  -8.642357e+01
  -7.811917e+01  -5.255334e+02
   2.175115e+02  -4.857739e+02
   3.623946e+02  -4.357265e+01
   1.619638e+02   3.219347e+02
  -1.863782e+02   1.818151e+02
  -2.176374e+02  -2.985954e+02
   5.292741e+01  -4.084088e+02
   4.863000e+02  -8.762828e+01
   4.846855e+02   3.851510e+02
   1.061772e+02   5.067204e+02
  -3.094051e+02   2.693173e+02
  -5.456728e+02  -6.209060e+01
  -3.466754e+02  -2.891885e+02
   1.023827e+02  -2.671273e+02
   3.117084e+02  -5.219718e+01
   2.040007e+02   8.474993e+01
  -3.075312e+01   5.178622e+01
  -8.839472e+01  -1.591293e+02
   7.659975e+01  -6.512620e+01
   2.655537e+02   6.729692e+01
   1.362692e+02   2.213168e+02
  -1.617846e+02   2.596183e+02
  -3.076090e+02   1.459037e+02
  -2.234517e+02  -8.269464e+01
   2.076910e+01  -2.753892e+02
   2.233281e+02  -3.580527e+02
   3.446616e+02  -1.479195e+02
   2.247975e+02   1.668608e+02
   8.957657e+01   3.772909e+02
  -3.691695e+01   3.515053e+02
  -4.778257e+01   1.477649e+02
  -1.105977e+01   7.405189e+01
  -1.128603e+02   9.604068e+01
  -2.162521e+02   9.548447e+01
  -2.052289e+02  -1.441273e+02
  -1.330265e+02  -2.698671e+02
   6.829633e+01  -2.054441e+02
   2.224579e+02   3.575097e+01
   1.701233e+02   2.626027e+02
  -3.425828e+01   2.743011e+02
  -2.158832e+02   6.544927e+01
  -3.071779e+02  -1.723973e+02
  -1.423193e+02  -3.131281e+02
   8.148417e+01  -2.628289e+02
   2.215987e+02  -1.269784e+02
   1.506292e+02  -5.458987e+01
   1.287871e+02  -2.681361e+01
   2.601708e+02  -4.041039e+01
   3.608486e+02   7.182183e+01
   2.766790e+02   3.018037e+02
  -3.699607e+01   4.009660e+02
  -3.769848e+02   3.490120e+02
  -4.668096e+02   1.475899e+02
  -3.137369e+02  -8.838883e+01
  -3.980888e+00  -2.570971e+02
   7.416285e+01  -1.895197e+02
   4.162575e+01  -5.958462e+01
  -8.725827e+01   5.933700e+01
  -9.846223e+01  -2.849516e+01
  -3.653602e+01  -1.168373e+02
   1.144835e+02  -1.448947e+02
   1.063784e+02   3.316799e+01
  -4.767100e+01   1.711502e+02
  -1.940871e+02   2.057008e+01
  -7.835052e+01  -2.381588e+02
   4.710001e+01  -3.266495e+02
   2.199011e+02  -1.606790e+02
   3.374098e+02   1.512072e+01
   2.822074e+02   2.363062e+02
   5.468102e+01   2.694282e+02
  -1.077803e+02   1.475132e+02
  -1.709590e+02  -3.938101e+00
  -8.450588e+00   1.217093e+01
   5.575308e+01   8.401915e+01
  -5.904821e+00   1.174634e+02
  -1.255098e+02   6.566650e+01
  -1.777876e+02  -7.687160e+00
  -4.806330e+01  -5.931150e+01
   4.529116e+01  -1.483113e+01
   1.764567e+01   8.599617e+01
  -1.282840e+02   6.730878e+01
  -2.894900e+02   3.676609e+00
  -2.117705e+02  -1.534799e+02
  -1.917354e+01  -2.644765e+02
   1.811090e+02  -2.476446e+02
   2.428731e+02  -9.797114e+01
   1.749452e+02   5.354159e+01
  -2.671174e+01   1.085352e+02
  -8.029172e+01  -5.495325e+01
   9.875028e+01  -7.715907e+01
   1.983397e+02  -6.263025e+00
   1.769351e+02   1.135934e+02
   1.946791e+01   1.772462e+02
  -9.079496e+01   1.614889e+02
  -1.078452e+02  -1.584404e+00
  -5.222131e+01  -1.023687e+01
   3.715465e+01   9.578094e+00
   6.236580e+00   4.238120e+01
  -7.696204e+01   1.201604e+02
  -2.311134e+02  -3.686345e+00
  -1.753911e+02  -1.350720e+02
   7.961516e-01  -1.613723e+02
   1.634135e+02  -1.685030e+02
   1.308865e+02   2.454137e+00
   9.746005e+01   1.387582e+02
  -8.135920e+01   1.354107e+02
  -9.685934e+01   2.028455e+01
  -3.074667e+01   3.963148e+00
   2.914896e+01   1.992050e+01
  -3.492094e+01   2.878458e+01
  -1.122951e+02  -2.994797e+00
  -6.213934e+01  -9.875816e+01
   3.412672e+00  -1.518518e+02
   1.555458e+02  -1.661181e+02
   2.145021e+02   4.954145e+01
   2.116845e+02   1.718860e+02
   6.089044e+00   2.341905e+02
  -5.465591e+01   1.813163e+02
  -9.955101e+01   9.493894e-01
  -5.326613e+01  -5.969976e+01
  -3.174670e+01  -3.304290e+01
  -5.600273e+01   3.008682e+01
  -7.085395e+01   1.001358e+01
  -2.581151e+01  -7.668458e+01
   2.760594e+01  -9.352254e+01
   1.071398e+02  -4.704122e+01
   8.981396e+01   3.840809e+01
  -8.192839e+00   1.617194e+02
  -1.863802e+02   1.113218e+02
  -1.746796e+02  -2.518519e+01
  -1.170348e+02  -2.040969e+02
   1.409317e+02  -1.771751e+02
   2.668525e+02  -6.183073e+01
   2.142359e+02   8.257446e+01
   1.177190e+02   1.949661e+02
  -3.880890e+01   1.098394e+02
  -9.730257e+01   7.307943e+01
  -8.246288e+01   8.302517e+01
  -1.013145e+02   9.369570e+01
  -1.271691e+02   8.498866e+01
  -1.602954e+02  -7.959934e+01
  -8.903514e+01  -1.382143e+02
  -2.298329e+01  -2.346607e+02
   7.643897e+01  -1.845883e+02
   1.371077e+02  -2.181459e+01
   1.023499e+02   1.206184e+02
   2.493508e+01   1.640133e+02
  -4.484206e+01   5.412326e+01
  -5.827977e+01   2.766118e+01
   4.188116e+00  -5.102976e+01
   1.709740e+01  -4.930671e+01
  -1.761422e+01  -5.089764e+00
  -9.380793e+01  -2.385946e+01
  -4.168796e+01  -2.134428e+01
   3.293235e+01  -5.701979e+01
   1.504022e+02   1.247037e+01
   1.255522e+02   7.093563e+01
   7.875883e+00   8.883491e+01
  -1.599328e+02   7.369679e+01
  -1.291772e+02   7.124948e+00
  -1.022713e+02  -5.333797e+01
   6.380530e+01  -5.123883e+01
   7.179948e+01   2.292093e+01
   1.397917e+01   7.840984e+01
  -3.716028e+01   5.429526e+01
  -8.310565e+01  -6.468101e+00
  -2.861451e+01  -5.263378e+01
  -6.346182e+01  -3.064429e+01
  -5.012244e+01  -1.489471e+01
  -4.272711e+01  -1.881613e+01
  -6.351923e+01  -8.062036e+01
   5.548520e+01  -1.195124e+02
   1.128983e+02  -1.304104e+02
   1.978388e+02  -2.772174e+01
   1.009764e+02   1.045007e+02
   3.710869e+01   1.086594e+02
  -9.695469e+01   2.908901e+01
  -5.359720e+01  -1.360318e+00
   6.506823e+01   5.408172e+00
   1.557548e+02   5.842426e+01
   8.261389e+01   7.028771e+01
  -9.519509e+01   1.068773e+02
  -1.805587e+02   7.909113e+00
  -1.452557e+02  -4.699294e+01
  -1.970664e+01  -8.563936e+01
   6.525942e+01  -1.062059e+02
   8.254202e+01   1.573824e+01
  -2.206293e+01   2.179347e+01
  -8.562768e+01  -3.821294e+01
  -3.112946e+01  -7.510787e+01
   6.632334e+01  -1.075149e+02
   1.052693e+02  -5.101988e+01
   8.249550e+01   7.602195e+01
  -4.679045e+00   1.869671e+02
  -1.105862e+02   9.234465e+01
  -6.246070e+01   1.057611e+00
  -8.652753e+01  -1.055107e+02
   8.961662e+00  -1.207018e+02
   3.423130e+01  -2.699344e+01
   1.763938e+01  -2.059044e+01
   1.601011e+01  -6.412742e+00
  -1.519897e+01   7.708232e+00
   4.376768e+01   4.554950e+01
   3.960055e+01   7.645370e+01
   2.525841e+01   1.025676e+02
  -4.488146e+01   3.433440e+01
  -1.211623e+02  -2.230942e+01
  -1.177988e+02  -6.963859e+01
  -3.900809e+01  -2.995984e+01
   6.665598e+01  -2.408843e+01
   1.243227e+02  -6.466985e+00
   3.083079e+01   2.041505e+01
  -2.528624e+01   1.570558e+01
  -1.622983e+01   2.526203e+01
  -8.018863e+00   5.282675e+00
   1.012156e+01  -4.443028e+01
  -7.999562e+01  -3.478442e+01
  -6.118383e+01   2.942563e+00
  -8.999632e+00  -8.961590e+01
   1.641465e+02  -1.228550e+02
   1.861509e+02  -6.464359e+01
   1.232034e+02   5.914879e+01
   1.309050e+01   1.840026e+02
  -9.161531e+01   1.496301e+02
  -1.090084e+02   6.893645e+01
  -1.005716e+02  -1.779508e+01
  -3.163750e-01  -3.385713e+01
  -3.419439e+01  -1.736717e+01
  -1.497604e+01  -3.254921e+01
  -3.768010e+01  -5.509130e+01
   1.131397e+01  -9.487814e+01
   2.470664e+01  -2.416448e+01
   6.474629e+01   3.340033e+01
   7.264174e+01   8.337893e+01
   3.885268e+01   9.100349e+01
  -8.089045e+01   5.109988e+01
  -9.592936e+01  -4.607442e+01
  -5.202475e+01  -1.188154e+02
   8.176900e+01  -7.021565e+01
   1.000995e+02  -1.521807e+01
   4.052342e+01   3.980227e+01
   1.411563e+01   4.592251e+01
  -2.803647e+01   4.466943e+01
   3.419921e+01  -3.248589e+01
   7.200741e+01  -3.511853e+01
   5.256193e+00  -8.570407e-01
  -7.299965e+01   7.221058e+01
  -9.952204e+01   5.580241e+01
  -7.280469e+01   3.187380e+00
   2.797780e+01  -9.180979e+01
   5.233013e+01  -5.047723e+01
   2.752889e+01  -2.322920e+01
  -3.244293e+01   5.098685e+01
  -6.024216e+01   7.422384e+01
  -5.164331e+01  -3.402539e+01
   1.256319e+00  -7.821603e+01
   2.860285e+01  -1.471003e+01
   6.472087e+01   3.903481e+01
   2.537739e+01   1.518992e+01
   2.345643e+01   2.118882e+01
  -2.892035e+01  -3.062849e+00
   1.776802e+01  -2.001989e+01
   1.986591e+00   6.085455e+01
   9.835812e+00   3.388680e+01
  -3.151717e+01   3.947601e+01
  -3.359161e+01  -4.058486e+01
  -2.110645e+01  -2.916235e+01
   3.921801e+01  -4.515109e+01
   3.192067e+01   7.010248e+01
  -2.611824e+01   5.649376e+01
  -4.826303e+01   2.458817e+01
  -6.180583e+01  -2.596051e+01
  -7.167876e+01  -1.464656e+01
  -4.245644e+00  -5.895588e+01
   6.602885e+01  -1.034513e+01
   5.687259e+01  -9.640613e+00
  -5.891181e-01  -2.711762e+01
  -4.730890e+01   1.206300e+01
   2.150505e+01  -1.769848e+01
   6.322361e+01   1.678094e+01
