
 $NMID
 id='ANONYMOUS ', fmtdat='(2E16.6)'
 volume=1.0
 tramp=1.0
 $END
   4.469755e+03  -1.158124e+02
   2.672011e+03   2.827370e+03
  -8.151553e+02   3.074368e+03
  -2.371276e+03   9.831707e+02
  -1.036599e+03  -8.470402e+02
   6.981799e+02  -7.602408e+02
   1.053366e+03   4.549356e+02
   8.697687e+01   1.293038e+03
  -8.396577e+02   8.881779e+02
  -1.044563e+03  -1.203833e+02
  -5.665939e+02  -9.637791e+02
   3.155321e+02  -9.628304e+02
   7.154190e+02  -1.241219e+02
   3.705953e+02   8.342519e+02
  -3.041667e+02   7.826978e+02
  -6.682054e+02  -4.035670e+01
  -3.053256e+02  -7.001855e+02
   3.101190e+02  -6.689378e+02
   6.181647e+02  -1.123167e+02
   4.298284e+02   3.692965e+02
  -3.841478e+00   4.850828e+02
  -2.606533e+02   3.085442e+02
  -2.445333e+02   2.300069e+00
   9.730269e+01  -1.199966e+02
   4.225755e+02   8.946394e+01
   2.542157e+02   4.918250e+02
  -5.145766e+02   4.557453e+02
  -9.263841e+02  -9.454196e+01
  -4.744480e+02  -5.625572e+02
   3.711211e+02  -4.925912e+02
   8.207728e+02  -2.949613e+01
   3.761225e+02   4.707702e+02
  -2.541776e+02   5.590009e+02
  -5.788042e+02   2.417941e+02
  -4.415348e+02  -2.450922e+02
  -8.632288e+01  -5.082839e+02
   2.422641e+02  -2.754267e+02
   2.516115e+02   2.364399e+02
  -1.673812e+02   4.797179e+02
  -4.495270e+02   1.658572e+01
  -3.376239e+02  -7.505575e+02
   3.328546e+02  -7.175744e+02
   6.497031e+02  -2.365144e+01
   3.395186e+02   6.069526e+02
  -3.297159e+02   3.628663e+02
  -4.650464e+02  -3.701005e+02
   5.892977e+01  -5.706369e+02
   5.962552e+02  -1.854371e+02
   6.146087e+02   4.403580e+02
   1.624959e+02   6.448803e+02
  -4.260611e+02   3.987018e+02
  -6.831236e+02  -9.921661e+01
  -3.888765e+02  -4.094491e+02
   1.800941e+02  -3.719175e+02
   4.766787e+02  -1.346474e+01
   2.666739e+02   2.355842e+02
  -1.499448e+02   1.086061e+02
  -1.328955e+02  -1.853940e+02
   1.614469e+02  -2.071516e+02
   3.470845e+02   7.041323e+01
   1.902030e+02   3.446367e+02
  -2.575666e+02   2.611333e+02
  -3.505922e+02   3.539851e+01
  -2.092576e+02  -9.872141e+01
   4.446229e+01  -2.519921e+02
   2.385335e+02  -3.458949e+02
   3.704713e+02  -2.242520e+02
   2.670813e+02   1.303835e+02
   5.695672e+01   4.519227e+02
  -9.580084e+01   3.933632e+02
  -1.034971e+02   1.448581e+02
  -7.131429e+01  -1.841182e+01
   5.961470e+00   3.996055e+01
  -1.786328e+02   1.205072e+02
  -2.682689e+02  -3.972791e+01
  -1.892599e+02  -2.961004e+02
   2.703514e+01  -2.766354e+02
   1.834251e+02  -3.711380e+01
   2.063967e+02   2.539545e+02
   5.671718e+00   3.073920e+02
  -2.946513e+02   1.732442e+02
  -3.288164e+02  -1.212770e+02
  -2.151904e+02  -3.782647e+02
   7.390687e+01  -3.023796e+02
   2.074833e+02  -1.372055e+02
   1.714297e+02   1.231365e+01
   9.443077e+01  -4.969140e+01
   1.985817e+02  -4.572487e+01
   3.914301e+02   5.933115e+01
   3.540965e+02   2.979895e+02
   6.247250e+00   4.548513e+02
  -3.995647e+02   4.206413e+02
  -5.377183e+02   2.199383e+02
  -3.521613e+02  -8.165146e+01
  -6.298853e+01  -3.237939e+02
   1.395507e+02  -2.612582e+02
   9.888006e+01  -1.094611e+01
  -1.152599e+02   9.943323e+01
  -1.968760e+02  -6.981013e+00
  -7.379973e+01  -1.843928e+02
   1.888453e+02  -1.820858e+02
   1.952318e+02   8.387317e+01
  -1.107539e+01   2.006237e+02
  -1.970571e+02   1.823268e+01
  -1.675861e+02  -2.620670e+02
   1.254905e+01  -3.587587e+02
   2.400737e+02  -1.799978e+02
   3.288550e+02   7.021364e+01
   2.734320e+02   2.299920e+02
   5.020641e+01   2.587849e+02
  -1.169526e+02   1.563738e+02
  -1.999602e+02   1.313689e+01
  -3.737642e+01  -6.847529e+01
   5.195629e+01   4.543737e+01
   2.595860e+01   1.479583e+02
  -1.116232e+02   9.798763e+01
  -1.728666e+02   2.919665e+01
  -8.335377e+01  -1.004892e+02
   1.015317e+02  -4.684210e+01
   6.629967e+01   4.564236e+01
  -1.235112e+02   1.091706e+02
  -2.236776e+02   6.052459e-01
  -3.083145e+02  -1.371449e+02
  -7.739179e+01  -2.633785e+02
   1.813186e+02  -2.739799e+02
   2.698657e+02  -1.423292e+02
   1.824899e+02   5.593122e+01
  -5.155831e+01   1.140249e+02
  -1.511023e+02  -6.283721e+00
   3.125731e+01  -8.373753e+01
   2.237294e+02  -4.464243e+01
   2.098144e+02   1.585589e+02
   7.529165e+01   2.515199e+02
  -9.940501e+01   1.718722e+02
  -1.376751e+02   5.412957e+00
  -1.058986e+02  -4.261613e+01
   6.084811e+01   1.386406e+01
   6.418976e+01   4.548145e+01
  -5.361698e+01   1.270678e+02
  -2.000652e+02   4.044082e+01
  -1.870252e+02  -8.787525e+01
  -1.376084e+01  -2.474944e+02
   1.820266e+02  -1.859746e+02
   2.580951e+02   3.394414e+01
   4.508837e+01   1.025229e+02
  -6.674169e+01   1.153061e+02
  -8.753860e+01   1.322411e+01
  -1.166744e+01  -4.655979e+01
  -2.440436e+01  -1.002741e+01
   1.597168e+01   1.968507e+00
  -8.981204e+01  -5.738492e+01
  -9.976273e+01  -5.886473e+01
  -2.120666e+01  -1.532869e+02
   1.493804e+02  -1.726508e+02
   2.214502e+02  -8.674680e+01
   1.650393e+02   1.364021e+02
   5.040242e+01   2.374390e+02
  -1.068112e+02   1.755011e+02
  -1.351762e+02   3.372879e+01
  -6.558749e+01  -7.422602e+01
  -2.970971e+01  -1.401186e+01
  -2.646902e+01   1.522179e+01
  -7.264956e+01  -8.217402e-01
  -4.112735e+01   3.264116e+00
   4.695814e+01  -4.934260e+01
   7.334192e+01  -4.791429e+01
   6.942465e+01   1.546510e+01
  -1.909520e+01   9.334617e+01
  -1.539340e+02   9.609460e+01
  -2.255142e+02  -2.184942e+01
  -1.173789e+02  -2.004035e+02
   9.352351e+01  -2.119231e+02
   2.857871e+02  -6.899889e+01
   2.618046e+02   8.742573e+01
   1.071007e+02   2.005344e+02
  -3.778963e+01   1.603007e+02
  -1.221973e+02   5.429610e+01
  -1.079848e+02   5.754981e+01
  -5.457314e+01   9.339588e+01
  -7.816072e+01   7.936853e+01
  -1.144425e+02   9.714702e-01
  -1.376688e+02  -1.487075e+02
  -5.398916e+01  -2.108391e+02
   7.039124e+01  -1.639034e+02
   2.057540e+02  -4.675881e+01
   1.772226e+02   1.233146e+02
  -3.091123e+01   1.424836e+02
  -7.430082e+01   8.330273e+01
  -6.805569e+01   2.721880e+01
  -6.945247e+00  -3.784627e+01
  -2.647787e+01  -3.086765e+01
  -7.221206e+01  -7.326321e+00
  -7.961097e+01   8.280236e-01
  -4.107899e+01  -3.153614e+01
   7.103010e+01  -1.543423e+01
   1.477470e+02   2.283638e+00
   1.596410e+02   4.019028e+01
   3.082262e+00   6.391490e+01
  -1.329280e+02   8.173335e+01
  -1.327005e+02  -1.282329e+01
  -5.029135e+01  -3.635091e+01
   5.241653e+01  -6.671141e+01
   5.737430e+01  -1.420318e+01
   2.879842e+00   7.168593e+01
  -6.384000e+01   4.152833e+01
  -5.759131e+01   3.066806e+01
  -2.112048e+01  -4.619275e+01
  -2.758316e+01  -6.556660e+01
  -3.186597e+01  -3.305976e+01
  -7.334485e+01  -3.682432e+01
  -1.623907e+01  -7.468222e+01
   5.014609e+01  -1.359793e+02
   1.238666e+02  -1.826301e+02
   1.230630e+02  -4.614934e+01
   1.332047e+02   9.102887e+01
  -2.041321e+01   1.504568e+02
  -1.063242e+02   1.323057e+02
  -5.584202e+01  -4.174028e+01
   8.403786e+01  -4.739794e+01
   1.331145e+02   6.660115e+01
   5.475950e+01   1.078924e+02
  -7.777796e+01   1.158322e+02
  -1.737490e+02   4.271796e+01
  -1.827407e+02  -5.372811e+01
  -3.539520e+01  -8.162112e+01
   4.636871e+01  -6.437984e+01
   7.643153e+01   4.393176e+01
  -4.684613e+01   2.516476e+01
  -9.547476e+01   9.489326e+00
  -5.261281e+01  -1.336482e+02
   1.242430e+02  -1.677522e+02
   1.273898e+02  -1.035389e+02
   1.092728e+02   1.063489e+02
   3.749207e+01   2.049849e+02
  -8.330070e+01   1.360068e+02
  -1.141659e+02   5.756378e+00
  -3.622919e+01  -1.374313e+02
   1.811118e+01  -6.718535e+01
   2.778654e+01  -1.417154e+01
   2.952541e+01  -7.373345e+00
   3.036137e+01  -5.689492e+00
   3.483247e+00  -3.071092e+01
   1.185013e+01   4.041119e+01
   5.345652e+01   7.165246e+01
   5.708537e+01   9.899023e+01
  -7.415103e+01   5.389439e+01
  -1.476429e+02  -3.818511e+01
  -1.096191e+02  -7.393709e+01
  -8.093423e+00  -6.862269e+01
   8.439572e+01   1.177114e+01
   1.155124e+02  -3.413390e+01
   4.387190e+01   4.947796e+01
   2.621156e+00   1.612577e+01
  -3.480648e+01   4.249088e+01
   1.322859e+01   4.341384e+01
  -1.289692e+01   3.201640e+01
  -1.234375e+02   2.924619e+01
  -8.175736e+01  -2.237405e+01
  -2.897234e+01  -9.520614e+01
   1.362034e+02  -1.344678e+02
   1.995907e+02  -8.471296e+01
   1.105137e+02   6.196919e+01
   1.970168e+01   1.630690e+02
  -5.362912e+01   1.363118e+02
  -1.363021e+02   6.152128e+01
  -8.478506e+01   1.472060e+01
  -5.615757e+01  -7.679076e+01
  -2.006988e+01  -2.408192e+01
  -1.416805e+01  -6.522858e+01
  -6.341470e+00  -5.425187e+01
  -3.862887e+00  -9.608327e+01
   3.936498e+00  -7.307076e+01
   7.609174e+01   3.639199e+00
   1.234773e+02   1.018787e+02
  -3.962501e+00   1.411079e+02
  -8.502897e+01   1.940452e+01
  -7.435820e+01  -7.792425e+01
  -6.158599e+01  -1.067222e+02
   6.188960e+01  -4.929320e+01
   8.677863e+01   2.679628e+00
   2.396192e+01   3.759350e+01
  -7.662640e+00   5.347911e+01
  -4.653955e+01   3.602625e+01
   2.838480e+01  -1.489949e+00
   4.728556e+01  -4.636902e+00
   9.903319e+00   3.532723e+01
  -1.086365e+02   6.664688e+01
  -9.418583e+01   6.949277e+01
  -6.083149e+01  -2.022504e+00
   4.993672e+01  -7.888315e+01
   2.297210e+01  -9.011497e+01
   7.706068e+01  -1.293186e+00
   6.434668e+00   4.401869e+01
  -3.286008e+01   3.185188e+01
  -1.145743e+01  -5.980674e+01
  -2.425692e+01  -4.299493e+01
   4.333530e-03  -6.017804e-01
   4.032838e+01   2.803221e+01
   5.067855e+01   1.692812e+01
   1.811386e+01  -2.388672e+01
  -9.569255e+00  -1.574503e+01
  -1.757063e+01   9.534545e+00
  -4.920826e+01   4.959007e+01
  -4.178982e+01   5.141475e+01
  -1.634613e+01   1.615275e+01
  -2.575076e+01  -4.166382e+01
  -7.791367e+00  -4.862494e+01
   5.336530e+01  -5.298495e+01
   8.557985e+01   9.085675e+00
   3.458837e+01   8.542480e+01
  -7.457556e+01   3.331046e+01
  -1.002516e+02  -3.510682e+01
  -7.185090e+01  -4.574823e+01
   2.610322e+01  -1.793372e+01
   1.949465e+01  -3.398773e+01
   3.687888e+01  -8.952713e-01
  -5.161402e+01  -3.904427e+01
  -3.506584e+01  -2.544422e+01
   4.772212e+01  -5.677025e+01
   1.156514e+02  -2.967439e+01
