
 $NMID
 id='ANONYMOUS ', fmtdat='(2E16.6)'
 volume=1.0
 tramp=1.0
 $END
   3.328157e+03   4.392109e+01
   2.201698e+03   1.928809e+03
  -2.046329e+02   2.285256e+03
  -1.651460e+03   1.042627e+03
  -9.285729e+02  -2.529932e+02
   2.723095e+02  -4.441675e+02
   6.092376e+02   1.874445e+02
   3.232082e+01   8.137304e+02
  -5.129745e+02   6.609217e+02
  -7.407299e+02   6.358985e-01
  -4.799198e+02  -6.687454e+02
   1.054498e+02  -7.250128e+02
   4.214583e+02  -1.469917e+02
   3.200740e+02   5.251926e+02
  -1.022957e+02   6.121552e+02
  -4.619835e+02   8.392437e+01
  -2.441189e+02  -4.952938e+02
   1.993649e+02  -5.554942e+02
   4.194435e+02  -2.055296e+02
   4.121316e+02   2.144252e+02
   8.253717e+01   3.524222e+02
  -1.656932e+02   2.596462e+02
  -1.959268e+02   6.781537e+01
   6.703778e+01   9.906858e+00
   2.948991e+02   1.713351e+02
   9.862520e+01   3.062928e+02
  -4.273252e+02   3.323319e+02
  -6.950211e+02  -4.551353e+01
  -3.577382e+02  -4.427000e+02
   3.063889e+02  -3.845016e+02
   5.696194e+02   2.854666e+01
   2.519960e+02   3.320601e+02
  -2.015867e+02   3.925326e+02
  -5.071833e+02   2.101187e+02
  -3.497888e+02  -1.143540e+02
  -7.743655e+01  -3.597685e+02
   1.403807e+02  -2.341518e+02
   1.211016e+02   1.533308e+02
  -5.130090e+01   2.829134e+02
  -2.845630e+02  -4.507478e+01
  -2.220308e+02  -5.259213e+02
   2.064823e+02  -5.381102e+02
   4.371571e+02  -2.812057e+01
   2.147180e+02   4.064574e+02
  -2.209167e+02   2.091414e+02
  -2.856320e+02  -2.834424e+02
   2.939200e+01  -4.117812e+02
   4.138057e+02  -1.379537e+02
   4.782935e+02   3.644396e+02
   1.559792e+02   4.767219e+02
  -3.041798e+02   3.162882e+02
  -4.746514e+02  -7.110228e+01
  -3.520046e+02  -2.864613e+02
   9.726717e+01  -2.944611e+02
   3.515927e+02  -2.863263e+01
   2.088433e+02   8.241033e+01
  -5.627502e+01   8.043396e+01
  -1.040333e+02  -8.510167e+01
   8.720359e+01  -1.238481e+02
   2.182310e+02   2.696786e-01
   1.315178e+02   2.157940e+02
  -9.850667e+01   2.049883e+02
  -2.630423e+02   1.228669e+02
  -2.008082e+02  -7.289501e+01
   4.297968e+01  -2.746414e+02
   2.244508e+02  -2.906518e+02
   2.687763e+02  -1.724587e+02
   2.585480e+02   1.237904e+02
   8.692750e+01   3.557621e+02
  -5.583012e+01   3.159426e+02
  -9.403967e+01   9.573320e+01
  -2.422955e+01   6.217794e+01
  -8.929308e+01   9.840234e+01
  -1.840595e+02   9.482550e+01
  -2.457007e+02  -3.749748e+01
  -1.304091e+02  -2.265547e+02
   5.551768e+01  -1.895807e+02
   1.772118e+02   1.455780e+01
   1.533543e+02   2.120128e+02
   2.055796e+01   2.454055e+02
  -2.265868e+02   1.241558e+02
  -2.490842e+02  -1.393846e+02
  -1.541225e+02  -3.219770e+02
   4.422492e+01  -2.556987e+02
   1.979766e+02  -1.549654e+02
   1.431147e+02  -6.361119e+01
   1.224509e+02  -2.683903e+01
   2.272273e+02  -3.507962e+01
   3.121973e+02   3.989651e+01
   3.110817e+02   2.766965e+02
   2.933352e+01   3.941139e+02
  -3.513422e+02   3.566051e+02
  -4.376827e+02   1.940267e+02
  -2.715916e+02  -7.322441e+01
  -3.275934e+01  -2.352700e+02
   1.036616e+02  -1.762427e+02
   7.721006e+01  -1.823105e+01
  -1.188098e+02   7.990867e+01
  -1.633479e+02  -3.834256e+01
  -4.739241e+01  -1.585046e+02
   1.054415e+02  -1.545445e+02
   1.293335e+02   4.861498e+01
  -1.138926e+01   1.278015e+02
  -1.244866e+02   4.171416e+01
  -1.374759e+02  -2.550919e+02
   2.147158e+01  -3.411427e+02
   2.333989e+02  -1.625518e+02
   2.728229e+02   3.177056e+00
   2.391126e+02   2.238084e+02
   7.737935e+01   2.180069e+02
  -7.915236e+01   1.565845e+02
  -7.883678e+01  -8.614253e+00
  -4.748774e+01  -3.434461e+01
   6.293543e+01   5.841089e+01
   2.746566e+01   4.738460e+01
  -1.386688e+02   9.236261e+01
  -1.616814e+02   8.470444e+00
  -8.708697e+00  -1.317407e+01
   6.342615e+01   1.840748e+01
   5.237127e+01   6.402417e+01
  -8.672365e+01   7.530334e+01
  -2.292005e+02  -4.401903e+01
  -2.345316e+02  -1.261523e+02
  -7.853588e+01  -1.769173e+02
   1.444877e+02  -2.289919e+02
   2.388266e+02  -1.091890e+02
   1.651122e+02   7.876053e+00
  -1.741124e+01   1.165569e+02
  -1.001072e+02   6.281466e+00
   3.418943e+01  -7.708525e+01
   1.669698e+02  -4.586134e+01
   1.505686e+02   9.191451e+01
   4.454164e+01   1.592630e+02
  -4.367469e+01   1.690621e+02
  -1.235242e+02   2.320494e+01
  -7.147918e+01  -4.086531e+01
   1.455230e+00   8.221544e+00
   4.163101e+01   6.497067e+01
  -1.012645e+02   1.284673e+02
  -1.444576e+02  -7.610749e-01
  -1.377094e+02  -6.663244e+01
  -4.482945e+01  -1.734529e+02
   1.297961e+02  -1.229314e+02
   1.527111e+02  -1.167848e+01
   7.185482e+01   7.452158e+01
  -8.596830e+01   1.063665e+02
  -6.102878e+01   2.837995e+01
  -2.541099e+01  -3.987413e+01
   1.133848e+01   1.421288e-01
   1.720453e+01   3.477249e+00
  -2.172213e+01  -8.475476e+00
  -1.913885e+01  -9.506863e+01
  -3.245783e+01  -1.585679e+02
   1.235709e+02  -1.669143e+02
   1.848992e+02  -3.164408e+01
   1.757529e+02   1.230811e+02
   2.245574e+01   1.872181e+02
  -9.311708e+01   1.366260e+02
  -9.931586e+01   4.374072e+00
  -8.303546e+01  -2.639366e+01
  -4.862085e+01  -2.657334e+01
  -4.059514e+01  -8.241754e+00
  -3.428321e+01   6.192864e+00
  -5.838228e+01  -5.257442e+01
   4.437054e+01  -1.195439e+02
   7.073892e+01  -6.396275e+01
   3.954846e+01   7.018514e+01
  -1.911744e+01   1.164693e+02
  -1.555529e+02   5.056131e+01
  -1.314117e+02  -2.605820e+01
  -8.283331e+01  -1.840856e+02
   5.475054e+01  -1.833060e+02
   2.061452e+02  -6.908282e+01
   2.042875e+02   8.262937e+01
   8.784737e+01   1.379626e+02
  -1.814566e+01   1.214426e+02
  -6.335004e+01   3.553644e+01
  -7.047109e+01   8.150595e+01
  -4.929487e+01   9.151903e+01
  -9.864234e+01   6.595550e+01
  -1.181340e+02  -2.028961e+00
  -8.206954e+01  -1.493276e+02
  -2.580014e+00  -1.756369e+02
   8.976668e+01  -1.591848e+02
   8.922704e+01  -6.207577e+01
   1.198451e+02   7.718649e+01
   1.525704e+01   1.412870e+02
  -5.804497e+01   8.680312e+01
   2.189883e+00  -1.380639e+01
  -3.910306e+01  -4.920386e+01
   5.568715e+01  -5.990601e+01
  -4.467590e+01  -2.846100e+01
  -7.085351e+01  -2.937976e+01
  -1.945127e+01  -7.192995e+01
   8.388877e+01  -8.616229e+00
   1.069953e+02   9.000055e+00
   1.184141e+02   5.838854e+01
   1.575779e+01   7.245301e+01
  -1.270491e+02   3.718765e+01
  -8.531410e+01  -1.191167e+01
  -4.698682e+01  -5.276993e+01
   7.612937e+01  -1.830590e+01
   3.226636e+01  -3.563103e+00
  -1.081002e+01   3.470787e+01
  -3.517525e+01   8.340935e+01
  -4.338236e+01   3.868582e+00
  -6.426656e+01  -4.144980e+01
  -5.653532e+01  -4.018472e+01
  -5.359400e+01   3.186864e+01
  -7.411884e+01  -1.343925e+01
  -3.736161e+01  -5.224703e+01
   6.345786e+01  -1.165208e+02
   1.001302e+02  -1.260684e+02
   1.363197e+02   3.778355e+01
   1.079242e+02   7.946390e+01
   7.519569e+00   1.021573e+02
  -5.706468e+01   6.359349e+01
  -3.701092e+01  -2.025794e+01
   3.219407e+01  -1.407843e+01
   1.123967e+02  -9.389109e+00
   6.722628e+01   6.727256e+01
  -9.350649e+01   1.198836e+02
  -1.681147e+02   3.242379e+01
  -1.553302e+02  -1.608083e+01
   5.172545e+00  -7.270523e+01
   3.943762e+01  -1.454780e+01
   6.885383e+01  -1.593554e+00
  -4.345686e+01   1.801435e+01
  -1.106070e+02   3.774480e+00
  -2.311934e+01  -1.281518e+02
   7.180799e+01  -1.314567e+02
   9.906647e+01  -4.813055e+01
   9.112947e+01   8.948285e+01
   1.358295e+01   1.986063e+02
  -5.197186e+01   1.171569e+02
  -1.049782e+02  -1.001983e+01
  -7.315034e+01  -8.690141e+01
  -2.305862e+00  -5.147732e+01
   7.327740e+01  -1.054967e+01
   2.212942e+01   8.393984e+00
   6.156567e+01   1.777509e+01
   1.088999e+01  -1.394385e+01
   2.298602e+00   1.731762e+01
   6.088304e+01   4.510650e+01
   2.178775e+01   9.971994e+01
  -5.531278e+01   6.149446e+01
  -1.452468e+02  -7.310206e+01
  -1.056723e+02  -1.341128e+02
  -7.159485e+01  -2.406487e+01
   7.500584e+01  -3.699147e+01
   3.294498e+01  -1.011630e-02
  -4.196613e+00   1.990794e+01
  -3.925293e+01  -1.729484e+00
  -5.355252e-01   2.614617e+01
   1.417929e+01  -1.047335e+01
  -1.689120e+01   3.066301e+00
  -3.746746e+01  -1.699306e+01
  -4.587035e+01  -3.025542e+01
   5.262586e+00  -6.345006e+01
   9.457733e+01  -1.245181e+02
   1.434667e+02  -5.303530e+01
   1.344500e+02   4.499663e+01
   2.437875e+01   1.561911e+02
  -4.247094e+01   1.677165e+02
  -1.087166e+02   7.909475e+01
  -8.606256e+01   2.699285e+01
  -8.380498e+00  -2.574313e+01
  -1.520206e+01   1.537927e+00
  -2.104541e+01   2.412817e+01
  -8.372973e+00  -3.595793e+01
  -3.620170e+01  -5.075443e+01
   2.398678e+01  -2.935167e+01
   5.955217e+01   1.477256e+01
   8.987062e+01   1.072271e+02
   1.448229e+01   1.096803e+02
  -7.988827e+01   3.542843e+01
  -9.001690e+01  -6.976986e+01
  -3.144294e+01  -8.117049e+01
   6.245026e+01  -1.705926e+01
   1.031855e+02   3.977291e+01
   4.111374e+01   8.248247e+01
  -2.301711e+01   5.762035e+01
   4.318462e+00   8.031529e-01
   1.220793e+01  -8.485944e+00
   8.843536e+01  -1.312388e+01
   5.005675e+01   1.282891e+01
  -2.872699e+01   7.403098e+01
  -1.267050e+02   5.897870e+01
  -5.878031e+01   2.243024e+01
   4.843251e+01  -7.716941e+01
  -1.019035e+01  -2.990201e+01
   5.229083e+01   6.083889e+00
  -2.515724e+01   4.910694e+01
  -3.126040e+01   1.270662e+01
  -4.435630e+01  -2.113858e+01
  -1.198337e+01  -7.193334e+01
  -1.111291e+01  -2.070153e+01
   3.654768e+01  -2.292168e+01
  -7.327222e-01  -7.248388e+00
   1.823635e+01  -3.830490e+00
   5.532543e+00  -6.752872e+01
  -3.148496e+00   3.707324e+01
   1.874834e+01   1.104789e+01
   2.200339e+00   2.217934e+01
   2.145391e+01   1.427092e+01
  -1.999720e+01  -4.656222e+01
   7.069390e+00  -5.649321e+01
   2.566097e+00  -1.538963e+01
   7.690719e+01   4.614427e+01
   4.440743e+01   5.925332e+01
  -6.558260e+00   1.286204e+01
  -1.296352e+02  -2.288468e+00
  -3.374048e+01   2.536658e-01
   2.147134e+01  -2.422335e+01
   5.445866e+01  -5.696653e+01
   4.110554e+01  -3.674177e+01
  -5.110902e+01   1.000853e+01
  -2.429129e+01  -4.304648e+01
   1.717060e+01  -4.390900e+01
   9.580989e+01   2.368545e+00
