
 $NMID
 id='ANONYMOUS ', fmtdat='(2E16.6)'
 volume=1.0
 tramp=1.0
 $END
  -3.063861e+03  -2.252308e+02
  -2.021058e+03  -1.475842e+03
   5.031042e+01  -1.955123e+03
   1.181992e+03  -1.256071e+03
   8.541239e+02  -3.568000e+02
   1.459132e+02   1.843023e+02
  -2.889172e+02  -6.697891e+01
  -1.144425e+01  -4.510496e+02
   4.721486e+02  -5.290701e+02
   5.551030e+02  -7.984723e+01
   3.837406e+02   4.605246e+02
   3.364606e+01   5.101189e+02
  -2.220839e+02   1.935493e+02
  -2.071291e+02  -3.198894e+02
   8.252580e+01  -4.707482e+02
   3.406362e+02  -5.945690e+01
   3.251310e+02   4.724038e+02
  -9.705432e+01   6.504954e+02
  -4.252134e+02   3.024620e+02
  -4.503308e+02  -1.346476e+02
  -1.351482e+02  -3.777415e+02
   1.128254e+02  -2.617130e+02
   8.600121e+01  -4.563908e+01
  -1.628204e+02  -1.236802e+02
  -2.721439e+02  -3.238404e+02
   1.073062e+02  -3.975526e+02
   5.106535e+02  -7.363272e+01
   5.546994e+02   2.526971e+02
   1.066869e+02   3.452835e+02
  -3.657312e+02   8.786260e+01
  -4.719228e+02  -1.872338e+02
  -1.787926e+02  -3.586324e+02
   2.641756e+02  -2.898564e+02
   4.368458e+02  -1.366807e+02
   2.943173e+02   1.859048e+02
   4.886045e+01   2.718833e+02
  -2.903036e+00   1.385861e+02
   8.771112e+01  -9.735860e+01
   2.277291e+02  -7.106139e+01
   1.840548e+02   1.901584e+02
  -6.583711e+01   4.554059e+02
  -2.482975e+02   3.851331e+02
  -3.029856e+02  -1.321439e+00
  -7.885133e+01  -3.159138e+02
   1.254303e+02  -1.183453e+02
   1.055318e+02   2.620890e+02
  -1.574722e+02   3.735723e+02
  -4.271744e+02   5.834576e+01
  -4.537928e+02  -4.076505e+02
  -1.525865e+02  -4.927588e+02
   2.904612e+02  -2.520110e+02
   4.667928e+02   8.233425e+01
   3.113422e+02   2.485759e+02
  -3.248479e+01   2.237255e+02
  -2.862506e+02   7.240563e+01
  -2.028844e+02   3.179299e+00
  -1.009667e+01   1.768609e+01
   3.359476e+01   5.127144e+01
  -5.885767e+01  -1.740693e+00
  -2.016320e+02  -7.206278e-01
  -1.457398e+02  -1.761072e+02
   1.476654e+02  -2.160081e+02
   3.149900e+02  -1.561203e+02
   2.577765e+02   7.325257e+01
  -5.809651e+00   3.498314e+02
  -3.467885e+02   3.547577e+02
  -3.984271e+02   1.200390e+02
  -2.333917e+02  -2.090443e+02
  -3.300232e+01  -3.343972e+02
   1.524065e+01  -3.338738e+02
  -5.584768e+00  -2.095295e+02
   2.518431e+01  -1.320974e+02
   1.627029e+02  -1.369901e+02
   2.855184e+02  -3.960402e+01
   2.003126e+02   1.623202e+02
   6.922975e+01   3.167231e+02
  -1.181853e+02   1.838989e+02
  -2.027406e+02  -7.387106e+01
  -1.153132e+02  -2.438377e+02
   5.337121e+01  -2.369686e+02
   2.737405e+02  -4.375443e+01
   3.411045e+02   1.751501e+02
   1.701515e+02   2.703762e+02
  -5.265223e+01   2.357298e+02
  -1.353264e+02   1.598427e+02
  -1.954123e+02   5.375857e+01
  -1.638243e+02   9.043694e+01
  -2.673218e+02   3.388310e+01
  -4.203717e+02  -8.944771e+01
  -3.269800e+02  -3.463588e+02
   3.688654e+01  -4.586939e+02
   4.403314e+02  -3.697447e+02
   5.007422e+02  -1.384970e+02
   2.609705e+02   1.536090e+02
   3.485175e+00   2.131725e+02
  -9.455697e+01   1.504580e+02
  -2.206081e+01   2.995354e+01
   1.639038e+02  -1.345849e+01
   1.361785e+02   1.746577e+01
  -4.252525e+01   1.073283e+02
  -1.586718e+02   5.299182e+01
  -1.188750e+02  -5.671568e+01
   1.775197e+01  -1.249651e+02
   1.706068e+02   1.907219e+01
   1.448173e+02   2.616693e+02
  -8.028343e+01   3.638701e+02
  -2.561175e+02   1.812459e+02
  -3.707508e+02  -1.046600e+02
  -2.552490e+02  -3.062102e+02
  -4.653856e+01  -2.548248e+02
   1.423031e+02  -1.209925e+02
   1.207684e+02   6.003607e+01
   3.257461e+01   2.431743e+01
  -2.757357e+01  -4.642500e+01
   3.051233e+01  -7.603293e+01
   1.448604e+02  -1.003458e+01
   1.172669e+02   5.216120e+01
   2.217583e+01   4.617831e+01
  -1.129361e+02  -2.123328e+01
  -5.089076e+01  -8.832215e+01
   1.899797e+02  -8.982731e+01
   2.986089e+02   5.199396e+01
   2.541489e+02   2.057728e+02
   2.490373e+01   2.285474e+02
  -2.494528e+02   2.181983e+02
  -2.265032e+02   7.804084e+01
  -1.554900e+02  -7.309549e+01
   5.504203e+01  -5.785936e+01
   4.587070e+01   3.780192e+01
  -4.832256e+01   9.959328e+01
  -1.660077e+02  -7.195509e+00
  -1.892079e+02  -1.500050e+02
  -4.703684e+01  -1.744231e+02
   1.084789e+02  -1.346123e+02
   1.083663e+02   2.570259e+00
   1.494973e+01   2.851585e+01
  -9.615086e+01  -3.214022e+01
   1.737598e+00  -9.373262e+01
   9.717381e+01  -1.211051e+02
   2.292337e+02   1.769528e+01
   1.697250e+02   1.393899e+02
  -4.282549e+01   1.964936e+02
  -1.729507e+02   1.439944e+02
  -1.522331e+02  -2.283984e+01
  -7.168280e+00  -8.835959e+01
   9.223116e+01  -8.168174e+01
   6.613130e+01  -2.698772e+01
  -5.404740e+01  -3.584095e+00
  -6.919530e+01  -2.421284e+01
   3.812841e-01  -3.071322e+01
   9.666779e+01  -2.427502e+00
   8.409091e+01   1.247859e+02
  -2.874927e+01   1.748147e+02
  -1.521035e+02   1.453437e+02
  -2.133931e+02  -2.244063e+01
  -1.537764e+02  -2.262521e+02
  -9.526826e+00  -2.307871e+02
   1.067239e+02  -1.133063e+02
   1.379367e+02   4.137469e-01
   4.868823e+01   5.532548e+01
   8.491010e-01   4.962947e+01
   8.852707e+01  -2.592038e+01
   7.705445e+01  -2.877032e+01
   6.133854e+01   8.430277e+01
  -5.363233e+01   9.872092e+01
  -1.071769e+02   4.887488e+01
  -9.045746e+01  -6.470576e+01
   2.812084e+01  -1.364812e+02
   1.861403e+02  -6.564538e+01
   2.371686e+02   6.581426e+01
   5.483951e+01   2.255444e+02
  -1.441809e+02   2.353829e+02
  -2.851218e+02   6.489142e+01
  -2.208888e+02  -9.828064e+01
  -6.905986e+01  -1.468037e+02
   1.632633e+01  -1.611385e+02
   8.146789e+01  -3.323620e+01
   8.900307e+01  -6.332085e+01
   4.460047e+01  -1.125005e+02
   1.235028e+02  -9.752863e+01
   1.055234e+02   3.769469e+01
   1.048489e+02   1.485268e+02
   3.519497e+01   2.082107e+02
  -9.825433e+01   1.728172e+02
  -1.562487e+02   1.920697e+01
  -1.189867e+02  -1.188640e+02
   6.208507e+00  -1.543215e+02
   1.076398e+02  -8.124595e+01
   9.878649e+01  -4.957278e+00
  -1.449999e+01   2.144186e+01
   9.761366e+00   3.910362e+01
   1.111460e+01  -9.756733e+00
   8.126109e+01   1.475970e+01
   8.016358e+01   5.879713e+01
  -6.892261e+01   7.121778e+01
  -1.722269e+02   6.542244e-01
  -1.366647e+02  -8.008243e+01
  -4.495356e+01  -1.104752e+02
   1.364440e+02  -1.062523e+02
   1.591038e+02  -2.607438e+01
   7.796883e+01   6.045053e+01
  -3.125745e+01   5.881582e+01
  -1.125959e+02  -1.043224e+01
  -5.937874e+01  -1.208067e+02
   8.652440e+01  -5.509160e+01
   8.978233e+01  -1.875604e+01
   4.598663e+01   6.555799e+01
   5.326825e+01   3.293763e+01
   5.217687e+01  -3.470248e+01
   6.267917e+01   1.026618e-01
   1.270310e+01   7.040528e+01
  -1.734931e+01   1.490647e+02
  -1.372993e+02   1.408944e+02
  -1.689038e+02   3.475267e+01
  -1.282295e+02  -1.020240e+02
  -1.043656e+01  -1.163250e+02
   8.882153e+01  -8.394353e+01
   7.794456e+01   2.760633e+01
  -2.390370e+01  -5.642710e+00
  -1.259485e+02  -6.829733e+01
  -5.803006e+01  -1.015839e+02
   9.360736e+01  -1.211851e+02
   2.154271e+02  -3.347837e+01
   1.825925e+02   5.492599e+01
   6.523687e+01   3.931000e+01
  -5.187140e+01   3.920536e+01
  -7.903884e+01   1.419243e+00
   3.167139e+01  -4.793885e+01
   1.054920e+02   1.756778e+01
   2.350820e+01   1.221620e+02
  -8.631605e+01   1.590429e+02
  -1.554061e+02  -1.042954e+01
  -1.198413e+02  -1.124803e+02
  -1.664703e+01  -1.435467e+02
   9.020954e+01  -1.347094e+02
   1.018505e+02  -2.990072e+01
   2.394179e+01   1.303706e+02
  -3.902991e+01   7.876608e+01
  -8.831212e+01  -3.778353e+00
  -9.218726e+01  -6.912397e+01
  -3.889282e+00  -4.507818e+01
  -2.741935e+01   3.815667e+01
  -3.861679e+01  -3.066762e+01
  -7.062313e+01  -8.917644e+01
  -4.029875e+01  -1.091612e+02
   5.769959e+01  -5.389036e+01
   1.274544e+02   3.151097e+01
   1.371451e+02   1.019275e+02
  -7.073516e-01   9.063241e+01
  -1.054057e+02  -2.877077e+01
  -6.426833e+01  -2.536002e+01
  -2.118861e+01  -3.091185e+01
   5.373651e+01  -2.564476e+01
   3.343617e+01  -3.229963e+01
  -6.931363e+00  -1.510373e+01
   4.298456e+00   1.410367e+01
   5.767929e+01   3.423142e+01
   7.382089e+01   4.749476e+01
  -1.879665e+00   7.138684e+01
  -6.495529e+01   1.241516e+02
  -1.912477e+02   5.611787e+01
  -1.239480e+02  -6.530428e+01
   1.336354e-01  -1.806133e+02
   9.505177e+01  -1.129529e+02
   8.716455e+01  -7.313726e+01
   1.465572e+02   1.118099e+01
   4.983166e+01   6.377743e+01
   5.024982e+00  -9.070484e+00
   7.286703e+00  -2.035226e+01
   5.030932e+01   3.344737e+01
   4.715892e+01   1.114306e+02
  -2.955520e+01   7.475077e+01
  -7.626638e+01  -2.232297e+01
  -5.254874e+01  -1.361558e+02
  -3.266375e+01  -1.399955e+02
   8.609639e+01  -2.193364e+01
   9.038592e+01   3.787362e+01
   2.476975e+01   9.014669e+01
  -7.251882e+01   8.182826e+01
  -1.163060e+02   3.375685e+00
  -5.027943e+01  -6.681192e+01
  -3.116454e-01  -3.934643e+01
   5.875855e+01  -4.337435e+00
  -3.445002e+01  -2.699895e+01
  -5.297924e+01   1.897695e+01
  -5.263933e+01  -2.159288e+01
   6.710216e+01  -5.422104e+01
   6.528144e+01  -1.295832e+00
   8.192862e+01  -3.813039e+01
  -2.738681e+01   7.672267e+01
  -7.809897e+01   7.271584e+01
  -3.948730e+01   5.392054e+01
  -7.398681e+00  -3.141196e+01
   2.330079e+01  -6.327794e+01
   4.708498e+01  -3.975350e+00
  -7.269846e-01   6.372129e+01
  -4.665932e+00   6.095785e+01
  -4.170601e+01   1.111888e+01
  -6.734477e+01  -3.179490e+01
  -5.374698e+01  -2.920579e+00
  -1.029975e+01   2.360920e+00
   5.169562e+01   1.834923e+01
  -2.072610e+01  -3.670373e+01
   1.711065e+00  -7.226667e+01
   8.583850e+01  -1.903678e+01
   3.221465e+01   5.345736e+01
  -1.920140e+01   5.562588e+01
  -4.034074e+01  -1.315912e+00
  -5.864983e+01  -7.314980e+01
  -9.387616e+00  -3.409297e+01
   6.586464e+01  -6.005898e+01
   1.145724e+02   1.748946e+01
   5.546953e+01   3.638726e+01
  -7.021637e+00   2.665993e+01
  -4.939738e+01   4.137000e+01
  -2.130274e+01  -1.094918e+01
   4.629002e+01  -3.580018e+01
   7.343430e-01   5.073056e+01
   4.030828e-01   3.227879e+01
  -1.082479e+02   4.685363e+00
