
 $NMID
 id='ANONYMOUS ', fmtdat='(2E16.6)'
 volume=1.0
 tramp=1.0
 $END
   4.594847e+03  -2.921252e+02
   2.630698e+03   2.697183e+03
  -8.816644e+02   2.984307e+03
  -2.287149e+03   8.471835e+02
  -9.231301e+02  -7.902216e+02
   7.935936e+02  -5.192525e+02
   8.564627e+02   4.837207e+02
  -5.210803e+01   1.272817e+03
  -8.090828e+02   8.106481e+02
  -9.996286e+02  -1.436845e+02
  -4.532909e+02  -9.654163e+02
   3.110481e+02  -8.820908e+02
   6.492073e+02  -1.343670e+02
   4.077377e+02   7.823932e+02
  -2.782684e+02   8.124773e+02
  -6.683438e+02  -4.714124e+01
  -2.992990e+02  -7.502305e+02
   2.935391e+02  -6.953936e+02
   6.657400e+02  -8.675409e+01
   4.300214e+02   4.000191e+02
  -2.327459e+01   4.445592e+02
  -2.763656e+02   2.716516e+02
  -2.669753e+02  -2.581404e+01
   1.000955e+02  -1.414117e+02
   3.868795e+02   1.280808e+02
   1.985574e+02   4.467098e+02
  -5.126855e+02   4.507008e+02
  -9.212635e+02  -1.368874e+02
  -4.648461e+02  -5.867352e+02
   4.548027e+02  -4.688409e+02
   8.585408e+02   3.513611e+01
   3.494802e+02   5.265088e+02
  -3.250256e+02   5.292594e+02
  -6.354068e+02   2.091282e+02
  -4.313697e+02  -2.770041e+02
  -3.900152e+01  -5.182341e+02
   2.673017e+02  -2.368759e+02
   1.726426e+02   2.328901e+02
  -2.000522e+02   4.394256e+02
  -4.882606e+02  -9.486449e+01
  -2.045546e+02  -7.339004e+02
   3.585984e+02  -6.959774e+02
   6.368834e+02  -3.824326e+01
   2.434532e+02   6.101773e+02
  -3.589775e+02   3.263856e+02
  -3.952772e+02  -2.992189e+02
   8.550556e+01  -5.896323e+02
   5.928283e+02  -1.547397e+02
   6.269298e+02   4.431300e+02
   1.313633e+02   5.992882e+02
  -4.308976e+02   3.708015e+02
  -6.451665e+02  -5.843570e+01
  -4.039620e+02  -4.047032e+02
   1.411212e+02  -3.603203e+02
   4.854111e+02  -3.729908e+01
   2.300067e+02   2.209415e+02
  -1.270626e+02   1.527589e+02
  -1.350082e+02  -1.924363e+02
   1.780582e+02  -1.975914e+02
   3.695816e+02   6.601436e+01
   1.688341e+02   3.051852e+02
  -2.126448e+02   2.698346e+02
  -3.597099e+02   4.318684e+01
  -1.927418e+02  -7.182641e+01
   4.980820e+01  -2.561325e+02
   2.424446e+02  -3.160075e+02
   3.067448e+02  -2.212859e+02
   2.924660e+02   1.424969e+02
   8.970398e+01   4.672498e+02
  -1.337378e+02   3.875847e+02
  -1.154728e+02   1.561544e+02
  -3.604638e+01  -1.965474e+01
  -5.289725e+01   6.770435e+01
  -2.252966e+02   1.534306e+02
  -2.846959e+02  -5.656889e+01
  -1.352759e+02  -2.899771e+02
   6.827944e+01  -2.679270e+02
   2.512542e+02  -1.976932e+01
   2.226785e+02   2.708512e+02
  -1.081312e+01   3.039555e+02
  -2.831465e+02   1.328605e+02
  -3.830390e+02  -1.557091e+02
  -1.809639e+02  -3.576616e+02
   1.211064e+02  -3.234551e+02
   1.880635e+02  -1.272866e+02
   1.880561e+02  -1.901464e+00
   1.013340e+02  -2.360187e+01
   2.542286e+02  -7.177440e+01
   4.453104e+02   4.235154e+01
   3.089344e+02   3.205360e+02
   1.583442e+00   4.832130e+02
  -3.941373e+02   4.386959e+02
  -4.861936e+02   2.043977e+02
  -3.802463e+02  -6.507872e+01
  -4.247696e+01  -3.022830e+02
   1.397715e+02  -2.722836e+02
   6.339404e+01  -1.310340e+01
  -1.388496e+02   8.820589e+01
  -2.008012e+02  -3.105554e+01
  -7.755961e+01  -2.193294e+02
   2.013023e+02  -2.098172e+02
   1.680083e+02   8.128086e+01
  -5.190123e+01   2.086166e+02
  -2.021267e+02   2.281264e+01
  -1.746635e+02  -2.692234e+02
   7.975763e+01  -3.635828e+02
   2.621612e+02  -1.452842e+02
   3.373118e+02   7.311079e+01
   2.688585e+02   2.624122e+02
   9.432036e+01   2.334866e+02
  -1.188118e+02   1.401783e+02
  -1.551170e+02  -3.153520e+01
  -5.554540e+01  -1.642287e+01
   5.976580e+01   2.009800e+01
   3.424599e+01   1.297528e+02
  -1.347410e+02   1.495987e+02
  -1.680167e+02  -1.441049e+01
  -9.086290e+01  -9.802326e+01
   7.546076e+01  -2.158761e+01
   6.013242e+01   7.860630e+01
  -9.726165e+01   1.152992e+02
  -2.788932e+02  -3.680416e+00
  -2.520046e+02  -1.732374e+02
  -4.752226e+01  -2.508922e+02
   1.272496e+02  -3.001384e+02
   2.670245e+02  -1.192317e+02
   1.763615e+02   6.983439e+01
   2.338783e+01   1.232991e+02
  -9.849317e+01  -1.723795e+01
   5.968707e+01  -1.379577e+02
   2.239674e+02  -5.975003e+01
   2.295124e+02   1.081342e+02
   6.369614e+01   2.304542e+02
  -1.104369e+02   1.740853e+02
  -1.308120e+02   3.732330e+01
  -6.754971e+01  -3.181730e+01
   3.107596e+01  -2.185577e+01
   5.954908e+01   5.907664e+01
  -4.276537e+01   1.150773e+02
  -2.062479e+02   1.480905e+01
  -2.166580e+02  -1.434810e+02
  -1.347404e+01  -2.543404e+02
   1.906438e+02  -2.049839e+02
   1.806147e+02  -1.750351e+01
   2.324539e+01   9.082603e+01
  -3.611262e+01   1.563711e+02
  -9.280426e+01   3.030982e+01
  -4.309512e+01   1.547856e+01
   6.287902e+00  -2.247254e+01
   1.070902e+01   7.734089e+00
  -6.073158e+01  -1.929982e+01
  -9.256837e+01  -7.313182e+01
  -2.303319e+01  -1.559132e+02
   1.654559e+02  -1.654470e+02
   2.486277e+02  -5.450613e+01
   1.952100e+02   1.517466e+02
   2.437630e+01   2.798683e+02
  -1.263535e+02   1.471212e+02
  -1.498066e+02   4.640484e+01
  -5.266657e+01  -5.405680e+01
  -4.688110e+01  -5.142843e+01
  -9.221952e+01   4.481916e+00
  -8.783867e+01  -1.530911e+01
  -3.233738e+01  -6.980766e+01
   3.459662e+01  -6.931018e+01
   1.091102e+02  -5.522898e+01
   9.682950e+01   8.542599e+01
  -3.002478e+00   1.093782e+02
  -1.592054e+02   9.291604e+01
  -1.946236e+02  -6.690446e+01
  -7.713816e+01  -2.373816e+02
   1.177957e+02  -1.993896e+02
   2.696407e+02  -9.199930e+01
   2.496222e+02   1.187387e+02
   6.152053e+01   2.032418e+02
  -5.623718e+01   1.754331e+02
  -1.009336e+02   1.112444e+02
  -6.742995e+01   8.607966e+01
  -7.874771e+01   7.189832e+01
  -1.080450e+02   8.488290e+01
  -1.772830e+02  -3.421573e+01
  -1.321691e+02  -1.656584e+02
  -4.982975e+01  -2.510587e+02
   1.137759e+02  -1.779261e+02
   1.886329e+02  -2.335227e+01
   1.486382e+02   1.064815e+02
   5.277221e+01   1.727240e+02
  -5.907576e+01   9.873368e+01
  -4.158285e+01  -1.034655e+01
  -2.401250e+01  -5.416929e+01
   2.095122e+01  -4.705180e+01
  -5.787215e+01  -3.624289e+01
  -6.516285e+01  -1.449674e+01
  -7.747896e+01  -4.591684e+01
   5.171953e+01  -5.003230e+01
   1.374027e+02  -1.662333e+01
   1.527013e+02   4.814128e+01
  -3.389587e+00   7.288029e+01
  -1.357284e+02   6.417694e+01
  -1.377921e+02   7.968212e+00
  -3.009488e+01  -1.573062e+01
   6.847136e+01  -3.770555e+01
   9.940627e+01   4.432279e+01
   1.138377e+01   5.231403e+01
  -3.315725e+01   5.700265e+01
  -5.257813e+01   4.160943e+01
  -1.322119e+01  -5.381107e+01
  -1.314983e+01  -8.342842e+01
  -6.731005e+01   3.395277e+01
  -6.625437e+01   7.929007e+00
  -3.579958e+01  -6.720067e+01
   2.796307e+01  -1.150477e+02
   1.081572e+02  -1.349398e+02
   1.506560e+02  -4.486810e+01
   1.370776e+02   9.675810e+01
  -2.855162e+01   1.392006e+02
  -1.047249e+02   6.003663e+01
  -6.766788e+01  -4.811463e+01
   5.504447e+01  -9.415043e+00
   9.391692e+01   1.781140e+01
   2.782964e+01   1.303794e+02
  -9.219627e+01   7.987591e+01
  -2.061904e+02   7.454369e+01
  -1.499962e+02  -2.155358e+01
  -2.801116e+01  -8.668423e+01
   3.946224e+01  -6.327247e+01
   2.926752e+01  -2.825334e+00
  -3.061395e+01   4.738554e-02
  -6.971324e+01  -4.840738e+01
  -5.253605e+01  -1.497640e+02
   1.305445e+02  -1.895879e+02
   1.492151e+02  -7.140189e+00
   1.286923e+02   5.504572e+01
   2.158245e+01   1.452298e+02
  -8.083210e+01   1.357780e+02
  -9.355931e+01   2.630115e+01
  -9.025225e+01  -8.726166e+01
   8.709488e+00  -9.326400e+01
   2.885281e+01  -3.324639e+01
   4.970878e+01  -2.122252e+01
   4.420245e+01  -3.431059e+01
   5.179218e+01  -2.530051e+01
   3.061830e+01   3.516652e+01
   5.816651e+01   7.964027e+01
   2.309429e+01   1.218183e+02
  -4.949765e+01   6.893616e+01
  -1.224205e+02  -6.679904e+01
  -1.167587e+02  -7.027389e+01
  -2.421643e+01  -4.177275e+01
   4.602557e+01  -6.732629e+01
   7.706600e+01  -4.328566e+00
   1.399699e+01   2.523552e+01
  -3.649409e+01   4.064611e+01
  -1.725158e+01   1.801556e+01
   2.034585e+01   2.344582e+01
   1.403235e+01  -2.163683e+01
  -9.529050e+01   2.419064e+01
  -1.177560e+02  -7.433976e+00
  -4.215166e+00  -1.013715e+02
   1.065095e+02  -5.792686e+01
   1.622323e+02  -6.701182e+01
   1.805603e+02   8.374143e+01
  -1.844721e+01   1.628081e+02
  -1.108388e+02   1.230591e+02
  -1.147893e+02   7.735091e+01
  -8.156165e+01  -5.619846e+01
  -2.882244e+01  -6.780178e+01
   1.582207e+01  -2.146077e+01
   2.104206e+01  -8.683803e+00
  -2.505108e+01  -3.762917e+01
  -4.540466e+01  -5.527769e+01
   1.072622e+01  -1.012505e+02
   4.786744e+01   3.998442e+01
   1.128964e+02   8.722847e+01
   2.227809e+01   1.426196e+02
  -9.432355e+01   2.632201e+01
  -9.086106e+01  -9.326038e+01
  -2.383312e+01  -1.105143e+02
   6.068548e+01  -5.151930e+01
   9.946029e+01   4.282238e+00
   3.583418e+01   4.156939e+01
  -8.771343e+00   6.364006e+01
   8.126182e+00   1.539875e+01
   5.049472e+01  -1.598781e+01
   3.646036e+01  -1.363854e+01
   1.963335e+01  -2.002734e+01
  -6.037176e+01   6.687284e+01
  -8.878681e+01   3.654823e+01
  -2.725458e+01  -3.357490e+01
   1.075604e+01  -8.177443e+01
   6.219022e+01  -7.100911e+01
   6.036335e+01  -3.719987e+00
   9.801063e+00   4.741379e+01
   1.588183e+01   2.824430e+01
  -1.392271e+01  -1.866629e+01
   1.115089e+01  -3.658112e+01
   3.391086e+01  -5.603251e+01
   5.589939e+01   2.701994e+01
   3.852675e+01   4.321820e+01
   4.514713e+01  -2.703101e+01
   3.958827e+00  -2.573124e+00
   6.011152e+00   5.864957e+00
  -4.873309e+00   2.436977e+01
  -1.865313e+00   1.909950e+01
  -5.010790e+01  -1.595054e+01
  -3.557298e+01  -4.086170e+01
   3.624308e+01  -2.103764e+01
   7.631544e+00  -2.718749e+01
   5.443475e+01   5.050681e+01
   2.458864e+01   6.079552e+01
  -6.626008e+01   2.604403e+01
  -8.100501e+01  -5.617621e+00
  -4.500332e+01  -6.300763e+01
   5.029792e+01  -3.515054e+01
   8.371004e+01  -1.385020e+01
   1.023625e+01  -5.154288e+00
  -5.070093e+01   1.964259e+01
  -5.936642e+01  -2.885659e+01
   3.995427e+01  -6.795568e+01
   1.125801e+02  -5.782573e+01
