
 $NMID
 id='ANONYMOUS ', fmtdat='(2E16.6)'
 volume=1.0
 tramp=1.0
 $END
   3.865429e+03  -1.106326e+02
   2.253334e+03   2.261205e+03
  -2.894400e+02   2.602015e+03
  -1.733922e+03   9.635811e+02
  -9.961725e+02  -3.053285e+02
   4.299176e+02  -3.736699e+02
   7.828583e+02   3.651410e+02
  -1.183285e+02   7.947412e+02
  -6.782680e+02   6.659695e+02
  -8.005046e+02   8.767105e+00
  -4.012612e+02  -6.940063e+02
   1.199042e+02  -7.833827e+02
   4.957971e+02  -1.485569e+02
   3.162869e+02   5.799056e+02
  -2.194043e+02   6.329126e+02
  -5.008539e+02   2.543751e+01
  -2.682311e+02  -5.940015e+02
   2.889141e+02  -5.838279e+02
   5.079198e+02  -1.727228e+02
   4.040050e+02   3.042773e+02
   6.633019e+01   3.623199e+02
  -1.177623e+02   2.403409e+02
  -1.298117e+02   3.507916e+01
   1.108529e+02   2.010577e+01
   3.960126e+02   1.664430e+02
   1.226502e+02   4.399035e+02
  -5.063644e+02   3.116948e+02
  -7.456687e+02  -1.634524e+02
  -3.548117e+02  -4.292165e+02
   3.639069e+02  -3.942229e+02
   6.060676e+02   1.466656e+02
   2.556013e+02   4.458402e+02
  -2.491625e+02   4.295918e+02
  -4.995447e+02   1.755142e+02
  -3.560326e+02  -1.799894e+02
  -4.027816e+01  -4.001649e+02
   1.295228e+02  -2.415345e+02
   6.345218e+01   1.908349e+02
  -2.113307e+02   3.605346e+02
  -3.222849e+02  -8.603575e+01
  -1.447633e+02  -5.803273e+02
   3.068693e+02  -6.690971e+02
   5.133884e+02   2.864194e+01
   1.541144e+02   4.858127e+02
  -1.947151e+02   2.370532e+02
  -2.384531e+02  -3.061856e+02
   1.624758e+02  -5.011793e+02
   5.296232e+02  -7.710658e+01
   5.773308e+02   4.011542e+02
   1.326195e+02   5.526557e+02
  -3.403514e+02   3.212280e+02
  -5.822339e+02  -3.107046e+01
  -3.364130e+02  -3.191312e+02
   1.063426e+02  -3.302511e+02
   3.794289e+02  -8.337222e+01
   2.260549e+02   1.058461e+02
  -4.044695e+01   6.519058e+01
  -8.854442e+01  -6.957370e+01
   1.353967e+02  -1.832947e+02
   2.897846e+02   4.583925e+01
   1.784043e+02   2.464117e+02
  -1.673047e+02   2.294410e+02
  -3.401831e+02   1.229823e+02
  -2.316346e+02  -9.044628e+01
   5.743071e+01  -2.379310e+02
   2.089058e+02  -3.120148e+02
   3.301806e+02  -2.203382e+02
   2.750100e+02   1.781133e+02
   5.540567e+01   4.005425e+02
  -2.396637e+01   3.622666e+02
  -9.520128e+01   1.698843e+02
  -3.926052e+01   3.319095e+01
  -8.935336e+01   9.605937e+01
  -2.201677e+02   1.068922e+02
  -2.509656e+02  -4.756936e+01
  -1.124909e+02  -2.537194e+02
   7.125410e+01  -2.528304e+02
   2.335152e+02   2.254937e+01
   1.166966e+02   2.318408e+02
  -4.307159e+01   2.764558e+02
  -2.615700e+02   8.692841e+01
  -3.460572e+02  -2.051924e+02
  -1.978244e+02  -3.356887e+02
   7.678362e+01  -2.862560e+02
   2.039160e+02  -1.233323e+02
   1.351246e+02  -3.197102e+01
   1.471144e+02  -5.458599e+01
   2.223560e+02  -1.948262e+01
   3.997537e+02   3.012242e+01
   3.661957e+02   2.759585e+02
  -3.623568e+01   4.313235e+02
  -3.391077e+02   3.937419e+02
  -4.879948e+02   1.631440e+02
  -2.937475e+02  -9.505817e+01
  -3.059238e+01  -3.033288e+02
   1.093634e+02  -2.020372e+02
   4.300548e+01  -3.090015e+01
  -1.522165e+02   1.039993e+02
  -1.688785e+02   2.121137e+01
  -6.672599e+00  -1.469567e+02
   1.309376e+02  -1.443122e+02
   1.691866e+02   2.545362e+01
  -2.243163e+01   1.536047e+02
  -1.605107e+02   1.315078e+01
  -1.094326e+02  -2.649218e+02
   3.422974e+01  -3.359416e+02
   2.086728e+02  -2.026203e+02
   3.589935e+02   2.549588e+01
   3.105319e+02   3.041041e+02
   5.597971e+01   2.592189e+02
  -9.873707e+01   1.437463e+02
  -1.834274e+02   5.607631e+00
   7.854225e+00  -3.414834e+01
   6.853549e+01   6.644150e+01
   2.536827e+01   1.090006e+02
  -1.266910e+02   7.852368e+01
  -1.562766e+02  -2.875897e+01
  -4.500609e+01  -5.755498e+01
   9.210860e+01  -3.333310e+01
   7.562362e+01   7.970953e+01
  -1.141617e+02   8.725247e+01
  -2.788834e+02   7.274233e+00
  -2.450375e+02  -1.765718e+02
  -4.657774e+01  -2.675010e+02
   2.478922e+02  -2.733518e+02
   2.322619e+02  -1.217834e+02
   1.513658e+02   7.383499e+01
  -1.861733e+01   7.016447e+01
  -6.453664e+01  -7.280128e+00
   4.401381e+01  -9.317464e+01
   1.719575e+02  -5.916539e+01
   1.746340e+02   4.918854e+01
   9.037048e+01   1.546879e+02
  -7.710703e+01   1.463107e+02
  -1.514005e+02   3.112043e+01
  -3.587248e+01  -2.873587e+01
   2.356340e+01  -6.664806e+00
   2.428599e+01   7.620485e+01
  -1.256203e+02   1.287771e+02
  -2.320469e+02   1.462132e+01
  -1.886212e+02  -1.500836e+02
  -5.445117e+00  -2.303898e+02
   1.288998e+02  -1.453035e+02
   2.020709e+02  -3.037755e+01
   1.333523e+01   7.214719e+01
  -4.890573e+01   7.891830e+01
  -7.668781e+01   2.494352e+01
   6.658802e-01  -3.219573e+01
  -2.541290e+00   7.739708e+00
   1.073767e+01   7.239179e+00
  -9.296076e+01  -2.309320e+01
  -8.219950e+01  -8.521538e+01
  -5.003537e+00  -2.013657e+02
   1.327597e+02  -1.305333e+02
   2.720386e+02  -7.294123e+00
   2.289319e+02   1.805580e+02
   5.347763e+01   1.937456e+02
  -8.887797e+01   1.612278e+02
  -1.158567e+02   1.811850e+01
  -1.179081e+02  -5.035187e+00
  -5.000961e+00  -1.399730e+01
  -4.257593e+01   1.881987e+01
  -9.209044e+01  -2.964467e+00
  -2.468988e+01  -6.278884e+01
   5.750901e+01  -1.053180e+02
   1.258043e+02  -4.420839e+01
   8.054419e+01   2.822110e+01
  -3.728204e+01   1.156399e+02
  -1.407195e+02   1.062050e+02
  -2.057889e+02  -3.029045e+01
  -7.999557e+01  -1.981393e+02
   1.667172e+02  -1.933524e+02
   2.588193e+02  -8.820010e+01
   2.398808e+02   8.639959e+01
   9.479762e+01   1.979026e+02
  -8.155689e+00   1.647144e+02
  -1.034614e+02   7.789196e+01
  -7.489787e+01   4.814449e+01
  -9.129725e+01   6.001912e+01
  -9.299898e+01   1.070032e+02
  -1.234960e+02  -9.440426e+00
  -7.194111e+01  -1.519291e+02
  -6.939106e+01  -2.508240e+02
   8.136378e+01  -1.809363e+02
   1.657524e+02  -6.530030e+01
   1.054574e+02   1.069213e+02
  -2.245796e+01   1.717503e+02
  -6.827216e+01   8.083908e+01
  -6.146817e+01   1.546603e+01
  -4.393991e+01  -7.813028e+01
  -4.027592e+00  -1.962801e+01
  -1.811255e+01   1.033616e+00
  -1.064084e+02  -9.449666e+00
  -2.141401e+01  -3.323092e+01
   3.560053e+01  -7.191360e+01
   1.631924e+02  -6.614264e+00
   1.525729e+02   2.296859e+01
  -7.212411e-01   7.385599e+01
  -1.263448e+02   6.236509e+01
  -1.493682e+02   4.383137e+01
  -4.699471e+01  -1.420113e+01
   9.021335e+01  -5.624535e+01
   1.206907e+02   1.134439e+01
   7.849478e+00   9.181043e+01
  -6.758601e+01   8.067003e+01
  -8.684995e+01   6.383214e+01
  -4.165107e+01  -5.168423e+01
  -4.860561e+01  -3.351148e+01
  -8.170024e+00   8.711173e+00
  -2.090705e+01   2.560170e+01
  -3.971581e+01  -5.553067e+01
   2.949926e+01  -1.731320e+02
   1.231508e+02  -1.365479e+02
   1.716394e+02  -3.329835e+01
   1.338995e+02   8.603194e+01
   2.869734e+01   1.401217e+02
  -6.541810e+01   7.933788e+01
  -4.114722e+01   6.581546e+00
   4.419286e+01  -1.654647e+01
   1.329064e+02  -3.592788e+00
   6.949121e+01   1.186287e+02
  -7.949058e+01   9.382529e+01
  -1.692597e+02   8.024399e+01
  -1.920492e+02  -3.490244e+00
  -1.223353e+01  -1.351905e+02
   2.714645e+01  -6.362713e+01
   7.487347e+01  -3.206713e+00
  -4.639071e+01   1.645115e+01
  -9.744869e+01  -4.111043e+01
  -3.199274e+01  -1.313242e+02
   1.026018e+02  -1.556843e+02
   1.223969e+02  -5.370069e+01
   9.333851e+01   8.485561e+01
   4.811801e+01   2.150782e+02
  -1.005787e+02   1.316766e+02
  -1.621967e+02   1.426662e+01
  -7.107123e+01  -1.220102e+02
   1.040501e+01  -1.253780e+02
   4.265296e+01  -1.341224e+01
   9.380103e+01   3.099016e+01
   6.634720e+01   2.238414e+01
   6.332327e+00  -3.990026e+00
   3.383908e+01   4.140050e+01
   8.765490e+01   8.799019e+01
   7.395833e+01   1.244834e+02
  -4.257299e+01   3.045805e+01
  -1.570581e+02  -4.684771e+01
  -1.636242e+02  -7.109676e+01
  -4.723849e+00  -7.679945e+01
   8.149117e+01  -1.722305e+01
   8.402046e+01   1.285076e+01
   2.649782e+01   1.957581e+01
  -1.933446e+01   4.377724e+01
  -6.601399e+01   2.552773e+00
   3.615610e+01  -2.649498e+00
  -2.306572e+01   5.029014e+00
  -3.958789e+01  -2.994450e+00
  -5.627926e+01  -1.890815e+01
  -7.743386e+00  -8.947571e+01
   1.285104e+02  -1.179901e+02
   1.992877e+02  -4.802672e+01
   1.534357e+02   8.585516e+01
   2.143573e+01   1.425664e+02
  -7.646937e+01   1.168879e+02
  -1.445154e+02   5.376679e+01
  -7.035330e+01  -2.796667e+01
  -1.163237e+01  -3.665652e+01
   7.032208e+00  -7.238033e+00
   6.676053e+00   4.349842e+01
  -5.752668e+01  -4.870983e+01
  -1.176782e+01  -1.012132e+02
   2.391645e+01  -7.770056e+01
   6.209439e+01  -8.989431e+00
   9.945249e+01   1.061605e+02
   8.644313e+00   8.513446e+01
  -7.119469e+01   2.838952e+01
  -7.455670e+01  -7.221739e+01
  -3.568616e+01  -9.920704e+01
   9.008597e+01  -5.553620e+01
   1.138143e+02   2.797274e+01
   3.710437e+01   6.228049e+01
  -4.252159e+01   4.046995e+01
  -5.053840e+01   3.137543e+01
  -3.072252e+00   2.629086e+01
   4.717183e+01  -1.977736e+01
   1.831453e+01   2.894541e+01
  -5.064356e+01   3.282634e+01
  -1.362081e+02   7.235538e+01
  -7.110002e+01  -3.419028e+01
   1.366444e+01  -9.320005e+01
   6.479619e+01  -9.922489e+01
   5.209769e+01  -4.462353e+01
   1.904338e+00   3.085567e+01
  -3.711808e+01   6.499871e+01
  -3.207012e+01  -4.995718e+01
  -3.284931e+01  -7.144901e+01
  -4.589563e+01  -3.752230e+01
   5.018722e+01  -1.029224e+01
   2.848351e+01  -1.910740e+01
   2.944013e+01  -1.258626e-01
  -4.849255e+00  -4.457204e+00
   1.674231e+00   1.180528e+01
  -3.081791e+00   1.380179e+01
   1.619850e+01   3.559898e+01
  -2.563607e+01   1.710120e+01
  -3.533961e+01  -5.519750e+01
  -5.666214e+01  -4.675994e+01
   4.398919e+01  -1.999197e+01
   8.456686e+01   1.797228e+01
  -1.417981e+00   9.002307e+01
  -6.661351e+01   8.503462e+01
  -5.327869e+01  -4.371239e+01
  -3.225792e+01  -2.797603e+01
   2.294967e+01  -4.571798e+01
   4.702510e+01  -2.380419e+01
  -8.514572e+00  -3.869281e+01
  -1.864422e+01  -6.856911e+00
  -6.398547e+01   5.067149e+00
   4.022255e+00  -1.274193e+01
   9.402525e+01  -4.511976e+01
