
 $NMID
 id='ANONYMOUS ', fmtdat='(2E16.6)'
 volume=1.0
 tramp=1.0
 $END
   3.465814e+03  -4.212611e+01
   2.111951e+03   1.929455e+03
  -4.462445e+02   2.317133e+03
  -1.521958e+03   1.030171e+03
  -8.415575e+02  -1.314203e+02
   2.706822e+02  -3.605689e+02
   5.198737e+02   2.710040e+02
   6.475226e+01   7.477255e+02
  -6.518973e+02   6.682537e+02
  -8.010912e+02   3.681155e+01
  -4.165782e+02  -6.520527e+02
   1.219151e+02  -7.300148e+02
   4.919695e+02  -1.333787e+02
   3.056006e+02   5.298114e+02
  -1.740888e+02   6.190994e+02
  -4.561000e+02   2.906544e+01
  -2.857348e+02  -5.340410e+02
   1.765427e+02  -5.940986e+02
   4.901097e+02  -2.330376e+02
   3.842255e+02   2.294351e+02
   9.164445e+01   3.716998e+02
  -1.708384e+02   2.269796e+02
  -1.327729e+02   2.886782e+01
   1.898242e+02  -3.516358e+01
   3.036617e+02   2.149057e+02
   5.891169e+01   3.537184e+02
  -4.850683e+02   2.941426e+02
  -7.327741e+02  -1.379641e+02
  -2.947878e+02  -4.070643e+02
   3.558489e+02  -3.091003e+02
   5.417189e+02   9.825011e+01
   2.403626e+02   3.718807e+02
  -2.750543e+02   3.933074e+02
  -5.078138e+02   1.324452e+02
  -3.192161e+02  -1.543981e+02
  -9.726903e+01  -4.067711e+02
   1.139248e+02  -2.219507e+02
   1.598514e+01   1.228708e+02
  -2.272005e+02   2.994409e+02
  -3.174776e+02  -1.139599e+02
  -1.333824e+02  -6.037695e+02
   2.534374e+02  -5.308205e+02
   4.046886e+02  -2.347654e-01
   1.689579e+02   3.861197e+02
  -2.257314e+02   1.959716e+02
  -2.476714e+02  -3.048188e+02
   9.449437e+01  -4.984228e+02
   4.730791e+02  -1.179046e+02
   5.484000e+02   3.660085e+02
   1.651050e+02   5.639020e+02
  -3.333555e+02   2.456055e+02
  -5.948637e+02  -9.502786e+01
  -3.426508e+02  -2.842657e+02
   1.317495e+02  -3.193923e+02
   4.186411e+02  -5.041500e+01
   2.366915e+02   8.047234e+01
  -4.416334e+01   7.253823e+01
  -7.158043e+01  -1.027108e+02
   1.792990e+02  -1.104698e+02
   3.005144e+02   4.762671e+01
   1.122664e+02   1.875303e+02
  -1.821229e+02   2.542292e+02
  -3.322442e+02   1.074442e+02
  -2.473441e+02  -1.020910e+02
  -7.709783e+00  -3.067372e+02
   2.892660e+02  -3.280947e+02
   3.285111e+02  -2.137755e+02
   2.517373e+02   1.375230e+02
   6.958694e+01   3.354901e+02
  -6.106232e+01   3.297114e+02
  -5.094376e+01   8.815602e+01
  -2.799721e+01   7.755047e+01
  -5.922429e+01   9.473252e+01
  -2.326369e+02   7.356251e+01
  -2.794732e+02  -8.517640e+01
  -8.937909e+01  -2.359556e+02
   8.883918e+01  -2.284313e+02
   2.213256e+02   2.140930e+01
   1.888801e+02   2.393216e+02
  -7.739126e+01   2.933080e+02
  -2.409777e+02   7.451830e+01
  -3.391544e+02  -1.870069e+02
  -1.451546e+02  -3.407860e+02
   3.111771e+01  -2.740273e+02
   1.607374e+02  -1.679411e+02
   1.299968e+02  -4.178225e+01
   1.424330e+02  -1.511969e+01
   2.605246e+02  -5.625806e+01
   3.795803e+02   8.327882e+01
   3.424126e+02   2.836836e+02
  -3.566662e+01   4.437752e+02
  -3.651208e+02   4.493661e+02
  -4.855219e+02   1.795387e+02
  -2.779003e+02  -6.967604e+01
  -1.821694e+01  -2.658053e+02
   8.206780e+01  -1.774424e+02
   2.998502e+01  -6.912596e+01
  -1.240710e+02   8.438532e+01
  -1.567962e+02  -6.563936e+00
  -6.588779e+01  -1.925437e+02
   1.265645e+02  -1.510999e+02
   1.335080e+02   3.758792e+01
  -3.437422e+00   1.665580e+02
  -1.762750e+02  -1.003562e+01
  -1.334953e+02  -2.271076e+02
  -1.838214e+01  -3.429677e+02
   2.379804e+02  -1.707971e+02
   3.453010e+02   4.060312e+01
   2.781967e+02   2.357340e+02
   6.698933e+01   2.610605e+02
  -1.401043e+02   1.265207e+02
  -1.742946e+02   1.770209e+01
  -4.495115e+01  -3.248966e+01
   4.187027e+01   3.207197e+01
   1.365503e+01   1.167105e+02
  -1.194504e+02   5.443946e+01
  -1.235860e+02  -1.635288e+00
  -3.235962e+01  -8.296120e+01
   6.606223e+01   9.285044e+00
   7.626983e+01   8.217281e+01
  -1.386695e+02   8.279140e+01
  -3.048431e+02  -7.477676e+00
  -2.614476e+02  -1.671552e+02
  -4.140847e+01  -2.563259e+02
   1.894184e+02  -2.517456e+02
   2.719348e+02  -8.289512e+01
   1.117868e+02   2.403001e+01
  -2.923265e+01   1.019420e+02
  -7.149028e+01   3.023140e+00
   7.197950e+01  -8.524082e+01
   1.602761e+02  -3.981004e+01
   1.484733e+02   8.011783e+01
   8.807963e+01   2.120691e+02
  -1.003856e+02   1.450292e+02
  -1.454479e+02   2.140666e+01
  -4.971716e+01  -4.556737e+01
   3.119630e+01   2.762784e+01
   1.616594e+01   1.198214e+02
  -9.913258e+01   1.264855e+02
  -1.809526e+02   1.295901e+01
  -2.403577e+02  -1.263111e+02
  -1.495941e+00  -2.083568e+02
   1.564927e+02  -1.205509e+02
   1.866058e+02   3.638307e+01
   6.188639e+01   1.244888e+02
  -6.597748e+01   1.104577e+02
  -6.802268e+01   4.049593e+01
   4.693077e+00  -7.623838e+00
   2.014225e+01  -2.415803e+01
  -1.578403e+01   3.133718e+01
  -6.776602e+01  -4.345152e+01
  -1.136222e+02  -8.872794e+01
  -4.775150e+01  -1.701844e+02
   1.282587e+02  -1.729063e+02
   2.707191e+02  -3.171141e+01
   1.979305e+02   1.589092e+02
  -2.732252e+00   2.464578e+02
  -1.374202e+02   1.715707e+02
  -1.209712e+02   1.866177e+01
  -7.227107e+01  -8.569062e+01
  -1.731538e+01  -4.931846e+01
  -5.226327e+01  -1.941970e+00
  -7.436143e+01   1.038332e+01
  -1.569415e+01  -6.215730e+01
   1.645042e+01  -1.060999e+02
   1.397307e+02  -1.109362e+02
   1.001684e+02   6.036191e+01
  -4.432346e+01   1.433569e+02
  -1.747550e+02   7.988464e+01
  -2.051628e+02  -6.585017e+01
  -8.244587e+01  -2.234052e+02
   1.242498e+02  -2.103592e+02
   2.596593e+02  -1.251471e+02
   2.372819e+02   8.919471e+01
   1.005186e+02   1.631533e+02
  -2.187360e+01   1.184330e+02
  -9.116993e+01   6.674002e+01
  -5.508160e+01   2.353708e+01
  -3.176161e+01   6.543979e+01
  -5.228792e+01   7.898548e+01
  -1.533446e+02  -1.384264e+01
  -1.101548e+02  -1.274417e+02
  -9.547929e+00  -2.073479e+02
   1.158371e+02  -1.880468e+02
   1.684632e+02   1.933541e+01
   1.745901e+02   1.355119e+02
   2.540091e+00   1.505829e+02
  -1.305011e+02   6.617669e+01
  -7.456408e+01  -9.179248e+00
  -6.343130e+00  -4.146395e+01
   2.436647e+00  -3.501570e+01
  -2.517883e+01  -1.096059e+01
  -4.988693e+01  -1.310016e+01
  -4.206473e+01  -4.180262e+01
   6.419583e+01  -4.833763e+01
   1.901461e+02   8.706019e+00
   1.134128e+02   7.603654e+01
   1.517910e+01   1.063566e+02
  -1.310148e+02   1.108123e+02
  -1.337847e+02   8.685910e+00
  -4.219802e+01  -8.499792e+01
   4.566851e+01  -7.188863e+01
   8.274363e+01   3.273142e+01
   3.408457e+01   8.185626e+01
  -4.964559e+01   6.737738e+01
  -6.163000e+01   1.784849e+00
  -2.575433e+01  -2.597697e+01
  -5.239341e+01  -7.819610e+00
  -5.779498e+01   4.671600e+00
  -5.700745e+01  -3.788275e+01
  -6.458588e+01  -3.487318e+01
   4.736167e+01  -1.500241e+02
   5.511065e+01  -9.729134e+01
   1.822498e+02  -2.729522e+01
   1.611146e+02   9.116385e+01
   1.036951e+01   1.200066e+02
  -1.287994e+02   8.152563e+01
  -7.758300e+01  -3.184412e+01
   2.937267e+01  -1.787217e+01
   1.549365e+02   5.684198e+01
   7.292597e+01   1.005196e+02
  -8.910065e+01   8.217843e+01
  -1.723774e+02   4.475582e+01
  -1.713081e+02  -5.752343e+01
  -7.401208e+00  -8.394087e+01
   6.324172e+01  -5.207475e+01
   4.277997e+01   5.699660e-01
  -3.958050e+01   5.103310e+01
  -1.037071e+02  -8.310333e+00
  -4.400983e+01  -1.272130e+02
   9.066664e+01  -1.766964e+02
   1.715800e+02  -5.628711e+01
   1.603774e+02   7.423838e+01
  -1.113161e+01   1.800363e+02
  -9.163840e+01   1.392756e+02
  -7.966319e+01  -1.917793e+01
  -5.230600e+01  -1.093309e+02
  -1.271194e+01  -1.006907e+02
   5.149242e+01  -1.503181e+01
   7.055375e+01   1.739141e+01
   1.502688e+01  -1.235505e+00
  -9.095079e+00  -3.498043e+01
   1.368522e+01  -3.073840e+01
   5.335630e+01   1.139234e+02
   5.083354e+01   9.153667e+01
  -4.725957e+01   7.186045e+01
  -9.953597e+01   3.411202e+01
  -1.291855e+02  -5.186710e+01
  -2.078080e+01  -5.903568e+01
   6.987597e+01  -1.244410e+01
   7.780818e+01  -1.436898e+00
  -3.294759e+00   2.307437e+00
  -2.223510e+01   2.250503e+01
   2.091583e+01   4.294412e+01
   2.152895e+01   4.253907e+01
  -2.302827e+00   3.501087e+00
  -9.558734e+01  -1.086945e+01
  -9.145062e+01  -4.081140e+01
  -1.749122e+01  -7.208689e+01
   1.033057e+02  -1.273747e+02
   1.709759e+02  -4.276017e+01
   1.222865e+02   3.146836e+00
   2.321825e+01   1.602645e+02
  -1.093664e+02   1.328205e+02
  -1.473301e+02   8.352484e+01
  -1.386660e+02  -4.384782e+01
  -5.606709e+00  -4.186685e+01
   1.485499e+01   9.023705e+00
  -4.734594e+01   1.625802e+01
  -3.125165e+01  -1.250290e+01
  -2.773378e+01  -9.376875e+01
   2.563769e+01  -6.798794e+01
   4.989736e+01   3.680437e+01
   6.814568e+01   9.047302e+01
  -6.984085e+00   8.701764e+01
  -7.194257e+01   2.336825e+01
  -1.365642e+02  -6.936118e+01
  -3.598392e+01  -1.242813e+02
   6.871969e+01  -9.126829e+01
   1.025441e+02  -3.892055e+00
   4.554495e+01   4.612443e+01
  -3.471459e+01   3.005288e+01
  -3.122038e+01   2.506658e+01
   4.714201e+01  -4.025952e-01
   7.177747e+01  -3.138370e+01
   2.752333e+01   3.109757e+01
  -8.962602e+01   4.924057e+01
  -1.481959e+02   6.997742e+01
  -6.768289e+01  -3.416987e+01
  -2.442553e+00  -8.782748e+01
   3.420670e+01  -1.180104e+02
   6.677596e+01  -1.510066e+01
   2.616281e+01   8.073892e+01
   7.162846e+00   4.533857e+01
  -3.636215e+01  -4.029031e+01
  -7.479995e+00  -2.028875e+01
  -1.570395e+01  -2.466978e+01
   4.190575e+01   1.492610e+01
   4.266726e+01   6.682694e+00
  -6.711060e+00   1.989997e+01
  -9.237083e+00  -4.213322e+01
   5.638823e+00  -2.275067e+01
   4.663562e+00   5.870676e+01
   1.065716e+01   5.025707e+01
  -2.295739e+01   4.508363e+01
  -1.185744e+01  -3.488999e+01
  -3.364815e+01  -5.730374e+01
   4.051007e+01  -8.102737e+01
   6.180196e+01  -7.043278e+00
   2.612888e+01   4.156923e+01
  -5.450279e+01   1.437157e+01
  -8.141999e+01  -1.029282e+01
  -3.654678e+01  -3.075415e+00
   3.253252e+01  -6.181896e+01
   7.519362e+01  -1.323281e+01
   3.287069e+01  -4.024367e+01
  -2.548896e+01   3.140081e+01
  -1.658496e+01  -1.941191e+01
   1.992778e+01  -3.390191e+01
   1.190467e+02  -8.370528e+00
