
 $NMID
 id='ANONYMOUS ', fmtdat='(2E16.6)'
 volume=1.0
 tramp=1.0
 $END
  -3.582212e+03  -1.018566e+02
  -2.450676e+03  -1.963414e+03
   9.511791e+01  -2.339350e+03
   1.485032e+03  -1.262687e+03
   9.828427e+02   6.347145e+00
  -1.712184e+02   3.607468e+02
  -6.619904e+02  -1.863721e+02
  -6.313267e+01  -7.603137e+02
   4.829652e+02  -7.036250e+02
   7.704799e+02  -8.225219e+01
   5.010185e+02   5.995962e+02
  -3.978387e+01   8.076360e+02
  -4.429027e+02   1.929791e+02
  -3.615742e+02  -5.596783e+02
   1.283334e+02  -6.423620e+02
   5.180544e+02  -2.485288e+01
   3.042418e+02   5.175980e+02
  -1.793010e+02   6.872354e+02
  -4.867008e+02   2.429874e+02
  -4.277519e+02  -2.618472e+02
  -1.261688e+02  -3.763797e+02
   1.394883e+02  -2.667925e+02
   1.559219e+02  -1.065913e+02
  -1.478601e+02  -8.618537e+00
  -3.312080e+02  -1.733482e+02
  -1.071803e+02  -3.043821e+02
   4.590555e+02  -2.552317e+02
   7.188161e+02   1.038516e+02
   3.875888e+02   3.448893e+02
  -3.037614e+02   3.100711e+02
  -5.815501e+02  -6.143933e+01
  -2.258690e+02  -4.106805e+02
   3.000131e+02  -4.120931e+02
   5.281395e+02  -1.458769e+02
   3.673251e+02   1.624281e+02
   1.363660e+02   3.518295e+02
  -2.426998e+01   2.758497e+02
  -7.837205e+01  -1.275449e+02
   1.560209e+02  -2.356333e+02
   2.692895e+02   7.070896e+01
   1.434756e+02   5.423057e+02
  -2.731704e+02   5.212740e+02
  -4.692118e+02   8.178805e+00
  -2.127302e+02  -3.608878e+02
   1.644405e+02  -2.534221e+02
   2.957431e+02   2.786875e+02
  -5.652466e+01   4.645392e+02
  -4.723006e+02   1.471882e+02
  -5.796677e+02  -3.640098e+02
  -1.724641e+02  -5.845009e+02
   3.125603e+02  -3.313670e+02
   5.468611e+02   6.505497e+01
   3.782232e+02   2.785260e+02
  -4.554232e+01   2.950697e+02
  -3.585781e+02   1.055939e+02
  -2.766253e+02  -8.662023e+01
   2.336713e+01  -8.880043e+01
   1.066192e+02   9.635808e+01
  -8.361387e+01   7.864412e+01
  -3.032251e+02  -3.257187e+01
  -1.678026e+02  -2.364024e+02
   2.003667e+02  -2.274955e+02
   3.321470e+02  -1.200597e+02
   2.033005e+02   1.125824e+02
  -2.150026e+01   3.307290e+02
  -2.803383e+02   2.839773e+02
  -3.635896e+02   1.828469e+02
  -2.745804e+02  -1.497985e+02
  -6.899468e+01  -3.369663e+02
   2.745648e+01  -3.957921e+02
   1.931196e+01  -1.656233e+02
   5.729590e+01  -3.978738e+01
   8.481053e+01  -1.150324e+02
   2.143944e+02  -1.181440e+02
   2.406246e+02   6.331582e+01
   1.485620e+02   2.698970e+02
  -8.432660e+01   2.400205e+02
  -2.279064e+02  -2.608388e+01
  -1.688938e+02  -2.513117e+02
   2.954348e+01  -2.908014e+02
   2.592026e+02  -4.462362e+01
   2.946099e+02   1.444775e+02
   1.563478e+02   3.186584e+02
  -1.030583e+02   2.877329e+02
  -1.432104e+02   1.173134e+02
  -1.420493e+02   4.725252e+01
  -1.402049e+02   5.856838e+01
  -2.460614e+02   8.232668e+01
  -3.904405e+02  -1.064660e+02
  -3.592280e+02  -3.218325e+02
   6.084212e+01  -4.430001e+02
   3.726384e+02  -4.378270e+02
   4.476740e+02  -1.794695e+02
   3.235247e+02   7.185860e+01
   2.865222e+01   2.769211e+02
  -9.054703e+01   2.298585e+02
  -3.281735e+01   4.290402e+01
   1.041853e+02  -6.531992e+01
   1.769531e+02   3.604681e+01
   5.981766e+01   1.288225e+02
  -1.147239e+02   1.280821e+02
  -1.178458e+02   1.800453e+01
   8.229294e+00  -1.494370e+02
   1.902741e+02  -1.543465e+01
   1.668776e+02   2.610073e+02
  -1.229140e+01   3.482141e+02
  -2.259216e+02   2.029084e+02
  -3.664249e+02  -4.149793e+01
  -2.797115e+02  -2.389777e+02
  -8.399259e+01  -2.652669e+02
   1.262358e+02  -1.449666e+02
   1.236777e+02   2.576088e+01
   4.283849e+01  -9.589323e+00
  -2.917063e+01  -5.351758e+01
  -3.082273e+01  -1.354173e+02
   1.195776e+02  -6.844489e+01
   1.754266e+02   1.251250e+01
   4.605209e+01   5.387367e+01
  -1.082325e+02  -1.108845e+01
  -5.219670e+01  -6.060654e+01
   1.326224e+02  -6.754464e+01
   3.022343e+02  -3.198586e+01
   2.285909e+02   1.908517e+02
   3.004305e+01   2.569913e+02
  -1.782193e+02   2.421075e+02
  -2.807001e+02   1.234918e+02
  -1.630050e+02  -1.988603e+01
   5.941448e+01  -7.498653e+01
   5.150198e+01   1.345496e+01
  -6.229647e+01   8.299074e+01
  -1.819107e+02   6.170125e+01
  -1.592833e+02  -1.071665e+02
  -6.572911e+01  -1.868099e+02
   9.304035e+01  -1.571416e+02
   1.062281e+02  -1.794502e+01
   6.563947e+01   6.576402e+01
  -1.638881e+01  -5.183732e+01
  -4.845294e+01  -1.017545e+02
   9.449448e+01  -1.238543e+02
   2.239081e+02  -3.851054e+01
   2.034129e+02   1.256541e+02
   9.979417e+00   2.485652e+02
  -1.669551e+02   1.298553e+02
  -1.816906e+02  -1.026169e+01
  -4.564131e+01  -8.924677e+01
   5.680951e+01  -8.207723e+01
   4.966175e+01  -3.258159e+01
   7.651287e+00   1.957812e+01
  -2.845567e+01   8.314779e+00
   2.354292e+01  -6.020650e+01
   1.025343e+02   5.280959e+00
   7.606521e+01   1.044560e+02
   4.072560e+01   1.895633e+02
  -1.833811e+02   1.606326e+02
  -2.291142e+02   5.198271e+01
  -1.922670e+02  -1.638618e+02
  -6.831163e+01  -2.171060e+02
   1.384476e+02  -1.190637e+02
   1.026985e+02  -1.214985e+01
   2.081406e+01   8.833304e+01
   4.078940e+01   7.332838e+01
   5.840777e+01  -1.417855e+01
   1.005262e+02  -1.930935e+01
   5.902315e+01   4.064008e+01
  -6.166277e+01   8.401469e+01
  -1.403684e+02   7.942323e+01
  -9.960599e+01  -4.806660e+01
   2.621445e+01  -1.126057e+02
   1.919236e+02  -7.757164e+01
   1.868746e+02   6.350856e+01
   7.829358e+01   1.922522e+02
  -1.140699e+02   2.376143e+02
  -2.483001e+02   8.277412e+01
  -2.461762e+02  -1.276007e+02
  -1.149416e+02  -1.439753e+02
   1.630500e+01  -1.456761e+02
   6.740973e+01  -4.758506e+01
   6.770793e+01  -8.857019e+01
   7.971651e+01  -1.222273e+02
   1.323198e+02  -7.212467e+01
   1.432029e+02  -1.363729e+01
   1.210896e+02   1.483408e+02
   3.596443e+01   1.886963e+02
  -8.707145e+01   1.702621e+02
  -1.708191e+02   3.172048e+01
  -1.531601e+02  -1.173267e+02
   8.397948e+00  -1.998911e+02
   1.272351e+02  -7.613663e+01
   7.533784e+01   8.362055e+00
  -8.607905e-01   4.493948e+01
  -3.663964e+01   3.490330e+01
   2.398467e+01   1.835225e+01
   1.232104e+02   5.128111e+01
   4.482936e+01   1.808724e+01
  -3.723065e+01   3.976531e+01
  -2.058037e+02   1.953832e+01
  -1.852302e+02  -7.063786e+01
   2.005128e+00  -1.266731e+02
   1.413509e+02  -9.295686e+01
   1.435120e+02  -8.727782e+00
   3.728679e+01   3.894177e+01
  -7.814373e+01   4.650043e+01
  -1.236009e+02   6.618577e+00
  -4.214501e+01  -9.587052e+01
   6.897796e+01  -1.013408e+02
   5.523734e+01   1.332248e+01
   6.477940e+01   9.529477e+00
   5.795747e+01   2.734526e+01
   3.663965e+01   3.730694e+00
   2.796921e+01   4.413392e+00
   7.697147e+01   3.201536e+01
   2.624653e+00   1.543506e+02
  -1.665422e+02   1.466702e+02
  -2.226316e+02   6.865682e+01
  -1.362128e+02  -1.119107e+02
   4.492127e+01  -1.405766e+02
   8.384150e+01  -3.175882e+01
   7.403532e+01   4.620124e+01
  -9.392942e+01  -9.799398e+00
  -1.319736e+02  -7.923781e+01
  -9.397031e+01  -1.105372e+02
   8.340461e+01  -1.390592e+02
   1.999596e+02  -6.104712e+01
   1.746199e+02   6.076818e+01
   4.686147e+01   9.117548e+01
  -5.387377e+01   8.159339e+01
  -4.653163e+01   8.128449e-01
   2.077576e+01  -2.538034e+01
   8.346387e+01   2.596141e+01
   3.515926e+01   1.290462e+02
  -9.041381e+01   1.804977e+02
  -1.605597e+02   1.185714e+02
  -1.337044e+02  -5.750352e+01
   1.848577e+00  -2.006689e+02
   5.183596e+01  -1.356292e+02
   6.728856e+01  -2.391547e+01
  -4.452849e-02   1.127574e+02
  -8.748982e+00   8.733722e+01
  -3.675856e+01   5.214629e+00
  -1.463651e+01  -7.783265e+01
  -3.335313e+01   3.402869e+01
   2.221095e+01  -1.522504e+01
  -9.617594e-01  -2.939433e+01
  -7.187435e+01  -8.800096e+01
  -1.989004e+01  -8.326851e+01
   4.987366e+01  -2.312708e+01
   1.367184e+02   5.430816e+01
   1.344540e+02   4.734433e+01
   3.524290e+00   7.869383e+01
  -1.214943e+02   2.586159e+01
  -9.180207e+01   2.897619e+01
  -2.070244e+01  -2.527314e+00
   3.162789e+01  -1.245089e+01
   3.470741e+00   2.252370e+01
  -2.240401e+01  -7.126433e+00
  -9.162268e+00   5.865450e+01
   4.739322e+01  -4.147128e+00
   8.096624e+01   1.762597e+01
   1.457695e+01   7.076543e+01
  -1.182882e+02   1.089679e+02
  -2.074041e+02   3.617811e+01
  -1.523115e+02  -6.509989e+01
  -5.629789e+01  -1.424963e+02
   7.960666e+01  -1.685979e+02
   1.205128e+02  -4.026574e+01
   1.052425e+02  -2.859253e+00
   3.708145e+01   3.408941e+00
   4.458459e+01   1.404103e+01
   1.277578e+01   5.450645e+01
   1.532337e+01   7.683416e+01
   2.029670e+01   1.149393e+02
  -4.492857e+01   8.202474e+01
  -1.073120e+02   4.397797e+00
  -4.585263e+01  -8.841522e+01
  -2.173671e+01  -1.184357e+02
   5.955641e+01  -3.662060e+00
   1.178358e+02   3.792356e+01
   3.796943e+01   1.253233e+02
  -4.790212e+01   2.856842e+01
  -5.234217e+01  -1.775578e+01
  -3.554706e+01  -3.321338e+01
   4.376977e+01  -5.433034e+01
   1.769628e+01  -3.684821e+01
  -4.069814e+01   2.219561e+01
  -3.781782e+01   5.905668e+00
  -3.731890e+01  -3.904185e+01
   1.064043e+02  -1.039205e+02
   1.429320e+02  -5.589835e+01
   4.732077e+01  -1.215351e+00
   1.610022e+01   9.554929e+01
  -5.211675e+01   9.679050e+01
  -3.364958e+01  -1.370443e+01
  -4.463017e+00  -5.734940e+01
   9.169094e+00  -6.393122e+01
  -6.526171e+00   1.544451e+01
   8.452383e+00   7.469508e+01
  -2.338033e+01   2.060959e+01
  -1.339959e+01  -2.994309e+01
  -2.300239e+01  -1.979450e+01
  -2.952178e+01  -3.776180e+00
   1.301557e+01  -9.871489e+00
   9.792238e+00   2.266915e+01
  -3.220322e+01  -3.183387e+01
   8.252878e+00  -1.286620e+01
   2.786432e+01  -4.528133e+01
   3.105125e+01   2.481913e+01
   7.474272e+01   8.520981e+01
  -6.706221e+01   3.399973e+01
  -1.124729e+02  -3.505974e+01
  -4.281492e+01  -6.945841e+01
   6.577321e+01  -1.247902e+01
   1.047087e+02  -1.447791e+00
   6.518473e+01   6.590795e+01
  -5.046787e+01   6.336361e+01
  -4.559670e+01   3.589629e+01
  -1.502406e+01  -1.429057e+01
   1.001731e+01  -3.643590e+00
   1.773033e+01   2.822233e+01
  -4.285897e+01   1.603008e+01
  -9.506754e+01   3.296356e+01
