
 $NMID
 id='ANONYMOUS ', fmtdat='(2E16.6)'
 volume=1.0
 tramp=1.0
 $END
   4.422217e+03   1.193643e+02
   2.637437e+03   2.661665e+03
  -5.517741e+02   2.579626e+03
  -1.922628e+03   8.649722e+02
  -9.969190e+02  -5.589318e+02
   6.834503e+02  -5.312949e+02
   8.392743e+02   4.465807e+02
   4.238088e+00   9.550908e+02
  -7.849877e+02   8.039603e+02
  -9.422369e+02  -5.877731e+01
  -4.246857e+02  -8.817475e+02
   2.449179e+02  -9.611852e+02
   6.580241e+02  -2.077305e+02
   4.170370e+02   8.296462e+02
  -2.732725e+02   8.138471e+02
  -6.699375e+02  -7.357229e+00
  -2.729197e+02  -6.904370e+02
   3.135675e+02  -6.895101e+02
   6.155648e+02  -1.371746e+02
   4.025796e+02   3.701401e+02
   6.726474e+00   4.104059e+02
  -2.547394e+02   2.460157e+02
  -2.105764e+02   4.112300e+01
   1.178380e+02  -9.450263e+01
   4.479878e+02   1.404276e+02
   2.297581e+02   4.851507e+02
  -5.086301e+02   4.234475e+02
  -8.655975e+02  -3.855848e+00
  -5.003443e+02  -5.644582e+02
   3.836406e+02  -5.252619e+02
   7.888316e+02   7.167226e+01
   3.445397e+02   5.329948e+02
  -3.526165e+02   5.446185e+02
  -6.602537e+02   2.096281e+02
  -4.457641e+02  -2.317361e+02
  -7.659972e+01  -4.471098e+02
   2.289054e+02  -2.515597e+02
   1.213685e+02   2.575678e+02
  -2.408294e+02   4.623596e+02
  -4.564910e+02  -4.619500e+01
  -2.457655e+02  -7.466324e+02
   3.248139e+02  -7.200319e+02
   5.937637e+02  -3.766061e+01
   2.618064e+02   5.473269e+02
  -2.812135e+02   3.588545e+02
  -4.271484e+02  -2.700685e+02
   5.483173e+00  -5.981309e+02
   5.708899e+02  -1.715293e+02
   6.429082e+02   4.223444e+02
   2.172724e+02   5.997682e+02
  -3.883363e+02   4.200849e+02
  -6.400102e+02  -8.549362e+01
  -4.178878e+02  -3.582456e+02
   1.445052e+02  -4.055481e+02
   4.675621e+02  -4.486269e+01
   2.064586e+02   2.012862e+02
  -1.336263e+02   1.159103e+02
  -1.325125e+02  -1.279118e+02
   1.539272e+02  -1.466143e+02
   3.797333e+02   9.986733e+01
   1.671075e+02   2.912699e+02
  -1.953848e+02   2.560986e+02
  -3.335488e+02   3.926438e+01
  -2.294374e+02  -7.254882e+01
   9.236900e+00  -2.407447e+02
   2.600900e+02  -3.235962e+02
   4.239930e+02  -1.976130e+02
   3.335552e+02   1.472239e+02
   1.061570e+02   4.026414e+02
  -7.796580e+01   3.960283e+02
  -1.194373e+02   1.283697e+02
  -5.102940e+01   6.758454e+00
  -4.219471e+01   8.899915e+01
  -2.009229e+02   1.426672e+02
  -2.977342e+02  -2.427431e+01
  -1.990629e+02  -2.857106e+02
   6.294387e+01  -2.790292e+02
   2.163873e+02  -1.710822e+00
   1.907353e+02   2.204147e+02
  -1.423681e+01   3.131580e+02
  -3.249679e+02   1.305424e+02
  -3.511476e+02  -1.708198e+02
  -1.695741e+02  -4.178337e+02
   1.009101e+02  -3.190821e+02
   2.477837e+02  -1.499686e+02
   1.424783e+02   1.133804e+01
   7.990330e+01  -3.511958e+01
   2.419477e+02  -9.696135e+01
   4.193669e+02   5.672662e+01
   3.263512e+02   3.035426e+02
   4.598234e+01   4.430143e+02
  -3.967042e+02   4.757829e+02
  -4.932204e+02   2.266991e+02
  -3.380833e+02  -1.258531e+02
  -5.068624e+01  -3.398680e+02
   1.328910e+02  -2.918439e+02
   1.007373e+02  -1.482174e+01
  -1.582519e+02   1.131329e+02
  -2.153093e+02  -6.391324e+01
  -8.975325e+01  -1.611368e+02
   1.247620e+02  -1.782046e+02
   1.799747e+02   6.397960e+01
  -3.321167e+01   1.846107e+02
  -1.521097e+02   3.559156e+01
  -1.517546e+02  -2.646038e+02
   4.331443e+01  -3.341574e+02
   2.367378e+02  -2.169197e+02
   3.331209e+02   7.398738e+01
   3.383981e+02   2.359064e+02
   1.369129e+02   2.805255e+02
  -1.210261e+02   1.709755e+02
  -1.926623e+02   1.126563e+01
  -4.008601e+01  -1.668098e+01
   7.638688e+01   5.944758e+01
   4.832904e+01   1.297649e+02
  -1.482441e+02   9.940306e+01
  -1.781868e+02  -2.961219e+01
  -7.891052e+01  -6.090499e+01
   1.180455e+02  -1.596068e+01
   4.989671e+01   9.871599e+01
  -1.049224e+02   1.197078e+02
  -3.292102e+02  -1.372953e+01
  -2.892347e+02  -1.335233e+02
  -6.655433e+01  -2.483646e+02
   1.795208e+02  -2.298092e+02
   2.940363e+02  -9.297871e+01
   2.042110e+02   5.296149e+01
  -1.214575e+01   1.503482e+02
  -4.287953e+01   2.560355e+00
   1.386016e+01  -1.012833e+02
   1.643286e+02  -7.745405e+01
   2.266911e+02   9.856332e+01
   6.193159e+01   1.884849e+02
  -1.023192e+02   1.701217e+02
  -1.344411e+02   3.233153e+01
  -1.332372e+02  -3.940515e+01
   2.335695e+01   1.468844e+01
   9.611159e+00   9.118430e+01
  -8.792826e+01   1.045897e+02
  -1.874158e+02   8.300538e+00
  -1.798989e+02  -1.215527e+02
  -3.360797e+00  -2.200125e+02
   1.412739e+02  -1.732645e+02
   1.654703e+02  -4.539727e+01
   9.963928e+01   8.376168e+01
  -9.081913e+01   1.466276e+02
  -8.550309e+01   5.872395e+01
  -4.906435e+01  -3.606206e+01
   1.077174e+01  -5.295398e-01
  -1.648419e+01   2.361689e+01
  -5.446926e+01  -1.499590e+00
  -6.864240e+01  -1.091130e+02
  -1.806891e+01  -1.630266e+02
   1.217536e+02  -1.841887e+02
   2.337459e+02  -3.589409e+01
   2.226003e+02   1.614666e+02
   4.674279e+01   2.657533e+02
  -9.954653e+01   1.533309e+02
  -1.306456e+02   2.324517e+01
  -5.414447e+01  -1.129932e+02
  -1.852864e+01  -2.130114e+01
  -2.992294e+01  -1.911469e+01
  -3.880863e+01   6.395211e+00
  -3.246322e+01  -7.585551e+01
   1.889557e+01  -9.232399e+01
   6.220155e+01  -5.146424e+01
   1.117580e+02  -2.359905e-01
  -1.910958e+00   9.643975e+01
  -1.301030e+02   9.378970e+01
  -2.074310e+02  -3.787867e+01
  -1.111370e+02  -1.724679e+02
   1.385215e+02  -2.712423e+02
   2.752723e+02  -8.178603e+01
   2.269327e+02   1.106819e+02
   1.098411e+02   1.447032e+02
  -9.920738e+01   1.495750e+02
  -1.027127e+02   6.914210e+01
  -8.570559e+01   5.026395e+01
  -8.112250e+01   7.551823e+01
  -7.486324e+01   9.179904e+01
  -1.130779e+02  -1.576372e+01
  -1.123325e+02  -1.901647e+02
  -1.259713e+01  -2.015410e+02
   7.279991e+01  -1.703787e+02
   1.607180e+02  -3.239483e+01
   1.356733e+02   1.026749e+02
   4.050173e+01   1.764011e+02
  -7.925801e+01   1.046027e+02
  -6.249491e+01   1.932266e+01
  -2.444629e+01  -8.362277e+01
  -1.001254e+01  -5.320014e+01
  -3.223683e+01  -2.080597e+01
  -7.800152e+01  -5.949036e+01
  -7.918227e+00  -6.107978e+01
   8.050553e+01  -9.598784e+01
   1.547623e+02  -1.065035e+01
   1.629807e+02   6.593318e+01
   3.497376e+01   1.003584e+02
  -1.364119e+02   8.637458e+01
  -1.329305e+02   3.144710e+01
  -9.167330e+01  -2.794701e+01
   5.102243e+01  -5.779702e+01
   1.217151e+02   4.069786e+01
   9.924778e+00   9.407261e+01
  -4.731449e+01   9.101555e+01
  -5.247629e+01  -8.441536e+00
  -3.332966e+01  -4.715729e+01
  -2.861218e+01  -1.905677e+01
  -5.147718e+01   1.344372e+01
  -6.032485e+01   1.525484e+01
  -1.713527e+01  -8.707408e+01
   1.759354e+01  -1.801318e+02
   1.318868e+02  -1.569622e+02
   1.922405e+02  -3.519856e+01
   1.333656e+02   1.237676e+02
   4.168276e+00   1.435035e+02
  -8.136111e+01   5.773188e+01
  -6.419852e+01  -4.413597e+01
   1.018528e+02  -4.051966e+00
   1.591143e+02   3.645155e+01
   8.234224e+01   1.311831e+02
  -1.193414e+02   1.279829e+02
  -1.901020e+02   6.456578e+01
  -2.026301e+02  -3.802807e+01
  -7.415261e+01  -9.427715e+01
   7.168816e+01  -5.831385e+01
   2.874529e+01  -1.369285e+01
  -5.782292e+01   2.855068e+01
  -1.184092e+02  -2.975973e+01
  -4.583041e+01  -9.499216e+01
   9.079806e+01  -1.192241e+02
   1.265167e+02  -1.659298e+01
   1.150374e+02   7.966277e+01
   3.042113e+00   1.979971e+02
  -1.085862e+02   1.342180e+02
  -1.054607e+02  -3.738996e+00
  -8.025266e+01  -1.150325e+02
  -2.523274e+01  -1.361609e+02
   3.639349e+01  -3.113720e+01
   3.884891e+01   6.049521e+01
   2.472642e+01   3.394956e+01
   7.937941e+00  -2.459099e+01
  -4.122608e+01   2.457650e+01
   5.601881e+01   5.941521e+01
   7.768657e+01   1.240378e+02
  -7.023199e+01   7.380555e+01
  -1.539341e+02  -6.497615e+01
  -1.527631e+02  -7.420288e+01
  -2.692099e+01  -6.314892e+01
   1.009048e+02  -1.187861e+01
   1.347293e+02  -3.989109e+00
   3.841348e+00  -1.784561e+01
  -4.617522e+01  -5.474249e-02
  -5.115190e+01  -1.225120e+01
  -8.912305e+00  -1.003103e+01
  -1.854679e+01  -3.025612e+01
  -4.715849e+01   1.279816e+01
  -3.905161e+01  -1.091709e+01
  -2.012606e+01  -1.100769e+02
   1.259626e+02  -9.730626e+01
   1.599898e+02  -6.265262e+01
   1.853254e+02   7.977055e+01
   2.474143e+01   1.787423e+02
  -8.482102e+01   1.736537e+02
  -1.231527e+02   4.662850e+01
  -3.987027e+01  -3.124139e+01
  -1.375231e+01  -3.605848e+01
   2.241413e+01   8.869743e-01
  -1.654787e+01  -1.305878e+01
  -5.265803e+01  -3.521926e+01
  -1.544242e+01  -1.063509e+02
   1.197667e+01  -9.015900e+01
   1.010394e+02   4.443502e+01
   1.149520e+02   8.299036e+01
  -1.902973e+00   9.474243e+01
  -5.547309e+01   4.401572e+01
  -4.935010e+01  -5.261042e+01
  -6.334493e+01  -9.348582e+01
   9.032599e+01  -4.581353e+00
   6.055194e+01   3.419648e+00
   3.938977e+01   2.935627e+01
  -1.206379e+01   8.544820e+01
   3.484438e+00   2.227952e+01
   2.160530e+01  -3.368072e+01
   8.674658e+01   1.342893e+00
   1.567767e+01   2.007283e+01
  -7.576467e+01   6.319359e+01
  -1.119328e+02   3.876354e+01
  -7.547196e+01  -4.135766e+01
   2.282389e+01  -8.132892e+01
   1.044641e+02  -8.765240e+01
   5.285671e+00   3.029453e+01
  -7.856233e+00   2.519585e+01
  -2.657215e+01   9.262074e+01
  -1.744007e+00  -4.205794e+00
  -2.751851e+01  -2.089735e+01
  -1.419595e+01  -7.021724e+01
   2.485362e+01  -3.536214e+00
   7.292150e+01   3.762919e+01
   5.128856e+01   1.011841e+01
   2.337134e+01  -1.738736e+01
  -3.418091e+01  -1.871985e+01
  -7.216836e+00   5.037356e+01
  -2.302404e+01   7.334627e+01
  -4.549602e+01   1.636433e+01
  -3.708483e+01  -4.536149e+01
  -2.629652e+01  -3.796630e+01
   5.787160e+01  -4.823653e+01
   9.270104e+01   2.880594e+01
   2.905314e+01   5.845361e+01
  -2.744396e+01   8.033098e+01
  -8.987532e+01  -2.194166e+01
  -6.597555e+01  -5.196753e+01
   1.568169e+00  -6.194300e+01
   7.913034e+01  -2.686025e+01
   7.527134e+01  -1.601386e+01
  -3.270991e+01  -6.834673e+00
  -4.153138e+01  -2.344172e+01
   7.032383e+01  -5.012605e+01
   5.408460e+01  -1.683240e+01
