
 $NMID
 id='ANONYMOUS ', fmtdat='(2E16.6)'
 volume=1.0
 tramp=1.0
 $END
  -3.626763e+03  -1.127411e+02
  -2.355515e+03  -2.279489e+03
   4.841046e+02  -2.257116e+03
   1.852073e+03  -8.135376e+02
   8.890733e+02   3.052179e+02
  -4.572089e+02   3.340593e+02
  -6.414868e+02  -2.438202e+02
   9.868271e-01  -9.153046e+02
   6.715727e+02  -6.445589e+02
   7.720465e+02   4.368320e+01
   3.935603e+02   6.784678e+02
  -1.855174e+02   7.346382e+02
  -4.866432e+02   1.570781e+02
  -2.647950e+02  -5.408436e+02
   2.441822e+02  -6.552766e+02
   4.919049e+02  -5.187751e+01
   2.770721e+02   6.095429e+02
  -2.307696e+02   6.281004e+02
  -5.328152e+02   1.555669e+02
  -3.798767e+02  -3.152232e+02
  -6.084609e+01  -4.214098e+02
   1.352815e+02  -2.146942e+02
   1.342840e+02  -5.077090e+01
  -1.749592e+02  -1.336533e+01
  -3.430861e+02  -2.540229e+02
  -5.043571e+01  -3.907691e+02
   4.839290e+02  -2.825868e+02
   7.804124e+02   1.926032e+02
   2.841638e+02   5.040391e+02
  -3.885174e+02   3.282540e+02
  -6.725134e+02  -1.150251e+02
  -2.387049e+02  -4.197975e+02
   2.527369e+02  -4.167437e+02
   5.422301e+02  -1.564586e+02
   3.718853e+02   2.420055e+02
   9.487356e+01   3.381655e+02
  -1.179960e+02   2.002417e+02
  -5.067097e+01  -1.387302e+02
   1.953775e+02  -2.961733e+02
   2.440560e+02   1.094505e+02
   1.150186e+02   6.073430e+02
  -2.845291e+02   5.636089e+02
  -4.606811e+02   3.024823e+01
  -1.973712e+02  -4.669539e+02
   2.128720e+02  -2.370182e+02
   2.891538e+02   2.733049e+02
  -1.280635e+02   4.438494e+02
  -5.748903e+02   8.590421e+01
  -5.294498e+02  -4.027399e+02
  -1.856730e+02  -5.365020e+02
   3.807237e+02  -2.905281e+02
   5.379180e+02   4.615642e+01
   3.506535e+02   3.076865e+02
  -8.257544e+01   3.174398e+02
  -3.875120e+02   6.926616e+01
  -2.147601e+02  -1.396912e+02
   8.851406e+01  -3.061490e+01
   1.110639e+02   8.638531e+01
  -1.727916e+02   1.173373e+02
  -2.920966e+02  -6.655369e+01
  -1.081073e+02  -2.468908e+02
   1.529106e+02  -2.299187e+02
   3.379205e+02  -6.935764e+01
   2.190720e+02   9.878751e+01
   2.632974e+01   2.727120e+02
  -3.013486e+02   3.250950e+02
  -3.767354e+02   1.617256e+02
  -2.653252e+02  -1.458890e+02
  -2.981048e+01  -3.798945e+02
   1.352216e+02  -3.110516e+02
   7.581713e+01  -1.069809e+02
   2.486167e+01  -6.198417e+01
   9.584836e+01  -9.652684e+01
   2.418239e+02  -8.423504e+01
   2.584832e+02   4.974883e+01
   9.207978e+01   2.910470e+02
  -7.680689e+01   2.466977e+02
  -1.820696e+02  -3.679188e+01
  -1.676159e+02  -2.374694e+02
   2.330070e+01  -2.661058e+02
   2.380432e+02  -6.662471e+01
   2.999391e+02   1.867109e+02
   1.487051e+02   3.229310e+02
  -5.531892e+01   3.005170e+02
  -1.844887e+02   1.180881e+02
  -1.503605e+02   4.901448e+01
  -1.260225e+02   2.818238e+01
  -2.145912e+02   1.579124e+01
  -3.972132e+02  -9.352017e+01
  -2.812422e+02  -2.685457e+02
   3.319756e+01  -4.009462e+02
   3.565460e+02  -3.807377e+02
   5.076871e+02  -1.820627e+02
   3.340413e+02   9.792152e+01
   3.558521e+01   2.705182e+02
  -1.058874e+02   2.480963e+02
  -4.047480e+01   5.386861e+01
   1.134834e+02  -4.176031e+01
   1.876830e+02   3.680157e+01
   4.748841e+01   1.419848e+02
  -1.550672e+02   1.337943e+02
  -1.505723e+02  -4.803316e+01
   4.391915e+00  -1.485161e+02
   1.656105e+02   5.313022e+00
   1.672692e+02   2.762834e+02
  -5.298091e+01   3.805641e+02
  -2.406901e+02   1.545401e+02
  -3.399397e+02  -7.345808e+01
  -2.912871e+02  -2.604951e+02
  -9.896643e+01  -2.448592e+02
   8.763465e+01  -1.494502e+02
   1.696353e+02  -2.376183e+01
   5.874477e+01   3.056999e+01
  -5.287880e+01  -2.626866e+01
  -3.286902e+01  -1.420085e+02
   1.306675e+02  -1.110791e+02
   2.063720e+02   4.140493e+01
   7.405107e+01   8.075937e+01
  -1.134659e+02  -5.993872e+00
  -5.202783e+01  -1.234935e+02
   1.615472e+02  -7.428265e+01
   2.908739e+02   4.050387e+01
   2.551252e+02   1.377080e+02
   6.272981e+01   2.484679e+02
  -1.750013e+02   2.463846e+02
  -3.096821e+02   1.608599e+02
  -1.823558e+02  -3.476080e+01
   1.454840e+01  -1.075386e+02
   6.491200e+01   1.865771e+01
  -4.240941e+01   9.605998e+01
  -2.125184e+02   1.919682e+01
  -2.035984e+02  -1.100898e+02
  -5.449905e+01  -2.264243e+02
   9.057978e+01  -1.517469e+02
   1.408629e+02  -4.512771e-01
   4.718918e+01   6.366690e-01
  -1.568660e+01  -2.251423e+01
  -4.909548e+01  -9.362471e+01
   8.903140e+01  -1.413646e+02
   1.958837e+02  -1.982132e+01
   1.675941e+02   1.191053e+02
  -4.309786e-01   2.081595e+02
  -1.291074e+02   1.576010e+02
  -2.001787e+02   5.819959e+01
  -5.382788e+01  -8.642488e+01
   3.859768e+01  -8.706459e+01
   5.257038e+01  -4.452994e+00
   3.576642e+01   3.346964e+01
  -1.838389e+01   2.336780e+01
  -1.887336e+01  -1.091090e+00
   6.616897e+01  -4.229024e+00
   7.633519e+01   6.603122e+01
   1.090207e+01   1.777909e+02
  -1.767121e+02   1.445498e+02
  -2.357825e+02   5.962126e+00
  -1.868943e+02  -1.906366e+02
  -9.150983e+01  -2.379310e+02
   1.371812e+02  -1.677130e+02
   1.689808e+02  -3.300980e+01
   7.144154e+01   7.197829e+01
   3.168556e+01   6.287411e-01
   3.679196e+01   2.098545e+00
   8.015802e+01  -1.875199e+01
   6.630177e+01   3.414520e+01
  -2.390116e+01   7.709572e+01
  -1.421670e+02   2.441159e+01
  -9.781249e+01  -2.859005e+01
   4.964401e+01  -9.046071e+01
   1.629544e+02  -9.203692e+01
   2.129907e+02   9.395119e+01
   4.130884e+01   2.538896e+02
  -1.023053e+02   2.194522e+02
  -3.134205e+02   9.987190e+01
  -2.669632e+02  -1.002593e+02
  -1.223708e+02  -1.770834e+02
   5.035059e+01  -1.293336e+02
   1.087175e+02  -1.121088e+02
   8.662990e+01  -8.196294e+01
   6.866018e+01  -7.831776e+01
   1.049239e+02  -5.704004e+01
   1.098091e+02   2.442581e+01
   9.388407e+01   1.199964e+02
   1.349575e+01   2.380162e+02
  -9.755281e+01   1.521246e+02
  -1.660155e+02  -7.173880e+00
  -9.765025e+01  -1.233652e+02
   1.478035e+01  -1.650144e+02
   4.305427e+01  -8.809074e+01
   5.269369e+01  -1.766451e+01
  -1.270200e+01   6.004521e+01
  -1.512489e+01   3.837486e+01
   3.572473e+01   1.507566e+01
   7.419541e+01   3.741059e+01
   2.905035e+01   9.564134e+00
  -4.300398e+01   4.568624e-01
  -1.758605e+02  -3.668779e+01
  -1.488235e+02  -3.726191e+01
   1.251782e+00  -9.072539e+01
   1.401006e+02  -7.686920e+01
   1.540375e+02  -2.094976e+01
   6.598338e+01   6.065591e+01
  -2.831354e+01   4.513132e+01
  -9.294535e+01  -4.410748e+01
   1.048067e+01  -4.794344e+01
   7.056928e+01  -7.826257e+01
   7.039119e+01  -1.222098e+00
   6.637553e+01   3.700094e+01
   3.595622e+01   4.587119e+01
   2.199501e+01  -1.192207e+01
   2.338560e+01  -7.904462e+00
   2.701542e+01   6.433931e+01
  -1.487564e+01   1.623823e+02
  -1.281785e+02   1.719058e+02
  -1.593719e+02   4.843494e+01
  -1.126633e+02  -5.654086e+01
  -1.834682e+01  -1.425052e+02
   6.200889e+01  -6.737332e+01
   7.014536e+01   3.174507e+01
  -5.463796e+01   6.500883e+01
  -1.013281e+02  -1.891864e+01
  -6.804533e+01  -1.091019e+02
   8.768531e+01  -1.411518e+02
   2.017764e+02  -4.454294e+01
   1.377890e+02   1.892077e+01
   1.864723e+01   1.256086e+02
  -1.062947e+02   7.678334e+01
  -4.575333e+01  -5.779127e+00
   4.199753e+01  -4.527360e+01
   7.230568e+01   2.447614e+01
   5.744716e+01   1.397146e+02
  -7.380834e+01   1.578494e+02
  -1.277790e+02   6.389984e+01
  -9.430459e+01  -8.055458e+01
   5.111509e+00  -1.555071e+02
   8.390061e+01  -1.492333e+02
   1.046527e+02   2.317955e+01
   3.938845e+01   1.099214e+02
  -2.906111e+01   9.883261e+01
  -2.887149e+01   3.871018e+00
  -6.786021e+01  -4.376435e+01
   1.086470e+01  -2.129603e+00
   5.944499e+00   2.553927e+01
  -4.840563e+00  -1.313192e+00
  -3.555504e+01  -7.036386e+01
  -2.975010e+01  -8.264744e+01
   2.942724e+01  -4.021027e+01
   1.010472e+02   3.917827e+01
   1.078839e+02   8.574007e+01
  -9.113284e+00   5.996487e+01
  -5.696737e+01   5.576807e+01
  -9.472818e+01  -9.811872e+00
  -3.620682e+00   1.516018e-01
   3.193869e+01  -4.624616e+01
   2.453584e+01  -3.233809e+01
  -2.189543e+01   1.391427e+01
   8.437854e-01   1.805226e+01
   1.138171e+02   9.855255e+00
   9.876465e+01  -6.749848e+00
   3.896131e+01   8.066972e+01
  -7.567001e+01   7.911430e+01
  -1.923778e+02   5.594960e+01
  -1.004886e+02  -8.683836e+01
  -9.757900e+00  -1.528936e+02
   1.038168e+02  -1.582666e+02
   1.470453e+02  -5.376161e+01
   1.031835e+02   3.783939e+01
   2.526488e+01   4.598666e+01
   2.998474e+01   3.016082e+01
   3.504217e+01   6.638763e-01
   2.917593e+01   4.047737e+01
   1.296554e+01   1.295575e+02
  -5.385954e+01   6.679832e+01
  -9.558390e+01  -4.921456e+01
  -7.459821e+01  -9.368628e+01
  -2.604216e+01  -1.060480e+02
   1.067657e+02  -3.454181e+01
   9.113494e+01   5.000718e+01
   2.611531e+01   8.864363e+01
  -6.153344e+01   6.076516e+01
  -8.999845e+01  -3.027963e+01
  -5.981755e+01  -4.167781e+01
   4.779774e+01  -6.572971e+01
   1.594133e+01  -4.304811e+01
  -1.639285e+01  -1.732829e+01
  -5.250259e+01   9.820962e+00
  -1.040011e+01  -2.564331e+01
   6.897053e+01  -6.174502e+01
   8.861523e+01  -7.375377e+01
   8.103529e+01   1.769965e-01
  -1.895764e+00   5.635845e+01
  -4.164889e+01   7.226048e+01
  -5.248261e+01   1.108576e+01
  -1.431652e+01  -5.063350e+01
   2.528666e+01  -5.515896e+01
   7.831594e+01   2.052165e+01
   5.572484e+01   3.681069e+01
  -7.265641e+00   2.880869e+01
  -9.980547e+00   1.861905e+01
  -5.195227e+01  -4.680448e+01
  -2.918130e+01  -1.157344e+01
   4.073351e+01  -1.780308e+01
   8.154783e+00   1.604770e+01
  -1.973623e+01  -3.518902e+01
  -2.071758e+01  -4.311177e+01
   7.415868e+00  -1.243965e+00
   2.867526e+01   2.978998e+01
   1.002257e+01   2.118486e+01
  -5.635861e+01   5.330990e+01
  -7.523582e+01  -2.534270e+01
  -3.590352e+01  -8.764896e+01
   6.298347e+01  -5.653688e+01
   9.000671e+01   3.238353e+01
   5.998259e+01   5.065167e+01
  -4.552720e+01   3.083843e+01
  -1.046482e+02  -6.846902e+00
  -2.790585e+01  -2.213019e+01
   4.143624e+01   1.821040e+01
   3.393172e+01  -2.406297e+01
  -2.503177e+01   5.730291e+01
  -6.588918e+01   4.476992e+01
