
 $NMID
 id='ANONYMOUS ', fmtdat='(2E16.6)'
 volume=1.0
 tramp=1.0
 $END
   4.625524e+03   2.430876e+02
   2.667184e+03   2.551586e+03
  -8.105643e+02   2.645836e+03
  -1.971850e+03   9.262635e+02
  -8.612058e+02  -5.762350e+02
   5.486469e+02  -6.069026e+02
   8.141116e+02   4.050503e+02
   3.057573e+01   1.078378e+03
  -6.827749e+02   7.809385e+02
  -9.384690e+02  -9.787984e+01
  -4.359105e+02  -8.342612e+02
   2.404729e+02  -9.083963e+02
   6.544917e+02  -1.128163e+02
   4.438737e+02   7.141286e+02
  -2.946131e+02   7.598368e+02
  -5.780055e+02   1.020474e+01
  -3.212127e+02  -6.706261e+02
   3.567682e+02  -6.731304e+02
   6.192099e+02  -1.239397e+02
   3.987240e+02   3.863311e+02
   6.543590e+01   4.366040e+02
  -2.049681e+02   3.012709e+02
  -2.351777e+02   2.890355e+01
   9.302931e+01  -1.270461e+02
   4.208229e+02   1.180007e+02
   2.247018e+02   4.786696e+02
  -4.754525e+02   4.401617e+02
  -8.940165e+02  -6.125174e+01
  -4.845078e+02  -5.389390e+02
   4.018141e+02  -4.588172e+02
   7.705979e+02   2.121138e+01
   4.049262e+02   4.524956e+02
  -3.029032e+02   5.452395e+02
  -5.750991e+02   1.765771e+02
  -3.988697e+02  -2.266849e+02
  -1.002549e+02  -4.286357e+02
   2.419203e+02  -3.511266e+02
   2.084653e+02   2.313293e+02
  -2.035817e+02   4.052815e+02
  -4.487637e+02  -1.547749e+01
  -3.151020e+02  -6.031599e+02
   2.707471e+02  -7.494462e+02
   6.162997e+02  -4.409731e+01
   2.512142e+02   5.809060e+02
  -2.626267e+02   3.194471e+02
  -4.220533e+02  -2.897036e+02
   6.920893e+01  -5.370447e+02
   4.901337e+02  -1.314086e+02
   6.027732e+02   4.061057e+02
   1.833301e+02   5.841387e+02
  -3.708111e+02   3.285766e+02
  -6.485354e+02  -3.639753e+01
  -3.955152e+02  -3.290715e+02
   1.375403e+02  -3.337515e+02
   4.462922e+02  -1.101143e+02
   2.432617e+02   1.813824e+02
  -1.321730e+02   1.270321e+02
  -1.581530e+02  -1.248968e+02
   1.774888e+02  -1.769377e+02
   3.463783e+02   4.579153e+01
   1.229792e+02   2.941936e+02
  -2.070477e+02   2.713049e+02
  -3.230740e+02   8.409983e+01
  -1.602349e+02  -7.331169e+01
   5.352234e+01  -2.041732e+02
   2.236746e+02  -3.166441e+02
   3.788380e+02  -2.034759e+02
   2.822134e+02   1.144932e+02
   7.943770e+01   4.333216e+02
  -9.569016e+01   4.292084e+02
  -1.396836e+02   7.617455e+01
  -4.743805e+01  -7.413880e+00
  -4.584265e+01   5.833817e+01
  -2.074477e+02   1.339552e+02
  -3.067736e+02  -6.091937e+01
  -1.570810e+02  -2.936307e+02
   6.303616e+01  -2.417346e+02
   2.165691e+02  -1.234335e+01
   2.172497e+02   2.343734e+02
   3.222987e+01   2.732374e+02
  -2.809963e+02   1.296652e+02
  -3.855878e+02  -1.429350e+02
  -2.062419e+02  -4.129140e+02
   1.550062e+02  -2.896135e+02
   2.223239e+02  -1.025766e+02
   2.046902e+02   3.038886e+01
   6.870990e+01  -2.344052e+01
   1.866551e+02  -2.936547e+01
   4.417669e+02   6.438433e+01
   3.300117e+02   2.701232e+02
   4.872289e+00   4.546888e+02
  -3.243636e+02   4.154533e+02
  -4.561317e+02   2.464693e+02
  -3.650417e+02  -7.620895e+01
  -7.675767e+01  -3.123392e+02
   1.466098e+02  -2.498851e+02
   1.354691e+02  -1.538512e+01
  -1.546437e+02   1.089546e+02
  -2.119715e+02   5.047021e-01
  -5.815571e+01  -2.096144e+02
   1.955762e+02  -1.589251e+02
   1.970790e+02   4.086373e+01
  -2.054993e+00   1.659780e+02
  -1.909197e+02   4.882366e+01
  -1.715259e+02  -1.823924e+02
   5.808268e+01  -3.302297e+02
   2.479043e+02  -1.923890e+02
   3.598189e+02   6.930853e+01
   2.864799e+02   2.632010e+02
   8.746050e+01   2.864424e+02
  -1.503157e+02   1.786504e+02
  -1.430188e+02   4.336068e+01
  -5.460102e+01  -3.421739e+01
   5.341769e+01   3.986005e+01
   2.797312e+01   1.584740e+02
  -1.230053e+02   1.198482e+02
  -1.913399e+02  -3.297116e+00
  -9.454683e+01  -4.252921e+01
   6.084097e+01  -1.372562e+01
   7.572743e+01   4.132558e+01
  -9.986021e+01   6.158986e+01
  -2.758830e+02   5.376847e+00
  -2.677577e+02  -9.532644e+01
  -7.725749e+01  -2.317345e+02
   1.546872e+02  -2.874436e+02
   2.485284e+02  -1.355157e+02
   1.917469e+02   5.671056e+00
  -4.968105e+00   8.981219e+01
  -8.767861e+01  -1.669736e+01
   6.789829e+01  -8.775405e+01
   2.023113e+02  -7.244530e+01
   2.524945e+02   1.160322e+02
   8.446217e+01   2.326395e+02
  -9.195333e+01   1.538946e+02
  -1.683455e+02   4.097817e+01
  -6.750820e+01  -7.408380e+01
   4.905291e+01  -1.802105e+01
   1.398057e+01   1.296451e+02
  -7.114380e+01   1.335638e+02
  -1.699334e+02   4.750103e+01
  -1.731367e+02  -9.325086e+01
  -2.830068e+01  -2.027255e+02
   1.333822e+02  -2.078282e+02
   1.830097e+02  -1.492849e+01
   1.045254e+02   1.030953e+02
  -4.421692e+01   1.078557e+02
  -8.447917e+01   3.714754e+01
  -6.115982e+01  -5.240659e+01
   1.110250e+01  -4.979854e+01
  -5.315592e+01  -2.110172e+01
  -8.452878e+01   2.764027e+01
  -8.031759e+01  -7.462612e+01
   1.632623e+01  -1.762157e+02
   1.339001e+02  -1.456855e+02
   2.149114e+02  -3.065156e+01
   1.580129e+02   1.379451e+02
   3.012909e+01   2.130833e+02
  -9.422301e+01   1.733594e+02
  -1.095500e+02   5.792709e+01
  -4.890587e+01  -6.208547e+01
  -6.095398e+01  -4.171674e+00
  -4.142010e+01   3.189123e+01
  -7.472006e+01   1.902686e+01
  -1.922624e+01  -6.376287e+01
   2.489703e+01  -8.144296e+01
   1.116766e+02  -6.327990e+01
   5.042381e+01   4.864690e+01
  -2.038974e+01   1.055779e+02
  -1.059907e+02   7.927245e+01
  -2.143245e+02  -6.697272e+01
  -1.148651e+02  -2.019277e+02
   1.089865e+02  -2.289699e+02
   2.474932e+02  -6.479782e+01
   2.608397e+02   3.920772e+01
   1.071169e+02   1.661675e+02
  -4.066133e+01   1.362242e+02
  -9.947619e+01   1.008932e+02
  -6.449430e+01   7.728999e+01
  -9.044646e+01   9.932227e+01
  -1.163156e+02   5.104220e+01
  -8.971944e+01  -2.480228e+01
  -1.135448e+02  -1.595834e+02
   1.987894e+01  -2.137659e+02
   8.855733e+01  -1.697513e+02
   1.680081e+02  -7.652837e-02
   1.133671e+02   1.295654e+02
   1.175392e+01   1.451167e+02
  -3.907380e+01   8.025257e+01
  -6.652901e+01  -4.724180e+00
  -5.525901e+00  -3.862855e+01
   2.432123e+01  -9.603179e+00
  -2.834590e+01  -1.355249e+01
  -9.352175e+01   9.342311e+00
  -4.012996e+01  -1.078900e+01
   1.024938e+02  -4.455067e+01
   1.630907e+02  -2.401499e+01
   1.332438e+02   5.125988e+01
   5.078842e+01   5.999571e+01
  -1.480159e+02   9.210182e+01
  -1.380565e+02   3.490578e+01
  -5.191718e+01  -8.256152e+00
   6.300579e+01  -1.664551e+01
   6.286655e+01  -2.014033e+01
   4.764093e+00   1.084244e+02
  -5.228369e+01   6.308266e+01
  -6.162072e+01   2.675487e+00
  -3.581633e+01  -3.814917e+01
  -4.913474e+01  -5.797670e+01
  -6.341619e+01   2.394950e+01
  -9.509908e+01  -1.795816e+01
  -4.262406e+01  -7.804197e+01
   3.809079e+01  -1.615673e+02
   1.531158e+02  -1.603432e+02
   1.649714e+02  -6.798803e+00
   1.434060e+02   8.208875e+01
   2.120222e+01   1.792931e+02
  -9.473143e+01   7.377732e+01
  -4.535633e+01  -1.905920e+01
   6.700129e+01  -5.036351e+01
   1.322094e+02   2.626615e+01
   7.192416e+01   1.049536e+02
  -5.714665e+01   1.180680e+02
  -1.919329e+02   7.231930e+01
  -1.612763e+02  -4.460039e+01
  -5.206849e+01  -8.436468e+01
   6.566664e+01  -8.960624e+01
   5.875615e+01   2.816205e+01
  -4.621931e+01   2.480798e+01
  -8.198337e+01   1.184224e+01
  -2.998637e+01  -1.572608e+02
   8.704601e+01  -1.736339e+02
   1.599859e+02  -7.341784e+01
   1.324618e+02   3.956621e+01
   1.129506e+01   2.222470e+02
  -8.348209e+01   1.639225e+02
  -1.153008e+02   1.019848e+01
  -3.970669e+01  -9.231276e+01
   2.743412e+01  -6.984522e+01
   2.617676e+01  -1.018663e+01
   8.020037e+01   4.244267e+01
   3.410394e+01  -1.796206e+01
   1.703442e+01  -3.328007e+01
   5.235873e+01   2.959242e+01
   7.808833e+01   7.518079e+01
   3.388401e+01   1.139934e+02
  -5.858250e+01   1.224642e+01
  -1.541111e+02  -1.948367e+01
  -1.028584e+02  -7.250623e+01
  -8.859933e+00  -3.290870e+01
   7.585743e+01  -3.476114e+01
   7.461971e+01  -1.218847e+00
   2.012285e+00  -2.356321e+01
  -3.612233e+01   6.285632e+01
  -2.999145e+01   1.267063e+01
   1.129267e+01   5.229171e+00
  -3.588610e+01  -1.490710e+01
  -5.191027e+01   2.042154e+01
  -1.129366e+02  -1.849865e+01
  -1.223292e+01  -9.820943e+01
   1.310581e+02  -1.061022e+02
   1.664101e+02  -1.040185e+02
   1.395012e+02   7.836308e+01
   3.127459e+01   1.629336e+02
  -5.667482e+01   1.586014e+02
  -9.582395e+01   2.879059e+01
  -9.558386e+01  -1.193826e+01
  -1.450486e+01   2.849878e+00
   2.070675e+01  -3.156791e+00
  -6.497808e+00  -2.305497e+01
  -3.389008e+01  -6.708081e+01
  -3.268226e+01  -8.350788e+01
   1.192335e+01  -8.186931e+01
   7.190235e+01   1.469857e+01
   7.876877e+01   1.052159e+02
   4.168214e+01   1.168688e+02
  -1.383583e+02  -2.331154e+01
  -9.338121e+01  -7.991762e+01
   9.753679e+00  -1.014816e+02
   5.578493e+01  -8.449712e+01
   9.819630e+01   2.040267e+01
   6.238329e+01   3.012795e+01
  -3.594060e+01   5.870857e+01
  -5.825196e+01   4.354442e+01
   4.747460e+01  -4.594741e+01
   4.530462e+01   7.295317e+00
  -1.648061e+00   6.565611e+01
  -5.952577e+01   6.105741e+01
  -1.113596e+02   9.438863e+01
  -6.701879e+01  -4.660089e+01
   1.216149e+01  -9.509189e+01
   3.769919e+01  -1.107076e+02
   4.758963e+01  -3.211728e+01
  -2.584127e+01   4.126056e+01
  -5.294944e+01   1.653525e+01
  -3.121943e+01  -5.299709e+01
  -3.677963e+01  -5.441361e+01
  -1.540582e+01  -7.723123e+01
   5.011408e+01   7.836947e+00
   1.241363e+01   1.924480e+01
  -3.908763e+01  -1.041314e+01
  -2.655897e+01  -2.201968e+01
   6.033546e+00  -2.858750e+01
  -1.049334e+01   5.322157e+01
   1.862852e+01   7.019816e+01
  -3.011251e+01   4.147021e+01
  -4.350443e+01  -3.208803e+01
   6.780909e-01  -7.566017e+01
   4.862030e+01  -5.633754e+01
   7.240851e+01   2.690677e+00
   2.825675e+01   4.736853e+01
  -4.882215e+01   3.913098e+01
  -1.039945e+02   1.143227e+01
  -6.574973e+01  -2.335539e+01
   6.039856e+01  -3.896481e+01
   3.438085e+01  -4.012110e+01
   1.396096e+01   2.903856e+01
  -9.196225e+01  -2.304834e+01
  -2.875146e+01   1.163651e+01
   2.652661e+01  -2.989276e+01
   9.167060e+01  -9.727792e+00
