
 $NMID
 id='ANONYMOUS ', fmtdat='(2E16.6)'
 volume=1.0
 tramp=1.0
 $END
   3.060391e+03  -7.044735e+01
   2.404127e+03   1.642719e+03
   1.009073e+02   2.090656e+03
  -1.341802e+03   1.326680e+03
  -9.454949e+02   1.601094e+02
   3.012602e+01  -3.734062e+02
   4.643382e+02   8.721535e+01
   1.401655e+02   5.663026e+02
  -4.260907e+02   7.270997e+02
  -6.674729e+02   7.802724e+01
  -5.005191e+02  -5.457144e+02
  -2.379932e-01  -7.306826e+02
   3.668717e+02  -2.211493e+02
   3.036259e+02   5.105776e+02
  -8.907717e+01   5.998332e+02
  -4.151995e+02   9.556287e+01
  -2.608556e+02  -5.074450e+02
   1.338804e+02  -5.779515e+02
   4.300877e+02  -2.208648e+02
   4.184863e+02   1.615881e+02
   1.414794e+02   3.352201e+02
  -1.576618e+02   2.595948e+02
  -7.146465e+01   1.168081e+02
   1.316891e+02   6.830083e+01
   3.006012e+02   1.978638e+02
   1.541087e+01   3.735883e+02
  -4.378526e+02   1.793005e+02
  -6.394647e+02  -1.837268e+02
  -2.499846e+02  -3.964457e+02
   3.448085e+02  -2.578108e+02
   5.198376e+02   6.679471e+01
   2.117500e+02   3.895131e+02
  -2.253020e+02   3.477446e+02
  -4.221558e+02   1.636959e+02
  -3.148558e+02  -1.549219e+02
  -1.069356e+02  -2.916878e+02
   5.908341e+00  -1.898693e+02
   1.916286e+01   8.052186e+01
  -1.519455e+02   1.925089e+02
  -2.371545e+02  -1.375117e+02
  -1.069094e+02  -5.555301e+02
   2.649741e+02  -5.052844e+02
   3.827661e+02   1.428533e+01
   1.385468e+02   3.566977e+02
  -1.984964e+02   1.451465e+02
  -2.312116e+02  -2.554153e+02
   1.155324e+02  -3.948102e+02
   3.979255e+02  -1.033071e+02
   4.853922e+02   4.074235e+02
   1.642564e+02   4.729596e+02
  -3.137149e+02   2.741307e+02
  -5.051240e+02  -6.160770e+01
  -3.424278e+02  -2.458945e+02
   4.402974e+01  -2.286111e+02
   2.984173e+02  -1.309377e+02
   2.329407e+02   8.038311e+01
   9.019341e+00   2.918194e+01
  -8.652184e+01  -6.295455e+01
   6.569654e+01  -1.012954e+02
   2.590134e+02   5.162373e+01
   1.561000e+02   2.170348e+02
  -1.551737e+02   2.554987e+02
  -3.860953e+02   9.323042e+01
  -2.565152e+02  -1.225127e+02
   4.236825e+01  -2.861511e+02
   3.057091e+02  -3.546603e+02
   3.821189e+02  -1.629008e+02
   1.851274e+02   1.416124e+02
   7.695931e+01   3.293667e+02
  -3.085846e+01   2.781056e+02
  -6.346958e+01   1.403373e+02
  -3.253218e+01   1.266808e+02
  -1.127657e+02   6.664469e+01
  -2.303717e+02   4.348195e+01
  -2.919979e+02  -9.991781e+01
  -8.591838e+01  -2.069048e+02
   1.060834e+02  -1.987450e+02
   1.975839e+02   4.195224e+00
   1.527067e+02   1.964458e+02
  -3.194159e+01   2.164054e+02
  -2.397444e+02   7.197704e+01
  -2.367382e+02  -1.521341e+02
  -1.630708e+02  -3.040570e+02
   6.700403e+01  -2.949197e+02
   1.944977e+02  -1.503820e+02
   1.335361e+02  -1.091105e+02
   1.352263e+02  -9.326661e+01
   2.817474e+02  -4.377518e+01
   4.258537e+02   7.471739e+01
   2.856817e+02   2.563652e+02
   1.654925e+01   4.537811e+02
  -3.509814e+02   3.788971e+02
  -4.703635e+02   1.234165e+02
  -3.082718e+02  -9.572786e+01
  -6.478317e+01  -2.277279e+02
   1.272362e+02  -1.832168e+02
   2.811818e+01  -8.377710e+01
  -8.729531e+01   4.894205e+01
  -1.301773e+02  -1.518954e+00
  -2.674460e+01  -9.572927e+01
   1.387353e+02  -1.024528e+02
   1.155603e+02   4.149754e+01
  -2.774069e+01   1.447886e+02
  -1.660084e+02  -1.268804e+01
  -1.784316e+02  -1.855102e+02
  -5.843181e+00  -3.330502e+02
   2.272980e+02  -2.181909e+02
   3.429009e+02   5.450614e+01
   2.582730e+02   2.838042e+02
   4.425346e+01   2.830958e+02
  -1.158840e+02   1.411719e+02
  -1.319045e+02   6.561962e+00
  -7.839716e+01  -2.965006e+01
   2.557064e+01   4.473685e+01
  -5.777769e+01   9.034581e+01
  -1.400608e+02   6.465118e+01
  -1.590353e+02  -2.740194e+01
  -2.395790e+01  -6.131589e+01
   5.907136e+01  -9.494288e+00
   3.451811e+01   9.401107e+01
  -1.322471e+02   1.028004e+02
  -3.177597e+02   1.592330e+01
  -2.336967e+02  -1.689775e+02
  -4.084785e+01  -2.461060e+02
   2.049412e+02  -2.376970e+02
   2.716567e+02  -9.647275e+01
   1.802546e+02   1.096797e+01
  -3.395897e+01   5.555888e+01
  -6.203262e+01  -1.229714e+01
   4.477082e+01  -9.251229e+01
   1.378563e+02  -3.058459e+01
   2.238755e+02   9.105411e+01
  -1.790410e+00   2.029975e+02
  -8.816630e+01   1.238533e+02
  -1.410154e+02  -3.687491e+00
  -6.768685e+01  -5.767218e+01
   4.218236e+01   4.393552e-01
   5.603224e+01   8.782503e+01
  -5.494912e+01   1.155218e+02
  -1.701657e+02   6.770415e+00
  -1.771953e+02  -1.403204e+02
  -3.367840e+01  -1.882429e+02
   1.043212e+02  -1.688599e+02
   1.972099e+02  -2.430548e+01
   6.445443e+01   1.135639e+02
  -9.190593e+01   7.955236e+01
  -5.940813e+01   3.567527e+01
   3.711358e+01  -3.516204e+01
   7.148526e+01  -2.343265e+01
  -1.278596e+01   3.472203e+01
  -9.388145e+01  -3.249179e+00
  -1.291302e+02  -7.611158e+01
  -8.969734e+00  -1.631845e+02
   1.320479e+02  -1.499658e+02
   1.995322e+02  -9.237852e+00
   1.996718e+02   1.699236e+02
   2.962962e+01   1.617778e+02
  -8.113454e+01   1.509104e+02
  -1.086044e+02   4.507185e+01
  -9.069815e+01  -6.072668e+01
  -3.887879e+01  -1.545448e+01
  -5.867765e+01  -9.688527e+00
  -8.014805e+01  -7.706132e+00
  -9.285590e+01  -4.995673e+01
   9.582429e+00  -1.605096e+02
   1.082574e+02  -6.452519e+01
   1.302790e+02   3.571606e+01
  -1.565447e+01   1.412638e+02
  -1.523619e+02   9.053583e+01
  -2.554407e+02  -3.151159e+01
  -6.136715e+01  -1.998080e+02
   1.211586e+02  -2.244870e+02
   2.863332e+02  -7.429071e+01
   1.966156e+02   9.042670e+01
   6.882165e+01   1.556816e+02
  -5.262256e+01   1.303653e+02
  -1.023109e+02   7.976718e+01
  -6.986489e+01   6.126777e+01
  -4.898404e+01   1.039398e+02
  -7.488207e+01   6.458976e+01
  -9.819537e+01   3.766454e+00
  -1.315613e+02  -1.160849e+02
   2.643737e+01  -2.047897e+02
   1.387159e+02  -1.733924e+02
   1.444459e+02   2.125441e+01
   1.329077e+02   1.109214e+02
   2.399263e+01   1.204473e+02
  -7.771316e+01   1.362040e+02
  -9.212855e+01  -3.199920e+01
  -4.546209e-01  -6.311542e+01
   2.092049e+01  -4.626434e+01
  -1.062306e+01  -4.877166e+01
  -7.235877e+01  -3.301961e+01
  -6.602879e+01  -4.607493e+01
   3.364915e+01   1.350530e+01
   1.833223e+02  -1.074473e+01
   1.158476e+02  -9.650455e+00
   1.117324e+01   6.370980e+01
  -1.141392e+02   8.904301e+01
  -1.272094e+02  -2.525353e+01
  -4.466454e+01  -7.933439e+01
   6.622872e+01  -5.250753e+01
   5.734316e+01   3.175554e+01
   3.429224e+01   9.097544e+01
  -2.921161e+01   9.331012e+01
  -5.966961e+01   1.327080e+01
  -7.263473e+01   1.092283e+01
  -4.153575e+01  -4.114051e+01
  -6.210367e+01  -2.411716e+01
  -7.010740e+01  -1.983453e+01
  -5.251574e+01  -5.679918e+01
   3.250050e+01  -1.457374e+02
   1.207581e+02  -1.551488e+02
   1.929796e+02  -3.952484e+01
   1.236971e+02   1.002840e+02
   3.311425e+01   1.441585e+02
  -9.365514e+01   3.929946e+01
  -4.629159e+01  -3.629019e+01
   9.217008e+00  -1.878061e+01
   1.137769e+02   6.353055e+00
   7.712539e+01   8.289038e+01
  -1.018622e+02   7.107935e+01
  -1.815310e+02   8.706594e+01
  -1.606307e+02  -6.232147e+01
  -3.867591e+01  -1.015423e+02
   8.747940e+00  -7.139862e+01
   4.579443e+01   1.954292e+01
   2.269767e+00   7.063761e+01
  -9.473188e+01  -6.682667e+00
  -1.225479e+01  -1.309870e+02
   9.220664e+01  -1.570129e+02
   1.979489e+02  -6.320888e+01
   1.211285e+02   8.013615e+01
   5.023830e+01   1.671664e+02
  -1.001625e+02   1.351369e+02
  -1.136536e+02  -2.178463e+01
  -6.244464e+01  -1.261226e+02
   5.419111e+01  -1.034599e+02
   4.519823e+01   3.847704e+01
   1.590576e+01   2.375214e+01
   4.026904e+01  -4.839669e+00
   3.316475e+01  -9.118862e+00
   1.048135e+01  -7.586468e+00
   2.279724e+01   1.112813e+02
   6.844474e+01   1.181828e+02
  -4.022533e+01   3.979428e+01
  -1.628877e+02  -1.595439e+01
  -1.334812e+02  -9.574814e+01
  -4.119473e+01  -5.722111e+01
   8.566265e+01  -2.236960e+01
   1.142365e+02   8.471209e-01
   3.847953e+01   1.594324e+01
  -3.917290e+01  -2.710725e+00
  -1.140184e+01   2.390490e+01
   4.052355e+01   1.361156e+01
   5.906615e+00  -7.991336e+00
  -9.193372e+01  -1.051873e+01
  -9.391627e+01  -3.466646e+01
  -6.180849e+01  -7.360873e+01
   9.287396e+01  -1.517671e+02
   1.922356e+02  -7.908743e+01
   1.514473e+02   7.811085e+01
   7.862986e+01   1.841781e+02
  -6.200735e+01   1.498772e+02
  -1.383504e+02   3.800131e+01
  -8.393594e+01  -1.452318e+01
   3.765151e+01  -5.701987e+01
  -4.934945e+00  -2.238780e+01
  -2.972383e+01  -5.223218e+01
  -4.640013e+01  -1.724764e+00
  -1.512993e+01  -8.112368e+01
   4.843593e+01  -6.506543e+01
   8.887487e+01  -2.488841e+01
   7.699140e+01   1.239075e+02
   2.218678e+01   1.085094e+02
  -4.525056e+01   3.227614e+01
  -9.215248e+01  -7.250252e+01
  -3.282510e+01  -1.367053e+02
   6.622408e+01  -6.145734e+01
   1.266730e+02  -1.843898e+01
   4.210017e+01   4.939932e+01
  -8.086942e+00   6.227938e+01
  -4.134730e+00   9.273157e+00
   1.428514e+01  -2.851977e+01
   7.565309e+01  -3.968289e+01
  -2.269447e+01   5.057478e+00
  -8.862607e+01   4.332496e+01
  -1.135980e+02   2.681666e+01
  -6.461152e+01   1.636093e+01
   1.715084e+01  -7.557152e+01
   3.013560e+01  -8.458363e+01
   3.567573e+01  -2.345933e+01
  -9.379321e+00   7.598222e+01
  -4.321656e+01   4.438685e+01
  -4.752243e+01   1.209725e+01
  -4.714860e+01  -7.788537e+01
  -1.534345e+01  -5.388988e+01
   2.469719e+01  -3.512754e+01
   4.074938e+01   3.440895e+01
   5.227230e+01  -3.885169e+01
  -1.517801e+01  -8.209011e+00
   1.200987e+01  -5.675634e+00
  -9.636761e+00   2.859454e+01
   1.416600e+01   5.241755e+01
  -2.763400e+01   3.432092e+01
  -6.563831e+01  -5.736613e+01
  -2.868673e+01  -3.757257e+01
   3.809959e+01  -2.602319e+01
   2.190797e+01   2.880799e+01
   2.494536e+01   6.848058e+01
  -6.467945e+01  -2.613472e+01
  -1.271276e+02  -1.287212e+01
  -4.691720e+01  -3.686220e+01
   4.203207e+01  -5.496198e+01
   6.855287e+01  -7.971026e+01
   5.078725e+01   2.299333e+01
  -8.477017e+01  -2.646937e+01
  -3.300265e+00   2.144805e+01
   2.822040e+01  -2.778741e+01
   2.651760e+01  -1.536766e+01
