
 $NMID
 id='ANONYMOUS ', fmtdat='(2E16.6)'
 volume=1.0
 tramp=1.0
 $END
   3.518476e+03   5.150958e+01
   2.357691e+03   1.928413e+03
  -3.637290e+02   2.193337e+03
  -1.568190e+03   1.119841e+03
  -7.967409e+02  -7.408787e+01
   1.719852e+02  -1.972836e+02
   5.339493e+02   1.996726e+02
   2.637236e+01   6.681054e+02
  -6.265985e+02   5.892600e+02
  -7.500034e+02  -3.370843e+00
  -4.513828e+02  -6.019260e+02
   5.524319e+01  -7.235350e+02
   4.040109e+02  -1.271937e+02
   2.459048e+02   5.008206e+02
  -2.002165e+02   6.040100e+02
  -4.693083e+02   5.323905e+01
  -2.856025e+02  -5.331276e+02
   2.371218e+02  -5.915110e+02
   4.595756e+02  -2.062415e+02
   3.805965e+02   2.120195e+02
   7.987502e+01   3.739878e+02
  -1.390180e+02   2.411775e+02
  -1.045866e+02   4.508885e+01
   1.807160e+02   4.523078e+01
   3.568919e+02   2.256659e+02
   2.719788e+01   4.141824e+02
  -5.025242e+02   2.258850e+02
  -6.605389e+02  -1.927054e+02
  -2.645610e+02  -4.315137e+02
   3.242799e+02  -2.613846e+02
   5.431421e+02   1.099771e+02
   2.357727e+02   3.922408e+02
  -2.652458e+02   4.238964e+02
  -4.764538e+02   1.551594e+02
  -3.179465e+02  -2.087197e+02
  -5.936718e+01  -3.507860e+02
   9.731373e+01  -2.176410e+02
  -5.651273e+00   1.220983e+02
  -2.372366e+02   2.450591e+02
  -3.015184e+02  -1.486662e+02
  -7.697112e+01  -5.462867e+02
   2.633633e+02  -5.073954e+02
   4.097733e+02   2.336362e+00
   1.642549e+02   3.922507e+02
  -2.195895e+02   2.228396e+02
  -2.583810e+02  -2.726519e+02
   1.223963e+02  -4.027600e+02
   5.030293e+02  -6.276572e+01
   5.466761e+02   3.834960e+02
   1.618138e+02   4.744278e+02
  -3.455259e+02   2.760714e+02
  -5.407882e+02  -9.183730e+01
  -3.670717e+02  -3.096923e+02
   9.694362e+01  -2.772259e+02
   3.335579e+02  -6.298713e+01
   2.314650e+02   7.370818e+01
  -2.581406e+01   4.900012e+01
  -8.547613e+01  -7.844366e+01
   1.324166e+02  -1.457246e+01
   2.707880e+02   5.060271e+01
   1.442418e+02   2.282436e+02
  -1.939533e+02   2.747904e+02
  -3.430760e+02   7.622893e+01
  -2.685359e+02  -1.297629e+02
   4.911384e+01  -3.193523e+02
   3.060600e+02  -3.870092e+02
   3.458652e+02  -1.739617e+02
   2.403319e+02   1.323461e+02
   7.226016e+01   3.366961e+02
  -5.980456e+01   3.544902e+02
  -6.376005e+01   1.488608e+02
  -1.391131e+01   8.795291e+01
  -1.065751e+02   8.766469e+01
  -2.471490e+02   1.170113e+02
  -2.143395e+02  -1.128338e+02
  -8.866461e+01  -2.748881e+02
   1.083980e+02  -2.352002e+02
   1.798552e+02   3.674645e+01
   1.706677e+02   2.869360e+02
  -3.802290e+01   2.768682e+02
  -2.947549e+02   4.811844e+01
  -2.903620e+02  -1.391228e+02
  -1.780390e+02  -3.102197e+02
   7.528711e+01  -2.366141e+02
   1.702940e+02  -1.393628e+02
   1.210354e+02  -4.955261e+01
   1.198923e+02  -6.725925e+01
   2.621092e+02   3.261940e+00
   4.030115e+02   1.391068e+02
   3.480405e+02   2.903403e+02
  -7.139643e+00   4.415737e+02
  -3.745040e+02   3.752865e+02
  -4.728670e+02   1.396333e+02
  -3.026204e+02  -1.060613e+02
  -1.076860e+01  -2.117649e+02
   1.298274e+02  -1.632688e+02
   7.754219e+00  -3.891360e+01
  -1.020861e+02   2.348785e+01
  -1.493206e+02  -3.752429e+01
  -3.152481e+01  -1.356607e+02
   1.591652e+02  -1.163893e+02
   1.150443e+02   7.300912e+01
  -5.047158e+01   1.532057e+02
  -1.438443e+02   5.539577e+00
  -1.061499e+02  -2.396570e+02
   4.814419e+01  -3.630719e+02
   3.026342e+02  -2.130525e+02
   3.566515e+02   5.752002e+01
   2.501579e+02   2.778042e+02
   4.776231e+01   2.524190e+02
  -1.134558e+02   1.393991e+02
  -1.639907e+02   9.557471e+00
  -7.444570e+01  -1.180963e+01
   7.834405e+01   2.494916e+01
   1.067908e+01   1.077417e+02
  -1.501984e+02   5.737883e+01
  -1.711540e+02  -7.080389e+01
  -2.971690e+01  -9.208658e+01
   1.104274e+02  -2.179881e+01
   4.700072e+01   8.111570e+01
  -1.592691e+02   1.227610e+02
  -2.896977e+02   2.881469e+00
  -2.419329e+02  -1.766569e+02
  -1.073743e+01  -2.454274e+02
   2.274866e+02  -1.984778e+02
   2.786337e+02  -5.855922e+01
   1.271572e+02   9.238275e+01
  -3.346235e+01   6.150432e+01
  -1.203090e+02  -3.690143e+01
   3.352413e+01  -1.013118e+02
   2.204444e+02  -4.643656e+01
   2.060188e+02   1.553166e+02
   5.561434e+01   2.168435e+02
  -6.919674e+01   1.714106e+02
  -1.493683e+02   1.382013e+01
  -1.390791e+01  -7.082432e+01
   8.380756e+01   2.947874e+01
  -3.856972e+01   1.128186e+02
  -1.189268e+02   1.220239e+02
  -2.307648e+02   6.867855e+00
  -1.677334e+02  -9.744273e+01
  -3.958870e+01  -1.812000e+02
   1.518083e+02  -1.667098e+02
   2.040500e+02   6.207034e+00
   5.571703e+01   7.924495e+01
  -8.459280e+01   7.812186e+01
  -9.141168e+01   4.223818e+01
   3.606947e+00  -8.858011e+01
   2.454126e+01  -2.329754e+01
   1.223772e+01   7.355907e+00
  -1.010919e+02   3.123107e+01
  -9.278306e+01  -1.006448e+02
  -2.157924e+01  -1.712613e+02
   1.554582e+02  -1.637287e+02
   2.775486e+02  -2.137515e+01
   1.719437e+02   2.011990e+02
   3.812522e+01   2.372976e+02
  -1.074226e+02   1.676351e+02
  -1.551991e+02  -1.074597e+01
  -8.993174e+01  -6.596154e+01
  -6.776522e+00  -2.514403e+01
  -4.148712e+01   3.205086e+01
  -1.178867e+02  -5.588662e+00
  -8.962734e+01  -7.037536e+01
   4.212128e+01  -1.017354e+02
   1.533604e+02  -7.021924e+01
   1.089251e+02   3.890354e+01
  -4.890345e+00   1.255712e+02
  -1.418328e+02   1.198084e+02
  -1.888738e+02  -6.642147e+01
  -7.157407e+01  -2.244860e+02
   1.341521e+02  -2.103274e+02
   2.759418e+02  -9.495883e+01
   2.299018e+02   1.116186e+02
   1.042642e+02   1.920536e+02
  -2.035918e+00   1.374693e+02
  -1.171614e+02   5.611379e+01
  -8.116495e+01   6.160578e+01
  -5.276303e+01   1.030510e+02
  -7.983461e+01   3.447503e+01
  -1.625499e+02  -1.030594e+01
  -1.181397e+02  -1.920461e+02
   1.027594e+01  -2.269205e+02
   9.122962e+01  -1.847980e+02
   2.001830e+02  -2.334831e+01
   1.173156e+02   1.656172e+02
   3.326435e+00   1.399809e+02
  -7.677185e+01   6.655606e+01
  -4.559388e+01  -3.780869e+01
   5.045598e+01  -6.166756e+01
   2.933035e+01  -2.576364e+01
   2.928862e+00  -8.975064e+00
  -8.230758e+01  -1.677101e-01
  -5.541161e+01  -4.935043e+01
   7.210934e+01  -6.751848e+01
   1.713138e+02  -3.101339e+01
   1.391494e+02   3.799095e+01
   1.795406e+01   1.226792e+02
  -1.075983e+02   3.987684e+01
  -1.271857e+02   2.026780e+01
   8.745746e-01  -3.085525e+01
   1.934046e+01  -2.881256e+01
   6.197284e+01   2.222974e+01
   1.504757e+01   5.623237e+01
   5.434877e+00   4.023932e+01
  -7.144770e+01  -6.242820e+00
  -8.983684e+01  -3.472817e+01
  -4.873757e+01  -4.139227e+01
  -4.277904e+01   1.447483e+01
  -7.149189e+01  -1.107305e+01
  -3.029286e+01  -8.306279e+01
   1.840288e+01  -1.674498e+02
   1.086163e+02  -1.449558e+02
   1.949005e+02  -1.302796e+01
   1.372186e+02   9.349482e+01
  -6.860055e-01   1.115504e+02
  -9.962843e+01   7.197527e+01
  -6.630856e+01  -4.244423e+01
   7.239537e+01  -8.600912e+00
   1.078260e+02   6.199352e+01
   4.954357e+01   7.444891e+01
  -7.382329e+01   1.223313e+02
  -2.160909e+02   7.787400e+01
  -1.504541e+02  -5.332625e+01
  -1.421167e+01  -7.709900e+01
   7.625021e+01  -4.387095e+01
   3.541830e+01  -5.363486e+00
  -3.090680e+01   4.267667e+01
  -1.308166e+02  -2.919467e+01
   5.207744e+00  -1.599294e+02
   7.473203e+01  -1.546171e+02
   1.788655e+02  -4.395469e+01
   1.423269e+02   6.612723e+01
   4.939062e+00   1.917140e+02
  -9.358899e+01   1.012690e+02
  -9.813955e+01  -1.116042e+01
  -7.462123e+01  -1.128791e+02
   2.708617e+01  -9.739190e+01
   2.797853e+01  -3.832544e+01
   5.540132e+01   9.131972e+00
   2.258587e+01   2.508319e+01
   1.418086e+00  -4.487260e+01
  -5.677172e+00  -1.789734e+01
   7.869022e+01   1.322086e+02
   5.320718e+01   1.168932e+02
  -4.326403e+01   5.311300e+01
  -1.346019e+02  -2.064448e+00
  -1.180938e+02  -9.533387e+01
  -2.322062e+01  -5.996885e+01
   6.962132e+01  -3.810321e+01
   1.028631e+02  -2.163674e+01
  -2.412472e+01   1.527302e+01
  -2.746210e+01   2.341847e+01
  -6.252438e+00   3.500082e+01
   3.782694e+01  -1.495591e+01
   2.006629e+01   3.937051e+01
  -6.795901e+01  -1.339551e+01
  -6.823371e+01  -4.740443e+00
  -2.614222e+01  -1.042112e+02
   1.387901e+02  -1.347676e+02
   1.550693e+02  -3.527814e+01
   1.580803e+02   7.048583e+01
   2.057600e+01   1.356777e+02
  -1.029355e+02   1.573743e+02
  -1.431110e+02   5.658993e+01
  -8.566414e+01  -2.185690e+01
  -5.008517e+00  -1.626250e+01
   1.055235e+01  -3.817626e+00
  -6.622657e+00  -1.483808e+01
  -2.229163e+01  -6.522147e+01
   1.272271e+01  -1.210870e+02
   2.329953e+01  -7.170690e+01
   8.559978e+01   3.973615e+01
   7.241922e+01   9.316006e+01
   4.901156e-01   1.256579e+02
  -7.002431e+01   3.689697e+01
  -8.577211e+01  -6.119701e+01
  -5.654827e+00  -7.946499e+01
   3.589465e+01  -4.691551e+01
   8.176122e+01   1.873804e+01
   5.340186e+01   2.357537e+01
  -1.846556e+01   9.145276e+01
  -5.285673e+01   2.364844e+01
   1.278775e+01  -8.516064e+00
   4.131039e+01   2.626578e+01
  -1.930296e+01   2.136793e+01
  -7.887722e+01   1.025926e+01
  -8.784031e+01   4.184472e+01
  -3.970969e+01   5.809095e+00
  -3.816723e+00  -8.384609e+01
   4.261405e+01  -6.160308e+01
   4.031024e+01  -3.557464e+01
   3.466963e+00   2.861537e+01
  -7.110266e+01   3.187801e+01
  -4.967762e+01  -3.161743e+01
  -6.378411e+01  -4.004372e+01
   3.385685e+01   2.503487e+01
   2.289428e+01  -7.465369e+00
   2.091135e+01   2.728977e+01
   1.278256e+01  -2.500094e+01
   1.373389e+00  -8.173678e+00
   5.395567e+00   2.271898e+01
   4.683042e-01   3.887332e+01
  -2.509143e+01   8.283541e+01
  -1.443507e+01   1.650215e+01
  -3.762184e+01  -1.421411e+01
  -4.829386e+01  -3.952622e+01
   1.732886e+01  -1.160145e+01
   4.789419e+01   3.107012e+01
   3.755016e+01   6.007874e+01
  -6.291259e+01   3.571804e+01
  -1.190263e+02  -2.335447e+01
  -6.389810e+01  -8.753604e+01
   4.157128e+01  -3.762552e+01
   8.965737e+01  -2.268782e+01
   7.318371e+00   1.635881e+01
  -3.570962e+01  -6.254409e+01
  -1.770169e+01  -2.382733e+01
   1.830988e+01  -4.653028e+01
   5.877148e+01  -2.878354e+01
