
 $NMID
 id='ANONYMOUS ', fmtdat='(2E16.6)'
 volume=1.0
 tramp=1.0
 $END
   4.230369e+03  -1.419493e+01
   2.682252e+03   2.511720e+03
  -6.303553e+02   2.914162e+03
  -2.016770e+03   1.134461e+03
  -9.568899e+02  -5.374798e+02
   4.665648e+02  -7.206869e+02
   9.263034e+02   3.708290e+02
  -9.915606e+00   1.001210e+03
  -7.434110e+02   8.568334e+02
  -9.501704e+02  -2.812453e+01
  -4.475663e+02  -8.414108e+02
   1.742540e+02  -8.478950e+02
   6.149428e+02  -1.760679e+02
   4.108353e+02   7.390866e+02
  -1.858958e+02   7.380079e+02
  -6.316409e+02   7.528036e+00
  -2.995796e+02  -6.867221e+02
   3.086445e+02  -6.841982e+02
   5.936211e+02  -1.985422e+02
   4.547184e+02   3.024763e+02
   7.062974e+01   4.593900e+02
  -2.166515e+02   2.635674e+02
  -2.140866e+02   3.510820e+01
   1.152116e+02  -6.858370e+01
   4.195914e+02   8.781298e+01
   2.088551e+02   4.612721e+02
  -4.945553e+02   3.747172e+02
  -8.665524e+02  -8.016489e+01
  -4.510677e+02  -5.376277e+02
   3.935454e+02  -4.534352e+02
   7.816052e+02   1.162257e+01
   3.441459e+02   5.095099e+02
  -3.365776e+02   4.920984e+02
  -5.345983e+02   2.049425e+02
  -4.408031e+02  -2.038796e+02
  -9.460735e+01  -4.805343e+02
   1.456768e+02  -3.055966e+02
   1.547622e+02   1.696349e+02
  -1.406288e+02   3.879756e+02
  -4.460638e+02  -2.630041e+01
  -2.249743e+02  -6.488922e+02
   2.347413e+02  -7.264427e+02
   6.100951e+02  -2.378374e+01
   2.278913e+02   5.486904e+02
  -2.997168e+02   3.259955e+02
  -3.310622e+02  -2.964056e+02
   4.013852e+01  -5.851129e+02
   5.267530e+02  -1.325797e+02
   5.605497e+02   3.598474e+02
   2.078745e+02   5.925976e+02
  -3.314367e+02   4.026491e+02
  -6.836883e+02  -2.994529e+01
  -3.715717e+02  -3.811798e+02
   9.036035e+01  -3.505171e+02
   4.857272e+02  -1.166308e+02
   2.821606e+02   1.603326e+02
  -1.481570e+02   1.437064e+02
  -1.430711e+02  -1.815945e+02
   1.689465e+02  -2.018280e+02
   3.275161e+02   4.600859e+01
   1.668152e+02   2.458526e+02
  -2.056841e+02   2.891535e+02
  -3.748324e+02   1.257833e+02
  -1.867605e+02  -4.676707e+01
   2.087548e+01  -2.454092e+02
   2.555067e+02  -3.196896e+02
   4.056578e+02  -2.538076e+02
   2.907014e+02   1.465588e+02
   7.273597e+01   4.569742e+02
  -5.255405e+01   3.594864e+02
  -1.297285e+02   1.365803e+02
  -2.414047e+01  -1.282755e+01
  -6.867721e+01   1.140799e+02
  -1.838413e+02   1.177855e+02
  -3.215477e+02  -3.728225e+01
  -1.793246e+02  -2.973955e+02
   7.031281e+01  -2.806855e+02
   2.408044e+02   1.023419e+01
   1.850189e+02   2.747422e+02
   3.171177e+00   3.280711e+02
  -2.498324e+02   1.392314e+02
  -4.001957e+02  -1.693593e+02
  -1.786149e+02  -3.892540e+02
   8.187110e+01  -3.294399e+02
   1.979904e+02  -1.228948e+02
   1.560058e+02  -5.215199e+01
   1.282993e+02  -4.080680e+01
   2.593647e+02  -3.880054e+01
   4.229847e+02   6.841493e+01
   3.604180e+02   3.181460e+02
  -1.515692e+01   4.813434e+02
  -3.467098e+02   4.205772e+02
  -5.135081e+02   2.065048e+02
  -3.540281e+02  -8.444362e+01
  -3.128711e+01  -2.761669e+02
   1.232638e+02  -3.076180e+02
   4.446019e+01  -1.984779e+01
  -1.460004e+02   1.332209e+02
  -1.743647e+02  -1.682191e+01
  -1.152841e+01  -2.076261e+02
   1.775839e+02  -1.164692e+02
   1.863731e+02   4.399937e+01
  -3.876414e+01   1.847529e+02
  -1.990739e+02   2.403779e+01
  -1.820916e+02  -2.609329e+02
   2.861856e+01  -3.581348e+02
   2.469704e+02  -1.833514e+02
   3.703478e+02   4.673404e+01
   3.068080e+02   2.116120e+02
   6.545225e+01   2.527603e+02
  -1.182789e+02   1.513857e+02
  -1.596521e+02  -4.193973e+00
  -3.197133e+01  -4.375253e+01
   7.168494e+01   5.872970e+01
   5.366909e+01   1.134987e+02
  -1.218369e+02   1.177048e+02
  -1.599339e+02   1.435800e+01
  -1.262120e+02  -9.640891e+01
   1.000741e+02  -9.226431e+00
   3.479672e+01   6.922148e+01
  -1.431071e+02   1.301375e+02
  -3.122329e+02  -2.393004e+01
  -2.752715e+02  -1.592944e+02
  -7.392219e+01  -2.743650e+02
   2.127802e+02  -2.576695e+02
   2.488039e+02  -1.195886e+02
   1.618015e+02   3.260793e+01
  -2.936311e+01   1.040234e+02
  -6.579693e+01   6.276100e+00
   3.564009e+01  -8.047475e+01
   1.528474e+02  -8.653231e+01
   2.088555e+02   8.019655e+01
   8.730978e+01   1.820413e+02
  -9.753726e+01   1.309736e+02
  -1.704383e+02   2.039575e+01
  -9.568089e+01  -6.454718e+01
   1.067479e+01   1.066553e+01
   3.784899e+01   8.502497e+01
  -5.121692e+01   1.093147e+02
  -2.053289e+02   2.205617e+01
  -2.253586e+02  -1.381703e+02
   5.136744e-01  -2.199963e+02
   1.493305e+02  -1.759383e+02
   2.226639e+02  -1.876568e+01
   5.777345e+01   1.196437e+02
  -4.105088e+01   1.491381e+02
  -8.621590e+01  -7.141785e+00
  -4.815477e+01  -3.478116e+01
   4.058202e+01  -1.958472e+01
  -2.828640e+01  -6.817081e+00
  -9.707193e+01   5.116803e+01
  -1.152764e+02  -6.059498e+01
  -5.799058e+00  -1.530124e+02
   1.373992e+02  -1.778310e+02
   2.861961e+02  -1.501449e+01
   2.037727e+02   1.928479e+02
   1.809400e+01   2.242481e+02
  -1.385031e+02   1.918170e+02
  -1.483426e+02   3.521381e+01
  -6.200702e+01  -9.122081e+01
  -2.924354e+01  -2.905369e+01
  -6.656264e+01   3.660620e+01
  -9.596614e+01   2.140204e+01
  -9.146191e+01  -8.345402e+01
   4.179746e+01  -9.806795e+01
   1.362965e+02  -3.740800e+01
   1.246534e+02   7.227055e+00
  -4.229485e+00   1.394737e+02
  -1.439165e+02   1.083592e+02
  -2.484115e+02  -8.464456e+01
  -1.032008e+02  -1.978971e+02
   1.299698e+02  -2.312821e+02
   2.653090e+02  -1.324698e+02
   2.485652e+02   1.036192e+02
   1.014474e+02   1.660640e+02
  -5.626791e+01   1.540456e+02
  -1.174555e+02   7.907154e+01
  -9.646590e+01   6.729535e+01
  -5.316853e+01   1.192019e+02
  -7.042327e+01   3.576599e+01
  -1.372287e+02  -4.308177e+01
  -1.223184e+02  -1.573929e+02
  -5.144428e+01  -2.480595e+02
   8.727124e+01  -1.599185e+02
   1.871043e+02  -4.925077e+01
   9.562979e+01   1.514690e+02
   2.568260e+01   2.008214e+02
  -7.286956e+01   9.964613e+01
  -4.726869e+01  -8.509796e-01
  -2.682643e+01  -7.229489e+01
   1.097005e+01  -6.836941e+01
  -3.597401e+01   2.050384e+01
  -9.600481e+01  -4.275222e+00
  -2.813848e+01  -1.522959e+01
   6.243735e+01  -8.530872e+01
   1.457380e+02  -2.303081e+01
   1.420855e+02   7.196525e+01
   3.470517e+01   8.288860e+01
  -1.082325e+02   1.017786e+02
  -1.578414e+02   1.924583e+01
  -3.413725e+01  -1.614146e+01
   7.170554e+01  -4.745003e+01
   7.303552e+01   9.643009e+00
   3.741006e+01   8.701093e+01
  -3.824409e+01   1.097243e+02
  -5.260902e+01   4.168137e+01
  -6.292084e+01  -4.353954e+01
  -5.789784e+01  -3.831486e+01
  -9.190558e+01  -7.997089e+00
  -5.647628e+01   2.901110e+01
  -4.338641e+01  -5.009067e+01
   5.035661e+01  -1.684704e+02
   1.060103e+02  -1.499814e+02
   1.639406e+02  -4.947526e+01
   1.645258e+02   6.848852e+01
   2.539250e+00   1.449123e+02
  -8.607932e+01   5.760311e+01
  -5.996950e+01  -2.325612e-01
   3.952385e+01  -1.943850e+01
   1.575248e+02   2.434256e+01
   1.163060e+02   1.036913e+02
  -9.041994e+01   1.122518e+02
  -1.846801e+02   5.653916e+01
  -1.591712e+02  -6.688325e+00
  -4.434110e+01  -1.129703e+02
   5.329901e+01  -8.935744e+01
   2.400082e+01  -3.672615e+01
  -2.077720e+01   4.172216e+01
  -7.520166e+01  -1.061191e+01
  -1.950396e+01  -1.109523e+02
   8.176640e+01  -1.479963e+02
   1.353140e+02  -6.127271e+01
   1.138229e+02   1.361891e+02
  -2.173298e+01   2.225667e+02
  -1.004165e+02   1.245841e+02
  -1.190070e+02   6.103680e+00
  -5.037093e+01  -1.764470e+02
  -1.567545e+01  -1.175084e+02
   4.015465e+01  -4.508298e+01
   6.797246e+01   3.709319e+00
   6.260800e+01   1.272590e+01
  -8.030646e-01  -1.506992e+01
   7.740290e+01   5.182912e+01
   4.458003e+01   8.777368e+01
   4.255006e+01   1.134785e+02
  -4.676179e+01   6.612858e+01
  -1.167536e+02  -5.835496e+01
  -1.567748e+02  -6.346322e+01
   1.340684e+01  -6.805828e+01
   8.189317e+01  -2.583216e+01
   1.052730e+02   8.605709e+00
   1.296859e+01   4.148948e+00
  -2.489523e+01   7.362514e+01
  -7.521889e+00   4.076957e+01
  -1.608978e+01  -3.144916e+01
   2.517348e+01  -9.810285e+00
  -6.325261e+01   1.330638e+01
  -8.356417e+01  -3.788236e+01
   8.433095e+00  -7.538267e+01
   1.156868e+02  -1.043068e+02
   1.856595e+02  -4.239111e+01
   1.376983e+02   7.620071e+01
   4.698650e+01   1.637719e+02
  -6.818584e+01   1.388437e+02
  -1.145711e+02   7.872016e+01
  -8.075754e+01  -9.711832e+00
  -3.075089e+01  -6.807583e+01
  -2.396116e+01   2.729122e+01
  -1.550313e+01  -1.348062e+01
  -6.615066e+00  -3.110960e+01
  -2.285350e+01  -5.450360e+01
   1.669620e+01  -1.078992e+02
   1.155015e+02   1.613642e+01
   1.069565e+02   8.114712e+01
   2.989615e+01   1.549995e+02
  -1.081168e+02   5.006982e+01
  -1.070720e+02  -6.303543e+01
  -5.753756e+01  -1.067578e+02
   6.186973e+01  -7.437097e+01
   9.407493e+01   2.314538e+00
   3.282779e+01   6.061485e+01
  -6.490620e+01   4.010945e+01
   1.038871e+01   4.301370e+01
   4.874164e+01   1.964270e+01
   6.449160e+01  -2.157192e+01
   2.916880e+01   7.734483e+00
  -4.821470e+01   7.391904e+01
  -8.321625e+01   4.401964e+01
  -7.458531e+01   9.244767e+00
   1.970240e+00  -6.180429e+01
   5.433698e+01  -7.051076e+01
   5.288886e+00   1.251904e+01
   1.981621e+01   2.650107e+01
  -2.261201e+01   2.752804e+01
  -3.053329e+01  -2.747395e+01
  -4.476741e+01  -7.390772e+01
  -1.407270e+00  -3.467714e+01
   4.946915e+01  -1.561399e+00
   2.920798e+01   1.150391e+01
   4.079295e+01   2.717629e+00
   1.583806e+01   5.889937e+00
  -2.068646e+01   5.129877e+00
   7.536036e+00   4.825359e+01
  -1.962880e+01   3.330055e+01
  -3.386813e+01   2.389473e+01
  -3.918501e+01  -1.857278e+01
  -1.534902e+01  -5.358058e+01
   5.861138e+01   2.251977e+00
   3.695657e+01   3.156779e+01
  -7.431693e+00   7.890480e+01
  -7.008174e+01   5.278690e+01
  -1.121092e+02  -2.931095e+01
  -5.636420e+01  -5.188766e+01
   4.312490e+01  -1.424310e+01
   2.397614e+01  -1.083904e+01
   5.504525e+00  -3.521163e+01
  -6.517108e+01   1.316920e+01
  -3.404585e+01  -8.214814e+00
   2.100891e+01  -6.038663e+01
   8.850907e+01  -3.345620e+01
