
 $NMID
 id='ANONYMOUS ', fmtdat='(2E16.6)'
 volume=1.0
 tramp=1.0
 $END
  -4.270596e+03  -3.476172e+01
  -2.457816e+03  -2.545513e+03
   8.829441e+02  -2.820394e+03
   1.984490e+03  -8.423164e+02
   8.655604e+02   6.552473e+02
  -7.397990e+02   5.571089e+02
  -8.444434e+02  -4.391358e+02
  -5.706210e+00  -1.076512e+03
   8.194453e+02  -8.032211e+02
   8.927192e+02   1.433479e+02
   4.748357e+02   8.814084e+02
  -3.185014e+02   9.185944e+02
  -6.337142e+02   4.563731e+01
  -3.359955e+02  -7.488634e+02
   3.655299e+02  -6.945741e+02
   6.295752e+02   3.193439e+01
   2.456685e+02   7.204637e+02
  -3.125858e+02   6.766548e+02
  -5.770221e+02   1.406198e+02
  -3.935033e+02  -3.648445e+02
   2.596144e+01  -4.391509e+02
   2.629054e+02  -2.744246e+02
   2.030361e+02   6.112162e+00
  -1.238613e+02   7.587550e+01
  -3.706842e+02  -1.178067e+02
  -1.463080e+02  -4.308603e+02
   4.559096e+02  -4.128344e+02
   8.054270e+02   1.037584e+02
   4.489312e+02   5.445499e+02
  -3.985783e+02   5.235314e+02
  -7.801885e+02  -3.237986e+01
  -3.542828e+02  -5.313401e+02
   2.517015e+02  -4.920600e+02
   5.944766e+02  -2.143997e+02
   4.158090e+02   2.554394e+02
   6.276428e+01   4.663302e+02
  -2.190884e+02   2.467855e+02
  -1.435903e+02  -2.572225e+02
   1.959873e+02  -3.945349e+02
   4.047221e+02   2.190916e+01
   2.733049e+02   6.070912e+02
  -3.438739e+02   7.091511e+02
  -5.745244e+02   1.788405e+01
  -2.363466e+02  -5.514792e+02
   2.860970e+02  -3.194211e+02
   3.785246e+02   3.645051e+02
  -5.815031e+01   5.645777e+02
  -5.398729e+02   1.604236e+02
  -5.784099e+02  -3.917067e+02
  -1.559628e+02  -5.868941e+02
   3.835484e+02  -3.547886e+02
   6.380709e+02   7.597843e+01
   4.002207e+02   3.990590e+02
  -1.245754e+02   3.298376e+02
  -4.736727e+02   4.979955e+01
  -2.542527e+02  -2.184484e+02
   6.882685e+01  -8.513977e+01
   1.061843e+02   1.369880e+02
  -1.391269e+02   1.831000e+02
  -3.358832e+02  -4.649128e+01
  -1.250711e+02  -2.854720e+02
   2.027822e+02  -2.630495e+02
   3.482762e+02  -1.148270e+02
   2.040635e+02   9.598512e+01
   2.963482e+01   2.244824e+02
  -2.090057e+02   3.864376e+02
  -3.625177e+02   2.339862e+02
  -3.304622e+02  -1.273421e+02
  -1.016768e+02  -4.235421e+02
   1.526035e+02  -4.071723e+02
   1.053807e+02  -1.435589e+02
   5.237134e+01   1.902958e+00
   4.468837e+01  -8.299118e+01
   1.851975e+02  -1.312319e+02
   2.860086e+02   6.046594e+01
   1.438746e+02   2.569561e+02
  -7.081782e+01   2.284383e+02
  -2.458141e+02  -3.135400e+01
  -1.780062e+02  -2.535176e+02
  -6.940236e+00  -3.016674e+02
   2.566763e+02  -9.457344e+01
   3.567524e+02   1.694372e+02
   1.880214e+02   3.852835e+02
  -1.065678e+02   3.014269e+02
  -2.358247e+02   1.164446e+02
  -1.296431e+02   4.072945e+01
  -8.889568e+01   1.894045e+01
  -2.073527e+02   8.391780e+01
  -4.402842e+02  -6.547421e+01
  -3.691221e+02  -3.131556e+02
  -3.092274e+01  -4.493704e+02
   3.729985e+02  -4.440451e+02
   5.356805e+02  -2.851384e+02
   3.219145e+02   4.574320e+01
   4.799814e+01   2.691685e+02
  -1.146144e+02   2.520993e+02
  -5.987883e+01   7.925539e+01
   1.482463e+02  -8.444915e+01
   1.951602e+02   7.695675e+00
   3.327254e+00   2.456378e+02
  -1.642659e+02   1.670844e+02
  -1.604400e+02  -7.952004e+01
  -5.458059e+00  -1.850768e+02
   1.386940e+02   7.086252e+00
   1.500714e+02   2.415433e+02
  -3.743619e+00   3.248471e+02
  -2.730732e+02   1.894237e+02
  -3.043763e+02  -2.953341e+01
  -2.883274e+02  -2.527169e+02
  -1.273892e+02  -2.695728e+02
   9.972751e+01  -1.629540e+02
   1.967984e+02  -1.887367e+01
   5.987899e+01   4.056418e+01
  -1.956951e+01  -4.343369e+01
  -1.359127e+01  -1.059576e+02
   1.495594e+02  -1.001179e+02
   1.806315e+02   2.955285e+01
   8.500228e+01   1.115387e+02
  -8.545601e+01   1.325626e+01
  -7.494536e+01  -6.270176e+01
   1.051513e+02  -4.241533e+01
   2.528416e+02  -5.323113e+00
   2.950873e+02   1.271537e+02
   4.582953e+01   2.608436e+02
  -1.844955e+02   2.267617e+02
  -2.870738e+02   1.213098e+02
  -1.902134e+02  -3.130544e+01
   2.292206e+01  -1.292751e+02
   9.838799e+01  -3.567725e+01
  -4.363713e+00   7.460607e+01
  -1.584037e+02   6.241207e+01
  -2.360833e+02  -1.184294e+02
  -7.437377e+01  -2.207672e+02
   8.947544e+01  -1.596960e+02
   1.129161e+02  -5.427648e+01
   7.342920e+01   5.421831e+01
  -9.124119e+00  -3.291846e-01
  -7.797821e+01  -5.331429e+01
   8.209124e+01  -1.131852e+02
   1.806918e+02  -4.965399e+00
   1.805368e+02   9.349104e+01
   1.195606e+01   2.138661e+02
  -1.972529e+02   1.846884e+02
  -2.083218e+02  -2.019096e+01
  -7.977766e+01  -7.936802e+01
   1.041262e+02  -1.379411e+02
   9.334392e+01  -2.587063e+01
   3.011086e+01   5.398391e+01
  -4.007764e+01   2.968634e+01
   4.195264e+00   9.417675e+00
   1.108504e+02   4.883322e+01
   8.086779e+01   4.779226e+01
   4.719586e+01   1.210300e+02
  -1.907637e+02   1.811620e+02
  -2.115534e+02   2.971635e+00
  -2.355112e+02  -1.523769e+02
  -2.351333e+00  -2.403104e+02
   1.104023e+02  -1.672020e+02
   1.709408e+02   3.587568e+00
   6.869352e+01   6.031081e+01
   1.779115e+01   1.702949e+01
   3.363966e+01  -2.267008e-01
   7.877532e+01  -2.222631e+01
   6.760267e+01   5.282146e+01
  -3.602416e+01   9.220488e+01
  -9.093409e+01   2.697625e+01
  -1.120826e+02  -2.404588e+01
   4.605870e+01  -1.148610e+02
   1.693328e+02  -6.592811e+01
   2.167540e+02   4.264567e+01
   1.355495e+02   2.161778e+02
  -1.053987e+02   2.300623e+02
  -2.726610e+02   5.476447e+01
  -2.412680e+02  -8.217221e+01
  -6.401610e+01  -1.636265e+02
   3.870991e+01  -1.425946e+02
   8.249265e+01  -1.038854e+02
   8.594473e+01  -8.586290e+01
   1.047571e+02  -7.440698e+01
   8.174529e+01  -2.339550e+01
   1.220116e+02   2.530784e+01
   1.226487e+02   1.134565e+02
   2.566071e+01   2.235215e+02
  -7.516362e+01   1.996663e+02
  -1.589824e+02  -2.442071e+01
  -1.482014e+02  -1.344855e+02
   1.766457e-01  -1.278143e+02
   1.014288e+02  -1.434797e+02
   6.322653e+01  -2.804394e+00
  -7.250296e+00   4.206565e+01
  -1.173057e+01   2.467037e+01
   1.966849e+01   6.502010e+01
   9.376274e+01   4.218827e+01
   5.579156e+01   7.017734e+01
  -5.557108e+01   3.361772e+01
  -1.530440e+02   4.549387e+00
  -1.652312e+02  -2.693265e+01
   4.472601e+00  -7.025404e+01
   1.212352e+02  -3.874357e+01
   1.229790e+02  -3.052290e+01
   3.169115e+01   5.948169e+01
  -4.675811e+01   2.033799e+01
  -7.402714e+01  -1.328393e+01
  -3.125444e+01  -4.559759e+01
   4.490166e+01  -4.998370e+01
   5.099678e+01   5.367710e+01
   1.517460e+01   5.335415e+01
   4.210960e+01   1.287834e+01
   6.293435e+01  -2.943717e+01
   1.008100e+02   7.058560e+01
   1.437628e+00   9.293897e+01
  -8.530720e+00   9.686608e+01
  -1.335364e+02   1.010004e+02
  -1.796737e+02  -4.183271e+00
  -9.703890e+01  -8.689650e+01
  -2.531734e+01  -1.086704e+02
   8.385081e+01  -1.091315e+02
   6.141997e+01  -5.727384e-01
  -7.484156e+01   1.193759e+01
  -1.379313e+02  -3.239484e+01
  -3.970234e+01  -1.044260e+02
   6.170875e+01  -9.189202e+01
   1.904334e+02  -7.294037e+01
   1.701090e+02   5.471029e+01
   4.063779e+01   1.260359e+02
  -1.129397e+02   8.380244e+01
  -8.464321e+01  -1.039288e+01
   3.018751e+01  -2.665514e+01
   9.371915e+01   1.149633e+01
   5.757917e+01   1.228167e+02
  -6.240921e+01   1.506185e+02
  -1.888436e+02   3.663914e+01
  -1.428518e+02  -6.453878e+01
   1.196094e+00  -2.018326e+02
   1.040813e+02  -1.689507e+02
   1.104949e+02  -4.868973e+00
   5.446391e+01   1.222945e+02
  -6.277745e+00   1.116240e+02
  -4.953773e+01   1.189733e+01
  -4.115793e+01  -2.480361e+01
  -2.815564e+01  -5.124817e+00
   2.931643e+01   4.567347e+01
  -2.066454e+01  -3.486313e+01
  -1.981780e+01  -1.026799e+02
  -1.326236e+01  -7.546923e+01
   6.492189e+01  -5.378862e+01
   1.368694e+02   6.333346e+01
   1.705741e+02   4.388681e+01
   2.229152e+01   4.203999e+01
  -9.134377e+01   1.393137e+00
  -6.936143e+01   1.115634e+01
  -1.625579e+01  -1.236482e+01
   1.960229e+01  -3.101427e+01
   1.922187e+01   9.755008e+00
  -1.010141e+01   1.088844e+01
   3.105125e+01   8.456261e+00
   4.664223e+01   5.569565e+01
   5.651305e+01   4.604050e+01
   1.020194e+01   9.271747e+01
  -9.684813e+01   1.073061e+02
  -2.304575e+02   5.018805e+01
  -1.193865e+02  -7.765639e+01
  -3.061405e+01  -1.545016e+02
   5.369848e+01  -1.256138e+02
   1.047538e+02  -3.687137e+01
   7.119346e+01   2.703359e+01
   1.943929e+01   4.976587e+01
   9.702291e+00  -3.698051e+00
   3.321116e+01   6.438138e-01
   1.516245e+01   2.820195e+01
  -3.550559e+00   8.848792e+01
  -4.422250e+01   5.804897e+01
  -8.519948e+01  -3.279812e+01
  -9.296221e+01  -1.235561e+02
  -2.347709e+00  -7.523707e+01
   6.467948e+01  -4.674315e+00
   8.925338e+01   7.933278e+01
   3.784604e+01   9.762312e+01
  -6.838158e+01   2.679172e+01
  -1.104602e+02  -1.076777e+01
  -3.425496e+01  -6.316632e+01
   3.351389e+01  -4.719001e+01
   3.401092e+01  -3.014147e+00
  -4.702037e+01   3.504508e+01
  -1.040929e+02   3.139652e+01
  -1.551558e+01  -2.036817e+01
   4.179171e+01  -7.968731e+01
   1.346626e+02  -1.070793e+02
   7.983213e+01  -3.630354e+00
   3.496486e+01   1.021810e+02
  -3.084314e+01   7.832041e+01
  -2.303333e+01  -3.940534e+01
   7.330213e+00  -6.117006e+01
   1.665153e+01  -1.126946e+01
   3.901603e+01  -9.063683e+00
   3.987851e+01   5.449676e+01
  -2.341122e+01   2.728063e+01
  -2.015027e+01  -5.174272e+00
  -5.557743e+01   3.684080e+00
   1.417002e-01   1.923762e+01
  -5.406970e+00   3.668086e+01
   1.064797e+01   1.402337e+01
  -3.016638e+01  -5.131947e+01
   8.607368e+00  -3.448366e+01
   8.128860e+00  -8.633002e+00
   5.570647e+01   4.192888e+01
   3.072994e+00   4.222845e+01
  -5.151376e+01  -5.377529e+00
  -7.189383e+01  -4.244354e+01
  -1.141330e+01  -5.989992e+01
   2.357679e+01  -3.751562e+01
   7.374973e+01   2.909142e+01
   3.261135e+01   4.059424e+01
  -5.083093e+01   6.126631e+01
  -4.297730e+01   5.981433e+00
  -3.898232e+01   3.822088e+01
   3.616374e+01  -1.393456e+01
   4.437372e+01   1.440954e+01
   6.019268e+00   4.908179e+01
  -7.996481e+01   2.657503e+01
