
 $NMID
 id='ANONYMOUS ', fmtdat='(2E16.6)'
 volume=1.0
 tramp=1.0
 $END
   3.964410e+03  -1.194255e+02
   2.502933e+03   1.862024e+03
  -9.910039e+01   2.538211e+03
  -1.757581e+03   1.265834e+03
  -1.111900e+03  -2.076957e+02
   1.529448e+02  -5.196605e+02
   6.810178e+02   1.722220e+02
   2.158148e+02   8.447311e+02
  -5.350501e+02   7.811308e+02
  -8.429318e+02   4.678544e+01
  -5.574179e+02  -6.646645e+02
   8.797827e+01  -8.012293e+02
   4.878798e+02  -2.187348e+02
   3.656712e+02   5.702500e+02
  -1.639161e+02   6.502909e+02
  -5.399195e+02   3.795992e+01
  -3.005332e+02  -6.212186e+02
   2.643002e+02  -6.550817e+02
   5.678363e+02  -2.351109e+02
   4.265828e+02   2.198416e+02
   1.116891e+02   4.554064e+02
  -2.058712e+02   2.725917e+02
  -1.654097e+02   7.950415e+01
   1.133719e+02   5.315427e+01
   3.370956e+02   1.919801e+02
   1.084786e+02   3.955067e+02
  -4.002037e+02   3.509030e+02
  -6.659481e+02  -6.575645e+01
  -3.488890e+02  -4.549567e+02
   3.740675e+02  -3.547261e+02
   6.334501e+02   5.658252e+01
   2.326390e+02   4.315628e+02
  -2.503618e+02   4.931173e+02
  -5.020894e+02   2.078767e+02
  -3.813920e+02  -1.714865e+02
  -1.239587e+02  -3.515908e+02
   8.370348e+01  -2.282486e+02
   8.273823e+01   1.098151e+02
  -9.429292e+01   2.830695e+02
  -2.698553e+02  -4.250793e+01
  -1.319683e+02  -5.393379e+02
   2.375464e+02  -4.976614e+02
   4.933541e+02  -3.990490e+01
   2.141942e+02   4.069103e+02
  -2.179833e+02   2.248760e+02
  -3.392351e+02  -2.492985e+02
   6.452963e+01  -4.327905e+02
   4.325151e+02  -1.183950e+02
   5.575001e+02   3.307220e+02
   1.307023e+02   5.392047e+02
  -3.582175e+02   3.059825e+02
  -5.831559e+02  -3.435315e+01
  -3.804605e+02  -2.590663e+02
   7.967465e+01  -3.152872e+02
   4.089224e+02  -1.177483e+02
   2.908900e+02   1.085215e+02
  -5.795444e+01   2.877611e+01
  -9.199956e+01  -6.429095e+01
   1.162814e+02  -1.098886e+02
   3.061577e+02   4.300753e+01
   1.212110e+02   2.212402e+02
  -1.391624e+02   2.531363e+02
  -3.454194e+02   1.200949e+02
  -2.236161e+02  -9.790059e+01
   2.805471e+01  -3.319712e+02
   2.423788e+02  -3.595219e+02
   3.536059e+02  -1.467925e+02
   2.810471e+02   1.612820e+02
   6.036383e+01   3.708754e+02
  -5.637319e+01   3.602620e+02
  -7.947594e+01   1.272102e+02
  -6.901405e+01   4.194426e+01
  -9.403083e+01   6.290740e+01
  -2.282474e+02   1.158640e+02
  -2.581579e+02  -8.075570e+01
  -9.458778e+01  -2.616121e+02
   7.997790e+01  -2.493013e+02
   1.902649e+02   1.542956e+01
   1.697320e+02   2.198139e+02
   1.476725e+01   2.597041e+02
  -2.056010e+02   1.020429e+02
  -3.469447e+02  -1.431499e+02
  -2.101413e+02  -3.526767e+02
   5.062409e+01  -3.255656e+02
   2.055942e+02  -1.304796e+02
   1.654252e+02  -3.734935e+01
   1.193132e+02  -2.505616e+01
   2.210310e+02  -7.180967e+00
   3.754852e+02   4.620330e+01
   2.846552e+02   2.529465e+02
   1.274963e+01   4.562304e+02
  -3.262188e+02   4.161004e+02
  -4.464854e+02   1.860665e+02
  -2.928718e+02  -8.221130e+01
  -8.467274e+01  -2.680007e+02
   6.059034e+01  -2.352066e+02
   6.894325e+01  -3.396728e+01
  -1.128072e+02   8.763894e+01
  -1.405334e+02   3.564947e+00
  -6.971932e+01  -1.791080e+02
   1.439249e+02  -1.623358e+02
   1.333128e+02   7.944348e+01
   3.525300e+01   1.481483e+02
  -1.639191e+02   4.305646e+01
  -1.453501e+02  -2.328186e+02
   1.289464e+01  -3.567839e+02
   2.467969e+02  -2.159786e+02
   3.427287e+02   7.095685e+01
   2.700215e+02   2.663078e+02
   5.001886e+01   2.845277e+02
  -1.283928e+02   1.476323e+02
  -1.474686e+02   4.206852e+01
  -5.549439e+01  -3.814010e+01
   4.365708e+01   3.209914e+01
   1.205131e+01   9.394668e+01
  -1.181879e+02   7.703662e+01
  -1.650519e+02  -1.920695e+01
  -5.997547e+01  -4.758898e+01
   2.917638e+01   3.411297e+01
   5.621887e+01   8.657031e+01
  -1.221957e+02   5.162962e+01
  -3.194965e+02  -3.008294e+01
  -2.385550e+02  -1.566040e+02
  -4.220848e+01  -2.552746e+02
   1.868884e+02  -2.242715e+02
   2.719934e+02  -1.038631e+02
   1.424257e+02   5.287894e+01
   1.924768e+01   9.966817e+01
  -6.166885e+01   3.317399e+00
   2.434922e+01  -4.166982e+01
   1.546311e+02  -3.299624e+01
   2.295610e+02   7.645463e+01
   7.858601e+01   1.849351e+02
  -4.869748e+01   1.547617e+02
  -1.476115e+02   1.701094e+01
  -2.225896e+01  -2.091744e+01
   6.649854e+01   1.829001e+01
   5.789139e+01   6.527049e+01
  -7.692236e+01   1.366648e+02
  -2.328565e+02  -1.027423e+01
  -1.778313e+02  -9.457806e+01
  -1.243379e+01  -1.858968e+02
   1.022621e+02  -1.833303e+02
   1.700719e+02  -4.325803e+01
   4.836780e+01   1.188813e+02
  -8.476656e+01   8.751792e+01
  -6.136708e+01   2.317704e+01
   1.949487e+01  -7.598356e+00
   4.063832e+01  -5.564541e+00
  -8.882679e-01   9.525042e+00
  -1.344437e+02   2.544238e+01
  -1.428343e+02  -7.387393e+01
  -7.136685e+00  -1.428760e+02
   1.088790e+02  -1.275261e+02
   2.567310e+02  -2.405966e+01
   1.850923e+02   1.299216e+02
   6.189776e+01   2.085243e+02
  -7.544826e+01   2.015686e+02
  -1.297235e+02   3.063780e+01
  -8.818438e+01  -6.462564e+01
  -5.053146e+01  -5.012191e+01
  -9.948807e+00   1.666347e+01
  -4.435236e+01   1.640005e+01
  -3.590226e+01  -3.392513e+01
   4.183834e+01  -1.235630e+02
   9.420596e+01  -3.054432e+01
   1.393817e+02   6.053561e+01
  -2.457630e+01   1.444717e+02
  -1.586760e+02   8.606040e+01
  -1.976446e+02  -6.465682e+01
  -1.025595e+02  -2.215544e+02
   1.348607e+02  -2.015352e+02
   2.896368e+02  -1.153208e+02
   2.363998e+02   7.203443e+01
   1.036289e+02   2.076314e+02
  -9.944816e+00   1.561150e+02
  -7.220102e+01   7.984402e+01
  -6.035381e+01   5.124916e+01
  -5.083350e+01   5.283243e+01
  -5.136852e+01   7.081889e+01
  -1.387727e+02   2.383740e+00
  -1.190840e+02  -1.218243e+02
  -3.476892e-01  -1.919487e+02
   8.449496e+01  -1.714952e+02
   2.031855e+02  -3.419581e+01
   1.815058e+02   1.306952e+02
   1.367314e+01   1.527508e+02
  -3.585780e+01   6.002822e+01
  -7.394173e+01   2.157159e+01
   1.209575e+01  -3.615891e+01
  -2.301004e+01  -2.532436e+01
  -5.237407e+01  -4.542522e+01
  -5.832088e+01  -3.000880e+01
  -1.653638e+01  -3.299366e+01
   8.536353e+01  -1.956270e+01
   1.943978e+02   1.530676e+00
   1.135888e+02   3.784084e+01
  -2.821998e+01   1.087276e+02
  -1.055765e+02   9.629596e+01
  -1.198268e+02   6.743326e+00
  -6.116692e+01  -3.944545e+01
   4.137199e+01  -6.266044e+01
   5.446786e+01   3.684848e+01
   2.594912e+01   4.870138e+01
  -5.119591e+01   8.092251e+01
  -6.793458e+01   3.853973e+01
  -9.086508e+01  -5.833888e+01
   1.389138e+01  -2.379771e+01
  -3.279277e+01   3.503931e+00
  -3.126121e+01  -4.542072e+01
  -4.898649e+01  -6.989077e+01
   2.921539e+01  -1.351713e+02
   1.267151e+02  -1.579300e+02
   2.090680e+02  -3.717242e+01
   1.740856e+02   5.829144e+01
  -1.000665e+01   1.352839e+02
  -1.057640e+02   1.060307e+02
  -4.644615e+01  -1.749999e+01
   6.682884e+01  -2.652849e+01
   1.563792e+02   3.304621e+01
   5.143570e+01   7.539480e+01
  -9.672495e+01   7.768902e+01
  -1.949117e+02   2.158347e+01
  -1.691065e+02   4.344412e+00
  -2.592649e+01  -9.297194e+01
   6.692164e+01  -5.919376e+01
   2.082675e+01   4.033986e+00
  -2.584450e+01   2.840505e+01
  -1.294712e+02  -8.436596e+01
  -5.182471e+01  -9.247983e+01
   7.847536e+01  -1.532013e+02
   1.713406e+02  -8.566335e+01
   1.431867e+02   8.263138e+01
   2.088334e+00   1.556584e+02
  -7.993127e+01   1.433530e+02
  -9.281869e+01  -1.231341e+01
  -4.927405e+01  -1.048850e+02
   4.843498e+01  -5.341283e+01
   4.072665e+01   2.766604e+00
   1.901709e+01   2.518046e+01
   3.513100e+01   1.804420e+01
   5.258613e+01   7.718204e+00
   2.175040e+01  -7.862806e+00
   6.414965e+01   4.658386e+01
   2.991581e+01   1.064800e+02
  -6.798140e+01   5.232112e+01
  -1.264583e+02  -3.120615e+00
  -1.191569e+02  -1.066589e+02
  -2.096220e+01  -4.376937e+01
   6.955036e+01   1.609410e+01
   3.575181e+01  -2.504400e+01
   1.395508e+01   4.862821e+00
  -3.244869e+01   2.174618e+01
  -2.575320e+01   1.790162e+01
   2.486908e+01  -1.202234e+01
  -1.021675e+01   4.541893e+00
  -5.764612e+01  -9.613684e+00
  -8.653665e+01  -4.978084e+01
  -3.771536e+01  -9.576586e+01
   1.074843e+02  -1.340038e+02
   1.609369e+02  -6.805197e+01
   1.400349e+02   7.113932e+01
   7.151550e+01   1.466670e+02
  -7.977974e+01   1.728539e+02
  -1.244344e+02   6.744561e+01
  -6.715988e+01  -1.503556e+01
  -3.183379e+01  -2.572450e+01
   4.634661e+01  -3.609012e+00
  -2.169636e+01  -1.072337e+01
  -4.177570e+01  -4.861682e+01
   2.383462e+00  -1.180899e+02
   3.508595e+01  -5.259859e+01
   7.795465e+01   1.053506e+01
   7.498113e+01   4.932563e+01
   3.040074e+01   1.283919e+02
  -4.680392e+01   3.002696e+01
  -7.978339e+01  -5.394601e+01
  -3.378602e+01  -1.052650e+02
   7.593085e+01  -8.181923e+01
   8.987548e+01   2.199549e+01
   3.483155e+01   4.824699e+01
   2.279716e+00   3.327770e+01
  -8.014119e+01   5.949552e+01
  -1.453939e+01   1.626978e+01
   5.920294e+01   2.414691e+01
  -1.080335e+01   1.864953e+01
  -6.947867e+01   5.701647e+01
  -9.407067e+01   3.391362e+01
  -8.126128e+01  -1.137674e+01
   2.966096e+01  -8.403973e+01
   7.941177e+01  -7.764489e+01
   8.270745e+01   3.140591e+00
   3.908858e+01   7.650178e+01
  -3.446461e+01   3.902919e+01
  -8.009801e+01  -2.479582e+01
  -4.504664e+01  -4.688072e+01
   1.679068e+01  -2.595746e+01
   4.140698e+01  -1.237267e+01
   2.415989e+01   3.247334e+01
   5.612391e+01   9.954629e+00
  -9.067072e+00  -5.636669e+01
  -2.580243e+01  -1.078184e+01
   1.485646e+01   1.829245e+01
  -8.824956e+00   4.290712e+01
   1.112422e+01   1.909110e+01
  -2.148675e+00  -1.822878e+01
  -1.593256e+01  -1.812327e+01
   3.789704e+01  -4.723750e+01
   8.240599e+01  -1.233998e+00
   1.393049e+01   3.212860e+01
  -6.564947e+01   1.404033e+01
  -5.132071e+01  -1.041115e+01
  -7.246818e+01  -3.805283e+01
  -3.163977e+00  -8.049084e+01
   2.278175e+01  -3.030634e+01
   2.107766e+01  -3.289241e+01
  -1.294903e+01   1.534462e+01
  -4.508310e+01   2.038388e+01
   3.343193e+01  -3.830025e+01
   7.474811e+01  -6.720921e+00
