
 $NMID
 id='ANONYMOUS ', fmtdat='(2E16.6)'
 volume=1.0
 tramp=1.0
 $END
   4.498791e+03   5.204403e+01
   2.759843e+03   2.631856e+03
  -6.292267e+02   2.708959e+03
  -2.056349e+03   1.037381e+03
  -9.403005e+02  -6.641845e+02
   5.838715e+02  -6.161725e+02
   9.470137e+02   4.603979e+02
   1.012433e+02   1.049864e+03
  -7.749173e+02   8.637135e+02
  -9.860778e+02  -7.670843e+01
  -5.854117e+02  -8.354396e+02
   1.917343e+02  -9.157572e+02
   6.069405e+02  -2.000853e+02
   4.375010e+02   7.142630e+02
  -2.682552e+02   7.582637e+02
  -6.407801e+02   3.322687e+01
  -2.991929e+02  -7.130835e+02
   3.341603e+02  -6.319773e+02
   5.853481e+02  -8.288519e+01
   3.978620e+02   3.891869e+02
   4.509595e+01   4.440932e+02
  -2.190360e+02   2.674386e+02
  -2.317831e+02  -1.961543e+01
   1.376335e+02  -5.245528e+01
   3.644875e+02   1.125252e+02
   1.735109e+02   3.972178e+02
  -4.665441e+02   4.156935e+02
  -8.804696e+02  -1.066674e+01
  -4.702947e+02  -5.846499e+02
   3.199540e+02  -5.113197e+02
   7.694071e+02  -2.589936e+01
   3.287030e+02   5.203615e+02
  -2.846328e+02   5.512904e+02
  -5.248064e+02   2.184039e+02
  -4.375687e+02  -2.163320e+02
  -7.561555e+01  -5.068584e+02
   1.507255e+02  -3.215183e+02
   1.868883e+02   1.582726e+02
  -6.970256e+01   4.035370e+02
  -4.345949e+02  -3.178787e+01
  -2.663669e+02  -6.013322e+02
   2.966729e+02  -6.902346e+02
   6.031568e+02  -2.992720e+01
   2.928569e+02   5.135674e+02
  -2.788652e+02   3.808983e+02
  -3.731622e+02  -2.448122e+02
   3.016619e+01  -5.144701e+02
   5.162438e+02  -1.926323e+02
   5.415720e+02   3.715013e+02
   1.928371e+02   5.720886e+02
  -3.801600e+02   3.854950e+02
  -6.708054e+02  -4.065735e+01
  -4.041829e+02  -3.636940e+02
   1.430477e+02  -3.687336e+02
   5.159523e+02  -1.099921e+02
   2.546107e+02   1.708909e+02
  -1.407620e+02   1.415536e+02
  -1.553118e+02  -1.356216e+02
   1.984659e+02  -1.985410e+02
   3.109855e+02   8.621173e+01
   1.456914e+02   3.140199e+02
  -1.908916e+02   2.667454e+02
  -3.447402e+02   7.955182e+01
  -2.131386e+02  -1.006432e+02
   1.030848e+01  -2.226368e+02
   2.195074e+02  -3.003085e+02
   3.413978e+02  -2.234698e+02
   3.024720e+02   1.538890e+02
   8.065715e+01   4.600208e+02
  -1.309578e+02   3.866067e+02
  -1.479214e+02   1.225049e+02
  -5.603341e+01  -1.159676e+01
  -2.124129e+01   7.739697e+01
  -1.573567e+02   1.526925e+02
  -2.875493e+02  -3.279566e+01
  -1.101537e+02  -3.137645e+02
   5.594435e+01  -2.669499e+02
   1.928018e+02  -2.176460e+01
   2.036429e+02   2.261398e+02
  -2.221593e+00   2.968325e+02
  -2.748950e+02   1.416200e+02
  -3.896748e+02  -2.026803e+02
  -1.967262e+02  -3.563158e+02
   8.037587e+01  -3.305811e+02
   2.057518e+02  -1.603058e+02
   1.815442e+02  -1.456102e+01
   8.239528e+01  -4.757324e+01
   2.848921e+02  -4.533467e+01
   3.829987e+02   2.348883e+01
   3.309634e+02   2.508223e+02
  -2.699614e+01   4.091937e+02
  -3.595652e+02   4.371109e+02
  -4.892051e+02   2.549292e+02
  -3.266024e+02  -7.354384e+01
  -8.499558e+01  -3.074379e+02
   1.044724e+02  -2.790160e+02
   1.170268e+02  -2.940254e+01
  -7.473400e+01   1.427812e+02
  -1.896740e+02   4.058829e+00
  -2.924759e+01  -1.721501e+02
   1.492557e+02  -1.591390e+02
   1.804336e+02   5.506501e+01
   1.177111e+01   1.722898e+02
  -1.347566e+02   2.119417e+01
  -1.954860e+02  -2.040006e+02
   1.544058e+01  -3.360765e+02
   2.242844e+02  -2.125257e+02
   3.450300e+02   1.774445e+01
   2.831473e+02   2.170405e+02
   6.897519e+01   2.489648e+02
  -1.010027e+02   1.442347e+02
  -1.899582e+02  -1.297962e+01
  -3.202088e+01  -4.969095e+01
   8.298727e+01   2.281070e+01
   3.591099e+01   1.326233e+02
  -8.976493e+01   1.307479e+02
  -1.918052e+02  -2.016760e+01
  -7.710659e+01  -9.534113e+01
   9.054845e+01   5.470453e+00
   5.230909e+01   7.919971e+01
  -1.068478e+02   8.941034e+01
  -2.772246e+02   5.833548e+01
  -3.060359e+02  -1.430962e+02
  -5.060290e+01  -2.334577e+02
   1.520195e+02  -2.460014e+02
   3.143135e+02  -1.231362e+02
   1.799700e+02   1.982915e+01
  -2.685693e-01   1.187346e+02
  -9.601859e+01   1.754155e+01
  -1.432855e+01  -9.182921e+01
   1.901630e+02  -5.093683e+01
   1.908349e+02   1.036667e+02
   6.120290e+01   1.979496e+02
  -4.652324e+01   1.924534e+02
  -1.655167e+02   2.627198e+01
  -5.720065e+01  -8.946814e+01
   1.505535e+01  -7.228092e+00
   2.967805e+01   1.221306e+02
  -5.093159e+01   7.864445e+01
  -2.227539e+02   2.227428e+00
  -2.053215e+02  -1.072085e+02
  -2.049490e+00  -1.952756e+02
   1.487560e+02  -1.680576e+02
   2.053971e+02  -3.176057e+01
   6.673524e+01   8.559094e+01
  -5.867831e+01   1.174034e+02
  -9.719407e+01   5.763213e+01
  -1.493612e+01   2.384027e+00
   3.005420e+01  -1.785453e+01
  -2.525844e+01  -2.425137e+01
  -6.485128e+01  -2.741300e-01
  -8.284767e+01  -8.903797e+01
  -4.976685e+00  -1.646221e+02
   9.963783e+01  -1.303697e+02
   2.160282e+02   3.584455e+00
   2.235351e+02   1.588995e+02
   9.754389e+01   2.327488e+02
  -6.759300e+01   1.856982e+02
  -1.646599e+02   2.854412e+01
  -8.528984e+01  -1.271186e+01
  -1.239199e+01  -3.031747e+01
  -4.696358e+01   2.480860e+01
  -3.345043e+01  -4.083250e+01
  -1.452044e+01  -8.768496e+00
   4.529044e+01  -7.641039e+01
   8.987528e+01  -2.642207e+01
   9.160221e+01   2.191583e+01
  -4.841078e+01   9.182348e+01
  -1.086744e+02   8.277529e+01
  -1.834574e+02  -5.063865e+01
  -1.212046e+02  -1.644004e+02
   1.038999e+02  -2.015078e+02
   2.699183e+02  -6.125789e+01
   2.434346e+02   1.075457e+02
   1.454532e+02   1.504462e+02
  -3.568289e+01   1.292476e+02
  -1.210481e+02   1.039889e+02
  -6.068737e+01   6.924240e+01
  -8.014980e+01   7.405279e+01
  -1.186501e+02   8.422764e+01
  -1.230129e+02  -6.656099e+00
  -1.470260e+02  -1.193138e+02
  -5.020199e+01  -2.489074e+02
   1.008942e+02  -1.823762e+02
   1.451155e+02  -5.300065e+01
   1.276794e+02   9.775202e+01
   2.893645e+01   1.546130e+02
  -6.709865e+01   1.002235e+02
  -5.533798e+01   2.976658e+00
  -3.341805e+01  -3.155670e+01
   2.194949e+01   1.548997e+01
  -3.602178e+01  -1.210899e+01
  -1.169376e+02  -3.423524e+01
  -2.903629e+01  -6.484268e+01
   8.241895e+01  -3.841933e+01
   1.458448e+02  -5.995098e+00
   1.634653e+02   3.115167e+01
   6.653044e+00   7.658771e+01
  -1.187869e+02   3.397009e+01
  -1.564620e+02   1.035266e+01
  -2.711535e+01  -5.337306e+01
   2.984486e+01  -5.108823e+01
   1.039970e+02   2.450538e+01
  -1.187855e+01   4.732101e+01
  -6.980416e+01   8.060897e+01
  -5.406508e+01  -9.327906e+00
  -3.845881e+01  -4.206331e+01
  -5.964511e+01  -4.711920e+01
  -4.626374e+01   2.188354e+01
  -6.895003e+01  -3.933407e-01
  -3.452137e+01  -7.404350e+01
   4.105112e+01  -1.337593e+02
   1.136467e+02  -1.323180e+02
   1.610325e+02   7.901659e+00
   1.018332e+02   1.111966e+02
   1.579199e+01   1.518979e+02
  -1.024779e+02   5.773278e+01
  -2.070988e+01   1.998960e+01
   4.219478e+01  -3.301310e+01
   1.495135e+02   8.041826e+01
   9.844992e+01   9.912130e+01
  -4.488829e+01   1.002951e+02
  -1.962472e+02   7.658574e+01
  -1.543869e+02  -2.270372e+01
  -2.060247e+01  -1.101518e+02
   5.527195e+01  -8.875668e+01
   5.667112e+01   2.499184e+00
  -5.225154e+01   2.866214e+01
  -9.622405e+01  -3.067291e+01
  -1.244522e+01  -1.048157e+02
   1.159663e+02  -1.564153e+02
   1.386792e+02  -6.339555e+01
   1.131981e+02   9.136535e+01
   1.520431e+01   2.434746e+02
  -1.142526e+02   1.430048e+02
  -1.248200e+02   2.545232e+01
  -4.724013e+01  -1.200439e+02
  -7.119505e+00  -8.683258e+01
   6.339691e+01  -5.338286e+01
   3.213833e+01   4.497267e+01
   4.950133e+01   3.344182e+01
   5.447372e+00  -1.562348e+01
  -2.739749e+01   2.320083e+01
   1.686555e+01   1.206915e+02
   6.044817e+01   7.674604e+01
  -3.376333e+01   6.595643e+01
  -1.487638e+02  -3.733169e+01
  -1.166883e+02  -6.529594e+01
  -4.556134e+01  -9.351697e+01
   7.873988e+01  -2.934804e+01
   1.060178e+02  -2.793126e+00
  -1.463428e+01   1.566438e+01
  -8.132173e+01   2.558459e+01
   3.384844e+00  -7.008194e+00
   3.825873e+01   3.226403e+01
  -9.669463e+00  -3.466259e+01
  -7.782518e+01  -1.756328e+01
  -6.906119e+01  -3.942304e+01
   3.328488e+01  -6.472846e+01
   7.519415e+01  -9.098386e+01
   1.894617e+02  -7.736845e+01
   1.528200e+02   3.835039e+01
   3.447522e+01   1.632429e+02
  -6.128715e+01   1.563535e+02
  -1.245365e+02   6.895275e+01
  -1.231251e+02  -2.538111e+01
  -2.189134e+00  -2.045188e+01
  -2.553467e+01   1.278797e+01
   2.085304e+01   1.853757e+01
   1.054265e+01  -1.875093e+01
  -3.694253e+01  -8.648297e+01
   4.309058e+01  -5.021268e+01
   8.852644e+01   2.500641e+01
   1.170845e+02   9.220403e+01
   7.713409e+00   9.766669e+01
  -8.155443e+01   3.170130e+01
  -7.827141e+01  -6.305575e+01
  -6.113760e+01  -1.269408e+02
   6.491928e+01  -6.099804e+01
   1.060000e+02   4.507313e+00
   3.121423e+01   7.369634e+01
  -2.355762e+01   4.845181e+01
  -2.659675e+01   5.078930e-01
   2.559754e+01  -8.814478e+00
   6.479103e+01  -6.538839e+00
   5.105443e+01   5.620130e+01
  -1.016736e+02   6.340940e+01
  -1.022372e+02   6.316873e+01
  -4.189990e+01  -8.028292e+00
   1.546485e+01  -9.484740e+01
   6.779311e+01  -6.593360e+01
   3.564473e+01  -1.637165e+00
  -1.164169e+01   5.027690e+01
  -6.623652e+00   2.256704e+01
  -5.497311e+01   3.347653e+01
  -4.664715e+01  -7.591677e+01
   3.952464e+00  -1.102263e+01
   1.683715e+01   1.341536e+01
   5.434788e+00   5.783504e+01
   1.114974e+01  -5.448266e+00
  -2.781977e+00  -1.797024e+00
  -2.055352e+01   2.419010e+01
  -1.611735e+01   6.408295e+01
  -9.636435e+00   8.918953e+01
  -4.434865e+01  -4.908841e+01
  -2.967637e+01  -3.992284e+01
   6.865406e+00  -2.134943e+01
   1.809812e+01  -2.163441e+01
   7.760789e+01   2.825097e+01
   3.005061e+01   8.388211e+01
  -7.726752e+01   1.039005e+01
  -7.196406e+01  -5.769253e+01
  -5.115843e+01  -4.384740e+01
   2.013009e+01  -6.414611e+01
   5.618194e+01  -2.721711e+01
   2.624705e+01  -8.397513e-01
  -2.201834e+01  -1.680771e+01
  -4.550078e+01  -2.193440e+01
   7.142636e+00  -1.315879e+01
   1.264855e+02   1.164148e+01
