
 $NMID
 id='ANONYMOUS ', fmtdat='(2E16.6)'
 volume=1.0
 tramp=1.0
 $END
  -3.863614e+03   1.494070e+02
  -2.212763e+03  -2.378855e+03
   5.579852e+02  -2.376018e+03
   1.803305e+03  -8.665549e+02
   9.683473e+02   4.940636e+02
  -3.305018e+02   5.113641e+02
  -7.940936e+02  -4.098393e+02
  -4.480381e+01  -9.821844e+02
   7.756183e+02  -7.264925e+02
   8.624637e+02   8.170335e+01
   4.123429e+02   7.967146e+02
  -2.093852e+02   8.389005e+02
  -5.916727e+02   1.343962e+02
  -3.908026e+02  -6.314775e+02
   2.423296e+02  -6.536845e+02
   5.921545e+02   6.647256e+00
   2.148567e+02   6.195347e+02
  -2.752970e+02   6.160217e+02
  -6.166253e+02   9.772604e+01
  -4.246013e+02  -3.382214e+02
   4.076392e-01  -4.352265e+02
   2.303095e+02  -2.025564e+02
   1.720747e+02  -1.655829e+01
  -1.137312e+02   9.125486e+01
  -3.635339e+02  -1.337968e+02
  -1.212605e+02  -4.134552e+02
   4.687173e+02  -3.292595e+02
   7.925052e+02   1.014613e+02
   3.513156e+02   4.845645e+02
  -3.570275e+02   3.971408e+02
  -6.664865e+02  -1.033236e+02
  -3.176780e+02  -4.225633e+02
   2.491992e+02  -5.228918e+02
   5.714291e+02  -1.909245e+02
   3.866716e+02   2.219754e+02
   1.003197e+02   4.060877e+02
  -1.703176e+02   2.516712e+02
  -1.233000e+02  -2.182894e+02
   1.722998e+02  -3.548812e+02
   3.728421e+02   8.514534e+01
   1.732270e+02   6.497245e+02
  -3.134635e+02   5.749521e+02
  -5.283668e+02  -3.501290e+01
  -2.019977e+02  -4.578303e+02
   2.206606e+02  -3.032412e+02
   3.051492e+02   2.902294e+02
  -6.264641e+01   4.811279e+02
  -4.964279e+02   1.239483e+02
  -5.334875e+02  -4.236313e+02
  -1.639283e+02  -5.820664e+02
   3.338384e+02  -3.338048e+02
   6.128794e+02   5.743835e+01
   3.454515e+02   3.938959e+02
  -1.351683e+02   3.234649e+02
  -4.530419e+02   6.427790e+01
  -2.040424e+02  -1.639165e+02
   1.311641e+02  -4.865351e+01
   1.481167e+02   1.163471e+02
  -1.565595e+02   1.752560e+02
  -3.207626e+02  -5.797315e+01
  -1.918143e+02  -2.507878e+02
   1.397988e+02  -2.705683e+02
   3.212395e+02  -1.207879e+02
   2.207499e+02   1.353245e+02
  -1.435965e+01   2.576651e+02
  -2.371546e+02   3.517514e+02
  -3.430261e+02   2.066600e+02
  -2.718049e+02  -1.761281e+02
  -2.642406e+01  -4.129817e+02
   9.239209e+01  -3.458749e+02
   8.032999e+01  -1.553620e+02
   4.071628e+01  -1.017964e+01
   1.100293e+02  -9.478713e+01
   1.764135e+02  -9.907180e+01
   2.634990e+02   1.294533e+01
   1.605157e+02   2.181508e+02
  -7.306740e+01   2.146431e+02
  -2.342046e+02  -1.625476e+01
  -1.868751e+02  -2.343960e+02
   2.412287e+01  -3.237652e+02
   2.524879e+02  -9.843255e+01
   3.259587e+02   1.551339e+02
   1.813331e+02   3.242284e+02
  -1.242393e+02   2.802126e+02
  -2.083303e+02   1.175793e+02
  -1.429617e+02   1.342382e+01
  -9.183343e+01   3.358311e+01
  -2.321677e+02   3.995445e+01
  -4.327451e+02  -7.349269e+01
  -3.184400e+02  -2.781683e+02
   5.312183e+00  -4.445239e+02
   3.510076e+02  -4.256329e+02
   4.839104e+02  -1.784359e+02
   3.159083e+02   6.808674e+01
   6.721615e+01   2.807645e+02
  -1.538832e+02   2.511126e+02
  -6.827036e+01   2.987573e+01
   1.247782e+02  -1.231448e+02
   1.718370e+02   7.752012e+00
   9.040720e+01   2.130953e+02
  -1.257298e+02   1.709371e+02
  -1.358149e+02  -8.260535e+01
   6.828348e+01  -1.751550e+02
   1.563103e+02  -2.330729e+01
   1.692786e+02   2.619550e+02
  -2.488177e+01   3.576870e+02
  -1.956600e+02   2.189995e+02
  -3.281831e+02  -1.136036e+02
  -2.539813e+02  -2.367290e+02
  -7.588010e+01  -2.250690e+02
   1.283414e+02  -1.495402e+02
   1.941762e+02  -2.571914e+01
   8.366329e+01   1.347036e+01
  -3.288577e+01  -7.148879e+01
  -9.398761e-01  -9.083732e+01
   1.309779e+02  -9.580623e+01
   1.859674e+02   6.677392e+01
   8.006478e+01   5.270424e+01
  -9.040751e+01   4.278405e+01
  -1.504536e+01  -3.932247e+01
   8.756136e+01  -1.294840e+02
   2.876125e+02  -8.377286e-01
   2.382779e+02   1.287532e+02
   8.872397e+01   2.400834e+02
  -1.967711e+02   2.345795e+02
  -2.253507e+02   1.139991e+02
  -1.362343e+02  -4.021435e+01
   7.082741e+00  -1.085576e+02
   7.161174e+01  -7.034705e-02
  -2.775388e+01   1.000514e+02
  -1.848818e+02   3.763817e+01
  -1.911812e+02  -9.729720e+01
  -5.534401e+01  -2.050694e+02
   1.190445e+02  -1.566294e+02
   1.244205e+02  -2.632483e+01
   4.671788e+01   4.207170e+01
  -4.206849e+01  -3.590280e+01
  -3.865490e+01  -1.176841e+02
   6.349865e+01  -9.747756e+01
   1.819499e+02  -2.032732e+00
   1.751036e+02   8.463585e+01
   3.699010e+01   1.914286e+02
  -1.658604e+02   1.595736e+02
  -1.934679e+02   4.216275e+01
  -1.721296e+01  -1.191127e+02
   7.091508e+01  -8.181257e+01
   5.728022e+01  -3.116020e+01
   7.430041e+00   2.192548e+01
   5.149125e+00   7.032572e+00
  -2.527986e+00  -2.270561e+01
   6.471212e+01  -2.053184e+01
   1.130866e+02   6.883404e+01
   2.114959e+01   1.739168e+02
  -1.550167e+02   1.253448e+02
  -2.257395e+02   2.541274e+01
  -1.713780e+02  -1.637026e+02
  -4.785035e+01  -2.321096e+02
   1.101361e+02  -1.318695e+02
   1.120449e+02  -1.468956e+01
   8.198263e+01   5.009460e+01
   5.071509e+01   2.249273e+01
   3.506299e+01  -5.128843e+01
   9.537806e+01  -7.426391e+00
   6.176078e+01   7.379898e+01
  -3.723539e+01   6.736958e+01
  -1.034758e+02   6.714468e+01
  -4.332073e+01  -2.543169e+01
  -5.728812e+00  -1.174524e+02
   1.359924e+02  -8.798050e+01
   2.066841e+02   4.532776e+01
   5.913510e+01   2.085448e+02
  -8.482449e+01   2.251070e+02
  -2.512054e+02   7.405148e+01
  -2.513545e+02  -5.495554e+01
  -1.525475e+02  -1.771882e+02
   2.460262e+01  -1.307412e+02
   6.399827e+01  -6.777610e+01
   6.268440e+01  -1.079851e+02
   2.266123e+01  -9.463666e+01
   7.329335e+01  -6.811901e+01
   1.450287e+02   1.768643e+01
   9.889275e+01   1.593240e+02
   3.450965e+01   2.251117e+02
  -9.239089e+01   1.451749e+02
  -1.678966e+02   4.435916e+00
  -1.576633e+02  -1.231298e+02
  -2.520718e+01  -1.044176e+02
   8.094763e+01  -7.418170e+01
   7.848123e+01  -2.286626e+01
  -3.948570e+01   3.568351e+01
   2.141505e+01   4.706966e+01
   3.636138e+01   2.212078e+01
   8.096628e+01  -2.159302e+01
   4.731516e+01   1.292550e+01
  -6.803893e+01   3.979319e+01
  -2.215457e+02  -1.132021e+01
  -1.136592e+02  -3.245956e+01
  -1.191698e+01  -7.579024e+01
   1.189486e+02  -7.338225e+01
   1.342920e+02   4.039319e+01
   3.434513e+01   3.408269e+01
  -4.805010e+01   2.353197e+01
  -4.998769e+01  -8.890516e+01
   3.649334e+01  -9.611455e+01
   6.832319e+01  -2.756490e+01
   7.673630e+01   2.221647e+01
   6.086249e+01   7.558760e+01
   1.512656e+01   6.764908e+01
   2.871003e+01   1.107816e+01
   4.413412e+01  -2.128383e+01
   2.910114e+01   7.253977e+01
  -2.268848e+01   1.542713e+02
  -8.461175e+01   1.729487e+02
  -2.031354e+02  -2.184245e+01
  -1.260213e+02  -1.126586e+02
   5.670002e+00  -1.288820e+02
   1.182289e+02  -8.033219e+01
   7.895890e+01   1.764990e+01
  -6.858921e+01   1.350013e+00
  -1.340927e+02  -6.847982e+01
  -7.380249e+01  -9.156248e+01
   5.338878e+01  -9.922275e+01
   1.902307e+02  -5.101146e+01
   1.311083e+02   2.378683e+01
   6.761199e+01   6.842343e+01
  -5.154401e+01   9.274554e+01
  -8.248108e+01   4.802751e+01
  -1.298216e+01  -5.094891e+01
   8.701268e+01   4.094888e+01
   6.502601e+01   1.198830e+02
  -6.686539e+01   1.319177e+02
  -1.679536e+02   2.554505e+01
  -1.187012e+02  -1.026884e+02
  -7.845937e+00  -1.627452e+02
   1.037419e+02  -1.245002e+02
   1.065582e+02   3.124354e+01
   5.146033e+01   1.116433e+02
  -1.913867e+01   8.542557e+01
  -4.785945e+01  -6.417243e+00
  -5.289327e+01  -5.972195e+01
  -4.882403e+01  -8.767487e+00
  -3.108291e+01   3.621754e+01
  -1.527208e+01  -7.677088e+00
  -8.330673e+01  -7.885689e+01
  -3.580259e+01  -1.142763e+02
   3.023969e+01  -3.095571e+01
   1.455000e+02   1.633730e+01
   1.201935e+02   9.582952e+01
  -3.390902e+00   1.847263e+01
  -6.617746e+01  -2.461577e+00
  -7.409238e+01  -1.655472e+01
   1.862069e+01  -3.717265e+00
   2.945819e+01  -5.955021e+01
   8.479391e+00   5.220555e+01
  -4.012997e+01   5.251751e+01
  -3.772045e+01  -1.008758e+01
   6.748540e+01   6.945716e+00
   8.816812e+01   2.466007e+01
  -2.096360e+01   6.880895e+01
  -1.008369e+02   1.179307e+02
  -1.646367e+02   5.135436e+01
  -1.698167e+02  -5.680552e+01
  -3.922257e+00  -2.118571e+02
   9.140687e+01  -1.433405e+02
   1.476985e+02  -8.829396e+01
   8.356805e+01   6.334875e+00
   3.461759e+01   2.518734e+01
  -4.362144e+01  -2.588706e-01
  -2.631163e+00  -2.005743e+01
   2.379344e+01   2.924731e+01
   7.790248e+00   1.017069e+02
  -3.728616e+01   7.252597e+01
  -9.712864e+01  -2.752887e+01
  -7.943408e+01  -1.126602e+02
  -5.469120e+00  -9.797890e+01
   8.185044e+01  -3.016066e+01
   6.908682e+01   7.683328e+01
   2.396296e+01   8.851809e+01
  -9.319755e+01   7.818100e+01
  -1.057382e+02  -4.702155e+01
  -2.635754e+01  -6.264562e+01
   9.134802e+01  -5.649029e+01
   4.065344e+01  -2.773296e+01
  -3.446835e+01   6.486568e+00
  -6.920549e+01  -2.147779e+00
  -2.070670e+01   1.590174e+01
   7.987543e+01  -4.676840e+01
   1.484460e+02  -6.686565e+01
   9.766773e+01   1.633550e+00
  -1.919912e+01   9.025982e+01
  -4.313431e+01   9.019470e+01
  -7.133240e+01   2.782076e+01
   3.001515e+01  -4.130114e+01
   2.547650e+01  -4.489951e+01
   4.870650e+01   5.348966e+01
   4.167266e+01   5.466478e+01
  -1.274817e+01   4.944687e+01
  -4.014636e+01   1.649095e+01
  -4.104499e+01  -2.004677e+01
  -2.906963e+01  -5.003392e+00
   9.496218e+00  -3.343662e+01
  -2.219689e+01  -1.885101e+01
   2.650733e+01  -8.253223e+01
   8.052728e+00  -4.111572e+01
   4.123893e+01  -1.309621e+00
  -9.008379e-01   2.837676e+01
  -2.905598e+00   5.470708e+01
  -2.099713e+01   3.897347e+00
  -9.074689e+01  -3.143520e+01
  -1.261942e+01  -4.358390e+01
   6.453217e+01  -3.252468e+01
   7.852371e+01  -1.909444e+01
   2.750643e+01   1.660020e+01
  -7.280952e+00   1.046513e+01
  -3.493449e+01   4.251125e+01
  -1.833731e+01   4.180694e+00
   2.362061e+01  -1.280927e+01
   1.349598e+01  -2.074406e+00
  -1.676611e+01   3.827279e+01
  -9.833724e+01   2.168175e+01
