
 $NMID
 id='ANONYMOUS ', fmtdat='(2E16.6)'
 volume=1.0
 tramp=1.0
 $END
   3.679586e+03   1.530952e+02
   2.145353e+03   2.181501e+03
  -4.519159e+02   2.440294e+03
  -1.706222e+03   9.191823e+02
  -7.776848e+02  -2.790929e+02
   3.770236e+02  -4.003402e+02
   6.772349e+02   3.645618e+02
  -8.428797e+01   7.995726e+02
  -7.799005e+02   6.832514e+02
  -7.946828e+02  -1.485013e+02
  -3.691820e+02  -7.307010e+02
   2.203426e+02  -6.914348e+02
   4.645516e+02  -1.205674e+02
   2.427408e+02   5.889857e+02
  -2.806733e+02   5.989937e+02
  -5.588663e+02  -7.228145e+00
  -2.280221e+02  -6.038701e+02
   2.024362e+02  -6.272804e+02
   5.096965e+02  -1.644926e+02
   4.412351e+02   2.941347e+02
   3.676121e+01   4.088048e+02
  -2.470649e+02   2.178709e+02
  -1.012688e+02  -3.657000e+01
   2.202635e+02  -1.555615e+01
   3.961085e+02   1.983457e+02
   7.949584e+01   4.504781e+02
  -5.332828e+02   2.660099e+02
  -7.365632e+02  -2.318731e+02
  -3.260767e+02  -5.089238e+02
   4.367527e+02  -3.928466e+02
   6.588485e+02   1.576004e+02
   2.604802e+02   4.819741e+02
  -3.275023e+02   4.874708e+02
  -4.979823e+02   1.395936e+02
  -3.629486e+02  -2.146690e+02
  -4.920108e+01  -4.205676e+02
   1.315415e+02  -2.195458e+02
   5.467692e+01   2.420535e+02
  -2.471843e+02   3.385127e+02
  -3.106735e+02  -9.052762e+01
  -1.388288e+02  -6.179023e+02
   3.868528e+02  -5.333658e+02
   5.194320e+02  -8.320300e-01
   1.318898e+02   4.662002e+02
  -2.709098e+02   2.039519e+02
  -2.946623e+02  -3.137270e+02
   1.245500e+02  -4.939687e+02
   5.343758e+02  -4.639071e+01
   4.997110e+02   4.460661e+02
   1.317994e+02   6.041668e+02
  -3.858639e+02   3.020516e+02
  -6.077185e+02  -4.555276e+01
  -3.133819e+02  -3.337067e+02
   1.556507e+02  -3.000789e+02
   3.643374e+02  -7.462648e+01
   2.176384e+02   1.623906e+02
  -5.043874e+01   3.928371e+01
  -3.813800e+01  -1.572039e+02
   2.122792e+02  -6.641165e+01
   2.396650e+02   6.350415e+01
   1.148866e+02   2.975649e+02
  -1.781719e+02   2.439226e+02
  -3.418401e+02   8.477109e+01
  -2.122302e+02  -9.147311e+01
   3.840591e+00  -2.733480e+02
   2.470024e+02  -3.592190e+02
   3.559376e+02  -1.697704e+02
   2.012714e+02   1.203723e+02
   6.156339e+00   3.691101e+02
  -9.154696e+01   3.576609e+02
  -7.285372e+01   1.482659e+02
  -4.397979e+00   7.212763e+01
  -7.422846e+01   1.244724e+02
  -2.140672e+02   7.456592e+01
  -2.773135e+02  -1.095845e+02
  -1.162199e+02  -2.319880e+02
   1.120993e+02  -2.299888e+02
   2.322458e+02   3.933602e+01
   1.605175e+02   2.882089e+02
  -5.594376e+01   2.479065e+02
  -2.958986e+02   9.775208e+01
  -3.400147e+02  -1.972309e+02
  -1.238462e+02  -3.457152e+02
   1.269847e+02  -3.138243e+02
   2.129816e+02  -8.552460e+01
   1.492431e+02  -2.521314e+01
   9.177763e+01  -6.485983e+01
   2.741932e+02  -5.797802e+01
   4.007833e+02   8.421558e+01
   3.023742e+02   3.241300e+02
   1.577983e+01   4.705450e+02
  -3.505782e+02   4.424415e+02
  -5.294133e+02   1.724230e+02
  -3.249665e+02  -1.146730e+02
  -2.695220e+01  -2.825714e+02
   1.489367e+02  -2.014629e+02
   6.859879e+01  -4.688445e+01
  -1.162713e+02   4.547801e+01
  -1.607108e+02  -7.414514e+00
  -6.503334e+01  -1.446755e+02
   1.710143e+02  -1.537800e+02
   1.297878e+02   8.386819e+01
  -3.067381e+01   1.899177e+02
  -1.520644e+02   1.879263e+01
  -1.078281e+02  -2.138119e+02
   5.712779e+01  -3.499472e+02
   2.533840e+02  -2.273464e+02
   3.726451e+02   5.095463e+01
   2.774413e+02   2.620821e+02
   8.048436e+01   2.891842e+02
  -1.547869e+02   1.342730e+02
  -1.655501e+02  -5.703119e-02
  -6.698818e+01  -5.118178e+01
   1.081281e+02   2.006775e+01
   3.861175e+01   1.099292e+02
  -1.647345e+02   9.139306e+01
  -1.858441e+02  -1.236725e+00
  -4.937310e+01  -5.303307e+01
   8.355360e+01   2.720051e+00
   4.106980e+01   1.292168e+02
  -1.325754e+02   9.109892e+01
  -2.927867e+02  -9.652325e+00
  -2.144050e+02  -1.612603e+02
  -1.385465e+01  -2.494394e+02
   2.147473e+02  -2.170158e+02
   2.527775e+02  -1.017838e+02
   1.476048e+02   4.688439e+01
  -5.194470e+01   8.131870e+01
  -6.857209e+01   5.340969e+00
   7.248059e+01  -1.097940e+02
   1.634556e+02  -1.949777e+01
   2.386564e+02   1.577371e+02
   3.349735e+01   1.715895e+02
  -1.289491e+02   1.525941e+02
  -1.529870e+02   1.598988e+01
  -4.049929e+01  -4.785384e+01
   5.719219e+01   9.994640e+00
   7.452411e+01   1.169963e+02
  -9.431885e+01   9.249661e+01
  -2.279724e+02   2.008649e+01
  -2.145098e+02  -1.269936e+02
   7.196823e+00  -2.142391e+02
   1.432914e+02  -1.560603e+02
   1.965381e+02   1.588243e+01
   3.467614e+01   1.524507e+02
  -1.163600e+02   1.203950e+02
  -9.142609e+01   1.851932e+01
  -1.641674e+01  -2.080092e+01
   1.283003e+01   7.046099e+00
  -1.793229e+01   3.455313e+01
  -1.132310e+02   1.977770e+00
  -9.692887e+01  -9.776978e+01
  -1.133362e+01  -1.832346e+02
   1.773514e+02  -1.774863e+02
   2.209670e+02  -1.676909e+01
   2.145370e+02   2.066324e+02
   2.583596e+01   2.483118e+02
  -1.176633e+02   1.918353e+02
  -1.200608e+02   2.975356e+01
  -8.432105e+01  -5.121956e+01
  -3.765310e+01   8.740253e+00
  -6.284785e+01   3.528066e+01
  -1.019398e+02   2.841156e+00
  -5.521038e+01  -6.631161e+01
   1.335599e+00  -1.100364e+02
   1.672095e+02  -5.380162e+01
   8.102174e+01   3.462795e+01
  -7.023416e+00   1.215298e+02
  -1.613963e+02   1.108703e+02
  -2.302493e+02  -6.351557e+01
  -6.497638e+01  -2.363041e+02
   1.476042e+02  -2.413121e+02
   2.857245e+02  -9.474089e+01
   2.411859e+02   1.168623e+02
   8.064465e+01   2.006460e+02
  -2.071447e+01   1.229159e+02
  -9.864424e+01   8.203490e+01
  -9.392370e+01   3.707921e+01
  -6.772256e+01   9.120054e+01
  -7.741345e+01   5.526510e+01
  -1.193122e+02  -3.533751e+01
  -9.343632e+01  -1.449679e+02
  -1.354955e+01  -2.383857e+02
   9.475264e+01  -1.756412e+02
   1.765972e+02   1.871899e+00
   1.586520e+02   9.121208e+01
  -1.432665e+01   1.584202e+02
  -6.294689e+01   7.564642e+01
  -9.826705e+01  -4.267649e+01
  -2.221400e+01  -3.848199e+01
   3.004795e+01  -3.364833e+01
   2.251670e+00  -2.891909e+01
  -6.794826e+01   9.867766e+00
  -4.024127e+01  -2.531364e+01
   6.886374e+01  -6.543211e+01
   1.635521e+02   1.131930e+01
   1.329981e+02   7.343199e+01
   2.373954e+01   1.184777e+02
  -1.578260e+02   9.023986e+01
  -1.651028e+02  -1.149513e+00
  -4.580335e+01  -5.432519e+01
   5.502939e+01  -3.919220e+00
   7.979475e+01   4.207805e+01
   4.500408e+01   8.345249e+01
  -2.967335e+01   4.744480e+01
  -2.819696e+01   2.668151e+01
  -7.340889e+01  -5.858089e+01
  -3.919832e+01  -5.175752e+01
  -7.863576e+01   1.357228e+01
  -7.943589e+01   4.624403e+01
  -5.886660e+01  -4.880825e+01
   7.224099e+00  -1.538320e+02
   1.589338e+02  -1.677026e+02
   1.711673e+02  -2.988093e+01
   1.348932e+02   8.938807e+01
   1.321164e+01   1.285920e+02
  -1.160608e+02   4.168825e+01
  -5.669356e+01   5.725420e+00
   6.284557e+01  -1.524728e+01
   1.445210e+02   2.684672e+01
   6.857928e+01   1.331411e+02
  -5.435645e+01   1.133073e+02
  -1.604852e+02   5.763949e+01
  -1.686695e+02  -1.440237e+01
  -3.109089e+01  -3.945450e+01
   6.621577e+01  -7.250957e+01
   4.864153e+01  -2.212992e+01
   1.042614e+01   4.014000e+01
  -7.284059e+01  -1.614502e+01
  -3.547210e+01  -1.506184e+02
   8.794745e+01  -1.897370e+02
   1.718578e+02  -7.066999e+01
   9.703951e+01   1.225080e+02
   2.582279e+01   2.190522e+02
  -9.332809e+01   1.529707e+02
  -1.281586e+02  -9.266214e+00
  -1.578024e+01  -1.054483e+02
   2.194505e+01  -9.015502e+01
   5.504292e+01  -1.289205e+01
   7.972840e+01   5.846066e+01
   4.064888e+00   2.086180e+01
  -3.996693e+01   1.135428e+01
   4.868314e+01  -1.842025e+01
   8.408364e+01   1.073342e+02
   5.158314e+01   9.297692e+01
  -6.519304e+01   7.319122e+01
  -1.434716e+02  -4.153401e+01
  -1.227458e+02  -7.370703e+01
  -2.965601e+01  -6.110480e+01
   1.035591e+02  -1.520549e+01
   7.742635e+01  -1.301087e+01
  -2.188189e+01   9.809479e+00
  -5.529526e+01   4.109677e+01
  -4.979765e+01  -1.657773e+01
  -5.428550e+00   2.951243e+01
  -2.042316e+01  -1.077159e+01
  -2.509278e+01   2.846788e+01
  -6.661546e+01  -2.484112e+01
  -1.788715e+01  -6.708711e+01
   1.178818e+02  -9.552497e+01
   1.951754e+02  -2.277690e+01
   1.709384e+02   7.134520e+01
   2.081653e+01   1.553513e+02
  -1.011867e+02   1.519789e+02
  -1.333113e+02   9.115020e+01
  -9.224032e+01   1.220199e+01
  -4.498659e+01  -5.401043e+01
   1.372480e+01   1.279146e+01
   3.323578e+01  -7.889146e+00
  -6.122567e+01  -2.270569e+01
  -1.214743e+01  -5.047644e+01
   2.200659e+01  -5.951589e+01
   3.421003e+01   3.457769e+01
   8.261718e+01   1.008640e+02
   3.641223e+01   1.452307e+02
  -7.012042e+01   9.736280e+01
  -1.300112e+02  -7.377157e+01
  -2.353175e+01  -1.215647e+02
   6.397755e+01  -4.135599e+01
   1.130100e+02   9.238602e+00
   5.029992e+01   5.416417e+01
  -7.788298e+01   4.280023e+01
  -5.020045e+01   1.934736e+01
  -5.862023e+00  -3.477310e+01
   6.631679e+01  -1.540619e+01
   1.634067e+01   5.442064e+01
  -8.145079e+01   6.417151e+01
  -1.438054e+02   6.349955e+01
  -4.719267e+01  -3.356384e+01
   2.558357e+01  -9.851068e+01
   3.631942e+01  -1.058757e+02
   1.588558e+01  -3.222988e+01
  -2.679089e+01   4.288260e+01
  -7.387334e+01   3.063748e+01
  -7.455804e+00  -1.661081e+01
  -8.369559e+01  -5.050897e+01
  -1.024563e+01  -4.801128e+01
   3.485107e+01   4.087227e+01
  -7.277953e+00   6.109577e+01
   1.364991e+01  -2.313416e+01
   2.808144e+01  -4.589922e+01
  -1.279822e+01  -1.445393e+01
   1.807666e+01   6.987557e+01
   1.682986e+01   3.067283e+01
  -2.846599e+01   2.109861e+01
  -5.791655e+01  -5.836332e+01
   1.565132e+01  -6.959812e+01
  -5.837696e-02  -1.646008e+01
   7.642696e+01   4.738683e+01
  -5.987337e+00   3.381247e+01
  -8.791779e+01   3.770379e+01
  -9.778759e+01  -5.605084e+00
  -5.550683e+01  -4.302187e+01
   3.991547e+01  -6.846915e+01
   6.404925e+01  -2.777046e+01
  -1.598075e+01  -4.622722e+00
   3.499085e+00   6.945705e+00
  -1.108366e+01  -3.505563e+01
   5.569636e+01  -2.976317e+01
   7.038292e+01  -1.190879e+01
