
 $NMID
 id='ANONYMOUS ', fmtdat='(2E16.6)'
 volume=1.0
 tramp=1.0
 $END
   3.442020e+03   2.234880e+02
   2.064839e+03   2.011672e+03
  -3.479547e+02   2.310882e+03
  -1.597485e+03   9.132930e+02
  -7.926522e+02  -1.769873e+02
   3.150656e+02  -2.449588e+02
   5.491867e+02   2.122912e+02
  -1.392800e+02   7.813213e+02
  -6.369335e+02   6.479258e+02
  -6.972082e+02  -4.402088e+01
  -3.531031e+02  -6.866559e+02
   8.284940e+01  -7.172754e+02
   4.240225e+02  -1.220054e+02
   2.128475e+02   5.554332e+02
  -1.975255e+02   5.626159e+02
  -4.380605e+02   1.135296e+01
  -2.365326e+02  -5.427519e+02
   2.033335e+02  -5.802860e+02
   4.808118e+02  -1.693616e+02
   3.873602e+02   2.008197e+02
   6.497135e+01   3.651433e+02
  -1.489946e+02   2.405976e+02
  -1.105532e+02   4.427175e+01
   1.596145e+02   3.264747e+01
   2.920724e+02   2.230086e+02
   8.026107e+01   3.966235e+02
  -4.713760e+02   2.416282e+02
  -7.421156e+02  -1.465587e+02
  -2.844031e+02  -4.481560e+02
   3.369828e+02  -3.466667e+02
   5.746243e+02   9.591427e+01
   2.606324e+02   4.174919e+02
  -2.756323e+02   3.550444e+02
  -4.650194e+02   1.582786e+02
  -3.418480e+02  -2.275819e+02
  -5.854690e+01  -3.741197e+02
   9.713944e+01  -1.997034e+02
   8.713947e+01   1.601157e+02
  -2.102992e+02   2.718649e+02
  -2.833861e+02  -7.902576e+01
  -2.509700e+01  -5.222665e+02
   2.093528e+02  -5.186465e+02
   4.243773e+02   5.756434e+00
   1.495181e+02   3.879391e+02
  -2.143437e+02   1.803193e+02
  -2.624589e+02  -2.951585e+02
   7.459189e+01  -4.460624e+02
   4.713567e+02  -5.756351e+01
   4.947871e+02   3.819704e+02
   1.370726e+02   5.275044e+02
  -3.094590e+02   2.967257e+02
  -5.381307e+02  -4.322077e+01
  -3.261501e+02  -3.175068e+02
   5.919971e+01  -2.436806e+02
   3.782971e+02  -2.104735e+01
   1.865981e+02   1.187611e+02
  -5.268700e+01   7.645389e+01
  -1.057145e+02  -1.163707e+02
   8.729178e+01  -1.556662e+02
   2.489596e+02   3.897328e+01
   1.135523e+02   2.552907e+02
  -1.359178e+02   2.738050e+02
  -3.114084e+02   7.218193e+01
  -2.162721e+02  -1.162284e+02
  -3.742905e+00  -2.673559e+02
   2.851290e+02  -3.485394e+02
   3.379923e+02  -1.514173e+02
   2.569673e+02   1.840440e+02
   2.846176e+01   3.677674e+02
  -8.245278e+01   3.543381e+02
  -8.204887e+01   1.138916e+02
  -1.768244e+01   2.132262e+01
  -7.867285e+01   1.078377e+02
  -2.311184e+02   6.964277e+01
  -2.154087e+02  -1.034208e+02
  -1.052990e+02  -2.629950e+02
   8.331981e+01  -2.111836e+02
   1.835165e+02   3.137641e+01
   1.716847e+02   2.672852e+02
  -3.650382e+01   2.421577e+02
  -2.524774e+02   9.842045e+01
  -3.090334e+02  -1.975028e+02
  -1.357999e+02  -2.951322e+02
   6.263425e+01  -2.361040e+02
   1.627807e+02  -1.530870e+02
   1.505630e+02   1.411632e+01
   1.392134e+02  -8.185332e+01
   2.519116e+02  -4.247527e+01
   3.682459e+02   6.693217e+01
   3.223745e+02   2.869247e+02
  -5.236260e+01   3.739736e+02
  -3.662092e+02   3.395610e+02
  -4.876719e+02   1.360003e+02
  -2.778957e+02  -1.158734e+02
  -2.239281e+01  -2.454102e+02
   1.184550e+02  -1.999345e+02
   3.074227e+01  -5.587110e+01
  -1.180797e+02   7.403354e+01
  -1.036456e+02   7.766429e-01
  -2.994685e+01  -1.483156e+02
   1.582329e+02  -8.644896e+01
   1.062232e+02   3.884503e+01
  -3.133631e+01   1.106363e+02
  -1.906259e+02  -9.717513e+00
  -1.549643e+02  -2.638945e+02
   1.512914e+01  -3.380164e+02
   2.128225e+02  -1.711534e+02
   3.400777e+02   6.525586e+01
   2.403244e+02   2.426155e+02
   5.461876e+01   2.822170e+02
  -9.723632e+01   1.482707e+02
  -1.563634e+02   2.166281e+01
  -9.074804e+01   1.841629e+01
   1.484969e+01   6.446007e+01
   8.774796e+00   9.263357e+01
  -1.032580e+02   5.015416e+01
  -1.657582e+02  -7.203623e+00
  -5.425509e+01  -4.350839e+01
   8.206702e+01   2.147550e+01
   2.730893e+01   5.207840e+01
  -1.405167e+02   9.883106e+01
  -2.737113e+02   1.553523e+01
  -2.648833e+02  -1.734214e+02
   3.403578e+01  -2.490521e+02
   1.985558e+02  -2.812734e+02
   2.476515e+02  -1.190341e+02
   1.610158e+02   1.401242e+01
  -2.233173e+01   9.008355e+01
  -8.571073e+01   3.327676e+00
   1.031946e+02  -5.132018e+01
   1.682552e+02  -5.428421e+01
   2.167049e+02   9.475463e+01
   6.088705e+01   1.917019e+02
  -8.786997e+01   1.974030e+02
  -1.252284e+02   2.598166e+01
  -6.652703e+01  -4.426227e+01
   2.388407e+01   3.152216e+01
   1.402235e+01   5.938888e+01
  -6.240472e+01   1.152716e+02
  -2.134412e+02   1.756377e+01
  -1.824591e+02  -1.243351e+02
  -1.823797e+01  -2.174775e+02
   1.304031e+02  -1.378326e+02
   1.724020e+02   3.885966e-01
   3.077489e+01   1.045119e+02
  -9.016664e+01   6.477521e+01
  -4.730272e+01   2.926069e+01
  -1.483658e+01  -1.251676e+01
   7.482501e+01   1.015754e+01
   2.573257e+01   2.756964e+01
  -1.044849e+02   1.265704e+01
  -9.281970e+01  -1.287719e+02
   1.325959e+01  -1.830541e+02
   1.400805e+02  -1.688617e+02
   2.379744e+02  -1.474291e+01
   2.071938e+02   1.597025e+02
   8.577613e+00   2.376704e+02
  -1.335721e+02   1.112022e+02
  -1.107016e+02   2.249099e+01
  -5.630920e+01  -4.479882e+01
  -1.944587e+01  -4.994120e+01
  -5.022023e+01   2.748820e+01
  -7.655325e+01  -1.581834e+01
  -5.248340e+01  -4.797806e+01
   4.875257e+01  -9.311621e+01
   1.412808e+02  -6.338095e+01
   5.725776e+01   5.860216e+01
  -2.765307e+01   9.325703e+01
  -1.329991e+02   7.522441e+01
  -1.713247e+02  -7.604584e+01
  -6.340636e+01  -1.947800e+02
   1.416462e+02  -1.785647e+02
   2.368027e+02  -5.356351e+01
   2.529427e+02   1.101949e+02
   9.419346e+01   1.700334e+02
  -1.984166e+01   1.186356e+02
  -8.690779e+01   8.665118e+01
  -4.924492e+01   3.580139e+01
  -6.252988e+01   1.127308e+02
  -1.164618e+02   9.857058e+01
  -1.258585e+02  -4.109454e+01
  -9.232983e+01  -1.237821e+02
   3.230863e+01  -2.046205e+02
   1.370014e+02  -1.438062e+02
   1.365336e+02   1.288385e+01
   1.130859e+02   1.283408e+02
   2.512135e+01   1.371314e+02
  -8.225427e+01   4.454531e+01
  -4.405511e+01  -4.852858e+00
   1.782727e+01  -5.733959e+01
   4.548596e+01  -1.902208e+01
  -6.105634e+01   5.182091e-01
  -8.000115e+01  -2.958800e+01
  -4.171275e+01  -7.568682e+00
   7.243132e+01  -2.732883e+01
   1.343866e+02  -2.209006e+01
   1.580900e+02   3.827981e+01
   3.231031e+01   8.238628e+01
  -1.406835e+02   1.719749e+01
  -1.330583e+02   2.566078e+01
  -5.084206e+01  -2.482047e+01
   9.316115e+01  -6.576074e+01
   5.899400e+01  -9.334782e+00
   3.562499e+01   7.608762e+01
  -6.823790e+01   1.117520e+02
  -4.282246e+01  -3.078615e+01
  -3.744403e+01  -3.398733e+01
  -3.208752e+00  -7.403369e+01
  -3.557027e+01  -2.058358e+01
  -4.480204e+01   1.132346e+01
  -2.237187e+01  -6.594556e+01
   2.625224e+00  -1.289026e+02
   1.458733e+02  -1.197839e+02
   1.720327e+02  -2.159630e+01
   1.336688e+02   7.380157e+01
   1.060219e+01   1.033997e+02
  -1.153091e+02   7.229417e+01
  -7.877445e+01  -3.552267e+01
   6.205671e+01  -2.129415e+01
   1.384097e+02   4.372000e+01
   7.538090e+01   1.096369e+02
  -5.684669e+01   8.592546e+01
  -1.458867e+02   4.091515e+01
  -1.619676e+02  -1.274038e+01
   7.161105e+00  -9.058748e+01
   9.485321e+01  -5.215406e+01
   3.900407e+01  -2.167031e+01
  -3.648904e+01   3.981992e+00
  -1.018570e+02  -5.717814e-01
  -7.409807e+01  -1.293401e+02
   6.314551e+01  -1.612255e+02
   1.433690e+02  -4.836498e+01
   1.025499e+02   1.110542e+02
   9.462019e+00   2.145729e+02
  -6.093809e+01   1.690942e+02
  -1.227877e+02  -1.581989e+01
  -3.911333e+01  -1.355978e+02
   5.894086e+00  -1.020187e+02
   5.710256e+01  -2.907402e+00
   5.547464e+01   4.109922e+01
   6.231734e+01  -1.781209e+01
   6.115197e+00   1.717765e+00
   3.007596e+01   7.969817e+00
   4.141097e+01   8.282295e+01
   1.750549e+01   8.676873e+01
  -5.014164e+01   4.625122e+01
  -1.327221e+02  -2.606643e+01
  -1.346458e+02  -6.447146e+01
  -9.508775e+00  -6.947730e+01
   6.586769e+01  -3.902173e+01
   6.508321e+01  -2.916075e+01
  -1.685350e+01  -9.229507e+00
  -5.125902e+01   4.496305e+01
  -9.836377e+00   3.077003e+01
   1.414788e+01  -4.282502e+01
  -5.826090e+00   4.255357e+01
  -3.960911e+01   3.023756e+01
  -1.158703e+02   1.029333e+00
  -5.446399e+01  -5.883887e+01
   9.760447e+01  -8.242459e+01
   1.719157e+02  -7.793523e+01
   9.225472e+01   7.409360e+01
  -6.211045e+00   1.605809e+02
  -7.225516e+01   1.903435e+02
  -1.486637e+02   7.756954e+01
  -8.478745e+01  -2.242657e+01
  -3.250659e+00  -5.379565e+01
  -2.483429e+01   3.985590e+01
  -4.936516e+01  -2.316507e+00
  -4.244172e+01  -3.534088e+01
  -2.977167e+01  -9.116503e+01
   2.961931e+01  -8.657133e+01
   4.600413e+01   2.666018e+01
   8.378672e+01   8.728836e+01
   3.771728e+00   1.132101e+02
  -6.954471e+01   1.629448e+00
  -7.992427e+01  -5.581852e+01
  -2.532828e+01  -1.038294e+02
   8.817296e+01  -7.051985e+01
   6.882563e+01   2.298264e+01
   5.919755e+01   4.289464e+01
  -3.700991e+01   6.342664e+00
  -5.666725e+01  -4.010727e+00
  -1.211278e+01  -1.714607e+01
   1.036644e+02   1.327374e+01
   1.068265e+01   7.044853e+01
  -5.203397e+01   3.230675e+01
  -7.982248e+01   4.450796e+01
  -1.292836e+01  -1.895185e+01
   1.031921e+01  -8.443037e+01
   5.951189e+01  -8.132021e+01
   3.138211e+01  -3.199886e+01
  -4.290793e+00   7.228343e+01
  -1.518626e+01   3.239633e+01
  -6.320828e+01  -2.112118e+01
  -3.956977e+01  -2.390794e+01
   4.627774e+00  -1.014207e+01
   1.338512e+01   1.851338e+01
   8.669037e+00   2.686026e+01
   4.198197e+01  -3.514598e+00
  -2.353269e+00  -2.365331e+01
  -3.412010e+01   3.985057e+00
  -1.009972e+01   4.209578e+01
   1.307377e+01   7.184409e+01
  -4.254099e+01   3.805331e+01
  -6.412189e+01  -1.033646e+01
  -1.652558e+01  -5.398847e+01
   5.327930e+01  -3.986711e+00
   3.691539e+01   1.575009e+01
   1.077828e+01   8.253487e+01
  -4.977553e+01   4.198608e+01
  -1.044919e+02  -1.003551e+00
  -4.524997e+01  -7.247431e+01
   2.728608e+01  -4.124118e+01
   7.195768e+01  -1.627466e+01
   3.804925e+01  -1.367696e+01
  -5.360702e+01  -2.828174e+01
  -6.210590e+01  -1.128602e+01
   3.608772e+01  -1.767304e+01
   6.568147e+01  -4.479440e+01
