
 $NMID
 id='ANONYMOUS ', fmtdat='(2E16.6)'
 volume=1.0
 tramp=1.0
 $END
   4.141091e+03  -1.400429e+02
   2.567893e+03   1.991576e+03
  -1.836720e+02   2.506311e+03
  -1.732606e+03   1.156370e+03
  -9.554031e+02  -1.831056e+02
   3.246297e+02  -5.281278e+02
   7.066641e+02   2.473907e+02
   5.356901e+01   8.219413e+02
  -5.243112e+02   8.150751e+02
  -8.953868e+02   7.606487e+01
  -4.609485e+02  -6.934994e+02
   1.456011e+02  -8.288642e+02
   5.176955e+02  -1.680726e+02
   3.567935e+02   6.178623e+02
  -1.534594e+02   7.092487e+02
  -5.575950e+02   3.648526e+01
  -3.048223e+02  -5.712820e+02
   2.736053e+02  -6.189054e+02
   5.242214e+02  -9.147458e+01
   3.839221e+02   2.662013e+02
   8.032410e+01   4.370001e+02
  -1.789839e+02   2.555658e+02
  -1.486795e+02   9.582987e+01
   1.419797e+02   2.358748e+01
   3.318800e+02   1.935294e+02
   9.067372e+01   3.438829e+02
  -4.351211e+02   3.209806e+02
  -7.010891e+02  -1.029786e+02
  -3.918027e+02  -4.558032e+02
   3.401786e+02  -3.570607e+02
   6.575899e+02   3.745079e+01
   2.863718e+02   4.127329e+02
  -2.586700e+02   4.450101e+02
  -4.956242e+02   1.792949e+02
  -3.860158e+02  -1.821948e+02
  -1.272791e+02  -4.118591e+02
   9.740053e+01  -2.413132e+02
   1.904962e+01   9.137493e+01
  -1.252832e+02   3.047669e+02
  -3.152494e+02  -7.790488e+01
  -1.596468e+02  -6.103690e+02
   2.651459e+02  -6.606353e+02
   4.707425e+02  -3.706131e+01
   2.543502e+02   3.801913e+02
  -2.048417e+02   2.611389e+02
  -2.990659e+02  -2.755510e+02
   3.879887e+00  -4.696656e+02
   4.841254e+02  -1.682736e+02
   5.592964e+02   3.312239e+02
   2.043925e+02   5.541998e+02
  -3.493853e+02   3.627703e+02
  -6.021072e+02  -9.734743e+00
  -3.435605e+02  -3.230506e+02
   9.258351e+01  -3.301246e+02
   3.846675e+02  -1.295560e+02
   2.904198e+02   1.039540e+02
  -5.792723e+01   1.393234e+02
  -6.307213e+01  -1.220193e+02
   1.477768e+02  -1.693774e+02
   3.015450e+02   6.441673e+01
   1.870516e+02   2.664660e+02
  -1.437385e+02   2.403940e+02
  -3.767893e+02   1.045037e+02
  -2.479263e+02  -1.566743e+02
   6.252476e+01  -2.844630e+02
   2.333646e+02  -3.206185e+02
   3.176944e+02  -2.017974e+02
   2.570530e+02   1.033268e+02
   1.178096e+02   3.759727e+02
  -5.349831e+01   3.598667e+02
  -1.026543e+02   1.376066e+02
  -8.164123e+01   1.723995e+01
  -8.720419e+01   1.052703e+02
  -2.557993e+02   1.021586e+02
  -2.984201e+02  -6.599321e+01
  -1.150401e+02  -2.280580e+02
   1.241737e+02  -2.454189e+02
   2.341517e+02  -7.196126e+00
   2.090495e+02   2.386115e+02
  -2.782251e+01   3.035772e+02
  -2.848219e+02   7.423107e+01
  -3.398796e+02  -1.982628e+02
  -1.859807e+02  -3.486757e+02
   9.875402e+01  -2.825025e+02
   1.893560e+02  -1.343603e+02
   1.435022e+02  -3.092788e+01
   1.404392e+02  -6.442180e+01
   2.514300e+02  -3.332525e+01
   4.114890e+02   1.079206e+02
   3.431795e+02   2.805964e+02
   7.971032e-01   4.147789e+02
  -3.265829e+02   4.009587e+02
  -4.825784e+02   2.213330e+02
  -3.271782e+02  -9.267226e+01
  -3.229679e+01  -2.438211e+02
   7.710620e+01  -2.632407e+02
   4.747072e+01  -7.706510e+01
  -1.080304e+02   6.702429e+01
  -1.804975e+02   1.633081e+00
  -5.352480e+01  -1.628531e+02
   1.232301e+02  -1.535477e+02
   1.803046e+02   7.476759e+01
  -1.481776e+01   1.805954e+02
  -1.419405e+02  -3.658631e+00
  -1.404661e+02  -2.425550e+02
   2.379455e+01  -3.819906e+02
   2.573791e+02  -2.065822e+02
   3.444511e+02   9.218008e+01
   2.857293e+02   2.412704e+02
   7.614010e+01   2.973905e+02
  -1.162300e+02   1.357843e+02
  -1.892091e+02   2.947502e+01
  -3.961799e+01   1.490790e-01
   5.510409e+01   1.210641e+01
   6.547372e+01   1.176663e+02
  -1.232571e+02   1.313259e+02
  -1.917738e+02  -1.202253e+01
  -5.439369e+01  -5.949571e+01
   7.962830e+01  -1.617224e+01
   6.085156e+01   8.531790e+01
  -1.613989e+02   1.205534e+02
  -2.504717e+02   1.081883e+01
  -2.550548e+02  -1.845795e+02
  -3.598883e+01  -2.367464e+02
   1.976482e+02  -2.258146e+02
   2.692649e+02  -6.534143e+01
   1.723831e+02   6.553689e+01
  -3.318814e+01   8.412418e+01
  -7.078733e+01   3.253266e+01
   1.696386e+01  -7.684933e+01
   2.094790e+02  -8.176512e+01
   2.003797e+02   8.677447e+01
   7.694061e+01   2.122052e+02
  -8.304634e+01   1.470700e+02
  -1.356805e+02   3.666478e+00
  -3.257570e+01  -1.995859e+01
   3.377037e+01   1.901946e+01
   2.359066e+01   1.293668e+02
  -8.236686e+01   1.409220e+02
  -1.962163e+02   2.175088e+01
  -1.603958e+02  -7.928443e+01
  -1.118533e+01  -1.967289e+02
   1.843640e+02  -1.753886e+02
   1.535297e+02  -4.947024e+01
   3.026445e+01   1.020685e+02
  -8.879636e+01   1.148177e+02
  -2.745542e+01   4.658571e+01
   3.046265e+01  -1.287234e+01
   5.442099e+01  -3.334076e+01
   9.612014e+00  -2.966368e+00
  -6.231195e+01  -9.535090e+00
  -9.275508e+01  -1.210393e+02
  -3.551032e+01  -1.358223e+02
   1.017577e+02  -1.656479e+02
   2.515420e+02  -4.217206e+01
   1.927023e+02   1.811066e+02
   4.704511e+01   2.829314e+02
  -1.197322e+02   1.650692e+02
  -1.324423e+02   2.325768e+01
  -7.172184e+01  -6.909534e+01
  -4.254064e+01   1.152198e-01
  -1.103218e+02   2.525816e+01
  -6.176464e+01   1.829304e-01
  -4.943702e+01  -8.196184e+01
   6.196552e+01  -7.306559e+01
   1.278704e+02  -1.175573e+01
   1.100344e+02   8.714081e+01
  -3.257637e+01   1.594247e+02
  -1.362171e+02   7.088248e+01
  -2.182676e+02  -9.719687e+01
  -1.269444e+02  -1.776341e+02
   1.250884e+02  -2.011043e+02
   2.433738e+02  -9.879685e+01
   2.585844e+02   6.358966e+01
   1.005945e+02   1.655880e+02
  -3.838440e+01   1.447953e+02
  -9.054084e+01   8.323678e+01
  -1.208048e+02   8.150368e+01
  -6.063886e+01   1.030962e+02
  -8.170581e+01   7.815237e+01
  -1.337164e+02   7.197149e+00
  -1.157435e+02  -1.308296e+02
  -4.395530e+01  -2.256942e+02
   1.270269e+02  -1.705805e+02
   1.779685e+02  -4.202818e+00
   1.207122e+02   1.473476e+02
   2.777203e+01   1.838951e+02
  -7.028736e+01   6.490067e+01
  -6.155941e+01  -6.044314e+00
   3.410852e+01  -2.883559e+01
   2.577007e+01  -2.342627e+01
  -1.371127e+01   1.093507e+01
  -7.508449e+01  -3.076980e+01
  -3.939723e+01  -5.811730e+01
   4.587604e+01  -1.082650e+01
   1.645152e+02  -7.349256e+00
   1.155999e+02   1.040884e+02
   6.376830e+00   8.252871e+01
  -1.379057e+02   4.861217e+01
  -1.863695e+02  -1.250096e-02
  -3.441044e+01  -3.921205e+01
   7.833246e+01  -4.176616e+01
   5.231932e+01   3.954461e+01
   1.655592e+01   7.946979e+01
  -2.727082e+01   5.951502e+01
  -5.437586e+01  -2.437678e+01
  -5.354421e+01  -7.481866e+01
  -4.868746e+01  -5.350978e+01
  -1.271201e+01   1.388517e+01
  -4.439333e+01  -4.611054e+01
  -2.528115e+01  -8.428981e+01
   1.523509e+01  -9.614000e+01
   1.179173e+02  -1.327195e+02
   1.636052e+02  -3.553397e+01
   1.067690e+02   2.829133e+01
   1.111686e+01   1.203804e+02
  -9.189356e+01   9.622609e+01
  -1.372589e+02  -1.344073e+01
   8.756642e+01  -1.933551e+01
   1.430069e+02   1.868624e+01
   4.720636e+01   9.753687e+01
  -4.143726e+01   1.044854e+02
  -1.596589e+02   4.421375e+01
  -1.525161e+02  -2.987951e+01
  -1.764538e+01  -9.056235e+01
   4.298991e+01  -6.022873e+01
   3.380557e+01   1.104600e+01
  -5.524182e+01   2.715753e+01
  -1.242984e+02  -3.344734e+01
  -4.614259e+01  -8.938692e+01
   6.643865e+01  -1.377395e+02
   1.729904e+02  -4.190163e+01
   1.102665e+02   9.772694e+01
   2.812885e+01   1.705849e+02
  -8.926403e+01   1.792018e+02
  -7.848426e+01   1.715705e+01
  -6.991848e+01  -1.325862e+02
   3.991924e+00  -1.158007e+02
   6.484357e+01  -2.187299e+01
   4.632506e+01   1.114930e+01
   4.131117e+01   1.335453e+01
   1.009689e+01  -2.858288e+01
   1.112288e+01   2.807113e+01
   7.123693e+01   1.099846e+02
   7.384758e+00   1.201613e+02
  -3.303518e+01   7.867849e+01
  -1.693199e+02  -6.552348e+01
  -1.502554e+02  -2.262760e+01
  -3.427790e+01  -7.450646e+01
   1.028489e+02  -3.969266e+01
   7.425739e+01   2.833033e+01
   1.108838e+01   2.873451e+00
  -2.688381e+01   3.067552e+01
  -1.883755e+01  -3.713555e+01
   9.744582e+00   3.515186e+01
   1.166422e+01  -9.261162e+00
  -8.711467e+01  -4.530088e+00
  -9.559470e+01  -7.686377e+00
  -7.721475e+00  -6.528638e+01
   8.685873e+01  -1.602680e+02
   2.270903e+02  -6.890731e+01
   1.774661e+02   7.759442e+01
   3.111194e+01   1.372458e+02
  -6.210020e+01   1.966930e+02
  -1.185800e+02   5.327858e+01
  -7.634297e+01  -4.322244e+01
   1.342869e+01  -2.157798e+01
   6.732424e+00   4.221668e+01
  -2.630431e+00  -2.422111e+01
  -1.923557e+01  -2.479903e+01
  -5.054947e+01  -1.138370e+02
   2.018511e+01  -8.523488e+01
   9.135438e+01   7.053853e+01
   7.305846e+01   8.539161e+01
   5.214107e+01   1.005966e+02
  -7.954119e+01   4.053783e+01
  -9.481410e+01  -7.026661e+01
  -4.843631e+01  -1.225175e+02
   5.654071e+01  -5.555131e+01
   1.117417e+02   3.538564e+01
   6.243421e+01   3.792275e+01
  -2.173754e+01   4.687681e+01
  -2.566206e+00   7.201158e+01
   1.920147e+00  -3.277535e+01
   9.251422e+01  -5.389607e+01
   3.288574e+01   2.845677e+01
  -3.920946e+01   7.380732e+01
  -1.133705e+02   9.530330e+01
  -7.568317e+01  -6.738887e+00
   4.726538e+01  -8.698113e+01
   6.950963e+01  -5.440457e+01
   5.750462e+01  -4.804673e+01
  -3.062299e+01   6.910306e+01
  -1.086709e+01   5.011251e+01
  -2.750366e+01  -4.665472e+01
   7.578235e+00  -6.093239e+01
   3.886908e+00  -4.956974e+01
   5.140162e+01   1.834263e+01
   3.439451e+01   3.183658e+01
   1.685056e+01  -8.866895e+00
   7.885404e+00  -1.058256e+01
   2.066160e+00  -1.544415e+01
   5.943270e-01   6.613070e+01
   2.134078e+01   8.012755e+01
  -3.165849e+01   1.122530e+01
  -6.701860e+01  -4.467281e+01
  -5.043513e+01  -5.300449e+01
   2.360494e+01  -3.483245e+00
   5.045218e+01   5.670172e+01
   1.998418e+01   7.458320e+01
  -6.264719e+01   1.641161e+01
  -8.360038e+01  -4.632821e+01
  -2.678959e+01  -3.380622e+01
   6.498348e+01  -6.617995e+00
   6.677107e+01  -4.121244e+01
   7.339622e+01   1.099575e+00
  -3.109153e+01  -1.829221e+01
  -4.597141e+01  -1.397878e+01
   2.530697e+01  -2.769389e+01
   8.126547e+01  -1.551186e+01
