
 $NMID
 id='ANONYMOUS ', fmtdat='(2E16.6)'
 volume=1.0
 tramp=1.0
 $END
   3.016836e+03   3.225149e+01
   2.108286e+03   1.924584e+03
  -2.829178e+02   2.007379e+03
  -1.275399e+03   9.198262e+02
  -7.389835e+02  -1.611765e+02
   2.365182e+02  -2.120318e+02
   5.207078e+02   2.959952e+02
   3.743413e+01   6.038115e+02
  -5.455673e+02   5.118724e+02
  -6.147833e+02  -4.416848e+01
  -3.335848e+02  -5.254367e+02
   6.009486e+01  -6.543150e+02
   3.217242e+02  -1.713820e+02
   2.754072e+02   3.898079e+02
  -1.269190e+02   4.899930e+02
  -3.476628e+02   5.107865e+01
  -2.124582e+02  -4.480025e+02
   1.537353e+02  -5.047408e+02
   3.881889e+02  -1.462307e+02
   3.060054e+02   1.478268e+02
   8.896537e+01   2.929833e+02
  -9.190961e+01   1.986615e+02
  -1.266056e+02   4.011829e+01
   7.209896e+01   5.260396e+01
   2.447866e+02   1.858883e+02
   3.248217e+01   2.883599e+02
  -4.263886e+02   2.017209e+02
  -5.392622e+02  -1.188613e+02
  -2.599654e+02  -3.193190e+02
   2.464575e+02  -2.134093e+02
   4.660412e+02   8.219007e+00
   1.794066e+02   3.328763e+02
  -2.152233e+02   3.146951e+02
  -4.195723e+02   1.470241e+02
  -2.618311e+02  -1.483332e+02
  -1.062922e+02  -2.999654e+02
   1.027851e+02  -1.615417e+02
   3.741804e+01   1.382316e+02
  -1.268577e+02   2.334268e+02
  -2.241849e+02  -5.152913e+01
  -1.363440e+02  -4.447891e+02
   1.314294e+02  -5.240059e+02
   3.451864e+02  -1.143877e+01
   1.833689e+02   3.982167e+02
  -1.952050e+02   1.768169e+02
  -2.119075e+02  -2.092210e+02
   4.200856e+01  -3.750268e+02
   3.798816e+02  -6.856726e+01
   4.321066e+02   2.749811e+02
   1.366440e+02   4.040748e+02
  -2.678421e+02   2.494955e+02
  -4.818957e+02  -6.096421e+01
  -2.894409e+02  -2.184938e+02
   9.925876e+00  -2.049690e+02
   2.039754e+02  -5.636049e+01
   1.645653e+02   1.026320e+02
  -8.326581e+00   7.844142e+01
  -8.371316e+01  -5.607949e+01
   7.193737e+01  -1.319990e+02
   2.604919e+02   2.166420e+01
   1.241638e+02   2.050390e+02
  -1.429252e+02   2.206358e+02
  -3.157715e+02   4.866212e+01
  -2.023054e+02  -6.580865e+01
   2.831261e+01  -2.310392e+02
   2.261147e+02  -2.828956e+02
   2.641349e+02  -1.063785e+02
   1.819267e+02   9.467775e+01
   7.271387e+01   2.719784e+02
  -2.282486e+01   2.633531e+02
  -3.222636e+01   1.230171e+02
  -2.717403e+01   8.232526e+01
  -7.389523e+01   5.124834e+01
  -1.818818e+02   6.368139e+01
  -1.634125e+02  -8.687945e+01
  -1.288375e+02  -1.991515e+02
   5.162875e+01  -1.383454e+02
   1.254285e+02   6.473190e+00
   1.062886e+02   1.788628e+02
   5.851201e+00   2.550275e+02
  -1.888205e+02   8.644363e+01
  -2.509495e+02  -1.060098e+02
  -1.526070e+02  -2.441629e+02
   3.970024e+01  -2.207128e+02
   1.172952e+02  -1.345073e+02
   1.228705e+02  -4.801858e+01
   9.565237e+01  -3.361469e+01
   2.033451e+02  -3.416088e+01
   3.012262e+02   4.158086e+01
   2.393901e+02   2.583433e+02
   1.415112e+01   3.487727e+02
  -3.118964e+02   3.061770e+02
  -3.851894e+02   1.639567e+02
  -2.340010e+02  -7.800884e+01
  -9.172832e+00  -1.852683e+02
   9.072875e+01  -1.668384e+02
   3.632967e+01  -3.944687e+01
  -5.245771e+01   5.281740e+01
  -1.305714e+02   1.165957e+01
  -2.687490e+01  -1.374680e+02
   8.572570e+01  -1.105112e+02
   1.101698e+02   2.910844e+01
  -2.743375e+01   8.934035e+01
  -1.492026e+02   1.162443e+01
  -1.421087e+02  -1.854241e+02
   1.558439e+01  -2.965735e+02
   1.883003e+02  -1.848031e+02
   2.723050e+02   5.714088e+01
   2.078109e+02   1.686321e+02
   1.022925e+02   2.228219e+02
  -8.724091e+01   1.341441e+02
  -1.460649e+02  -3.158948e+00
  -5.459180e+01  -3.360980e+01
   5.275926e+01   9.720381e+00
   1.140280e+01   1.054385e+02
  -1.099401e+02   1.297352e+02
  -1.121253e+02  -3.145841e+01
  -1.631357e+01  -4.455958e+01
   7.733755e+00   1.977674e+01
   2.124284e+01   9.127994e+01
  -1.304933e+02   6.422010e+01
  -2.325749e+02  -5.985831e+01
  -1.879439e+02  -1.145597e+02
  -2.424801e+01  -1.922041e+02
   1.320696e+02  -1.871825e+02
   2.030477e+02  -1.174899e+02
   1.454227e+02   4.772781e+01
  -6.235408e-01   6.872631e+01
  -8.847881e+01   2.118062e+01
   3.941146e+01  -4.492772e+01
   1.221590e+02  -8.815669e+01
   1.647293e+02   8.980161e+01
   5.918126e+01   1.363392e+02
  -6.384718e+01   9.814596e+01
  -1.005273e+02   3.528808e+01
  -1.498102e+01   5.359530e+00
   5.518365e+01  -1.027509e+01
   3.368155e+01   4.535965e+01
  -2.894688e+01   8.659624e+01
  -1.464120e+02  -2.373427e+01
  -1.365667e+02  -6.789936e+01
  -3.173466e+01  -1.376500e+02
   9.391199e+01  -1.651804e+02
   1.116147e+02   9.799082e+00
   3.286513e+01   8.846078e+01
  -5.791988e+01   7.729165e+01
  -5.580718e+01   2.870094e+01
   4.973228e-01  -2.204931e+01
  -1.561354e+01  -2.319439e+01
  -4.734857e+00   2.674429e+01
  -5.738028e+01  -1.113668e+01
  -6.875510e+01  -8.605282e+01
   1.217529e+01  -1.219768e+02
   1.196892e+02  -1.235472e+02
   2.539922e+02   5.060442e-01
   1.699163e+02   1.018972e+02
   1.480482e+01   2.047464e+02
  -6.895065e+01   1.259648e+02
  -1.170076e+02   2.075059e+01
  -7.193019e+01  -9.301415e+00
  -4.716858e+01  -3.626528e+01
  -6.613100e+01   4.277579e+00
  -1.135155e+02  -8.085731e+00
  -3.537961e+01  -5.058983e+01
   7.868332e+00  -9.769239e+01
   7.474219e+01  -5.282291e+01
   6.425971e+01   4.233407e+01
   1.308114e-01   1.204692e+02
  -1.450553e+02   5.195332e+01
  -1.732564e+02  -9.316286e+01
  -2.287476e+01  -1.698867e+02
   1.301432e+02  -1.481005e+02
   2.453326e+02  -1.009773e+02
   1.897499e+02   4.133963e+01
   6.064770e+01   1.188913e+02
   3.610380e+00   9.772723e+01
  -1.133809e+02   6.729656e+01
  -9.004668e+01   5.782002e+01
  -6.512114e+01   7.073397e+01
  -7.076276e+01   4.004368e+01
  -5.868362e+01   5.778828e+00
  -9.633687e+01  -1.395711e+02
   2.207173e+01  -2.063730e+02
   6.377497e+01  -1.175337e+02
   1.499958e+02  -3.123618e+01
   7.385274e+01   1.187731e+02
   1.874338e+01   1.206093e+02
  -5.265325e+01   5.696588e+01
  -4.905659e+01   2.088504e+01
  -1.715322e+01  -4.420978e+01
  -2.932471e+01   1.549340e+01
  -3.512501e+01  -3.117068e+01
  -4.171036e+01  -1.511012e+01
  -1.780491e+01  -1.418296e+01
   4.003031e+01  -4.492112e+01
   9.284805e+01  -1.019299e+00
   1.274030e+02   8.732641e+01
   1.767811e+01   3.848937e+01
  -1.106033e+02   7.757998e+01
  -1.120990e+02  -2.108935e+01
  -3.559478e+01  -1.298758e+01
   5.693888e+01  -4.973848e+00
   5.421986e+01   2.020172e+01
   3.157212e+01   6.461593e+01
  -3.109303e+01   3.677140e+01
  -5.157512e+01   8.471808e+00
  -1.517244e+01  -2.434952e+01
  -4.174632e+01  -4.360827e+01
  -4.635923e+01  -8.345601e+00
  -4.922839e+01   1.682352e+01
  -1.979941e+01  -7.349758e+01
  -1.417326e+00  -9.348146e+01
   8.376914e+01  -1.475673e+02
   1.455759e+02  -3.600666e+00
   9.846935e+01   7.161881e+01
  -9.305549e+00   1.014237e+02
  -8.363832e+01   5.643329e+01
  -5.604806e+01  -4.845525e+00
   3.729113e+01  -3.687508e+01
   1.156632e+02   3.378880e-01
   1.077087e+02   1.332525e+02
  -7.194858e+01   6.566546e+01
  -2.321812e+02   7.237898e+01
  -1.396279e+02  -6.721126e+01
  -4.656459e+01  -4.691078e+01
   8.108186e+01  -1.626750e+00
   7.830373e+01   1.709931e+01
  -1.255155e+01   2.415071e+01
  -4.992233e+01  -3.346374e+01
  -1.904257e+01  -1.174624e+02
   9.659981e+01  -1.313272e+02
   1.014643e+02  -2.017886e+01
   9.872591e+01   2.075225e+01
   1.337589e+01   1.886393e+02
  -5.909176e+01   9.645221e+01
  -1.029897e+02  -1.906039e+01
  -5.166354e+01  -8.290334e+01
  -3.285535e+00  -1.010493e+02
   4.475678e+01  -2.473105e+01
   8.462362e+01   4.260170e+01
   3.631135e+01  -2.141267e+01
   2.956357e+01   9.458638e+00
  -7.436171e+00   1.267679e+01
   5.756799e+01   8.570758e+01
   3.615050e+01   1.079024e+02
  -1.642597e+01   5.162321e+01
  -1.322485e+02  -4.680642e+01
  -1.019681e+02  -2.681425e+01
  -1.516618e-01  -2.576666e+01
   7.654848e+01  -8.559084e+00
   2.985155e+01  -3.747225e+01
   2.855527e+00  -2.044129e+01
  -7.727772e+01   1.902905e+01
  -2.214602e+01  -7.033876e+00
   2.122421e+00   3.956519e+00
  -2.451950e+01  -1.153682e+01
  -3.460490e+01  -4.912053e+01
  -8.715146e+01  -1.577139e+01
   3.794411e+01  -1.052534e+02
   9.549726e+01  -1.351196e+02
   1.499494e+02  -4.720779e+01
   1.401080e+02   5.250098e+01
   4.380681e+01   1.190526e+02
  -4.345614e+01   9.230085e+01
  -9.778634e+01   7.404057e+01
  -6.420100e+01  -2.842877e+01
  -7.420559e+01   8.602321e+00
  -4.355811e+00  -3.513871e+01
  -3.255989e+01  -1.315657e+01
   1.811754e+01  -3.968684e+01
  -5.113310e+01  -4.697974e+01
   1.387367e+01  -5.421164e+01
   6.958614e+01   3.524324e+01
   6.897936e+01   7.468404e+01
   3.938247e+00   7.112557e+01
  -3.503349e+01   2.762036e+01
  -7.369887e+01  -4.743037e+01
  -3.018651e+01  -7.345381e+01
   2.019674e+01  -4.315703e+01
   2.899334e+01  -4.935382e+00
  -2.596281e+01   2.759275e+01
  -2.177311e+01   3.583345e+01
   1.101309e+01   1.509105e+01
   1.112028e+01   8.189875e+00
   8.728587e+01   2.029675e+01
  -9.595179e-01   6.740556e+00
  -7.025233e+01   2.388007e+01
  -8.504454e+01   7.077697e+01
  -3.218696e+01   2.346279e+00
   3.028736e+01  -7.122713e+01
   1.872679e+01  -6.655407e+01
   4.131146e+01  -1.770257e+01
   2.045927e+01   3.348175e+01
  -2.312878e+01   4.158852e+01
  -1.451141e+01  -4.333889e+01
  -3.898092e+01  -4.064677e+01
  -3.319970e+01  -2.120784e+01
   4.125226e+01   3.387881e+00
   2.439290e+01   5.381274e+01
   2.084115e+01  -1.626851e+01
   1.223635e+01   3.907287e+00
  -6.853832e+00   3.021539e+01
  -2.358404e+01   1.012820e+01
   1.232648e+01   1.461297e+01
  -1.548532e+01   2.721433e+01
  -4.782254e+01  -4.553918e+01
   1.934271e+01  -7.529272e+01
   2.302000e+01  -2.940576e+01
   1.634898e+01   4.158719e+01
  -2.611764e+01   7.692686e+01
  -6.916029e+01   5.699452e+01
  -6.170025e+01  -1.302709e+01
  -3.620612e+01  -5.315361e+01
   6.198311e+01  -4.350311e+01
   3.216308e+01  -1.931198e+01
   3.306131e+01   8.066092e+00
  -4.099322e+01  -4.875940e+00
  -3.023736e+01   7.899639e+00
   2.440348e+01   1.504951e+01
   4.921126e+01  -5.271815e+01
