
 $NMID
 id='ANONYMOUS ', fmtdat='(2E16.6)'
 volume=1.0
 tramp=1.0
 $END
   4.487301e+03   1.820074e+02
   2.508211e+03   2.759851e+03
  -9.333598e+02   2.576878e+03
  -2.337243e+03   9.248130e+02
  -9.151523e+02  -7.838935e+02
   7.028353e+02  -5.178765e+02
   9.656950e+02   4.625368e+02
  -7.699765e+01   1.101637e+03
  -8.535243e+02   7.658068e+02
  -1.009772e+03  -9.092981e+01
  -4.404782e+02  -9.098967e+02
   2.692582e+02  -9.583499e+02
   6.648726e+02  -9.341628e+01
   3.893995e+02   7.333693e+02
  -2.790200e+02   7.557486e+02
  -6.241800e+02  -1.880660e+01
  -3.322780e+02  -7.410557e+02
   2.704308e+02  -5.926665e+02
   5.824162e+02  -1.029632e+02
   3.551555e+02   3.221658e+02
  -3.284231e+00   4.461243e+02
  -2.859806e+02   2.617313e+02
  -1.771173e+02  -2.215392e+01
   1.475049e+02  -1.163956e+02
   4.237227e+02   1.081214e+02
   2.049623e+02   4.180545e+02
  -4.141776e+02   4.111424e+02
  -8.753501e+02  -1.432518e+02
  -4.038445e+02  -5.420487e+02
   4.211215e+02  -5.491343e+02
   7.964656e+02   4.626651e+01
   3.696108e+02   4.665559e+02
  -3.204707e+02   5.194726e+02
  -5.835163e+02   1.889641e+02
  -4.360117e+02  -2.687466e+02
  -4.569765e+01  -5.233486e+02
   1.959523e+02  -2.547736e+02
   1.387118e+02   2.467888e+02
  -1.879030e+02   4.447364e+02
  -4.593430e+02  -6.803614e+01
  -2.674585e+02  -7.318343e+02
   3.617598e+02  -7.186670e+02
   6.439775e+02   1.781862e+01
   2.633397e+02   5.707176e+02
  -3.031407e+02   3.132272e+02
  -4.078246e+02  -3.194144e+02
   1.196748e+02  -5.817320e+02
   5.782667e+02  -8.914451e+01
   6.454013e+02   4.409960e+02
   1.562021e+02   6.151283e+02
  -4.086950e+02   3.553351e+02
  -6.559245e+02  -9.776496e+01
  -3.618333e+02  -3.927201e+02
   1.717216e+02  -3.715608e+02
   4.877404e+02  -3.509742e+01
   2.228043e+02   1.833609e+02
  -8.952436e+01   6.774677e+01
  -9.592576e+01  -2.113354e+02
   1.861959e+02  -2.105288e+02
   3.971011e+02   1.064537e+02
   1.385636e+02   3.163015e+02
  -2.383466e+02   2.525064e+02
  -3.556088e+02   6.589248e+01
  -2.649265e+02  -8.778818e+01
   8.392454e+00  -2.385326e+02
   2.603552e+02  -3.572243e+02
   3.671882e+02  -2.131335e+02
   3.034728e+02   1.282248e+02
   8.873645e+01   4.384794e+02
  -1.018167e+02   3.891852e+02
  -1.026889e+02   1.226424e+02
  -3.828051e+01  -1.374263e+01
  -8.885091e+01   1.023806e+02
  -2.149932e+02   1.586493e+02
  -2.871384e+02  -9.429494e+01
  -1.360299e+02  -2.589201e+02
   7.508510e+01  -2.184737e+02
   2.125460e+02   4.288894e+00
   1.790379e+02   2.356437e+02
  -3.587696e+01   3.251420e+02
  -3.033010e+02   7.995556e+01
  -3.385715e+02  -1.475409e+02
  -2.112879e+02  -3.476192e+02
   7.110838e+01  -3.203704e+02
   2.809102e+02  -9.773687e+01
   1.385590e+02   1.582165e+00
   1.094398e+02  -2.725293e+01
   2.357768e+02  -7.211585e+01
   4.065527e+02   9.308310e+01
   3.637677e+02   2.923563e+02
   2.800513e+01   4.569739e+02
  -3.383095e+02   4.095032e+02
  -5.162522e+02   1.931648e+02
  -3.367217e+02  -1.207349e+02
  -4.523817e+01  -3.203854e+02
   1.443015e+02  -2.873767e+02
   7.985092e+01  -1.926891e+00
  -1.015828e+02   1.242097e+02
  -1.933479e+02   1.087711e+01
  -6.683539e+01  -1.959179e+02
   1.771587e+02  -1.630679e+02
   2.104257e+02   4.949910e+01
  -2.421346e+01   2.590776e+02
  -2.002732e+02   3.601875e+01
  -1.879015e+02  -2.742236e+02
   3.831829e+01  -3.429647e+02
   2.234695e+02  -2.100041e+02
   3.256772e+02   2.349332e+01
   2.737363e+02   2.618879e+02
   1.256268e+02   2.768517e+02
  -6.116822e+01   1.920023e+02
  -1.962141e+02   1.896141e+01
  -9.409013e+01  -5.592160e+01
   5.530434e+01  -1.233544e+01
   2.800693e+01   1.442550e+02
  -1.141820e+02   1.296446e+02
  -2.023331e+02  -4.597117e+01
  -6.872776e+01  -9.411197e+01
   7.769024e+01  -4.172594e+01
   5.287021e+01   5.393391e+01
  -1.079309e+02   7.662753e+01
  -2.318028e+02  -2.467106e+00
  -2.733887e+02  -1.460519e+02
  -6.425175e+01  -2.790410e+02
   1.700184e+02  -2.944055e+02
   3.147025e+02  -9.671974e+01
   1.727342e+02   4.434203e+01
  -2.566684e+01   1.268860e+02
  -7.522737e+01  -6.979557e+00
   3.132420e+01  -1.048851e+02
   2.114176e+02  -9.347864e+01
   2.111547e+02   1.347330e+02
   7.884537e+01   2.088817e+02
  -8.041557e+01   1.543258e+02
  -1.670357e+02   4.405996e+01
  -8.327914e+01  -2.845742e+01
   1.749985e+01  -3.005884e+01
   7.391688e+01   1.071751e+02
  -6.780478e+01   1.204277e+02
  -1.849039e+02   1.822120e+01
  -1.524507e+02  -1.072984e+02
  -1.344857e+00  -2.303081e+02
   1.695654e+02  -1.365876e+02
   1.478427e+02  -1.248868e+01
   1.509635e+01   1.065596e+02
  -2.532764e+01   9.245042e+01
  -7.646459e+01   7.496668e+00
  -3.539159e+01  -3.570602e+01
   8.670959e+00  -9.418929e+00
  -1.006848e-01   1.383482e+01
  -8.199970e+01  -2.089438e+01
  -9.004663e+01  -8.776774e+01
  -4.540498e+00  -1.893872e+02
   1.379668e+02  -1.507129e+02
   2.598701e+02  -3.626728e+01
   1.680711e+02   1.745639e+02
   6.835893e+01   1.920093e+02
  -1.235791e+02   1.614830e+02
  -1.206083e+02   4.963984e+01
  -4.683156e+01  -6.616906e+01
  -3.608987e+01  -2.619555e+01
  -4.071446e+01  -8.363137e+00
  -5.468697e+01   8.367575e+00
  -3.134521e+01  -4.934645e+01
   7.885451e+01  -7.596228e+01
   9.289301e+01  -6.142853e+01
   1.115373e+02   2.616823e+01
  -8.200128e+00   9.816026e+01
  -1.799672e+02   4.037810e+01
  -2.021445e+02  -4.631745e+01
  -9.733645e+01  -2.248721e+02
   1.174885e+02  -2.770929e+02
   3.084280e+02  -1.097034e+02
   2.819385e+02   9.390939e+01
   9.848666e+01   1.804456e+02
  -6.262270e+01   1.751691e+02
  -7.602440e+01   1.039766e+02
  -8.479588e+01   9.617874e+01
  -1.137734e+02   9.015723e+01
  -7.431925e+01   6.068856e+01
  -9.633177e+01  -1.533864e+01
  -1.118210e+02  -1.850996e+02
  -8.095296e+01  -2.168140e+02
   8.774183e+01  -1.598868e+02
   2.082042e+02  -3.894564e+00
   1.405515e+02   1.184921e+02
  -3.679888e+01   1.725907e+02
  -4.955573e+01   5.112512e+01
  -3.922759e+01   1.944857e+01
   1.318630e+01  -5.431812e+01
  -5.327981e+00  -5.861097e+01
  -3.154351e+01  -2.854048e+01
  -7.555836e+01  -1.005874e+01
  -3.712104e+01  -6.108579e+01
   6.054507e+01  -2.632660e+00
   1.073540e+02   4.497084e+00
   1.571468e+02   6.788513e+01
   5.032557e+01   1.100108e+02
  -1.079827e+02   7.804283e+01
  -1.370958e+02  -3.715599e-01
  -4.078599e+01  -5.246657e+01
   7.566833e+01  -4.006343e+01
   8.178233e+01   6.419327e+01
  -2.687072e+00   6.511889e+01
  -3.117258e+01   4.477290e+01
  -3.667026e+01  -9.392176e+00
  -5.887134e+01  -4.668124e+01
  -4.017225e+01  -3.482438e+01
  -3.294854e+01  -2.034904e+01
  -5.717369e+01  -1.571998e+01
  -6.761436e+01  -5.114362e+01
   6.742783e+00  -1.317932e+02
   1.020653e+02  -1.176957e+02
   1.726145e+02  -3.655744e+01
   9.731821e+01   6.340287e+01
  -1.064480e+01   1.133764e+02
  -8.015982e+01   6.926799e+01
  -7.322873e+01   5.989577e+00
   9.769582e+01  -2.952009e+01
   9.967683e+01   5.770716e+01
   5.360760e+01   9.242817e+01
  -1.209111e+02   1.162489e+02
  -1.743841e+02   7.644962e+01
  -1.530118e+02  -4.380905e+01
  -9.638088e+00  -8.987654e+01
   1.068980e+02  -7.044635e+01
   5.891582e+01  -9.880942e+00
  -1.478254e+01   2.451780e+01
  -6.234563e+01  -4.274225e+01
  -5.875359e+01  -1.240944e+02
   5.193774e+01  -1.434171e+02
   1.836770e+02  -9.418833e+01
   1.400118e+02   5.058499e+01
  -6.279021e+00   1.991560e+02
  -5.825522e+01   1.257195e+02
  -6.990849e+01  -1.697872e+01
  -9.286647e+01  -1.158259e+02
  -2.396625e-01  -1.270830e+02
   7.990013e+01  -2.059154e+00
   2.559577e+01   4.238654e+01
   5.181368e+01  -5.698971e+00
  -1.337304e+01   1.989813e+01
   4.216950e+01   1.575630e+01
   2.762883e+01   6.035221e+01
   3.753865e+00   1.019454e+02
  -3.927311e+01   5.547057e+01
  -1.126775e+02  -6.987538e+01
  -1.443295e+02  -7.954314e+01
  -6.111890e+01  -7.081212e+01
   1.156739e+02  -1.594148e+01
   1.178468e+02  -1.689974e-01
   9.776448e+00  -2.562720e+01
  -2.752448e+01   3.379587e+01
   2.715761e+01   3.135456e+01
   3.219366e+01   3.882761e+00
   5.746636e+00  -1.203149e+01
  -1.011671e+02   5.823552e-01
  -1.007989e+02  -3.495579e+01
  -4.297820e+00  -8.539897e+01
   1.100611e+02  -1.386303e+02
   2.079248e+02  -5.488866e+01
   1.334833e+02   9.927083e+01
   6.318246e+01   1.356442e+02
  -6.794646e+01   1.648003e+02
  -1.014404e+02   4.539353e+01
  -1.063911e+02  -5.692958e+01
   7.481732e+00  -2.519334e+01
  -6.069082e+00   2.330420e+01
  -1.983101e+01  -1.864805e+01
  -2.750321e+01  -2.695625e+01
  -4.266728e+01  -8.182158e+01
   1.991275e+01  -8.363655e+01
   8.624990e+01   4.314866e+01
   1.273624e+02   1.251657e+02
   1.106869e+01   1.355340e+02
  -9.416263e+01   1.679040e+01
  -9.090039e+01  -6.261470e+01
  -3.020123e+01  -1.303926e+02
   1.180269e+02  -6.670627e+01
   8.837449e+01   2.228358e+01
   3.676999e+01   8.008605e+01
  -4.288930e+01   6.934281e+01
   5.311860e+00   5.114210e+01
   2.806956e+01   8.027610e+00
   7.201444e+01   3.731780e+01
   9.631725e+00   4.915993e+01
  -9.223245e+01   5.050970e+01
  -1.057818e+02   8.589507e+01
  -7.524216e+01  -3.000398e+01
  -1.666076e+01  -1.214903e+02
   6.309782e+01  -1.048601e+02
   4.777849e+01   1.295645e+01
  -3.768913e-01   6.923877e+01
  -4.360786e+01   2.860819e+01
  -5.046560e+01  -4.055228e+01
  -2.151920e+00  -6.334489e+01
   1.779059e+01  -2.619570e+01
   5.274711e+01   1.865470e+01
   4.950640e+01  -9.829260e+00
   3.496499e+01   2.509023e+00
  -1.784375e+01  -2.416261e+01
   1.195169e+01   1.382850e+01
  -2.934616e+00   2.415613e+01
  -6.982232e+00   5.631306e+01
  -5.777713e+01  -1.196060e+01
  -5.267202e+01  -3.615130e+01
   2.428803e+01  -6.675883e+01
   3.569105e+01  -4.571216e+01
   5.178495e+01   4.014260e+01
   4.031861e+01   6.990474e+01
  -9.504242e+01   1.304783e+01
  -7.671321e+01  -1.735297e+01
  -5.055705e+01  -3.900712e+01
   7.239611e+01  -2.569778e+01
   7.188020e+01  -9.341396e+00
   3.891158e+01  -1.353798e+01
  -4.052885e+01   4.999168e+00
  -1.904762e+01  -6.451433e+00
   2.495818e+01  -1.119627e+01
   1.028962e+02   3.672222e+00
