
 $NMID
 id='ANONYMOUS ', fmtdat='(2E16.6)'
 volume=1.0
 tramp=1.0
 $END
   3.765280e+03   6.311227e+01
   2.466340e+03   2.127089e+03
  -2.038587e+02   2.549900e+03
  -1.531121e+03   1.252695e+03
  -1.009513e+03  -2.558338e+02
   3.016085e+02  -5.858563e+02
   6.989738e+02   1.572721e+02
   1.528629e+02   7.983203e+02
  -5.372481e+02   7.670459e+02
  -8.377010e+02   8.475047e+01
  -4.765518e+02  -6.194631e+02
   6.993267e+01  -8.066294e+02
   5.187078e+02  -2.405251e+02
   3.563618e+02   5.049017e+02
  -2.020246e+02   6.792775e+02
  -5.038223e+02   1.013529e+02
  -3.076288e+02  -5.644323e+02
   1.937760e+02  -6.720565e+02
   5.069717e+02  -2.386226e+02
   4.650773e+02   2.817495e+02
   1.178310e+02   3.941805e+02
  -1.910040e+02   2.773979e+02
  -1.402295e+02   9.042683e+01
   1.423593e+02  -1.261054e+01
   3.551491e+02   1.905116e+02
   7.345977e+01   3.829019e+02
  -4.438336e+02   2.955638e+02
  -7.455880e+02  -7.730659e+01
  -3.497370e+02  -4.161326e+02
   2.788899e+02  -3.300158e+02
   6.217590e+02   4.811857e+01
   2.984169e+02   4.021054e+02
  -1.950231e+02   4.628256e+02
  -5.072277e+02   2.156990e+02
  -3.652923e+02  -2.083349e+02
  -7.129685e+01  -4.062107e+02
   3.861631e+01  -2.484701e+02
   7.954603e+01   1.273040e+02
  -1.634551e+02   3.340635e+02
  -3.486157e+02  -6.439311e+01
  -1.307234e+02  -5.231180e+02
   2.130429e+02  -5.533864e+02
   4.540754e+02   1.115922e+01
   2.244786e+02   3.274098e+02
  -2.173718e+02   2.263544e+02
  -2.982663e+02  -2.694059e+02
   1.395782e+01  -4.219676e+02
   4.761829e+02  -1.169781e+02
   5.626268e+02   3.244780e+02
   1.839080e+02   5.395682e+02
  -2.769556e+02   3.232380e+02
  -5.943866e+02   1.519839e+01
  -3.946753e+02  -2.905795e+02
   5.112515e+01  -3.156248e+02
   3.528593e+02  -1.381164e+02
   2.385410e+02   1.213998e+02
  -2.457383e+01   3.629709e+01
  -1.086815e+02  -1.442426e+02
   9.323828e+01  -1.135812e+02
   2.717016e+02   7.880336e+01
   1.526709e+02   2.531714e+02
  -1.748931e+02   2.700986e+02
  -2.882538e+02   1.326106e+02
  -2.587735e+02  -6.930482e+01
   3.869668e+01  -2.268820e+02
   2.288769e+02  -3.230055e+02
   3.130951e+02  -1.681695e+02
   2.342441e+02   1.517927e+02
   5.912354e+01   3.496427e+02
  -3.981723e+01   3.322824e+02
  -8.071911e+01   1.536597e+02
  -2.370037e+01   3.024181e+01
  -8.268327e+01   9.386125e+01
  -1.794593e+02   8.532160e+01
  -2.570229e+02  -5.571119e+01
  -1.060391e+02  -2.558295e+02
   8.793640e+01  -2.654005e+02
   1.976599e+02   1.172124e+01
   1.613873e+02   2.058527e+02
   5.104123e+00   2.900262e+02
  -2.385099e+02   1.178365e+02
  -3.195883e+02  -1.714376e+02
  -1.981080e+02  -3.416601e+02
   7.142644e+01  -3.098675e+02
   1.931945e+02  -1.609351e+02
   1.518251e+02   8.092551e-01
   7.979422e+01  -3.587982e+01
   1.998305e+02  -5.573660e+01
   4.385798e+02   2.645403e+01
   2.990430e+02   2.880498e+02
  -4.435253e-01   4.348213e+02
  -2.893090e+02   4.095602e+02
  -3.917596e+02   1.765914e+02
  -2.729605e+02  -9.913240e+01
  -7.046614e+01  -2.669796e+02
   1.062199e+02  -2.544759e+02
   5.507548e+01  -1.564357e+01
  -1.042460e+02   6.330034e+01
  -1.516595e+02  -3.386512e+01
  -2.080916e+00  -1.232785e+02
   1.269442e+02  -1.423738e+02
   1.410763e+02   2.374722e+01
   8.297333e+00   1.697745e+02
  -1.855134e+02   4.128474e+01
  -2.076246e+02  -2.137772e+02
   2.565684e+00  -3.579073e+02
   2.124105e+02  -1.889471e+02
   3.623600e+02   4.545151e+01
   2.673419e+02   2.660317e+02
   7.365045e+01   3.007731e+02
  -1.231790e+02   1.003662e+02
  -1.570684e+02  -6.418921e+00
  -7.403560e+01  -3.919924e+00
   4.090655e+01   7.173722e+01
   3.257608e+01   1.118232e+02
  -1.288504e+02   8.994512e+01
  -1.661374e+02  -7.299308e+01
  -8.349457e+01  -6.371051e+01
   5.096722e+01  -2.228807e+01
   3.306261e+01   6.334609e+01
  -1.413563e+02   8.176036e+01
  -2.821451e+02  -5.350694e+00
  -2.326737e+02  -1.698332e+02
  -3.920001e+01  -2.812542e+02
   2.164499e+02  -2.442592e+02
   2.556066e+02  -1.353770e+02
   1.743472e+02   6.601329e+01
  -2.954593e+01   8.237943e+01
  -7.162866e+01  -2.366595e+01
   5.898387e+01  -7.966983e+01
   1.714008e+02  -3.777318e+01
   2.311500e+02   9.955944e+01
   9.881221e+01   1.829501e+02
  -9.823217e+01   1.550421e+02
  -1.320266e+02   4.663613e+01
  -9.701009e+01  -4.592519e+01
   4.354629e+01  -2.651126e+01
   5.381224e+01   6.841405e+01
  -9.330801e+01   8.149793e+01
  -1.905479e+02   6.030814e+01
  -1.856969e+02  -1.363046e+02
  -9.349179e+00  -2.015988e+02
   1.570237e+02  -1.818642e+02
   1.784439e+02  -4.521345e+01
   6.218005e+01   1.376924e+02
  -3.381918e+01   1.163069e+02
  -6.531492e+01   2.992158e+01
  -1.517245e+01  -1.876142e+01
   5.843416e+01  -9.622928e+00
  -1.509306e+01   2.652047e+01
  -1.055171e+02   1.345397e+01
  -1.176211e+02  -5.779406e+01
  -2.006230e+01  -1.785682e+02
   1.108340e+02  -1.339691e+02
   2.525249e+02  -2.270905e+01
   1.894068e+02   1.346185e+02
   1.653712e+01   2.426315e+02
  -1.101158e+02   1.369266e+02
  -1.047264e+02   1.206540e+00
  -6.547447e+01  -9.136522e+00
  -8.846561e+01  -3.692210e+01
  -3.354335e+00  -8.276848e+00
  -4.683769e+01   1.587623e+01
  -9.462184e+01  -2.122410e+01
   4.887127e+01  -1.276179e+02
   9.701114e+01  -7.530434e+01
   8.315234e+01   5.588058e+01
  -2.711464e+01   1.480459e+02
  -1.333911e+02   9.011182e+01
  -2.040737e+02  -5.700570e+01
  -1.331803e+02  -1.997863e+02
   1.284000e+02  -1.844540e+02
   2.699127e+02  -1.147712e+02
   2.194635e+02   7.753585e+01
   1.162647e+02   1.704972e+02
  -1.584930e+01   1.155222e+02
  -8.732237e+01   6.444023e+01
  -7.033742e+01   9.929168e+01
  -5.399525e+01   7.739593e+01
  -9.753824e+01   9.053749e+01
  -1.094518e+02  -6.962414e+00
  -1.315050e+02  -1.278804e+02
  -8.643183e+01  -1.954955e+02
   9.324775e+01  -1.554848e+02
   2.003818e+02  -2.337672e+01
   1.146310e+02   1.358732e+02
  -1.478279e+01   1.441031e+02
  -6.390305e+01   8.562339e+01
  -8.833064e+01   2.372429e+01
   3.098663e+01  -5.716462e+01
   3.224059e+01  -3.258078e+01
  -3.862702e+01  -2.963968e+01
  -8.026140e+01  -2.202444e+01
  -4.935488e+01  -5.059990e+01
   4.469945e+01  -4.847213e+01
   1.646355e+02   2.281174e+00
   1.275951e+02   3.207218e+01
   2.876929e+01   1.088902e+02
  -9.031670e+01   4.712723e+01
  -1.261629e+02  -5.819756e+00
  -3.864525e+01  -4.935372e+01
   4.819118e+01  -2.876958e+01
   7.088333e+01   3.022594e+01
  -1.067879e+01   9.765958e+01
  -4.734543e+01   2.922175e+01
  -3.085557e+01  -9.131203e+00
  -5.719789e+01  -4.057562e+01
  -3.616761e+01  -3.158202e+01
  -4.462309e+01  -1.047041e-02
  -9.800968e+01  -1.118200e+00
  -4.084024e+00  -8.547948e+01
   3.548554e+01  -1.669633e+02
   1.367935e+02  -1.341888e+02
   1.800748e+02  -2.598705e+01
   1.405894e+02   1.254509e+02
   9.049110e+00   1.171962e+02
  -6.631164e+01   7.610685e+01
  -7.055275e+01  -2.010362e+00
   9.075882e+01  -2.984318e+01
   1.083886e+02   4.883737e+01
   4.272703e+01   8.916113e+01
  -9.156352e+01   1.195169e+02
  -1.745120e+02   6.007988e+01
  -1.603825e+02  -1.828774e+01
  -2.643091e+00  -4.048026e+01
   5.997371e+01  -4.955421e+01
   7.066055e+01  -2.434264e+01
  -1.265017e+01  -2.782499e+00
  -1.079601e+02  -2.044539e+01
  -6.357460e+01  -8.086250e+01
   9.146357e+01  -1.232441e+02
   1.751272e+02  -3.964696e+01
   1.053601e+02   1.046525e+02
   3.168887e+01   2.155160e+02
  -6.799134e+01   1.206302e+02
  -1.055053e+02   1.477932e+01
  -6.540318e+01  -9.841228e+01
   7.657072e+00  -1.298341e+02
   4.375861e+01  -4.579393e+00
   6.761058e+01   2.572281e+01
   4.367745e+01   2.650588e+00
   2.056562e+01  -5.624086e+01
   1.803588e+01   3.671961e+01
   5.366516e+01   5.507232e+01
   1.737875e+01   8.952206e+01
  -7.740618e+00   4.934009e+01
  -1.593924e+02  -1.580687e+01
  -1.081566e+02  -5.002592e+01
  -2.618713e+01  -7.112222e+01
   1.217344e+02   1.791327e+01
   7.616371e+01   2.188402e+01
   3.372176e+01   3.175810e+01
  -1.328148e+01   2.188239e+01
   5.161803e-01   2.430191e+01
   7.535661e+01   1.471945e+01
   1.498606e+01   2.859567e+01
  -7.893250e+01  -5.188630e+00
  -1.193736e+02  -4.757912e+01
  -9.554676e+00  -8.063246e+01
   1.176076e+02  -1.409623e+02
   1.719358e+02  -5.296607e+01
   1.453687e+02   4.388801e+01
   6.291892e+00   1.632127e+02
  -5.613622e+01   1.079565e+02
  -9.652558e+01   6.295380e+01
  -9.905664e+01   1.524268e+01
  -4.972597e+01  -2.322316e+01
   1.485892e+01  -2.193292e+01
  -6.158161e+00  -3.711032e+01
  -2.922935e+01  -6.424641e+01
  -3.528733e+01  -9.374120e+01
   7.663271e+00  -5.113058e+01
   6.669227e+01  -2.158245e+01
   8.726562e+01   1.192775e+02
  -1.250730e+01   8.941896e+01
  -6.696873e+01   1.708511e+01
  -1.014726e+02  -6.012323e+01
  -2.764601e+01  -8.209598e+01
   5.204082e+01  -7.925112e+01
   8.631262e+01  -2.425109e+01
   2.915551e+01   6.425662e+01
   1.627856e+01   2.974426e+01
   4.870811e+00   4.644165e+01
   2.390140e+01   1.023096e+01
   5.913806e+01  -8.473863e+00
   7.384949e+00   3.164099e+01
  -7.828473e+01   7.402308e+01
  -1.164765e+02   5.827461e+01
  -1.536939e+00   2.635397e+01
  -2.262307e+01  -4.764411e+01
   4.532406e+01  -1.279480e+02
   5.872344e+01  -1.956021e+01
   2.850884e+01   2.503836e+01
  -1.976789e+01   4.527969e+01
   3.609579e+00  -5.455196e+00
  -3.636266e+01  -2.738681e+01
   2.055321e+01  -5.707227e+01
   6.542178e+01  -4.060158e+00
   5.227899e+01   3.980241e+01
   6.536966e+00  -8.740080e+00
  -1.857258e+01  -8.739137e+00
   3.737054e+01  -2.975562e+01
  -4.948098e+00   5.260095e+01
  -1.782663e+01   4.080223e+01
  -2.031288e+01   5.344757e+01
  -2.260505e+01  -4.420933e+01
  -2.212732e+01  -7.836643e+01
   4.281481e+01  -5.293997e+01
   7.315231e+01   8.114418e+00
   1.328139e+01   7.529281e+01
  -4.498935e+01   4.744847e+01
  -1.013908e+02  -3.637444e+01
  -4.243376e+01  -3.981868e+01
   5.086584e+01  -2.472296e+01
   6.452142e+01  -1.092803e+01
   3.541925e+01   2.110789e+01
  -1.911826e+01   4.008095e+01
  -5.400949e+00  -1.749075e+01
   3.049272e+01  -2.067785e+01
   7.080913e+01  -3.252621e+01
