
 $NMID
 id='ANONYMOUS ', fmtdat='(2E16.6)'
 volume=1.0
 tramp=1.0
 $END
  -3.065775e+03  -2.083033e+02
  -1.611858e+03  -1.895298e+03
   4.456630e+02  -1.842738e+03
   1.413201e+03  -5.755660e+02
   4.890753e+02   3.680379e+02
  -2.787655e+02   3.393500e+02
  -6.272749e+02  -4.363965e+02
  -2.532179e+01  -7.744052e+02
   6.171646e+02  -5.133676e+02
   6.456436e+02   8.877222e+01
   2.444743e+02   6.012167e+02
  -2.120322e+02   5.733548e+02
  -4.295806e+02   5.995152e+01
  -2.150682e+02  -4.528397e+02
   1.873177e+02  -5.037243e+02
   4.050915e+02   6.712504e+01
   2.200666e+02   5.100704e+02
  -2.579882e+02   4.219298e+02
  -3.772276e+02   7.262801e+01
  -2.840334e+02  -2.099208e+02
   5.450254e+00  -3.242323e+02
   1.534592e+02  -1.913635e+02
   1.228566e+02  -2.818890e+01
  -1.067092e+02   9.248805e+00
  -3.065180e+02  -1.590796e+02
  -1.193333e+02  -3.272803e+02
   3.936226e+02  -2.459378e+02
   6.233621e+02   1.181290e+02
   3.153505e+02   4.152655e+02
  -3.262727e+02   2.896325e+02
  -4.740940e+02  -6.797177e+01
  -1.807095e+02  -3.369115e+02
   2.553253e+02  -3.352030e+02
   4.325462e+02  -1.302470e+02
   2.551758e+02   1.618608e+02
  -1.222495e+01   3.661031e+02
  -1.333307e+02   1.279201e+02
  -2.934312e+01  -1.266114e+02
   1.306092e+02  -2.680881e+02
   3.527822e+02   5.899632e+01
   1.426200e+02   4.585813e+02
  -2.214584e+02   4.853811e+02
  -4.165272e+02  -2.248195e+01
  -1.500710e+02  -3.795828e+02
   1.854928e+02  -1.653980e+02
   2.255879e+02   3.150906e+02
  -1.067904e+02   3.938508e+02
  -3.848998e+02   5.998280e+01
  -3.995230e+02  -3.106054e+02
  -6.797851e+01  -4.206403e+02
   3.049898e+02  -2.198596e+02
   4.172997e+02   1.158191e+02
   2.607796e+02   2.602281e+02
  -1.333212e+02   2.542379e+02
  -2.944203e+02  -2.401174e+00
  -1.829721e+02  -9.992021e+01
   7.402092e+01  -3.243470e+01
   4.486939e+01   1.287394e+02
  -1.387862e+02   1.722225e+02
  -2.737475e+02  -3.829256e+01
  -8.095798e+01  -2.193302e+02
   1.996475e+02  -1.884561e+02
   2.397229e+02  -2.444404e+01
   1.122897e+02   5.838871e+01
  -7.672462e+01   1.531587e+02
  -2.081588e+02   2.506349e+02
  -2.600497e+02   1.152098e+02
  -2.025951e+02  -1.336051e+02
  -2.948392e+01  -3.137344e+02
   7.683576e+01  -3.074956e+02
   6.577350e+01  -9.858165e+01
   4.723604e+01  -2.819192e+01
   4.229923e+01  -9.417684e+01
   1.105769e+02  -8.101714e+01
   2.433260e+02   4.605075e+01
   7.442210e+01   1.839745e+02
  -1.164470e+02   1.835741e+02
  -1.275960e+02  -1.901317e+00
  -1.137040e+02  -2.024417e+02
   3.344973e+00  -2.128175e+02
   1.619225e+02  -4.341664e+01
   2.431725e+02   1.311215e+02
   1.335658e+02   2.617360e+02
  -5.492312e+01   2.643863e+02
  -1.925484e+02   1.051936e+02
  -1.042558e+02  -1.454947e+01
  -7.851524e+01   1.673800e+01
  -1.750789e+02   3.124373e+01
  -2.865028e+02  -4.254893e+01
  -2.363967e+02  -2.095332e+02
   1.579274e+01  -3.348688e+02
   2.812550e+02  -3.243810e+02
   3.934027e+02  -1.245188e+02
   2.055039e+02   5.175779e+01
   3.016159e+01   2.531789e+02
  -5.100378e+01   2.035298e+02
  -3.670103e+01   1.788255e+01
   6.432599e+01  -7.170993e+01
   1.077694e+02  -1.914015e+00
   2.500003e+01   1.353075e+02
  -1.677459e+02   1.062972e+02
  -1.064369e+02  -8.054117e+01
   3.235624e+01  -1.842382e+02
   1.492481e+02  -1.129482e+00
   1.334032e+02   2.312719e+02
  -7.730724e+01   2.746136e+02
  -1.704404e+02   1.340118e+02
  -2.409868e+02  -1.051213e+02
  -1.892390e+02  -1.799013e+02
  -6.441389e+01  -2.379943e+02
   7.566990e+01  -1.555453e+02
   1.045530e+02   6.369240e+00
   6.149487e+01   7.086440e+00
  -3.084650e+01  -6.763245e+01
  -3.230222e+01  -7.205773e+01
   8.128750e+01  -9.113992e+01
   1.171461e+02   2.235492e+01
   2.939015e+01   2.637350e+01
  -5.881198e+01   1.374201e+01
  -3.932862e+01  -6.032066e+01
   1.215649e+02  -7.742819e+01
   2.228067e+02  -7.221842e+00
   1.970617e+02   1.131444e+02
   6.742689e+01   1.836535e+02
  -1.368666e+02   1.913875e+02
  -2.219312e+02   1.102351e+02
  -1.154830e+02  -2.430544e+01
  -5.638392e+00  -6.502314e+01
   3.082764e+01   7.775277e+00
  -1.958310e+01   5.338020e+01
  -1.827734e+02   5.816161e+01
  -1.690689e+02  -7.614515e+01
  -3.289984e+01  -1.859336e+02
   9.275353e+01  -1.150489e+02
   1.551721e+02   5.856573e+00
   3.115470e+01   4.854580e+01
  -1.876410e+00  -5.579984e+00
  -6.339876e+01  -6.709659e+01
   8.648557e+01  -1.109545e+02
   1.964543e+02   1.694186e+01
   1.460374e+02   8.848133e+01
   3.584836e+00   1.404235e+02
  -1.314514e+02   1.076316e+02
  -1.462113e+02  -3.635157e-01
  -5.660807e+01  -9.058466e+01
   9.340654e+01  -4.873632e+01
   2.654264e+01  -2.075912e+00
   3.788427e-01   6.002782e+00
  -2.779451e+01   9.841047e+00
   2.722924e+01  -2.425003e+01
   7.857247e+01   1.662331e+00
   6.904541e+01   7.522360e+01
   1.590899e+00   1.402791e+02
  -1.036648e+02   9.120962e+01
  -1.706240e+02   7.397562e+00
  -1.692657e+02  -1.083086e+02
  -1.870029e+01  -1.901435e+02
   9.194745e+01  -1.049049e+02
   8.836819e+01  -7.264265e+01
   8.086845e+01   7.272294e+01
   5.713492e+01   2.792966e+01
   3.692297e+01  -7.527015e-01
   7.433873e+01   4.242728e+01
   6.905605e+01   2.720058e+01
  -5.399425e+01   7.215349e+01
  -5.512878e+01   4.261170e+01
  -4.338383e+01  -3.127913e+01
   3.596030e+01  -5.681143e+01
   1.481800e+02  -3.083188e+01
   1.254890e+02   2.516260e+01
   6.364352e+01   1.495342e+02
  -1.066756e+02   1.704729e+02
  -2.212414e+02   9.908456e+00
  -1.969779e+02  -4.447214e+01
  -7.193530e+01  -1.169946e+02
   1.278386e+01  -1.246273e+02
   1.096379e+02  -8.572405e+01
   4.294784e+01  -6.844163e+01
   8.340329e+01  -9.859617e+01
   5.801750e+01  -4.633126e+01
   7.459480e+01   1.305635e+01
   6.031685e+01   9.953097e+01
   2.829555e+01   1.919620e+02
  -7.658869e+01   1.207978e+02
  -1.158887e+02   6.702892e+00
  -7.049865e+01  -1.014819e+02
  -2.338604e+01  -1.360155e+02
   7.222159e+01  -3.668599e+01
   5.028825e+01  -3.368382e+00
  -3.836067e+00   4.171186e+01
  -3.758670e+01   2.348883e+01
   4.398450e+01  -1.641477e+01
   5.217417e+01   1.433656e+01
   3.388746e+00   1.866437e+01
  -4.573127e+01   4.316060e+01
  -1.176015e+02  -1.940000e+01
  -1.262334e+02  -4.175964e+01
   1.676645e+01  -5.514496e+01
   7.823757e+01  -9.425317e+01
   1.000130e+02  -2.370623e+01
   5.478544e+01   2.404598e+01
  -4.234838e+01   4.151532e+01
  -4.584765e+01  -7.290374e+00
  -5.159168e+01  -1.825945e+01
   4.008979e+01  -2.475533e+01
   4.556604e+01   1.602589e+01
   3.362262e+01   3.529407e+01
   2.856115e+01   1.648999e+01
   5.462858e+01  -3.002863e+01
   8.320153e+01   6.519731e+00
   2.501134e+01   6.729994e+01
  -7.346454e+01   1.024920e+02
  -1.030106e+02   8.911997e+01
  -1.082077e+02   3.957899e+01
  -1.168517e+02  -5.022677e+01
  -3.071799e+01  -9.531944e+01
   7.276879e+01  -1.081090e+01
   1.964406e+01   7.021911e-01
  -5.746484e+01  -2.659404e+01
  -1.242448e+02  -2.829074e+01
  -4.131276e+01  -9.828220e+01
   6.887109e+01  -7.453091e+01
   1.402777e+02  -7.796613e+00
   1.164472e+02  -4.252668e+01
   2.024520e+01   3.425835e+01
  -6.643869e+01   3.539999e+01
  -3.414397e+01  -9.088371e+00
  -4.236494e+00   8.745647e+00
   8.846763e+01   4.400304e+01
   2.350088e+00   1.159805e+02
  -7.219743e+01   1.367200e+02
  -1.399986e+02   5.606717e+01
  -1.089076e+02  -6.405406e+01
  -1.344402e+01  -1.508275e+02
   1.045859e+02  -1.514778e+02
   4.763932e+01  -5.061733e+00
   3.254763e+01   6.358533e+01
  -2.668506e+01   9.014510e+01
  -4.837829e+01  -6.307234e+00
  -7.790782e+01  -8.135485e+00
  -1.964549e+01  -2.680749e+01
   2.411286e+01   2.571283e+00
  -1.021095e+01  -4.520715e+01
  -4.784233e+00  -8.881431e+01
  -8.868049e+00  -4.784821e+01
   1.510675e+01  -2.471590e+01
   9.002270e+01   3.409446e+01
   9.768532e+01   5.899663e+01
  -7.378131e+00   6.516062e+01
  -1.003494e+02   3.195837e+01
  -2.330358e+01   4.006299e+01
   1.303575e+01   2.731437e+01
   1.845916e+01  -4.077964e+01
   1.828709e+01  -1.008436e+01
   1.057358e+01   2.983544e+01
   1.370900e+01   5.770171e+01
   6.142591e+01   2.350385e+01
   9.100990e+01  -8.410407e+00
  -2.076042e+01   4.429501e+01
  -1.248847e+02   6.007300e+01
  -1.427939e+02   5.688439e+01
  -1.280550e+02  -3.054460e+01
   3.309217e-01  -1.154381e+02
   4.181523e+01  -1.197907e+02
   1.122835e+02  -4.191263e+01
   7.226580e+01  -1.361345e+01
   1.847254e+01   5.533782e+01
  -1.053861e+01  -2.848390e+01
   3.554279e+01   7.316404e+00
   9.314525e+00   3.315253e+01
   2.583415e+01   9.504965e+01
  -6.263996e+01   6.462790e+01
  -4.062376e+01  -2.046651e+01
  -2.798951e+01  -4.794470e+01
  -1.057037e+01  -1.083062e+02
   3.692112e+01  -5.394007e+01
   6.612271e+01   5.411671e+01
   1.668495e+01   1.080476e+02
  -3.276410e+01   3.901367e+01
  -9.153880e+01  -2.170733e+01
  -3.263438e+01  -7.343935e+01
   2.992623e+00  -4.515801e+01
   2.810426e+01  -1.922237e+01
  -1.185377e+01   1.066924e+01
  -3.308178e+01  -4.822652e+00
   1.611212e+01  -3.502397e+01
   5.465104e+01  -3.809280e+01
   1.037160e+02  -4.621051e+00
   4.383289e+01   2.807192e+00
  -5.809642e+00   6.306345e+01
  -5.555643e+01   7.256520e+01
  -1.161384e+01  -2.016931e+01
   5.645854e+00  -6.830699e+01
   3.867990e+01  -1.054070e+01
  -2.793860e+01   1.544507e+01
   1.752618e+01   9.719908e+00
   1.060255e+01   1.745777e+01
  -4.602632e+01  -2.717333e+00
  -3.222130e+01  -4.080965e+01
  -2.726045e+01  -1.181758e+00
   7.867813e+00   2.515896e+01
   2.115566e+00  -8.909650e+00
   6.169555e+01  -3.147888e+01
   6.878871e+00  -2.772283e+01
   3.902425e+01   2.356568e+01
   1.341231e+01   4.950533e+01
  -1.391121e+01   7.305926e+01
  -2.971110e+00   1.854969e+01
  -2.181860e+01  -1.291104e+01
  -2.384015e+01  -7.904736e+01
   7.047173e+01   3.523142e+01
   7.050763e+01   1.484662e+01
   6.207742e+01   9.234335e+01
  -7.201991e+00   7.136344e+00
  -1.579603e+01  -3.172751e+00
   2.154975e+01   6.479542e+00
   6.290175e+00   4.418246e+01
  -4.544506e+00   3.866061e+01
  -3.025111e+01   2.942670e+01
  -8.617920e+01   1.198871e+01
