
 $NMID
 id='ANONYMOUS ', fmtdat='(2E16.6)'
 volume=1.0
 tramp=1.0
 $END
   5.008262e+03   9.319490e+01
   2.848450e+03   2.938679e+03
  -8.523195e+02   3.225960e+03
  -2.508002e+03   9.477283e+02
  -1.132086e+03  -9.106395e+02
   8.611034e+02  -7.419887e+02
   1.088347e+03   5.427263e+02
   6.841391e+01   1.261701e+03
  -1.015037e+03   9.560354e+02
  -1.049542e+03  -9.900192e+01
  -4.812739e+02  -9.945903e+02
   3.195545e+02  -1.016616e+03
   7.982645e+02  -1.004321e+02
   4.131776e+02   7.697170e+02
  -2.798200e+02   8.569341e+02
  -7.380602e+02  -4.889365e+01
  -2.823966e+02  -7.647855e+02
   4.087623e+02  -6.724550e+02
   6.218003e+02  -8.951780e+01
   4.226912e+02   4.538670e+02
   1.391683e+01   4.858704e+02
  -2.938081e+02   2.978697e+02
  -2.360549e+02  -4.250582e+00
   9.058358e+01  -1.658968e+02
   4.351162e+02   9.786236e+01
   2.790951e+02   4.778385e+02
  -5.026942e+02   4.661194e+02
  -9.752570e+02  -1.516440e+01
  -4.845859e+02  -6.573496e+02
   4.351425e+02  -5.572706e+02
   8.497328e+02  -2.279022e+01
   4.505721e+02   5.568739e+02
  -3.150685e+02   6.178318e+02
  -6.281169e+02   2.057976e+02
  -4.476627e+02  -2.591818e+02
  -2.413384e+01  -5.275582e+02
   2.701477e+02  -3.447269e+02
   2.041066e+02   2.362538e+02
  -1.899791e+02   5.618801e+02
  -5.292170e+02  -5.758973e+00
  -3.154792e+02  -7.404136e+02
   3.520214e+02  -7.532234e+02
   7.046131e+02   1.046279e+01
   2.986498e+02   6.382933e+02
  -2.611661e+02   3.787012e+02
  -4.736720e+02  -3.388711e+02
   3.364659e+01  -5.777341e+02
   5.894175e+02  -1.830604e+02
   6.918776e+02   4.160472e+02
   2.019065e+02   6.530089e+02
  -4.088186e+02   4.062726e+02
  -6.455875e+02  -5.983848e+01
  -3.947106e+02  -4.504429e+02
   1.775427e+02  -4.000006e+02
   5.058471e+02  -5.484878e+01
   3.039609e+02   2.402004e+02
  -1.869848e+02   1.174126e+02
  -1.767864e+02  -1.222091e+02
   1.775179e+02  -2.558781e+02
   3.493048e+02   8.045046e+01
   1.459895e+02   3.465131e+02
  -1.638048e+02   2.449911e+02
  -3.646633e+02   1.045760e+02
  -1.943720e+02  -1.071752e+02
  -3.278380e+01  -2.047277e+02
   2.226921e+02  -3.206565e+02
   3.924903e+02  -2.560908e+02
   3.091822e+02   1.626221e+02
   3.696536e+01   4.464201e+02
  -1.417713e+02   4.278485e+02
  -1.334220e+02   1.087066e+02
  -2.186236e+01  -3.343252e+00
  -6.152575e+01   9.193303e+01
  -1.753200e+02   1.553904e+02
  -2.963182e+02  -5.997425e+01
  -1.617145e+02  -2.967047e+02
   6.098467e+01  -2.806827e+02
   2.768826e+02  -7.057963e+01
   2.454682e+02   2.819770e+02
  -3.927415e+00   3.456327e+02
  -2.429397e+02   1.498212e+02
  -3.795952e+02  -1.825772e+02
  -2.205539e+02  -3.942582e+02
   1.545716e+02  -3.449606e+02
   2.379968e+02  -1.305594e+02
   1.120201e+02   2.621529e+01
   8.592377e+01   2.458667e+01
   2.024770e+02  -7.406763e+01
   3.582432e+02  -1.441548e+01
   3.523871e+02   2.987183e+02
   2.544509e+01   4.992175e+02
  -3.510774e+02   4.357542e+02
  -4.971305e+02   2.375043e+02
  -3.502344e+02  -1.077359e+02
  -8.788229e+01  -3.287467e+02
   8.236769e+01  -2.439719e+02
   7.042584e+01  -2.981872e+01
  -1.208719e+02   1.508328e+02
  -2.035764e+02  -6.839078e+00
  -7.391643e+01  -2.172465e+02
   1.755071e+02  -1.753257e+02
   1.675181e+02   3.358769e+01
  -1.188946e+01   2.172552e+02
  -1.898089e+02   2.566385e+01
  -1.944462e+02  -2.601900e+02
   1.025611e+01  -3.716824e+02
   2.624324e+02  -2.255604e+02
   3.321747e+02   4.959300e+01
   3.241733e+02   2.768891e+02
   9.836819e+01   2.973132e+02
  -9.647873e+01   1.999230e+02
  -1.922848e+02   4.723258e+01
  -9.019142e+01  -1.510969e+01
   5.656471e+01   2.411825e+00
   5.251745e+01   1.312481e+02
  -1.188969e+02   1.223973e+02
  -2.251242e+02  -2.250139e+01
  -8.052595e+01  -7.432032e+01
   8.594278e+01  -2.914669e+01
   7.586383e+01   1.072871e+02
  -1.183410e+02   1.170930e+02
  -3.263684e+02   4.052301e+01
  -3.106851e+02  -1.520448e+02
  -4.442124e+01  -2.785705e+02
   1.659242e+02  -2.510050e+02
   3.039452e+02  -1.415115e+02
   1.798236e+02   7.454754e+01
  -8.838454e+00   1.613466e+02
  -7.995620e+01   3.222995e+01
   1.488378e+01  -1.250552e+02
   2.011640e+02  -8.933244e+01
   2.295648e+02   1.203177e+02
   8.464507e+01   2.359194e+02
  -7.388548e+01   1.880207e+02
  -1.695155e+02   3.032511e+01
  -7.305653e+01  -6.540277e+01
   9.285951e+00  -5.663693e+00
   5.799725e+01   7.301274e+01
  -5.733855e+01   1.166767e+02
  -1.915901e+02   3.578451e+01
  -1.839461e+02  -1.029457e+02
  -6.905690e+00  -2.182917e+02
   1.589584e+02  -1.698965e+02
   1.915122e+02  -2.164810e+01
   7.580111e+01   1.183411e+02
  -6.857747e+01   6.561315e+01
  -1.029552e+02   3.773256e+01
  -2.656098e+01  -1.465632e+01
   5.773946e+01  -5.526682e+01
   1.117265e+01   3.147857e+00
  -6.122189e+01   3.511205e+01
  -1.233747e+02  -3.185429e+01
  -3.883584e+01  -1.311055e+02
   1.348060e+02  -1.841080e+02
   2.901392e+02   8.341176e+00
   2.222434e+02   1.400381e+02
   3.240634e+01   2.484172e+02
  -1.373532e+02   1.597926e+02
  -1.639905e+02   4.720521e+01
  -7.777515e+01  -4.935845e+01
   2.416574e+01  -4.294616e+01
  -4.870986e+01   3.359589e+01
  -8.755589e+01   3.943029e+01
  -4.067333e+01  -5.555878e+01
   2.330389e+01  -6.260933e+01
   1.400817e+02  -4.190269e+01
   1.081351e+02   3.593288e+01
   1.264030e+01   8.786620e+01
  -1.011896e+02   7.236060e+01
  -2.330142e+02  -2.411386e+01
  -8.170117e+01  -2.053667e+02
   8.691475e+01  -2.605411e+02
   2.830372e+02  -1.033609e+02
   2.564954e+02   9.372330e+01
   8.159743e+01   1.338378e+02
  -3.504175e+01   1.434829e+02
  -9.290171e+01   9.190654e+01
  -9.426624e+01   8.413271e+01
  -7.150189e+01   9.543144e+01
  -1.015618e+02   8.166008e+01
  -1.484730e+02  -1.618267e+01
  -1.062813e+02  -1.865450e+02
  -6.690524e+01  -2.301785e+02
   7.301242e+01  -2.023382e+02
   1.619753e+02  -3.650230e+01
   1.380092e+02   1.439712e+02
   1.841917e+01   1.788502e+02
  -5.392214e+01   1.021582e+02
  -4.494728e+01   4.196262e+01
   3.815439e+00  -4.045357e+01
   5.860896e+00  -3.699100e+01
  -1.437283e+01   2.640359e-01
  -9.298251e+01  -1.719759e+01
  -7.117969e+01  -3.096344e+01
   7.193541e+01  -4.538853e+01
   1.844344e+02  -7.359359e+00
   1.443786e+02   7.426351e+01
   5.215696e+00   8.843607e+01
  -1.259732e+02   7.134616e+01
  -1.895095e+02   1.110874e+01
  -4.889606e+01  -5.022545e+01
   7.882947e+01  -3.590482e+01
   9.770975e+01   2.604992e+01
   2.930557e+01   7.497756e+01
  -4.519132e+01   8.311536e+01
  -5.038701e+01   7.581152e+00
  -7.814710e+01  -4.586173e+01
  -7.378147e+00  -6.660477e+01
  -5.885736e+01  -2.069620e+00
  -9.025788e+01   5.501792e+00
  -6.475442e+01  -8.061127e+01
   4.260664e+01  -1.530637e+02
   1.481524e+02  -1.350162e+02
   1.734456e+02  -2.189992e+00
   1.359441e+02   9.140621e+01
   1.869106e+01   1.747236e+02
  -5.402199e+01   7.597062e+01
  -1.100103e+02   1.448773e+00
   2.111243e+01  -4.273952e+01
   1.222969e+02   3.676936e+01
   1.015539e+02   1.036508e+02
  -8.306424e+01   6.569087e+01
  -2.173004e+02   7.503699e+01
  -1.381842e+02  -1.312611e+01
   1.212811e+00  -9.658252e+01
   7.320711e+01  -4.950921e+01
   3.044652e+01   1.522339e+01
  -5.231541e+01   4.470056e+01
  -6.931038e+01  -1.198177e+01
  -2.388449e+01  -1.053955e+02
   8.974540e+01  -1.344933e+02
   1.796378e+02  -4.927466e+01
   1.331222e+02   1.130834e+02
   4.005002e+01   2.200579e+02
  -5.914988e+01   1.376941e+02
  -9.708923e+01   1.473162e+01
  -6.059807e+01  -9.130084e+01
  -5.891353e+00  -1.045507e+02
   5.162380e+01  -2.849148e+01
   5.077083e+01   3.744113e+01
   1.980475e+01  -3.207782e+01
  -1.253083e+01  -2.633967e+01
   1.818739e+01  -1.350543e+01
   4.941686e+01   6.759094e+01
   4.885610e+01   1.133093e+02
  -5.389978e+01   5.793993e+01
  -1.172103e+02  -4.727595e+01
  -1.192702e+02  -8.876493e+01
  -3.208504e+01  -3.838514e+01
   8.957906e+01  -3.672652e+01
   7.366095e+01  -3.275318e+01
  -1.997996e+01  -2.993473e+01
  -7.687474e+01   4.153662e+01
  -3.032666e+00   2.960063e+01
   3.936403e+01  -1.004990e+01
   3.163690e+01  -3.186501e+01
  -3.629088e+01  -4.112182e+01
  -8.745823e+01  -3.033117e+00
   2.202499e+01  -8.626684e+01
   1.218842e+02  -1.293811e+02
   1.598555e+02  -7.708377e+01
   1.160277e+02   5.279000e+01
   3.719222e+01   1.562279e+02
  -7.041652e+01   1.778265e+02
  -1.136717e+02   6.722425e+01
  -1.026268e+02  -1.001983e+01
  -3.575817e+01  -4.526613e+01
  -3.077700e+00  -1.353248e+01
  -3.916831e+01  -2.199935e+01
  -4.363485e+01  -4.617197e+01
  -1.732616e+01  -5.894687e+01
   3.284326e+01  -8.516659e+01
   9.466334e+01   5.437326e-01
   1.171081e+02   1.007961e+02
  -8.164307e-01   1.161705e+02
  -7.304204e+01   6.536290e+01
  -1.169757e+02  -7.564460e+01
  -5.126772e+01  -1.259159e+02
   5.096544e+01  -5.853000e+01
   1.252286e+02   1.720225e+01
   6.028818e+01   5.932846e+01
  -4.802422e+01  -4.277381e+00
  -2.051832e+01  -2.632534e+00
   2.577057e+01   7.940980e+00
   4.901346e+01   3.144610e+01
   4.070960e+01   2.425752e+01
  -6.777580e+01   7.846617e+01
  -1.256555e+02   9.721013e+01
  -9.770141e+01  -9.184063e-01
   4.623828e+00  -8.261868e+01
   6.062550e+01  -8.332710e+01
   5.681773e+01  -1.224492e+01
  -1.662935e+01   7.260389e+01
  -4.647687e+01   3.253674e+01
  -6.504007e+01  -2.375501e+01
  -6.646638e+01  -6.331809e+01
  -6.631671e+01  -6.247254e+00
  -7.734190e+00  -1.595912e+01
   6.459995e+01   1.944337e+00
   1.259289e+00  -7.881717e+00
  -6.460983e+00   4.485983e+00
  -5.381442e+00   4.151533e-01
   8.823071e-01   1.891390e+01
  -1.426670e+01   3.898246e+01
  -3.686725e+01   1.912931e+01
  -5.073779e+01  -4.532486e+01
  -2.034162e+01  -4.522311e+01
   3.613134e+01  -4.662031e+01
  -1.756741e+00   2.753003e+01
   5.354159e+01   9.568174e+01
  -5.388882e+01   5.423662e+01
  -1.218015e+02  -2.000562e+01
  -5.744647e+01  -3.290038e+01
   5.159031e+01  -5.312042e+01
   5.708754e+01  -4.368515e+01
   2.149622e+01  -2.746646e+01
  -2.565959e+01  -3.020369e+01
  -4.081997e+01  -2.070757e+01
   4.386458e+01  -2.296609e+01
   9.702352e+01  -1.487252e+01
