
 $NMID
 id='ANONYMOUS ', fmtdat='(2E16.6)'
 volume=1.0
 tramp=1.0
 $END
  -4.402519e+03   8.514218e+01
  -2.529302e+03  -2.023374e+03
   6.166252e+02  -2.906447e+03
   1.846284e+03  -1.189209e+03
   1.106874e+03   4.560523e+02
  -4.537142e+02   5.473759e+02
  -8.120758e+02  -2.440665e+02
  -1.125751e+02  -9.557874e+02
   7.150583e+02  -7.835533e+02
   8.790539e+02   2.047230e+01
   5.133046e+02   8.547379e+02
  -1.835995e+02   8.122459e+02
  -5.958125e+02   1.514180e+02
  -4.389640e+02  -6.240677e+02
   2.249668e+02  -6.666736e+02
   5.841762e+02  -6.210292e+01
   3.233601e+02   6.208675e+02
  -2.107067e+02   6.362719e+02
  -5.904334e+02   1.666526e+02
  -4.286685e+02  -2.873782e+02
  -3.548244e+01  -4.341133e+02
   2.422272e+02  -2.174969e+02
   1.982218e+02  -2.714736e+01
  -1.482226e+02   4.310155e+01
  -3.741316e+02  -1.581129e+02
  -1.070140e+02  -3.775412e+02
   4.753790e+02  -3.231497e+02
   7.879555e+02   9.655917e+01
   3.683092e+02   4.616293e+02
  -3.473232e+02   4.127539e+02
  -6.761179e+02  -2.340746e+01
  -3.120032e+02  -4.000448e+02
   2.175724e+02  -5.031996e+02
   5.483525e+02  -1.979288e+02
   4.288867e+02   2.501769e+02
   9.731895e+01   4.467671e+02
  -1.436959e+02   1.989145e+02
  -1.640493e+02  -2.044886e+02
   1.436503e+02  -3.483658e+02
   3.405590e+02   3.838865e+01
   1.866056e+02   5.622652e+02
  -3.200820e+02   6.367410e+02
  -5.216573e+02  -2.794601e+00
  -2.427033e+02  -5.034732e+02
   2.050344e+02  -3.407254e+02
   3.744688e+02   2.734419e+02
  -5.235835e+01   4.811809e+02
  -4.951641e+02   1.048426e+02
  -5.608384e+02  -3.430144e+02
  -1.771081e+02  -5.451852e+02
   3.376127e+02  -3.506282e+02
   6.225344e+02   4.229238e+01
   3.440795e+02   2.824475e+02
  -5.839516e+01   3.211020e+02
  -3.971407e+02   8.406887e+01
  -2.522628e+02  -1.641291e+02
   1.055594e+02  -6.184726e+01
   1.228783e+02   9.233032e+01
  -1.042560e+02   1.661859e+02
  -2.796228e+02  -5.833434e+00
  -1.651181e+02  -2.770157e+02
   1.448914e+02  -2.638458e+02
   3.156737e+02  -1.094009e+02
   2.156694e+02   7.418657e+01
  -2.800533e+01   3.072566e+02
  -2.054794e+02   3.401355e+02
  -3.733512e+02   1.951408e+02
  -2.610122e+02  -1.190604e+02
  -4.552127e+01  -4.064796e+02
   1.269446e+02  -3.490277e+02
   8.195237e+01  -1.002677e+02
   2.084659e+01  -2.330061e+01
   6.292719e+01  -6.665905e+01
   2.189048e+02  -1.109028e+02
   2.515064e+02   8.163419e+01
   1.381208e+02   2.264167e+02
  -6.814408e+01   2.614624e+02
  -2.297702e+02  -1.751642e+01
  -1.805133e+02  -2.700796e+02
   1.378709e+00  -2.900160e+02
   2.379538e+02  -1.060756e+02
   3.327791e+02   1.606250e+02
   1.663073e+02   3.228148e+02
  -1.086207e+02   2.983141e+02
  -2.016662e+02   1.422496e+02
  -1.367057e+02   5.477093e+00
  -1.040951e+02   1.671791e+01
  -2.256973e+02   4.959687e+01
  -4.161115e+02  -6.040344e+01
  -3.239179e+02  -2.473907e+02
  -1.572015e+00  -4.028010e+02
   3.057911e+02  -4.220635e+02
   4.675368e+02  -2.123358e+02
   3.637151e+02   9.489963e+01
   2.899769e+01   3.115860e+02
  -7.928392e+01   2.687130e+02
  -3.826293e+01   2.400919e+01
   1.120926e+02  -8.648457e+01
   1.577447e+02   1.266639e+01
   2.848024e+01   1.635543e+02
  -1.516170e+02   1.679598e+02
  -1.883870e+02  -3.717997e+01
   2.202169e+01  -1.909915e+02
   1.368155e+02  -4.319281e+01
   1.606092e+02   1.997315e+02
  -1.203428e+01   2.914641e+02
  -2.338878e+02   1.718182e+02
  -3.009317e+02  -5.832030e+01
  -2.598580e+02  -2.386069e+02
  -7.151433e+01  -2.698049e+02
   1.205290e+02  -1.847977e+02
   1.731376e+02  -1.624489e+00
   5.374750e+01   4.991273e+01
  -4.792956e+01  -7.100822e+01
   9.371865e+00  -9.383652e+01
   9.376880e+01  -9.092118e+01
   1.829299e+02   1.292008e+00
   8.963137e+01   9.971489e+01
  -3.324244e+01  -4.720464e+00
  -2.301118e+01  -5.502272e+01
   1.209569e+02  -7.570049e+01
   2.771418e+02  -1.118652e+01
   2.609132e+02   1.432872e+02
   2.640894e+01   2.464123e+02
  -1.764441e+02   2.265195e+02
  -2.766961e+02   1.496523e+02
  -1.934092e+02  -1.326885e+01
   1.062839e+01  -1.171121e+02
   1.254134e+02  -1.014046e+01
  -6.254693e+01   9.716351e+01
  -1.810720e+02   8.849333e+01
  -2.295575e+02  -9.069304e+01
  -8.421402e+01  -2.337742e+02
   1.001199e+02  -1.813296e+02
   1.398217e+02   8.357355e+00
   7.654665e+01   3.338863e+01
  -4.025681e+01  -9.904684e+00
  -5.668418e+01  -8.057133e+01
   3.338880e+01  -1.120705e+02
   2.430904e+02  -3.159648e+01
   1.997500e+02   1.152025e+02
   3.735786e+01   1.989576e+02
  -1.392765e+02   1.517362e+02
  -1.682743e+02   1.856122e+01
  -3.900885e+01  -1.048430e+02
   8.148388e+01  -1.007659e+02
   7.120196e+01  -2.949252e+01
  -1.010343e+01   6.549196e+01
  -3.257057e+01   1.216779e+01
   2.308769e+01  -8.323454e+00
   7.065874e+01  -5.514979e+01
   1.127521e+02   7.038467e+01
  -1.907919e+00   1.568716e+02
  -1.022324e+02   1.046139e+02
  -2.221791e+02   9.206499e+00
  -1.990156e+02  -1.367430e+02
  -4.028437e+01  -2.119708e+02
   8.421057e+01  -1.832837e+02
   1.498795e+02  -1.515147e+01
   7.130484e+01   6.911573e+01
   1.287300e+01   2.802166e+01
   5.608916e+01   1.276349e+01
   8.714566e+01   8.237518e+00
   6.461676e+01   3.263111e+01
  -2.123014e+01   7.725569e+01
  -8.851864e+01   2.235501e+01
  -7.755842e+01  -2.107281e+01
   1.795289e+00  -1.463278e+02
   1.162685e+02  -7.836816e+01
   2.079120e+02  -6.677033e-01
   9.561996e+01   1.574838e+02
  -1.078803e+02   2.051737e+02
  -2.849649e+02   1.041396e+02
  -2.419579e+02  -4.603100e+01
  -6.846858e+01  -1.901049e+02
   3.438829e+01  -1.329632e+02
   8.258327e+01  -7.216417e+01
   1.722090e+01  -5.694848e+01
   8.109593e+00  -5.108709e+01
   3.783640e+01  -8.680643e+01
   1.181123e+02   4.463804e+01
   1.556453e+02   1.067282e+02
   3.607547e+01   2.134294e+02
  -8.590774e+01   1.595119e+02
  -1.500812e+02   2.664066e+01
  -1.130429e+02  -7.933619e+01
  -5.058637e+01  -1.532547e+02
   4.483434e+01  -1.045783e+02
   6.554637e+01  -7.023970e+01
   1.120701e+01   1.339660e+01
  -1.661016e+01   1.445549e+01
  -3.536528e+00   2.257869e+01
   5.727051e+01   2.044954e+01
   1.602465e+01   2.397664e+01
  -6.361777e+01   1.851789e+01
  -1.411167e+02   2.301597e+01
  -1.650524e+02  -3.028472e+01
  -2.576992e+01  -9.056788e+01
   6.321057e+01  -5.440217e+01
   1.082169e+02  -2.644684e+01
   3.598238e+01   5.042491e+01
  -1.728021e+01   3.255956e+01
  -1.066583e+02  -6.703004e+00
   6.840494e-01  -3.068275e+01
   5.598846e+01  -9.546364e+01
   5.881670e+01  -6.513430e+01
   7.032049e+01   5.506860e+01
   7.862730e+01   8.211361e+00
   5.504537e+01   1.024323e+01
   7.672477e+01   2.757782e+01
   5.626627e+01   8.914186e+01
  -3.404884e+01   1.305639e+02
  -1.029817e+02   1.341223e+02
  -1.498646e+02   2.205492e+01
  -1.359751e+02  -9.979455e+01
  -4.025602e+01  -1.290690e+02
   7.273230e+01  -6.408998e+01
   9.316775e+01   3.035768e+01
  -5.222606e+01   2.514226e+01
  -1.191848e+02  -1.401413e+01
  -7.121449e+01  -1.228442e+02
   8.389625e+01  -1.519711e+02
   1.827638e+02  -8.421841e+01
   1.681905e+02   5.040526e+01
   2.475394e+00   1.058132e+02
  -3.699945e+01   7.478994e+01
  -2.797891e+01   2.275605e+01
   2.388049e+01  -3.019425e+01
   7.801555e+01   9.171334e+00
   6.894867e+01   8.317447e+01
  -4.665404e+01   1.551227e+02
  -1.945967e+02   4.729718e+01
  -1.160081e+02  -1.289599e+02
  -4.401590e+01  -1.960096e+02
   9.207703e+01  -1.645153e+02
   8.582029e+01  -2.299564e+01
   8.575161e+01   9.215459e+01
   6.974406e+00   7.998884e+01
  -2.163953e+01   3.978137e+01
  -5.607955e+01  -7.930604e+00
  -3.090004e+01   1.703679e+00
   1.845283e+01   3.249165e+01
   1.603096e+01  -5.476589e+01
  -7.523190e+01  -1.132497e+02
  -3.471162e+01  -1.008652e+02
   3.122377e+01  -6.136270e+01
   1.592131e+02   1.591954e+01
   1.299473e+02   7.411782e+01
   3.022070e+01   7.399463e+01
  -7.909841e+01   3.327636e+01
  -1.295959e+02   2.923018e+01
  -5.788944e+01  -3.577315e+01
   2.494777e+01  -1.083987e+00
   4.353773e+01   6.287935e+00
  -2.653000e+01   1.103847e+01
  -7.525024e+00   2.872440e+01
   3.616928e+01   9.259968e+00
   4.735899e+01   2.087419e+01
  -3.543576e+01   8.875107e+01
  -9.192453e+01   1.442438e+02
  -1.611524e+02   8.753442e+01
  -1.403799e+02  -2.774853e+01
  -1.904256e+01  -1.400896e+02
   8.186940e+01  -1.596032e+02
   1.112405e+02  -3.173213e+01
   6.180078e+01   3.513259e+01
   1.403757e+01   3.891567e+01
   5.839483e+00  -1.125316e+01
   1.570754e+01  -8.685119e+00
   3.241620e+01   2.106399e+01
   2.434890e+01   1.260476e+02
  -4.796081e+01   8.326631e+01
  -8.966889e+01  -2.056214e+01
  -7.398266e+01  -1.148304e+02
  -7.849315e+00  -1.394193e+02
   1.027065e+02  -6.188695e+01
   9.122977e+01   5.041506e+01
   4.923469e+01   9.183508e+01
  -9.046142e+01   6.135863e+01
  -5.345544e+01   1.559636e+01
  -2.945674e+01  -6.270285e+01
   3.925368e+00  -4.992246e+01
   6.252370e+01  -6.293720e+00
  -4.392652e+01  -1.522167e+01
  -5.041975e+01  -5.037559e+00
   1.471955e+01  -2.211990e+01
   5.056659e+01  -4.695498e+01
   1.326303e+02  -5.045144e+01
   6.065663e+01   8.344307e+00
   1.927709e+01   8.540169e+01
  -6.598948e+01   9.786329e+01
  -4.151552e+01  -1.306058e+01
  -6.641229e+00  -1.447809e+01
  -1.467767e+01  -3.720129e+01
  -3.218053e+00   2.393653e+01
   1.606433e+01   4.822314e+01
  -1.667916e+01   6.478446e+01
  -3.826123e+01  -1.417201e+01
  -1.053393e+01  -1.666825e+01
  -3.274190e+01  -9.887469e+00
  -1.577112e+01   1.908056e+01
   9.178866e+00  -1.679350e+00
  -4.492734e+00  -4.748972e+01
   4.665137e+00  -4.958619e+01
   3.715104e+01   3.822616e+00
   5.578564e+01   3.910504e+01
   2.875290e+00   2.158219e+01
  -3.301826e+01   2.111442e+01
  -6.639419e+01  -3.068595e+01
  -4.378430e+00  -8.823484e+01
   2.805253e+01  -6.110700e+01
   1.004986e+02   3.107860e+01
   5.684759e+01   3.574662e+01
  -5.033314e+01   9.143776e+01
  -8.505326e+01   3.700432e+01
  -9.497216e-01  -2.817789e+01
   2.288303e+01   9.237427e+00
   2.565496e+01  -1.828182e+01
  -4.375007e+00   2.078075e+01
  -5.990336e+01   2.071047e+01
