
 $NMID
 id='ANONYMOUS ', fmtdat='(2E16.6)'
 volume=1.0
 tramp=1.0
 $END
   3.718914e+03  -5.464794e+01
   2.106571e+03   2.007230e+03
  -5.555579e+02   2.206503e+03
  -1.746265e+03   9.059541e+02
  -8.577807e+02  -3.075129e+02
   2.683295e+02  -2.414903e+02
   5.917631e+02   2.932436e+02
  -4.956010e+01   7.545124e+02
  -6.707796e+02   6.255564e+02
  -7.158314e+02  -2.358928e+00
  -3.957880e+02  -6.640051e+02
   6.160489e+01  -7.399232e+02
   4.653567e+02  -1.418294e+02
   2.661596e+02   5.604458e+02
  -1.936285e+02   5.997617e+02
  -4.680511e+02   2.340252e+01
  -2.034591e+02  -5.770305e+02
   2.409610e+02  -6.399301e+02
   5.439012e+02  -1.532900e+02
   3.630337e+02   2.982170e+02
   3.042133e+01   4.143849e+02
  -1.685285e+02   2.170080e+02
  -1.301741e+02   3.579787e+01
   1.761135e+02   1.777691e+01
   3.321257e+02   2.399251e+02
   3.386609e+01   3.814944e+02
  -4.541027e+02   3.400637e+02
  -7.635407e+02  -1.164257e+02
  -2.698231e+02  -4.857118e+02
   3.951108e+02  -3.016289e+02
   6.073213e+02   1.325819e+02
   2.455686e+02   3.994432e+02
  -3.243896e+02   4.291331e+02
  -5.259498e+02   1.826383e+02
  -3.196857e+02  -2.304175e+02
  -6.881133e+01  -4.013694e+02
   1.244821e+02  -2.196031e+02
   7.431062e+01   1.731379e+02
  -1.579004e+02   2.950943e+02
  -3.057389e+02  -1.105172e+02
  -7.182041e+01  -5.671991e+02
   2.984576e+02  -5.340625e+02
   5.061672e+02   1.746247e+01
   1.793789e+02   4.052510e+02
  -2.296691e+02   2.317641e+02
  -2.913299e+02  -3.039472e+02
   1.049796e+02  -4.486604e+02
   5.004207e+02  -7.553158e+01
   4.955843e+02   3.919764e+02
   1.461987e+02   5.251783e+02
  -3.142826e+02   2.603049e+02
  -5.510347e+02  -1.154372e+02
  -3.189587e+02  -2.520291e+02
   4.289752e+01  -2.834452e+02
   4.074560e+02  -8.311655e+00
   2.095492e+02   1.402848e+02
  -7.570779e+01   6.943377e+01
  -1.098181e+02  -1.277851e+02
   1.480469e+02  -1.069662e+02
   2.956003e+02   5.175099e+01
   1.520612e+02   2.202194e+02
  -1.916311e+02   2.595828e+02
  -3.132569e+02   9.844663e+01
  -1.925723e+02  -1.090577e+02
   4.408309e+01  -2.904907e+02
   2.204981e+02  -3.152691e+02
   3.606925e+02  -1.435096e+02
   2.864721e+02   1.710885e+02
   3.835207e+01   3.794777e+02
  -1.270823e+02   3.181078e+02
  -5.920503e+01   7.926537e+01
   1.841753e+01   4.596339e+01
  -9.417208e+01   1.176734e+02
  -2.584257e+02   9.301046e+01
  -2.460668e+02  -1.173216e+02
  -1.140722e+02  -2.604351e+02
   1.116040e+02  -2.247862e+02
   2.240964e+02   2.970992e+01
   1.229879e+02   2.486291e+02
  -2.420434e+01   2.621159e+02
  -2.759333e+02   6.033595e+01
  -3.015816e+02  -1.516222e+02
  -2.228337e+02  -3.125634e+02
   9.261438e+01  -2.641849e+02
   1.827972e+02  -1.527009e+02
   1.292958e+02  -5.060122e+01
   7.022231e+01  -6.123590e+01
   2.589787e+02  -2.919047e+01
   3.798752e+02   4.596398e+01
   3.245159e+02   3.013762e+02
  -5.641674e+00   4.150242e+02
  -3.446735e+02   3.314705e+02
  -4.445363e+02   1.935811e+02
  -2.881507e+02  -1.021949e+02
  -1.269262e+01  -2.417990e+02
   1.158785e+02  -1.840806e+02
   4.354445e+01  -1.878552e+01
  -7.311060e+01   9.955252e+01
  -1.599530e+02  -2.541435e+01
  -2.442887e+01  -1.909425e+02
   1.314136e+02  -1.557978e+02
   1.499963e+02   4.793270e+01
  -2.837673e+00   1.789659e+02
  -1.613495e+02  -1.208610e+01
  -1.455168e+02  -2.515454e+02
   5.534997e+01  -3.486606e+02
   2.329129e+02  -1.640915e+02
   3.386873e+02   1.122792e+02
   2.936923e+02   2.088125e+02
   7.021610e+01   2.680109e+02
  -1.376928e+02   1.263708e+02
  -1.727423e+02  -1.622341e+01
  -3.837949e+01  -2.603353e+01
   4.368249e+01   4.636298e+01
   1.891784e+01   1.217830e+02
  -1.396921e+02   7.043569e+01
  -1.632007e+02  -1.174067e+00
  -3.095463e+01  -4.973897e+01
   9.884132e+01   1.030492e+00
   7.839989e+01   7.613908e+01
  -1.252376e+02   9.995101e+01
  -2.848279e+02  -5.043761e+00
  -2.653707e+02  -1.487281e+02
  -8.369975e+00  -2.393057e+02
   2.064756e+02  -2.199290e+02
   2.774918e+02  -1.036193e+02
   1.851346e+02   2.740023e+01
  -5.051803e+01   8.932820e+01
  -1.037063e+02  -1.133093e+01
   4.291666e+01  -1.095012e+02
   1.929235e+02  -8.086634e+01
   2.131182e+02   9.145466e+01
   8.700232e+01   2.208146e+02
  -7.747813e+01   1.512239e+02
  -1.230863e+02  -1.329095e+01
  -4.592195e+01  -7.741322e+01
   3.034180e+01   7.916188e+00
   8.619887e+00   1.002330e+02
  -8.249094e+01   8.177403e+01
  -1.915239e+02   3.033849e+01
  -1.832029e+02  -1.149352e+02
  -4.593689e+01  -2.045698e+02
   1.439139e+02  -1.484569e+02
   1.701788e+02   3.381845e+00
   9.008428e+01   1.488010e+02
  -1.043010e+02   1.024485e+02
  -5.346272e+01   4.796554e+01
  -3.102327e+01  -2.896050e+01
   2.975296e+01  -1.194102e+01
  -1.256417e+00   1.201716e+01
  -9.421702e+01   1.928113e+01
  -1.151974e+02  -9.238513e+01
  -1.574066e+01  -1.807298e+02
   1.480484e+02  -1.440364e+02
   2.553909e+02  -5.611756e+01
   1.644123e+02   1.535960e+02
   3.903454e+01   2.053773e+02
  -1.256701e+02   1.646990e+02
  -1.465908e+02  -1.277452e+01
  -7.337256e+01  -7.551032e+01
  -6.538822e+01  -2.319201e+01
  -6.538458e+01   3.226202e+01
  -9.667913e+01   1.127922e+01
  -5.286941e+01  -6.314967e+01
   3.536292e+01  -8.623039e+01
   9.296411e+01  -5.893399e+01
   7.844312e+01   1.192067e+01
  -2.365048e+01   7.611206e+01
  -1.261813e+02   8.131048e+01
  -1.753093e+02  -4.134398e+01
  -6.268741e+01  -1.600204e+02
   1.417971e+02  -2.291465e+02
   2.094630e+02  -1.194833e+02
   2.532147e+02   6.527182e+01
   1.135003e+02   1.343051e+02
  -1.473777e+01   1.343663e+02
  -1.208232e+02   5.328884e+01
  -5.727907e+01   6.971026e+01
  -6.570851e+01   9.421791e+01
  -8.813134e+01   6.225778e+01
  -1.300864e+02  -4.397859e+01
  -1.441259e+02  -1.375846e+02
  -2.325873e+01  -2.223460e+02
   1.125131e+02  -1.600502e+02
   1.809830e+02  -1.010911e+01
   1.244705e+02   1.010091e+02
  -1.182210e+01   1.166617e+02
  -5.486337e+01   7.937884e+01
  -3.513104e+01   1.206157e+00
  -1.112000e+01  -4.356908e+01
   2.929253e+01  -4.606009e+01
  -4.267780e+01  -1.054953e+01
  -6.944430e+01  -4.482212e+01
  -8.566216e+00  -4.656961e+01
   7.437565e+01  -1.261392e+01
   1.899423e+02  -3.778596e+01
   1.584228e+02   5.333369e+01
  -2.723034e+00   7.040403e+01
  -1.069108e+02   4.509810e+01
  -1.089049e+02   1.761580e+01
  -5.101671e+01  -4.494452e+01
   4.920307e+01  -3.351806e+01
   7.253853e+01   3.704964e+01
   1.746267e+01   5.916492e+01
  -2.697278e+01   8.338034e+01
  -6.883952e+01  -3.469757e+01
  -7.514461e+01  -4.176273e+01
  -6.653299e+00  -8.003492e+00
  -3.364121e+01  -1.486697e+01
  -9.422569e+01   6.715998e+01
  -3.747172e+01  -6.034012e+01
   4.037570e+01  -1.579145e+02
   8.594570e+01  -1.475525e+02
   1.721713e+02  -2.852829e+01
   9.262019e+01   6.172905e+01
  -7.958494e-01   1.105086e+02
  -1.146206e+02   9.008913e+01
  -3.419319e+01  -1.705271e+01
   3.925134e+01  -3.555694e+01
   1.120238e+02   2.814096e+01
   9.882568e+01   8.984154e+01
  -1.137891e+02   1.310706e+02
  -2.028194e+02   8.336364e+01
  -1.564214e+02  -5.012724e+01
  -4.108030e+01  -5.488596e+01
   1.960848e+01  -8.742202e+01
   4.216272e+01  -3.483222e+01
  -4.645858e+01   2.404665e+01
  -6.498918e+01   7.140828e+00
  -5.357467e+01  -1.018723e+02
   6.707668e+01  -1.676734e+02
   1.235871e+02  -6.339265e+01
   1.301700e+02   7.950392e+01
   1.774893e+01   2.027610e+02
  -7.709600e+01   1.236898e+02
  -1.199863e+02  -4.792220e+00
  -4.329218e+01  -9.335219e+01
  -3.536747e+01  -9.048435e+01
   5.046876e+01   1.259134e+00
   6.554472e+01   3.972654e+01
   9.269833e+00   2.779301e+01
   1.947764e+01  -3.235611e+01
   1.181279e+01   2.279882e+01
   5.728703e+01   9.111875e+01
   5.538087e+01   8.465212e+01
  -9.125602e+01   3.388900e+01
  -1.135852e+02  -1.799401e+01
  -1.284067e+02  -4.231093e+01
   3.788210e+00  -5.625303e+01
   1.055203e+02  -2.662351e+01
   9.264684e+01  -9.923001e+00
   6.516113e-01   3.132311e+01
  -4.227458e+01   1.584028e+01
   1.491062e+01  -1.672236e+01
   3.004359e+01   1.017962e+01
  -1.181199e+01   1.376025e+01
  -7.558081e+01   9.788585e+00
  -1.078899e+02  -4.097492e+01
   1.500667e+01  -6.835443e+01
   1.155656e+02  -7.676592e+01
   1.955797e+02  -4.693575e+01
   1.514599e+02   7.756284e+01
   3.341668e+01   1.364833e+02
  -4.557650e+01   1.318498e+02
  -9.558195e+01   6.564321e+01
  -5.377955e+01  -1.434083e+01
  -6.529390e+01  -3.829405e+01
  -1.893282e+01  -4.288187e+00
  -3.027709e+01   1.715362e+01
  -2.399381e+01  -7.004171e+01
  -3.157117e+00  -8.171658e+01
   4.415279e+01  -5.614222e+01
   6.426396e+01   4.207845e+01
   5.857146e+01   7.524307e+01
   1.956329e+01   7.272795e+01
  -6.563748e+01   9.582907e+00
  -1.036224e+02  -3.330015e+01
  -2.213428e+01  -1.068676e+02
   3.627403e+01  -7.837128e+01
   1.070176e+02   3.907062e+01
   4.264990e+01   3.996169e+01
  -3.057077e+01   5.642355e+01
  -2.177867e+01   4.234185e+01
   1.055918e+01   1.985302e+01
   3.915019e+01  -3.194794e+01
   1.366099e+01   2.508489e+01
  -3.300652e+01   5.051758e+01
  -1.120111e+02   2.252076e+01
  -4.680792e+01  -1.739008e+01
  -4.068243e+01  -6.590819e+01
   4.740391e+01  -2.731056e+01
   5.363052e+01   4.090599e+00
   7.250631e+00   4.977940e+01
  -3.756520e+01   5.710983e+01
  -1.611148e+01  -3.773509e+01
   2.126432e+00  -5.773327e+01
   1.870838e+01  -5.929550e+01
   9.179887e+00  -3.742852e+01
   4.274047e+01   6.559906e+00
   1.302769e+01  -1.889594e+01
  -8.631729e+00   2.079717e+01
  -1.057430e+01   3.217047e+01
   4.866582e+00   1.575426e+01
  -1.974298e+01   4.350636e+01
  -4.334248e+01   1.609801e+00
   4.225474e+01  -8.268034e+01
   2.170720e+01  -2.150371e+01
   4.807999e+01  -1.218623e+01
   7.004598e+01   1.399064e+01
  -7.609094e+00   9.879606e+01
  -6.051665e+01   3.119002e+01
  -7.220079e+01  -2.783907e+01
  -7.616022e+01  -4.739111e+01
   2.969860e+01  -2.199135e+01
   7.110311e+01  -4.384335e+01
   2.952533e+01   3.675559e+01
  -3.076173e+01  -2.047780e+01
  -4.640898e+00   7.740715e-01
   4.674384e+01  -6.138096e+01
   6.682886e+01  -1.628686e+01
