
 $NMID
 id='ANONYMOUS ', fmtdat='(2E16.6)'
 volume=1.0
 tramp=1.0
 $END
  -2.855945e+03  -9.707351e+01
  -1.675015e+03  -1.719220e+03
   6.930237e+02  -1.742474e+03
   1.437605e+03  -6.170776e+02
   4.496415e+02   3.491032e+02
  -3.980542e+02   3.144338e+02
  -4.829384e+02  -3.216673e+02
   4.495091e+01  -7.537050e+02
   6.229680e+02  -5.054273e+02
   6.601274e+02   5.192094e+01
   2.480248e+02   6.517183e+02
  -1.497001e+02   6.025379e+02
  -4.425748e+02   5.914493e+01
  -2.566538e+02  -4.922598e+02
   2.270566e+02  -4.161634e+02
   4.016181e+02   2.945355e+01
   1.405131e+02   4.602004e+02
  -2.586418e+02   4.629279e+02
  -3.332435e+02   8.978009e+01
  -2.450607e+02  -2.493570e+02
  -3.208406e+01  -3.041450e+02
   1.615308e+02  -1.670492e+02
   1.213205e+02   1.935021e+01
  -1.303768e+02   8.123662e+01
  -2.890365e+02  -1.042790e+02
  -1.123430e+02  -3.209580e+02
   3.910837e+02  -2.559233e+02
   5.766408e+02   7.844504e+01
   3.251978e+02   4.220919e+02
  -3.339923e+02   3.047218e+02
  -5.372953e+02  -7.598505e+01
  -2.155068e+02  -3.340954e+02
   2.418095e+02  -3.826990e+02
   3.630833e+02  -1.175934e+02
   2.346638e+02   1.739653e+02
   1.365341e+00   3.346987e+02
  -1.251202e+02   1.832086e+02
  -1.094251e+02  -1.731417e+02
   1.549413e+02  -3.014361e+02
   3.844544e+02   6.053090e+01
   1.601318e+02   5.011284e+02
  -2.534656e+02   4.361508e+02
  -4.249279e+02   3.980371e+00
  -1.797949e+02  -3.669965e+02
   1.541353e+02  -2.294740e+02
   2.460606e+02   2.673893e+02
  -6.793649e+01   4.064720e+02
  -3.938460e+02   9.900825e+01
  -3.895119e+02  -2.966229e+02
  -1.039702e+02  -4.132872e+02
   2.542186e+02  -2.447746e+02
   3.906060e+02   8.709681e+01
   2.490440e+02   2.631769e+02
  -1.333078e+02   2.641695e+02
  -3.404839e+02   5.341545e+01
  -1.896607e+02  -1.110813e+02
   8.950490e+01  -9.818325e+01
   6.462228e+01   1.250011e+02
  -1.381525e+02   1.285751e+02
  -2.631994e+02  -4.108272e+01
  -1.075932e+02  -2.268150e+02
   1.102511e+02  -1.910051e+02
   2.200335e+02  -9.844028e+01
   1.465938e+02   7.098518e+01
  -3.484933e+01   1.578217e+02
  -1.404320e+02   2.261324e+02
  -2.707045e+02   1.644889e+02
  -1.777656e+02  -1.066601e+02
  -2.481893e+01  -3.023166e+02
   6.328294e+01  -2.145616e+02
   5.884176e+01  -9.975854e+01
   2.657245e+01  -4.537597e+01
   6.426910e+01  -6.080628e+01
   1.511013e+02  -8.234084e+01
   2.289338e+02   5.422393e+01
   8.601058e+01   2.180987e+02
  -8.482600e+01   1.890851e+02
  -1.785859e+02  -3.088788e+01
  -9.913275e+01  -1.888213e+02
   4.709759e+01  -1.925045e+02
   2.004282e+02  -5.152788e+01
   2.585387e+02   1.148468e+02
   1.160850e+02   2.378250e+02
  -8.693061e+01   1.932791e+02
  -1.501247e+02   1.459375e+02
  -8.942901e+01   4.779938e+00
  -7.436909e+01   3.969365e+01
  -1.355960e+02   3.619724e+01
  -2.577120e+02  -6.236064e+01
  -2.375109e+02  -2.153819e+02
  -1.144257e+00  -3.528421e+02
   3.092266e+02  -2.906177e+02
   3.205078e+02  -1.111461e+02
   2.463030e+02   7.047608e+01
   3.275593e+01   2.042203e+02
  -5.037455e+01   1.808780e+02
  -1.021239e+01   2.415719e+01
   4.351135e+01  -4.404003e+01
   9.804436e+01   5.798513e+00
   4.353020e+01   1.580045e+02
  -1.038616e+02   1.243312e+02
  -1.137016e+02  -5.013111e+01
   3.396271e+01  -1.314288e+02
   1.445575e+02  -5.095489e+01
   8.716750e+01   2.140517e+02
  -3.667491e+01   2.220506e+02
  -1.374433e+02   1.188437e+02
  -2.533542e+02  -5.988919e+01
  -1.849923e+02  -1.700595e+02
  -3.929326e+01  -1.789346e+02
   8.538215e+01  -1.257670e+02
   1.461181e+02  -1.502524e+01
  -8.496740e+00   6.694771e+00
  -1.108872e+01  -4.317347e+01
  -1.280192e+01  -9.908383e+01
   8.364308e+01  -6.847506e+01
   1.456607e+02   2.380756e+00
   4.569487e+01   2.644609e+01
  -5.680775e+01  -4.694479e+00
  -4.016396e+01  -3.142354e+01
   1.244745e+02  -4.616308e+01
   1.791556e+02   5.379155e-01
   1.922736e+02   1.101672e+02
   5.115638e+01   1.764294e+02
  -1.414025e+02   1.798074e+02
  -2.197881e+02   8.959562e+01
  -1.079444e+02  -4.576406e+01
   1.279082e+01  -6.698073e+01
   3.501398e+01   2.286000e+00
  -7.995034e+01   8.179680e+01
  -1.589160e+02   2.391367e+01
  -1.334399e+02  -9.960562e+01
  -1.644447e+01  -1.700932e+02
   7.687939e+01  -1.002580e+02
   6.178475e+01  -6.048572e+01
   4.262934e+01   5.034557e+01
   6.731219e+00  -1.026503e+01
  -3.589429e+01  -5.449028e+01
   3.780110e+01  -8.008143e+01
   1.384104e+02  -1.800552e+01
   1.099665e+02   5.372359e+01
   2.964090e+01   1.485113e+02
  -8.219891e+01   1.089485e+02
  -1.397134e+02   2.108491e+01
  -4.003072e+01  -7.179226e+01
  -9.753134e+00  -7.985282e+01
   2.863550e+01  -4.871786e+01
   3.628284e+01   3.487923e+01
   2.015794e+00  -9.733807e+00
  -1.457873e+01  -1.350004e+01
   5.520613e+01  -9.366261e+00
   5.658744e+01   8.020754e+01
  -8.909717e+00   1.193484e+02
  -6.057426e+01   1.047828e+02
  -1.710238e+02   2.918996e+01
  -1.442573e+02  -1.267350e+02
   2.383645e+01  -1.207402e+02
   5.265713e+01  -1.323902e+02
   1.001108e+02  -4.663234e+01
   5.636630e+01   4.969121e+01
   1.985115e+01   6.174625e+01
   1.603926e+01  -1.013418e+01
   3.659816e+01   1.646189e+01
   3.200694e+01   5.404330e+01
  -1.842055e+01   7.733729e+01
  -7.097829e+01   3.794937e+01
  -2.462640e+01  -6.045846e+01
   8.399252e+00  -6.585679e+01
   7.763945e+01  -5.362477e+01
   1.121638e+02   1.514456e+01
   9.624270e+01   1.206891e+02
  -2.335840e+01   1.948033e+02
  -1.893556e+02   6.566552e+01
  -1.524464e+02  -8.084893e+01
  -7.460347e+01  -1.175670e+02
  -6.114107e-01  -1.512988e+02
   5.444668e+01  -5.976251e+01
   8.616094e+01  -7.073619e+01
   3.003021e+01  -6.137841e+01
   6.968577e+01  -3.284741e+01
   8.836097e+01   2.113956e+01
   8.985212e+01   1.074041e+02
   2.434715e+01   1.852439e+02
  -5.788653e+01   1.276840e+02
  -1.337469e+02   3.369756e+01
  -8.225645e+01  -9.272360e+01
  -3.530849e+00  -1.429710e+02
   6.263502e+01  -2.568799e+01
   4.277840e+01   2.326525e+01
  -9.353574e-01   3.463330e+01
  -6.483847e+01   9.876775e+00
   3.244008e+01   2.737184e+01
   5.696349e+01   4.757520e+01
   5.314504e+01  -1.340555e+01
  -2.485247e+01   5.324593e+01
  -1.514704e+02   1.383236e+01
  -9.403833e+01  -3.705958e+01
  -2.260745e+00  -3.130458e+01
   7.916907e+01  -6.502058e+01
   1.208499e+02   2.346807e+01
   5.555904e+01   2.959947e+01
  -5.642908e+01   6.769827e+01
  -1.421682e+01  -3.663131e+01
   1.152230e+01  -3.826032e+01
   3.111897e+01  -7.638794e+01
   3.738669e+01  -2.028210e+01
   7.092981e+01   3.058808e+01
   7.174299e+00   1.383466e+01
   4.157762e+01  -2.927196e+01
   2.248017e+01   3.663857e+01
   4.351049e+01   6.311074e+01
  -8.305451e+01   7.777015e+01
  -1.221031e+02   1.189021e+02
  -1.221030e+02  -4.416770e+00
  -9.183218e+01  -8.608576e+01
   3.638284e+01  -8.007728e+01
   8.964788e+01   9.017890e+00
   4.636510e+01  -3.491694e+00
  -3.857884e+01   4.322194e+01
  -7.833755e+01  -2.656768e+01
  -4.964624e+01  -9.375118e+01
   7.976676e+01  -5.863856e+01
   1.071187e+02  -3.106003e+01
   1.071335e+02   2.458271e+01
   1.937907e+01   3.469078e+01
  -4.202142e+01   1.632187e+01
  -5.748686e+00   2.150138e+01
   1.519357e+01  -1.474090e+01
   7.279460e+01   4.313846e+01
   1.291034e+01   5.848019e+01
  -6.504027e+01   1.011883e+02
  -8.259549e+01   3.240267e+01
  -6.673830e+01  -6.317950e+01
   1.006101e+01  -1.005588e+02
   5.567706e+01  -9.929389e+01
   5.290039e+01   1.376529e+01
   1.765291e+01   7.658244e+01
   1.796585e+01   7.957492e+01
  -4.293351e+01   2.393699e+01
   1.792618e+01  -4.232650e+01
   7.342803e-02  -2.212464e+01
  -8.069568e+00   3.684449e+01
   2.101917e+01  -2.970429e+01
  -1.138134e+01  -9.742787e+01
  -2.381847e+01  -7.490075e+01
   3.485178e+01  -4.508906e+01
   8.792229e+01  -7.549274e+00
   4.552861e+01   9.975019e+00
   1.514642e+01   1.145963e+01
  -5.190003e+01   4.188182e+01
  -6.814882e+01   1.807210e+01
   1.619502e+00  -1.867888e+01
  -1.336221e+01   5.927944e+00
   1.028815e+01  -8.383059e+00
  -2.083497e+01  -3.019747e+01
   2.634452e+01   5.911433e+01
   4.185959e+01   1.067670e+01
   8.421018e+01   2.569280e+01
   1.761791e+01   6.337158e+01
  -9.412098e+01   8.732322e+01
  -1.310003e+02   1.247621e+01
  -7.908428e+01  -2.749749e+01
   2.139335e+00  -1.092087e+02
   1.201903e+01  -9.976161e+01
   1.016146e+02  -3.314865e+01
   6.897587e+01   8.022918e+00
   3.392832e+01   4.425842e+00
   2.151790e+01   1.080954e+01
  -3.592063e+01  -7.414507e+00
  -2.527782e+00   4.324028e+01
   4.405896e+01   9.508833e+01
  -2.065569e+01   7.109233e+01
  -6.056753e+01  -1.245804e+01
  -5.929320e+01  -5.085778e+01
  -6.098566e+00  -7.388136e+01
   3.989911e+01   1.129114e+01
   6.341273e+01   5.550036e+01
  -8.672308e+00   9.361756e+01
  -5.650717e+01  -1.020995e+01
  -4.579559e+01   7.542651e-01
  -1.497776e+01  -3.290750e+00
   4.300010e+01  -6.682257e+01
   7.409547e+01  -1.916793e+01
  -2.020036e+01   1.420856e+01
  -5.208833e+01  -1.175741e+01
   2.435018e+01  -2.440464e+01
   4.998195e+01  -4.293611e+01
   9.075630e+01  -3.480326e+01
   4.482945e+01   7.673429e+01
  -3.599623e+01   6.939569e+01
  -4.934746e+01   3.432468e+01
  -5.058911e+01   1.435712e+01
  -9.538323e+00  -1.040092e+01
   4.374193e+01  -3.374751e+01
   2.130596e+01  -7.316865e+00
  -1.754339e+01   9.619654e+00
  -4.402478e+00  -1.840907e+01
   4.859757e+00  -1.215027e+01
  -2.421855e+01  -1.771415e+00
  -4.977851e+01   8.627261e+00
   1.872672e+01   1.704770e+01
  -5.577802e+00  -7.764423e+00
   1.195241e+01  -5.668272e+01
   2.919492e+01  -8.174863e+00
   4.697274e+01  -3.908315e+01
   1.166059e+01   7.365047e+01
   3.135296e+01   6.458757e+01
  -5.460346e+01   1.113826e+01
  -2.943967e+01  -4.035480e+01
  -3.364218e+00  -3.829322e+01
   3.738393e+01  -1.857555e+01
   4.614676e+01  -1.447715e-01
   2.409130e+01   4.266617e+01
  -1.486164e+01   2.241046e+01
  -3.096973e+01   1.730036e+01
   2.348279e+00   5.326243e+01
   3.780245e+01   4.664977e+00
   1.268686e+01  -7.173215e-01
   2.118636e+01   2.077043e-01
  -7.320990e+01   2.733109e+01
