
 $NMID
 id='ANONYMOUS ', fmtdat='(2E16.6)'
 volume=1.0
 tramp=1.0
 $END
   2.963949e+03   5.428007e+02
   1.674129e+03   1.825582e+03
  -4.058490e+02   1.934013e+03
  -1.352841e+03   5.546235e+02
  -4.669014e+02  -6.144235e+02
   5.686203e+02  -3.914575e+02
   6.326572e+02   3.526697e+02
  -4.322644e+01   7.350537e+02
  -5.475314e+02   4.796415e+02
  -6.702336e+02  -1.263349e+02
  -3.092795e+02  -6.420594e+02
   2.306459e+02  -5.875872e+02
   4.476628e+02  -7.037356e+01
   2.263223e+02   5.583778e+02
  -1.943329e+02   4.583395e+02
  -4.191775e+02  -5.159149e+01
  -1.084895e+02  -4.647971e+02
   2.538135e+02  -3.834902e+02
   3.425544e+02  -2.459147e+01
   2.637234e+02   2.758749e+02
   3.683242e+01   3.159221e+02
  -1.404340e+02   1.481502e+02
  -1.160113e+02  -3.333549e+01
   7.739782e+01  -5.928526e+01
   2.715512e+02   1.304673e+02
   1.352075e+02   2.423146e+02
  -3.456134e+02   2.668150e+02
  -5.657195e+02  -1.069034e+02
  -3.437063e+02  -4.028769e+02
   2.891561e+02  -3.442760e+02
   5.442184e+02   4.446407e+01
   2.314164e+02   3.553032e+02
  -2.252634e+02   3.463979e+02
  -4.138450e+02   1.471573e+02
  -2.823075e+02  -1.694685e+02
  -4.146589e+01  -3.198660e+02
   1.350847e+02  -2.385792e+02
   3.996210e+01   1.430286e+02
  -1.444380e+02   3.247541e+02
  -3.449867e+02   1.178025e+01
  -2.297807e+02  -4.715669e+02
   2.206187e+02  -4.509824e+02
   4.240942e+02  -4.983527e+01
   2.316521e+02   3.426260e+02
  -1.653615e+02   2.497367e+02
  -2.320047e+02  -2.620444e+02
   4.987727e+01  -4.145175e+02
   3.877414e+02  -7.492711e+01
   3.785710e+02   3.016288e+02
   7.153118e+01   4.093130e+02
  -2.956004e+02   2.147307e+02
  -4.301548e+02  -8.440137e+01
  -2.424412e+02  -2.728932e+02
   1.072306e+02  -2.308501e+02
   2.977045e+02  -1.417362e+01
   1.316745e+02   1.197175e+02
  -7.321148e+01   7.357807e+01
  -8.531137e+01  -1.203645e+02
   1.371862e+02  -1.077421e+02
   2.335795e+02   4.744912e+01
   9.447638e+01   1.819474e+02
  -1.485049e+02   2.077963e+02
  -2.011439e+02   2.678545e+01
  -1.175266e+02  -4.571300e+01
   2.426897e+01  -1.182505e+02
   1.482858e+02  -2.650241e+02
   2.315971e+02  -1.910235e+02
   2.297425e+02   6.917887e+01
   3.532419e+01   2.884373e+02
  -4.588881e+01   2.356207e+02
  -9.073370e+01   1.131517e+02
  -3.403917e+00  -6.111381e-01
  -1.632826e+01   8.776455e+00
  -1.431327e+02   6.685809e+01
  -2.195930e+02  -6.223806e+01
  -1.171009e+02  -2.134182e+02
   4.093783e+01  -1.545406e+02
   1.166523e+02  -6.977080e+00
   1.103437e+02   1.599165e+02
  -4.293032e+01   1.928072e+02
  -1.850390e+02   5.402417e+01
  -2.802211e+02  -1.673641e+02
  -1.010975e+02  -2.373061e+02
   6.872576e+01  -2.302075e+02
   1.610735e+02  -9.118272e+01
   8.611711e+01  -6.779318e+00
   7.048723e+01  -3.162019e+01
   1.890356e+02  -5.519262e+01
   2.619474e+02   6.296229e+01
   2.360919e+02   1.992036e+02
  -3.734471e+00   2.892177e+02
  -2.818152e+02   2.796542e+02
  -3.409095e+02   1.520109e+02
  -1.956636e+02  -7.508408e+01
  -5.449307e+01  -2.357533e+02
   8.511130e+01  -2.099188e+02
   8.142410e+01  -4.565358e+01
  -7.375964e+01   5.468261e+01
  -1.319425e+02  -7.098871e+00
  -2.036492e+01  -1.149326e+02
   1.603856e+02  -1.241881e+02
   1.557804e+02   7.118556e+01
  -2.804521e+01   1.516388e+02
  -1.508987e+02   3.619606e+01
  -1.466786e+02  -2.035137e+02
  -1.013320e+01  -2.500246e+02
   1.705827e+02  -1.345920e+02
   2.256525e+02   3.865075e+01
   1.682653e+02   1.483057e+02
   8.298818e+01   2.008865e+02
  -5.965025e+01   1.232022e+02
  -1.312204e+02   1.687806e+01
  -3.215398e+01  -7.716817e+01
   1.761697e+01   3.161565e+01
  -1.883427e+00   8.001455e+01
  -7.785395e+01   4.581041e+01
  -1.708762e+02  -1.392010e+01
  -5.898723e+01  -4.687193e+01
   2.357131e+01  -3.986029e+01
   3.041233e+01   6.396719e+01
  -8.608680e+01   7.869937e+01
  -1.730783e+02   2.584307e+01
  -1.535568e+02  -1.162568e+02
  -2.677860e+01  -1.246612e+02
   1.188804e+02  -1.366240e+02
   1.929126e+02  -8.025075e+01
   1.139365e+02   3.644378e+01
   2.685203e-01   8.173508e+01
  -3.287357e+01  -1.405068e+00
   1.520449e+01  -8.935498e+01
   1.109056e+02  -5.316962e+01
   1.683958e+02   8.181488e+01
   3.084406e+01   1.672072e+02
  -8.244617e+01   1.027879e+02
  -9.453865e+01   2.401833e+01
  -5.055917e+01  -3.823689e+01
   8.698340e+00   1.227707e+01
   6.073749e+01  -1.032896e+01
  -4.734126e+01   7.350741e+01
  -1.503420e+02   4.750276e+01
  -1.454903e+02  -8.999721e+01
   1.235004e+01  -1.500269e+02
   1.033298e+02  -1.057880e+02
   1.317303e+02  -7.294369e+00
   1.690928e+01   6.787158e+01
  -9.732773e+01   2.107601e+01
  -6.495890e+01   1.558947e+01
   1.987308e+01   8.734730e+00
   1.757610e+01   8.231286e+00
  -2.094354e+01   1.141915e+01
  -6.567486e+01  -2.621886e+01
  -4.303608e+01  -5.242987e+01
   4.075838e+00  -1.181622e+02
   8.651063e+01  -1.319906e+02
   1.678089e+02  -2.443778e+01
   9.026766e+01   1.027173e+02
   6.692688e+00   1.685724e+02
  -6.670975e+01   1.226669e+02
  -7.663702e+01   2.924686e+01
  -2.701381e+01  -6.721315e+01
  -3.574847e+01  -6.000945e+01
  -3.774002e+01  -4.072469e+00
  -6.132215e+01  -2.053891e+01
  -1.586821e+01  -4.284814e+01
   2.524895e+01  -4.987584e+00
   4.825790e+01  -1.905383e+01
   4.019458e+01   3.094082e+01
  -6.144546e+00   6.070459e+01
  -9.447963e+01   4.344342e+01
  -1.452760e+02  -2.612798e+01
  -7.049931e+01  -1.327617e+02
   4.689101e+01  -1.124707e+02
   1.530788e+02  -4.989212e+01
   1.952433e+02   1.750711e+01
   4.826039e+01   7.899720e+01
  -7.532278e+01   1.144457e+02
  -8.886561e+01   3.669475e+01
  -8.405440e+01   4.373629e+01
  -8.270240e+01   8.852401e+01
  -8.667491e+01   3.757189e+01
  -6.670487e+01  -1.566097e+00
  -5.976650e+01  -1.215235e+02
  -2.692235e+01  -1.774865e+02
   7.161228e+01  -9.888632e+01
   1.041964e+02  -3.809971e+01
   9.921844e+01   1.021132e+02
   1.547328e+01   1.030004e+02
  -4.167359e+01   7.751746e+01
  -5.099558e+01   2.447733e+00
  -2.102003e+01  -7.490435e-01
   2.928673e+01  -2.736954e-01
  -3.096086e+01   5.855203e+00
  -8.047039e+01  -3.349487e+01
   9.348056e-01  -2.942212e+01
   3.814040e+00  -2.699286e+01
   1.197469e+02  -2.190498e+00
   1.112323e+02  -4.204360e+00
   3.175158e+01   8.173423e+01
  -7.388355e+01   5.930821e+01
  -6.967802e+01   2.852022e+01
  -3.682917e+01  -3.074483e+01
   3.710822e+01  -1.847930e+01
   7.756496e+01   4.646661e+00
   1.285751e+01   3.234050e+01
  -3.402187e+01   3.597226e+01
  -5.786253e+01  -4.797414e+00
  -2.383770e+01  -1.221436e+01
  -2.522003e+01  -1.239983e+01
  -5.660974e+01  -5.961109e+00
  -4.636567e+01   1.964993e+01
  -2.278099e+01  -5.112598e+01
   5.645676e+01  -1.152585e+02
   9.685732e+01  -5.362147e+01
   9.672978e+01  -1.292257e+01
   5.857957e+01   3.423747e+01
   3.663721e+01   6.665797e+01
  -3.548707e+01   1.759712e+01
  -3.414474e+01   1.149961e+01
   2.789843e+01  -3.351185e+01
   8.226817e+01   1.529954e+01
   4.019157e+01   4.854157e+01
  -5.146849e+01   5.686954e+01
  -1.503729e+02   2.306523e+01
  -1.103354e+02  -4.105206e+00
   2.276598e+00  -8.194953e+01
   3.321883e+01  -2.216453e+01
   5.380161e+01  -2.477459e+01
  -2.503269e+01  -6.533869e+00
  -7.192733e+01  -5.293759e+01
   2.049822e+01  -8.305214e+01
   8.259774e+01  -9.241736e+01
   9.975930e+01  -2.554638e+01
   7.360842e+01   7.803503e+01
  -2.231412e+01   1.465759e+02
  -6.704001e+01   9.947083e+01
  -8.234495e+01   5.112943e+00
  -1.500275e+01  -9.236673e+01
  -3.746476e+00  -9.742402e+01
   4.448097e+01  -4.387897e+01
   3.995268e+01   4.459003e+01
   4.132391e+01  -3.924612e+01
   3.959718e+01  -3.557585e+00
   4.008509e-02   4.234601e+01
   2.558006e+01   4.955061e+01
   3.624278e+01   4.299422e+01
  -5.062603e+01  -3.928978e+00
  -7.724805e+01  -8.511987e+00
  -8.392526e+01  -6.941313e+01
  -6.009720e+01  -1.896930e+01
   3.532937e+01  -7.801079e+00
   6.013832e+01  -2.636697e+00
   8.813309e+00  -1.211941e+01
  -8.143432e+00   1.003609e+01
  -2.520827e+01  -8.371089e+00
   2.593825e+01   3.741989e+01
  -1.214810e+01  -3.212156e+00
  -2.109976e+01  -7.507294e+00
  -6.729640e+01  -7.625673e+00
   3.700989e+01  -5.006700e+01
   5.662386e+01  -6.011965e+01
   1.161308e+02  -1.819805e+01
   8.725848e+01   2.287629e+01
   1.935961e+01   1.204284e+02
  -6.005548e+01   1.150254e+02
  -7.770498e+01   6.527944e+01
  -6.842336e+01  -1.875062e+01
   6.587932e+00   2.074047e-01
  -2.789831e+00  -3.045999e+00
  -1.408383e+01  -6.022374e+00
  -1.294181e+01  -4.102195e+01
  -2.420233e+01  -7.220119e+01
   2.813998e+01  -9.813727e+00
   7.881746e+01   3.992762e+01
   9.092396e+01   8.549605e+01
  -2.523869e+01   8.494425e+01
  -4.669057e+01   3.651866e+01
  -6.717401e+01  -4.310194e+01
  -7.302008e+01  -6.086394e+01
   1.716523e+01  -2.933416e+01
   8.385143e+01   2.197153e+01
   3.569108e+01   2.902934e+01
  -1.162117e+01   2.573073e+00
  -4.790869e+01   2.455824e+01
   3.225717e+01  -2.143501e+00
   3.676654e+01  -3.289132e+01
   3.416548e+01  -5.828612e+00
  -5.916857e+01   2.583076e+00
  -9.257302e+01   1.881103e+01
  -5.282053e+01  -2.070347e+01
   4.265276e+01  -3.881236e+01
   5.573375e+01  -7.924113e+01
   4.494423e+01   2.135461e+01
  -4.029608e+01  -9.126263e+00
  -2.802097e+01   5.643250e+01
  -3.574866e+01  -1.481537e+01
   5.212405e+00  -4.122967e+01
  -5.170562e+00  -3.261972e+01
  -1.331585e+01   4.109144e+00
   8.732094e+00  -6.554053e+00
   2.665606e+00   2.249626e+00
   3.450313e+01  -3.350833e+01
   2.122567e+00   2.593822e+01
   1.003049e+01   4.742195e+01
  -2.152601e+01   5.077008e+01
  -2.824318e+01   3.534099e+01
  -1.885023e+01  -2.327797e+01
   2.784836e+01  -4.747208e+01
   3.385409e+01   6.946117e+00
   4.973169e+01   8.399231e+00
  -2.041855e+01   2.025504e+01
  -2.415208e+01   2.991223e+01
  -8.245137e+01  -4.769029e+01
  -3.292601e+01  -1.520080e+01
   2.346682e+01  -5.450255e+01
   2.592213e+01  -2.993474e+00
  -8.945218e+00  -6.055615e+00
   3.730022e+00   3.144050e+01
  -2.404335e+01   2.096613e+00
   2.377274e+01  -1.456165e+01
   6.897184e+01  -2.033558e+01
