
 $NMID
 id='ANONYMOUS ', fmtdat='(2E16.6)'
 volume=1.0
 tramp=1.0
 $END
   2.858013e+03  -7.559316e+01
   1.637295e+03   1.348217e+03
   2.660573e+02   1.802771e+03
  -8.404860e+02   1.105962e+03
  -9.198145e+02   3.067186e+02
  -7.997526e+01  -1.001047e+02
   2.615783e+02   1.745148e+01
   5.228120e+01   3.902960e+02
  -3.212420e+02   4.834808e+02
  -4.757001e+02   8.310926e+01
  -4.273737e+02  -3.359753e+02
  -1.078910e+02  -5.574039e+02
   2.009805e+02  -2.173603e+02
   2.356301e+02   2.914137e+02
  -6.641502e+01   4.453227e+02
  -3.359762e+02   1.077304e+02
  -2.886321e+02  -3.478672e+02
   4.908584e+01  -4.800237e+02
   3.288329e+02  -2.786861e+02
   3.916865e+02   1.356821e+02
   1.245626e+02   2.889163e+02
  -8.680002e+01   2.221324e+02
  -3.721802e+01   1.145518e+02
   1.625229e+02   9.699807e+01
   1.474636e+02   2.123293e+02
   1.594691e+01   2.996948e+02
  -3.252738e+02   1.539701e+02
  -5.095508e+02  -1.035313e+02
  -1.766949e+02  -2.620630e+02
   2.284009e+02  -1.283012e+02
   4.157765e+02   1.373122e+02
   1.503802e+02   3.032931e+02
  -2.194492e+02   2.774285e+02
  -3.738299e+02   1.013933e+02
  -2.643090e+02  -7.413180e+01
  -6.772272e+01  -2.469203e+02
  -1.910773e+01  -2.038280e+02
  -1.420743e+01   2.056848e+01
  -1.404034e+02   1.206057e+02
  -1.789367e+02  -9.186409e+01
   1.537707e+01  -3.863542e+02
   1.919390e+02  -3.670251e+02
   2.307096e+02  -5.928011e+01
   1.450769e+02   2.732000e+02
  -1.318072e+02   1.363406e+02
  -1.545385e+02  -1.971172e+02
   1.095001e+02  -3.325663e+02
   3.676002e+02  -6.900724e+01
   4.235482e+02   2.689011e+02
   1.472765e+02   3.722401e+02
  -2.310663e+02   2.218648e+02
  -4.196395e+02  -1.673357e+01
  -3.179666e+02  -1.590120e+02
   1.859110e+01  -2.280165e+02
   2.330257e+02  -1.499557e+02
   2.055601e+02  -3.304578e+01
   3.495729e+01  -4.215557e+00
   3.064479e+00   2.008469e-01
   6.962520e+01  -1.289352e+01
   1.763051e+02   3.530986e+01
   1.261937e+02   1.373741e+02
  -1.422761e+02   2.085831e+02
  -2.786578e+02   1.420979e+02
  -2.468079e+02  -8.210889e+01
  -8.209607e+00  -2.792894e+02
   2.390596e+02  -3.650847e+02
   2.901326e+02  -1.243592e+02
   2.066328e+02   1.050075e+02
   7.529841e+01   2.938431e+02
  -6.901535e+00   2.789146e+02
  -3.600938e+01   1.682769e+02
  -7.499377e+01   1.014268e+02
  -1.130541e+02   9.369980e+01
  -2.106613e+02   4.920589e+01
  -1.782533e+02  -1.417552e+02
  -9.708362e+01  -2.427704e+02
   6.809053e+01  -1.262497e+02
   1.629876e+02   1.938883e+01
   1.327237e+02   1.661022e+02
  -6.983824e+01   2.253700e+02
  -2.123294e+02   4.086478e+00
  -3.040598e+02  -1.354510e+02
  -1.207557e+02  -2.744826e+02
   5.516005e+01  -2.093453e+02
   1.333380e+02  -1.348334e+02
   1.453321e+02  -1.012537e+02
   1.285408e+02  -5.174342e+01
   2.479828e+02  -1.598768e+01
   2.969339e+02   8.323620e+01
   2.527550e+02   2.399149e+02
  -2.579027e+01   3.666927e+02
  -3.167390e+02   3.176784e+02
  -4.292808e+02   1.430676e+02
  -1.919502e+02  -5.002758e+01
  -3.113688e+01  -1.633294e+02
   1.829276e+01  -1.872909e+02
  -1.010793e+01  -2.491971e+01
  -7.960677e+01   1.158269e+01
  -1.242212e+02  -2.039719e+01
  -3.992282e+01  -1.580563e+02
   8.698918e+01  -7.913257e+01
   9.731538e+01   5.193004e+01
  -9.520730e+01   1.028602e+02
  -1.294169e+02  -1.340478e+01
  -1.103764e+02  -2.006589e+02
   1.894428e-01  -2.716538e+02
   2.136693e+02  -2.035285e+02
   3.030825e+02   4.419999e+01
   2.044784e+02   2.163541e+02
   6.088936e+01   2.359795e+02
  -1.038474e+02   1.194684e+02
  -1.525320e+02   3.545376e+00
  -1.106506e+01  -2.029730e+01
   1.973084e+01   1.937916e+01
   9.701119e+00   8.154176e+01
  -1.356290e+02   7.264400e+01
  -1.279016e+02  -1.085024e+02
  -1.171664e+01  -5.436019e+01
   5.507596e+01  -4.268430e+00
   1.353144e+01   9.063000e+01
  -1.551929e+02   8.644397e+01
  -2.482592e+02  -4.026324e+01
  -2.250217e+02  -1.064016e+02
  -2.194640e+01  -2.289994e+02
   1.857605e+02  -2.369321e+02
   2.686164e+02  -7.466009e+01
   1.165282e+02   2.537543e+01
  -4.830619e+01   7.422369e+01
  -6.293869e+01  -1.133667e+01
   7.412783e+01  -5.321320e+01
   1.357232e+02  -5.143330e+01
   1.379384e+02   9.871331e+01
   4.447281e+01   1.487777e+02
  -7.462198e+01   1.493167e+02
  -9.009071e+01   7.849368e+00
  -4.298942e+01  -2.758474e+01
   4.078303e+00   5.896543e+00
   4.812813e+01   9.141923e+01
  -1.023028e+02   1.161045e+02
  -2.054362e+02  -3.686472e+01
  -1.220685e+02  -1.055921e+02
  -3.816152e+01  -1.775548e+02
   1.125225e+02  -1.239975e+02
   1.518279e+02  -6.350339e+01
   6.022183e+01   5.019381e+01
  -3.881684e+01   6.644459e+01
  -2.644592e+01   2.629898e+01
  -3.523429e+01  -1.050962e+01
   1.215827e+01   4.548331e+00
  -1.917658e+01   1.961503e+01
  -7.205510e+01   1.760135e+00
  -1.083294e+02  -7.208900e+01
  -1.518550e+01  -1.673636e+02
   1.224873e+02  -1.176130e+02
   2.271018e+02  -3.652511e+01
   1.481108e+02   1.590559e+02
   2.773799e+01   1.966277e+02
  -8.737596e+01   1.350612e+02
  -1.023156e+02   4.872269e+01
  -6.021905e+01  -4.292759e+01
  -4.247866e+01  -3.503341e+01
  -8.294865e+01  -2.029495e+01
  -4.994386e+01   2.081950e+01
  -3.716145e+01  -8.636976e+01
   2.704690e+01  -6.560460e+01
   8.610734e+01  -1.727716e+01
   7.162518e+01   3.221592e+01
  -2.470808e+01   1.191407e+02
  -1.491964e+02   6.423171e+01
  -1.735611e+02  -7.321371e+01
  -5.467613e+01  -2.142856e+02
   1.146750e+02  -1.554271e+02
   2.110008e+02  -8.237355e+01
   1.763152e+02   4.538261e+01
   7.147614e+01   1.168488e+02
  -2.049679e+01   7.894525e+01
  -4.931263e+01   8.736850e+01
  -5.881557e+01   8.345316e+01
  -6.982002e+01   1.022222e+02
  -1.053972e+02   5.728763e+01
  -1.154073e+02   2.269375e+01
  -9.902673e+01  -1.218424e+02
  -3.691523e+01  -2.039826e+02
   8.032452e+01  -1.515959e+02
   1.347429e+02   2.154624e+01
   7.274409e+01   1.284388e+02
   2.882561e+01   1.120590e+02
  -3.607628e+01   6.001228e+01
  -2.145081e+01  -6.175492e+00
   1.282664e+01  -1.466922e+01
   3.917429e+01  -5.261965e+01
  -2.390433e+00  -1.815823e+01
  -8.659263e+01  -2.597966e+01
  -4.280944e+01  -2.846712e+01
   7.186054e+01  -1.149093e+01
   1.117283e+02  -3.076033e+01
   9.613584e+01   1.287061e+01
  -1.146010e+01   1.244494e+02
  -1.037598e+02   6.559723e+01
  -9.264388e+01   1.915617e+01
  -2.798230e+01  -5.873332e+01
   3.997808e+01  -2.164687e+01
   1.048711e+02   9.132091e+00
  -1.894456e+01   3.949243e+01
  -6.394377e-03  -3.204425e+00
  -5.192771e+01  -1.987618e+01
  -6.425284e+01  -7.212664e+01
  -6.185312e+01  -7.157433e+01
  -3.245494e+01  -1.184108e+01
  -4.639559e+01  -3.013722e+01
  -5.785423e+00  -7.016527e+01
   5.362499e+01  -1.495486e+02
   1.132285e+02  -1.459770e+02
   1.729873e+02  -2.068298e+01
   1.002257e+02   5.536752e+01
  -2.201747e+01   9.320665e+01
  -6.209903e+01   6.001938e+01
  -5.906031e+00  -1.704580e+00
   3.756363e+01   1.319231e+01
   1.197436e+02   2.224183e+01
   6.200095e+01   5.951072e+01
  -7.531731e+01   9.048204e+01
  -1.567152e+02   3.159659e+01
  -1.525275e+02  -3.808565e+01
  -3.598337e+01  -7.728010e+01
   5.644233e+01  -2.996558e+01
   1.836846e+01   4.103951e+00
  -3.823525e+01  -1.210662e+01
  -6.701319e+01  -1.305823e+01
  -3.653523e+01  -7.140235e+01
   8.458856e+01  -1.251544e+02
   1.312543e+02  -7.226570e+01
   1.004241e+02   5.815004e+01
   5.443989e+01   2.303817e+02
  -7.416033e+01   1.432399e+02
  -7.249697e+01   3.016672e+00
  -1.155832e+01  -9.638121e+01
   1.509135e+01  -3.295580e+01
   6.009469e+01   5.767282e+00
   3.038501e+01   1.988713e+01
   1.559472e+01   3.794169e+01
  -2.009411e+01  -1.284235e+01
   4.304136e+01  -2.319721e+01
   6.709060e+01   7.467755e+01
   4.754552e+01   9.540771e+01
  -1.987512e+01   3.817277e+01
  -1.024025e+02  -1.471844e+01
  -1.083047e+02  -4.948173e+01
  -4.730639e+00  -3.533469e+01
   5.286963e+01   9.137024e+00
   7.890633e+01   6.425067e+00
   4.686976e+01   4.629697e+01
  -4.844431e+01   1.550232e+01
  -1.403445e+01   2.150141e+01
   2.846648e+01  -1.099838e+01
   2.410319e+00  -9.617649e+00
  -7.612880e+01  -1.910840e+01
  -8.715634e+01  -1.491275e+00
  -2.341293e+01  -4.963090e+01
   8.083306e+01  -1.090189e+02
   1.658147e+02  -8.037701e+01
   1.281734e+02   3.723902e+01
   4.122867e+01   1.185106e+02
  -4.856604e+01   1.169837e+02
  -9.653923e+01   5.906930e+01
  -3.976065e+01  -4.918427e+01
  -8.854045e+00  -5.927061e+01
   8.833922e+00  -3.928708e+01
   2.122242e+01  -8.462925e+00
  -3.722556e+01  -7.070698e+01
   3.056764e+00  -5.525668e+01
   4.047731e+00  -3.185812e+01
   6.029662e+01   1.560987e+01
   7.107690e+01   7.192566e+01
   5.454678e+00   8.164994e+01
  -5.184680e+01   3.547036e+01
  -1.014982e+02  -6.517534e+01
  -8.405920e+01  -1.054204e+02
   6.078207e+01  -6.134730e+01
   3.348443e+01  -3.208559e+00
   6.417844e+01   7.694407e+01
  -2.732190e+01   3.978855e+01
  -2.152979e+01   1.721092e+01
   1.952397e+01  -2.352841e+00
   6.077987e+01   1.325387e+01
   6.045182e+01   4.489370e+01
  -6.135391e+01   3.819384e+01
  -9.799036e+01   1.150683e+01
  -2.300070e+01  -2.957869e+01
   1.181952e+01  -7.049766e+01
   4.448530e+01  -9.613692e+01
   2.032314e+01  -4.286474e+00
   1.770524e+01   4.966538e+01
   1.166778e+01   6.655007e+01
  -4.718856e+01   2.703830e+01
  -3.400210e+01  -2.284504e+01
   2.190994e+01  -3.086167e+01
   1.885788e+00  -3.436877e+01
   2.447707e+01   4.286577e+01
   5.318838e+01  -3.613121e+01
  -2.749117e+01  -6.477057e+01
  -1.888606e+01  -1.970414e+01
   1.350431e+00   4.011329e+01
   4.298960e+01   5.670832e+00
  -3.757263e+01   1.914557e+01
  -4.457731e+01  -4.411182e+01
  -9.130096e+00  -2.708723e+01
   4.857389e+01  -7.603401e+00
   6.554863e+01   3.678590e+00
   1.596832e+01   6.394446e+01
  -6.772956e+01   3.287757e+01
  -5.782880e+01  -3.838398e+01
  -5.878386e+01  -3.009088e+01
   1.790216e+01  -2.136591e+01
   4.008397e+01   9.424595e+00
   5.097531e+01  -2.149977e+00
  -5.860577e+00   2.604651e+01
  -3.440153e+01   3.143556e+01
   3.880764e+01  -6.960167e+00
   3.336351e+01  -3.490309e+01
