
 $NMID
 id='ANONYMOUS ', fmtdat='(2E16.6)'
 volume=1.0
 tramp=1.0
 $END
  -4.901508e+03   5.713398e+01
  -2.847858e+03  -2.748712e+03
   7.322005e+02  -3.256021e+03
   2.201369e+03  -9.986217e+02
   1.008812e+03   9.190304e+02
  -5.994447e+02   6.456461e+02
  -9.845472e+02  -4.261372e+02
  -3.805685e+01  -1.147606e+03
   8.374856e+02  -8.390272e+02
   9.998559e+02   7.148318e+01
   4.901433e+02   9.489546e+02
  -2.973109e+02   9.429596e+02
  -7.136302e+02   1.192275e+02
  -3.572750e+02  -8.042442e+02
   3.091567e+02  -7.552261e+02
   6.291112e+02   4.121954e+01
   2.513880e+02   7.245629e+02
  -3.891878e+02   6.103674e+02
  -6.095877e+02   9.121314e+01
  -4.206091e+02  -3.447726e+02
  -4.220311e+01  -4.515878e+02
   2.752940e+02  -2.778936e+02
   2.468809e+02  -4.726564e+01
  -1.359131e+02   1.302879e+02
  -4.755979e+02  -1.151928e+02
  -2.545510e+02  -4.419129e+02
   4.549973e+02  -4.513468e+02
   9.042462e+02  -5.512357e+01
   4.556853e+02   5.559906e+02
  -4.240774e+02   4.973745e+02
  -8.529461e+02  -2.342711e+01
  -3.606787e+02  -5.210579e+02
   2.914236e+02  -5.733203e+02
   5.842119e+02  -1.790688e+02
   4.424328e+02   2.777474e+02
   7.890949e+01   5.347974e+02
  -1.854502e+02   3.113390e+02
  -2.685172e+02  -2.007551e+02
   1.806314e+02  -5.326179e+02
   4.599420e+02  -3.695367e+01
   2.651875e+02   7.194460e+02
  -3.395823e+02   7.105683e+02
  -6.542883e+02  -8.898041e+00
  -2.399888e+02  -5.673892e+02
   2.962515e+02  -3.425980e+02
   4.536051e+02   3.480711e+02
  -2.903763e+01   5.590874e+02
  -5.827308e+02   1.555417e+02
  -6.572102e+02  -4.498275e+02
  -1.691651e+02  -5.884525e+02
   4.479536e+02  -3.605816e+02
   6.375526e+02   4.788921e+01
   3.884586e+02   3.848011e+02
  -1.365968e+02   4.051224e+02
  -4.322019e+02   8.363068e+01
  -3.021697e+02  -2.316718e+02
   1.044135e+02  -9.316616e+01
   1.147074e+02   1.137605e+02
  -1.405389e+02   2.306758e+02
  -3.781778e+02  -3.418571e+01
  -1.577418e+02  -3.153411e+02
   1.869605e+02  -2.764361e+02
   3.414785e+02  -6.799711e+01
   2.134949e+02   7.599632e+01
  -1.947084e+01   1.941343e+02
  -2.371700e+02   3.254863e+02
  -3.245777e+02   2.562013e+02
  -2.879405e+02  -1.071070e+02
  -1.293566e+02  -4.630020e+02
   1.088889e+02  -4.395433e+02
   1.682133e+02  -1.721546e+02
   1.981360e+01   4.045361e+01
   1.741734e+01  -9.162069e+01
   1.447477e+02  -9.224183e+01
   2.871781e+02   6.457806e+01
   2.007972e+02   2.919043e+02
  -3.568888e+01   2.973165e+02
  -2.458518e+02   6.946340e+01
  -2.130034e+02  -2.489561e+02
  -3.275189e+01  -3.269087e+02
   2.527644e+02  -1.552790e+02
   3.992362e+02   1.521142e+02
   1.807499e+02   4.010681e+02
  -1.068475e+02   3.361501e+02
  -2.445981e+02   1.261625e+02
  -1.044171e+02  -3.087648e+00
  -1.203873e+02   7.904064e+01
  -2.486085e+02   1.127923e+02
  -3.740483e+02   1.984136e+01
  -3.510248e+02  -3.211073e+02
  -2.695431e+01  -4.446159e+02
   3.533843e+02  -4.357083e+02
   4.990190e+02  -2.005184e+02
   3.717875e+02   9.107844e+01
   5.611747e+01   2.950026e+02
  -1.098031e+02   2.381392e+02
  -5.974503e+01   2.273733e+01
   6.631541e+01  -1.783657e+02
   2.323231e+02  -2.589147e+00
   9.230533e+01   2.264336e+02
  -1.473284e+02   1.781983e+02
  -1.729823e+02  -6.545051e+01
   1.071759e+01  -1.950413e+02
   1.713019e+02  -7.164945e+01
   1.801771e+02   2.893193e+02
   1.734402e+01   3.629997e+02
  -2.067837e+02   2.246906e+02
  -3.302349e+02  -3.497965e+01
  -2.919720e+02  -2.474446e+02
  -1.425538e+02  -2.907648e+02
   8.951714e+01  -1.499577e+02
   1.536913e+02  -2.812339e+01
   9.259985e+01   4.182227e+01
  -7.976260e+01  -4.089595e+01
  -2.551175e+01  -1.486232e+02
   1.228625e+02  -1.227886e+02
   1.853727e+02   5.721560e+00
   7.898578e+01   9.727113e+01
  -9.439833e+01  -1.080304e+01
  -8.822343e+01  -6.052497e+01
   1.222599e+02  -1.029924e+02
   2.762904e+02  -1.869429e+01
   2.853806e+02   1.311740e+02
   2.909540e+00   2.527969e+02
  -1.881455e+02   2.669088e+02
  -2.753222e+02   1.562686e+02
  -1.701511e+02  -4.357089e+01
   4.832976e+00  -1.553649e+02
   1.062879e+02   7.153292e+00
  -7.138943e+01   8.194702e+01
  -1.756606e+02   4.063826e+01
  -2.566817e+02  -8.129174e+01
  -1.279892e+02  -1.928962e+02
   9.284091e+01  -2.077588e+02
   1.979505e+02  -5.338488e+01
   1.000339e+02   4.774675e+01
   3.035516e+00  -6.456069e+00
  -9.243835e+01  -1.152386e+02
   2.769202e+01  -1.256345e+02
   1.398617e+02  -2.240912e+01
   2.060549e+02   9.662550e+01
   6.306163e+01   1.649086e+02
  -1.785173e+02   1.365948e+02
  -1.827734e+02  -1.864742e+01
  -7.828996e+01  -1.180934e+02
   1.049595e+02  -8.655151e+01
   7.410376e+01  -2.472997e+01
   2.360862e+01   2.671182e+01
  -1.503530e+01   1.471725e+01
  -2.277592e+01   5.597238e+00
   5.341390e+01   1.737276e+01
   1.049566e+02   7.151968e+01
   1.913944e+01   1.825687e+02
  -1.389170e+02   1.720274e+02
  -2.031577e+02   6.251317e+01
  -2.066066e+02  -1.084419e+02
  -7.408250e+01  -2.518486e+02
   1.121003e+02  -1.853447e+02
   1.497891e+02  -1.782507e+01
   7.221998e+01   7.090262e+01
   5.328548e+01  -3.231866e+00
   4.085109e+01  -7.278844e+00
   4.997614e+01  -3.145914e+01
   5.872012e+01   5.464693e+01
  -7.771748e+00   6.933025e+01
  -1.071758e+02   7.275563e+01
  -8.371373e+01  -8.325746e+00
  -4.469774e-01  -1.173069e+02
   1.300449e+02  -9.103391e+01
   1.465075e+02   4.607901e+01
   1.235591e+02   1.911629e+02
  -8.627670e+01   2.394917e+02
  -2.331696e+02   1.341212e+02
  -2.972193e+02  -1.049793e+02
  -9.594740e+01  -1.795502e+02
   5.676650e+01  -1.416663e+02
   9.229661e+01  -1.136089e+02
   9.138310e+01  -5.171902e+01
   3.886544e+01  -9.830745e+01
   1.118995e+02  -7.792156e+01
   1.165378e+02   1.192007e-01
   1.318157e+02   1.941895e+02
   8.091902e+00   2.294835e+02
  -5.886936e+01   1.700667e+02
  -1.907923e+02  -5.008240e+00
  -1.451151e+02  -1.212944e+02
  -5.435990e+01  -1.547572e+02
   9.445323e+01  -9.302367e+01
   5.640702e+01  -1.543262e+01
   2.025510e+01   5.174431e+01
  -6.023358e+01   1.318126e+01
   5.749721e+01   2.332141e+01
   1.043504e+02   1.780654e+01
   5.810391e+01   3.501753e+01
  -1.122470e+02   4.052465e+01
  -2.119480e+02   3.581737e+01
  -1.334660e+02  -2.403468e+01
  -6.143698e+01  -9.864566e+01
   1.305170e+02  -9.301455e+01
   1.441624e+02   2.853249e+00
   5.141656e+01   2.064870e+01
  -7.400215e+01   2.700227e+01
  -7.036121e+01  -4.499709e+00
   5.137389e+00  -6.245265e+01
   3.785881e+01  -9.035264e+01
   8.275401e+01   1.658247e+01
   4.850142e+01   6.471938e+01
   4.146182e+01   3.091089e+01
   7.308396e+01  -4.731264e+00
   6.724221e+01  -4.631560e+00
   6.201831e+01   7.202210e+01
  -4.577788e+01   1.170332e+02
  -1.602815e+02   1.282039e+02
  -1.695549e+02   4.335126e+01
  -1.347387e+02  -1.148200e+02
  -3.969392e+00  -9.770710e+01
   9.314767e+01  -4.951102e+01
   6.346789e+01   2.156851e+01
  -6.486537e+01   5.217698e+01
  -1.593295e+02  -4.577894e+01
  -6.167568e+01  -1.001212e+02
   1.029096e+02  -1.038415e+02
   2.012574e+02  -6.550614e+01
   1.569164e+02   8.880595e+00
   3.269052e+01   7.363907e+01
  -8.346000e+01   1.099959e+02
  -1.054531e+01   1.017211e+01
   5.199176e+01   1.861707e+01
   1.093731e+02   8.576152e-01
   3.291314e+01   1.282458e+02
  -7.774315e+01   1.766467e+02
  -1.807892e+02   5.693405e+01
  -1.159738e+02  -6.227294e+01
   3.642328e+00  -1.972025e+02
   6.120580e+01  -1.743969e+02
   1.055270e+02   1.242409e+01
   4.094939e+01   1.193642e+02
  -2.207012e+01   1.139707e+02
  -6.858542e+01  -2.277432e+00
  -7.553919e+01  -7.594971e+01
  -4.003352e+01  -2.808133e+00
   4.083818e+01  -5.366604e+00
  -3.216212e+01   6.063876e+00
  -8.633807e+01  -9.195768e+01
  -4.033003e+01  -1.161106e+02
   4.067707e+01  -5.615182e+01
   1.733894e+02   2.519958e+01
   1.327341e+02   7.317356e+01
  -7.992986e+00   2.991447e+01
  -1.187564e+02   4.738927e+01
  -1.065645e+02  -7.035230e+00
   5.324546e+00   2.156297e+01
   4.484979e+01  -6.241356e+01
   2.362811e+01  -4.996474e+00
   8.050803e+00   2.061105e+00
   2.250572e+01   1.596703e+01
   9.126882e+01   4.174193e+01
   9.916368e+01   7.033854e+01
   1.824216e+01   1.060264e+02
  -8.925010e+01   1.000981e+02
  -1.740594e+02   1.000700e+02
  -1.854875e+02  -7.138065e+01
  -6.456344e+01  -1.406172e+02
   5.872642e+01  -1.707773e+02
   1.056038e+02  -8.466823e+01
   7.732939e+01   3.830324e+01
   2.668154e+01   3.583752e+01
  -3.279025e+00   3.852422e+01
   1.735078e+00  -7.911477e+00
   4.583129e+01   2.722800e+01
   2.056922e+01   7.060131e+01
  -2.605525e+01   1.139422e+02
  -1.077455e+02   5.295571e+01
  -7.332519e+01  -7.580501e+01
  -1.606184e+01  -9.803766e+01
   4.688472e+01  -4.298222e+01
   8.262111e+01   5.003648e+01
   5.295088e+01   1.022157e+02
  -7.258447e+01   4.401332e+01
  -9.387547e+01   1.140239e+01
  -4.566504e+01  -4.253768e+01
   3.651897e+01  -7.440488e+01
   3.497864e+01  -6.318691e+01
  -5.922327e+01   4.279656e+01
  -4.401402e+01  -3.040959e+00
  -8.844780e+00  -1.746707e+01
   9.572706e+01  -8.451260e+01
   8.355811e+01  -7.758658e+01
   7.335558e+01  -1.397613e+00
  -2.640493e+01   7.830814e+01
  -5.305236e+01   1.236514e+02
  -2.517034e+01   2.650402e+01
  -5.631740e-01  -6.124175e+01
   2.620159e+01  -1.694791e+01
   2.876736e+01   2.755718e+01
   3.727103e+01   2.748316e+01
   1.034651e+01   3.192722e+01
  -6.268799e+01  -2.954284e+01
  -5.934721e+01  -3.277506e+01
  -3.299617e+01  -7.005093e+00
  -1.079155e+01  -2.967603e+01
   3.511393e+01   3.402137e+01
  -1.868022e+01   1.560216e+01
   3.591988e+01  -4.906476e+01
   1.690740e+01  -3.835282e+01
   2.695909e+00   2.407047e+01
  -2.101564e+01   4.148018e+01
   9.364385e+00   7.465591e+01
  -6.570010e+01  -9.032341e+01
  -3.646715e+01  -6.916076e+01
   6.737323e+01  -7.156724e+01
   1.075759e+02  -1.919134e+01
   4.212892e+01   4.637868e+01
  -2.992071e+01   3.589383e+01
  -5.135478e+01   4.252126e+01
  -3.375789e+01   2.489774e+01
   3.112841e+00   1.046241e+01
   6.311996e+01   6.318862e+01
  -3.066462e+01   4.528051e+01
  -1.094625e+02  -3.234703e+01
