
 $NMID
 id='ANONYMOUS ', fmtdat='(2E16.6)'
 volume=1.0
 tramp=1.0
 $END
  -2.839294e+03  -1.110037e+01
  -1.665018e+03  -1.356549e+03
  -1.523313e+02  -1.668319e+03
   9.171495e+02  -9.893400e+02
   9.244284e+02  -2.892138e+02
   6.784163e+01   1.595535e+02
  -2.637667e+02  -1.216720e+02
  -7.118166e+01  -4.448826e+02
   2.958335e+02  -4.295787e+02
   5.074785e+02  -9.516050e+01
   4.126061e+02   4.145999e+02
   8.321650e+01   6.034457e+02
  -2.400006e+02   1.756187e+02
  -2.845207e+02  -3.828022e+02
   6.899590e+01  -4.712656e+02
   3.280560e+02  -4.919737e+01
   2.852648e+02   4.031071e+02
  -9.204269e+01   5.194918e+02
  -3.894856e+02   2.476752e+02
  -4.132563e+02  -1.222396e+02
  -1.612182e+02  -2.795630e+02
   7.694887e+01  -2.214353e+02
   4.345111e+00  -8.798772e+01
  -1.243743e+02  -1.590068e+02
  -2.238808e+02  -2.706790e+02
   2.088350e+01  -3.349566e+02
   4.197438e+02  -1.654320e+02
   5.431310e+02   1.486079e+02
   1.213099e+02   3.582104e+02
  -2.728898e+02   1.771275e+02
  -3.856274e+02  -1.691810e+02
  -1.377776e+02  -2.848449e+02
   2.258325e+02  -2.824577e+02
   3.840497e+02  -8.656566e+01
   2.440576e+02   1.466213e+02
   1.007667e+02   3.200913e+02
   2.019313e+01   1.412603e+02
   6.506995e+01  -3.318437e+01
   1.674434e+02  -9.436587e+01
   8.577397e+01   1.348101e+02
   1.426535e+00   4.714900e+02
  -1.754609e+02   3.989306e+02
  -3.157315e+02   6.352684e+01
  -1.251248e+02  -3.171939e+02
   1.342806e+02  -1.923782e+02
   1.275204e+02   2.506851e+02
  -1.397724e+02   3.404627e+02
  -3.809724e+02   3.407902e+01
  -4.156594e+02  -3.648406e+02
  -7.508367e+01  -3.971256e+02
   2.663767e+02  -2.284250e+02
   4.582017e+02   5.943722e+01
   2.776436e+02   1.794861e+02
   1.948635e+01   1.955727e+02
  -2.140804e+02   1.126565e+02
  -1.676983e+02   9.398005e+00
  -4.273047e+01   2.277712e+01
   4.461318e+01   8.754789e+01
  -1.215500e+02   1.906826e+01
  -2.232011e+02  -7.257887e+01
  -9.653824e+01  -2.139661e+02
   1.876556e+02  -2.018173e+02
   3.109781e+02  -1.030790e+02
   2.428628e+02   8.401113e+01
  -2.602257e+01   3.040119e+02
  -2.579346e+02   3.466166e+02
  -3.398105e+02   1.352590e+02
  -1.734579e+02  -1.577610e+02
  -7.279260e+01  -3.030599e+02
   2.770434e+01  -2.874016e+02
  -5.627444e+00  -1.921042e+02
   4.009319e+01  -1.443625e+02
   1.565477e+02  -1.141771e+02
   2.316190e+02  -2.845581e+01
   2.431609e+02   1.041400e+02
   7.787793e+01   2.213724e+02
  -5.373707e+01   1.598551e+02
  -1.555792e+02  -8.411108e-01
  -1.086844e+02  -2.924664e+02
   6.317368e+01  -2.365516e+02
   2.318909e+02  -4.038577e+01
   2.721512e+02   8.703182e+01
   1.627060e+02   2.692855e+02
  -6.028400e+01   2.518250e+02
  -1.944717e+02   1.132662e+02
  -1.391520e+02   5.779917e+01
  -1.562400e+02   3.778216e+01
  -2.370287e+02   1.175182e+01
  -3.683493e+02  -8.733274e+01
  -2.887636e+02  -2.859875e+02
   3.120275e+01  -4.455461e+02
   3.835173e+02  -3.332172e+02
   4.302030e+02  -1.580727e+02
   2.771922e+02   6.580952e+01
   2.631501e+01   2.345970e+02
  -8.608919e+01   1.640314e+02
  -4.063265e+01   4.758438e+01
   8.472542e+01  -1.611316e+01
   1.200315e+02   4.379157e+01
   6.197645e-01   1.288911e+02
  -9.295687e+01   1.102008e+02
  -7.740551e+01  -3.287364e+01
   1.400430e+01  -1.099707e+02
   1.266857e+02  -1.418280e+01
   1.123604e+02   1.925962e+02
  -2.749099e+01   3.005440e+02
  -2.144378e+02   1.979997e+02
  -3.113628e+02  -3.580834e+01
  -2.764849e+02  -2.347755e+02
  -7.027835e+01  -2.644723e+02
   1.554434e+02  -1.240649e+02
   1.838137e+02  -2.853731e+01
   2.395578e+01  -5.757194e+00
  -6.657040e+01  -2.166383e+01
  -5.584238e+00  -9.120763e+01
   1.291040e+02  -1.002685e+02
   1.564366e+02   1.085356e+00
   2.373932e+01   5.888552e+01
  -3.449547e+01  -1.183509e+01
  -1.649041e+01  -1.056880e+02
   1.378179e+02  -7.286867e+01
   2.664786e+02   5.103759e+00
   2.378208e+02   1.926935e+02
   3.249599e+01   2.525634e+02
  -2.054565e+02   2.579787e+02
  -2.678302e+02   8.436309e+01
  -1.379491e+02  -2.779410e+01
   5.393157e+01  -6.682536e+01
   3.027197e+01  -9.869214e+00
  -5.712577e+01   8.704730e+01
  -1.733406e+02   3.313102e+01
  -1.808440e+02  -1.241061e+02
  -6.690025e+01  -1.515894e+02
   8.455006e+01  -1.265627e+02
   1.324190e+02  -2.908545e+01
   2.089953e+00   3.527001e+01
  -5.047896e+01   9.351644e-01
  -4.969372e+01  -7.798572e+01
   8.480755e+01  -6.532935e+01
   1.989786e+02   7.920888e+00
   1.674459e+02   1.341504e+02
   2.770211e+01   1.980045e+02
  -1.308751e+02   1.314153e+02
  -1.307326e+02   4.276191e+01
  -5.631842e+01  -8.996227e+01
   4.870946e+01  -1.018430e+02
   5.992283e+01  -3.580661e+01
  -5.964618e+00   3.862195e+01
  -2.654951e+01   8.409164e+00
  -1.637742e+01  -5.828239e+01
   6.926409e+01   1.292116e+01
   8.540061e+01   8.766042e+01
   4.906216e+00   1.677100e+02
  -1.035719e+02   1.659514e+02
  -2.338553e+02  -3.398026e+01
  -1.380607e+02  -1.480507e+02
  -5.337856e+01  -1.786506e+02
   8.799748e+01  -1.667293e+02
   1.074820e+02  -1.370911e+01
   3.499770e+01   4.012835e+01
   2.050342e+01   3.923646e+01
   6.230361e+01  -3.048160e+01
   7.191596e+01  -1.752779e+01
   3.078103e+01   5.174814e+01
  -5.306157e+01   8.459351e+01
  -1.430491e+02   4.264518e+01
  -1.347563e+02   1.202315e+01
   2.971666e+01  -1.284826e+02
   1.478517e+02  -7.957832e+01
   1.807088e+02   5.851146e+01
   3.400519e+01   1.846376e+02
  -1.261838e+02   1.884272e+02
  -2.136141e+02   7.852198e+01
  -2.234748e+02  -9.354641e+01
  -9.327437e+01  -1.458940e+02
   2.315170e+01  -1.297151e+02
   6.983239e+01  -9.053230e+01
   7.240398e+01  -9.748547e+01
   7.030146e+01  -7.226539e+01
   3.309811e+01  -5.158743e+01
   1.065585e+02   1.156534e+01
   9.833308e+01   1.477903e+02
   6.173255e+01   1.914282e+02
  -7.180764e+01   1.419148e+02
  -1.547285e+02   3.384797e+01
  -1.488831e+02  -8.887855e+01
   2.103776e+01  -1.334775e+02
   6.765462e+01  -4.491027e+01
   4.070485e+01  -1.254376e+01
  -2.315662e+00   6.961262e+01
   8.112380e+00   4.055153e+01
   4.444692e+01   2.453219e+01
   8.190986e+01   3.069524e+01
   6.888921e+01   3.719510e+01
  -6.339539e+01   4.230949e+01
  -1.676944e+02   1.504137e+00
  -1.395648e+02  -3.201923e+01
   9.011185e+00  -8.592277e+01
   1.254143e+02  -5.749345e+01
   1.302523e+02  -2.823583e+01
   1.727873e+01   7.272920e+01
  -6.330355e+01   1.465208e+01
  -9.443096e+01  -3.875466e+01
  -7.598034e+00  -3.482101e+01
   3.062408e+01  -5.228738e+01
   5.934578e+01  -1.903964e+01
   4.009068e+01   6.808322e+01
   3.968677e+01   3.359282e+01
   7.756501e+01   2.487209e+00
   6.210143e+01   1.917363e+01
   7.684254e+01   9.505279e+01
  -5.494797e+00   1.483165e+02
  -1.118981e+02   1.366318e+02
  -1.251819e+02   1.331058e+01
  -1.179025e+02  -6.717802e+01
  -1.668737e+01  -1.396677e+02
   1.098030e+02  -5.383065e+01
   1.198003e+01  -1.379429e+01
  -7.520971e+01   6.002087e+00
  -1.112950e+02  -5.909186e+00
  -4.183281e+01  -6.714924e+01
   5.918846e+01  -9.951330e+01
   1.434496e+02  -3.943246e+01
   1.317529e+02  -1.254674e+01
   2.491050e+01   7.826969e+01
  -7.530883e+01   2.321516e+00
  -3.850332e+01   2.839085e+01
   4.601536e+01  -1.685467e+01
   8.570270e+01   6.401195e+01
   2.611906e+01   1.052709e+02
  -8.259087e+01   1.471332e+02
  -1.298804e+02   6.818594e+01
  -1.268353e+02  -1.129368e+02
  -3.027926e+00  -2.155702e+02
   6.724355e+01  -1.169810e+02
   1.251117e+02   1.056437e+01
   5.925303e+01   1.266979e+02
  -3.115185e+01   1.049658e+02
  -3.249985e+01   6.913928e+00
  -1.167672e+01  -2.322572e+01
   4.748823e+00   1.776685e+01
  -6.720743e+00   8.200608e-01
  -1.983957e+01  -4.411512e+01
  -3.556329e+01  -8.989365e+01
  -1.007843e+01  -1.313270e+02
   5.840785e+01  -3.177538e+01
   1.247759e+02   3.245835e+01
   1.128790e+02   7.636421e+00
   2.544210e+01   3.835794e+01
  -6.653210e+01   5.179762e+01
  -7.177123e+01   4.086979e+01
  -2.428615e+01  -2.514869e+01
   6.317927e+01  -4.851079e+01
  -3.786361e+01  -1.863368e+00
   3.153548e+01   1.085582e+00
   9.874359e+00  -9.249164e+00
   9.875287e+01   1.152007e+01
   1.212875e+02   3.165359e+01
   4.217421e+01   4.022338e+01
  -1.126428e+02   1.244044e+02
  -2.155477e+02   6.021655e+01
  -1.537365e+02  -5.521801e+01
  -4.279459e+01  -1.332931e+02
   8.284589e+01  -1.220505e+02
   1.004497e+02  -3.843549e+01
   4.589622e+01   1.303091e+01
   1.474023e+01   5.991055e+01
   2.075299e+01   5.606196e+00
   8.003081e+00   1.761592e+01
   1.460165e+01   7.860278e+01
  -1.830936e+01   8.209620e+01
  -3.125345e+01   7.285730e+01
  -8.715607e+01  -6.327987e+00
  -7.737264e+01  -6.495938e+01
  -1.117780e+01  -9.448527e+01
   4.224627e+01  -3.801194e+01
   8.742857e+01   5.506117e+01
   2.131957e+01   7.982133e+01
  -6.445240e+01   6.283522e+01
  -8.055638e+01  -1.309685e+01
  -7.817760e+01  -6.321627e+01
   1.559226e+01  -6.237378e+01
   8.577780e+01  -4.125243e+01
  -3.151102e+01   1.170250e+01
  -2.912985e+01  -3.630477e+00
  -1.558302e+01  -4.278322e+01
   1.034620e+02  -1.098010e+02
   1.132282e+02  -6.391949e+01
   4.350773e+01   1.014889e+01
   1.291185e+01   8.060024e+01
  -8.113951e+01   1.430309e+02
  -7.619948e+01   8.342631e+00
  -7.365302e+00  -8.828246e+01
   5.668176e+01  -3.174201e+01
   1.413887e+01   1.179770e+01
   2.014897e+01   7.397299e+01
   7.393264e+00   6.458501e+01
  -8.245306e+00   1.770601e+00
  -6.601366e+01  -2.550905e+01
  -4.780094e+01  -5.399285e+00
  -2.555694e+01   4.764589e+00
   5.162069e+00   7.401214e+00
   1.159175e+01  -2.295593e+01
  -1.597621e+01  -2.370937e+01
   1.133244e+01  -2.881889e+01
   2.881382e+01   2.336501e+01
   1.221937e+00   6.633634e+01
  -4.399480e+01  -3.243251e+00
  -4.907634e+01  -2.041000e+01
  -5.073757e+01  -7.164780e+01
   4.515318e+01  -4.624782e+01
   8.690724e+01  -1.667305e+01
   7.334924e+01   3.866675e+01
  -4.041605e+01   2.188162e+01
  -6.613086e+01   6.922021e+01
  -1.828475e+01   1.296990e+01
   5.262780e+00  -2.175077e+01
   4.501806e+01  -2.287030e+01
  -2.846894e+01   1.344460e+01
  -9.704330e+01   7.436735e+01
