
 $NMID
 id='ANONYMOUS ', fmtdat='(2E16.6)'
 volume=1.0
 tramp=1.0
 $END
   3.929102e+03  -5.504087e-01
   2.423318e+03   1.917917e+03
  -4.488240e+02   2.519528e+03
  -1.795702e+03   9.869337e+02
  -9.305894e+02  -3.069576e+02
   3.784177e+02  -4.639381e+02
   6.923882e+02   2.972597e+02
  -6.664856e+01   7.999886e+02
  -6.371972e+02   7.092667e+02
  -7.691090e+02  -7.123735e+01
  -4.385203e+02  -7.123401e+02
   1.855886e+02  -7.302327e+02
   5.261198e+02  -1.458607e+02
   2.744412e+02   5.401414e+02
  -1.949725e+02   6.040993e+02
  -5.148431e+02   4.752756e+01
  -2.940627e+02  -5.627082e+02
   2.370206e+02  -6.033703e+02
   5.700829e+02  -1.721079e+02
   4.217728e+02   2.539378e+02
   4.684387e+01   4.305077e+02
  -2.090244e+02   2.593487e+02
  -1.670622e+02   9.013399e+00
   1.078709e+02  -1.205837e+01
   3.564094e+02   1.796010e+02
   1.308009e+02   3.474472e+02
  -4.364304e+02   2.821235e+02
  -6.717923e+02  -8.393216e+01
  -3.099042e+02  -4.434620e+02
   3.594975e+02  -3.460934e+02
   6.639058e+02   8.200562e+01
   3.266935e+02   3.528212e+02
  -2.285982e+02   4.499120e+02
  -4.893317e+02   1.894897e+02
  -3.802669e+02  -1.784726e+02
  -7.691000e+00  -4.521641e+02
   7.774103e+01  -2.185349e+02
   8.153404e+01   1.894354e+02
  -1.407350e+02   3.761793e+02
  -3.306657e+02  -1.031030e+02
  -1.593803e+02  -5.944551e+02
   2.527933e+02  -5.894636e+02
   5.080734e+02   2.565485e+01
   2.052918e+02   4.285321e+02
  -2.489797e+02   2.608442e+02
  -3.150805e+02  -2.556584e+02
   6.848726e+01  -4.304919e+02
   4.670949e+02  -1.212276e+02
   5.361851e+02   3.588422e+02
   1.861733e+02   5.164167e+02
  -3.036624e+02   2.817287e+02
  -5.824039e+02  -7.980353e+01
  -3.360638e+02  -2.682235e+02
   1.379213e+02  -3.041829e+02
   3.711107e+02  -5.249899e+01
   2.183922e+02   1.236951e+02
  -5.780981e+01   7.820595e+01
  -1.093663e+02  -9.151490e+01
   1.572253e+02  -1.443043e+02
   2.951855e+02   6.420698e+01
   1.628339e+02   2.781986e+02
  -1.991875e+02   2.456445e+02
  -3.050617e+02   1.027045e+02
  -1.993564e+02  -2.795489e+01
   2.692966e+01  -2.866362e+02
   2.584112e+02  -3.260076e+02
   3.612425e+02  -1.495554e+02
   2.428210e+02   1.501856e+02
   5.921721e+01   3.847146e+02
  -6.031052e+01   3.360619e+02
  -7.975155e+01   1.495769e+02
  -1.870996e+01   3.761112e+01
  -7.355582e+01   1.210869e+02
  -2.208770e+02   8.023075e+01
  -2.778186e+02  -4.801411e+01
  -1.723363e+02  -2.363569e+02
   7.741310e+01  -1.771427e+02
   2.196254e+02   8.178584e-02
   1.893118e+02   2.263913e+02
  -3.908645e+01   2.532252e+02
  -2.678179e+02   1.037966e+02
  -3.128883e+02  -1.705520e+02
  -1.703956e+02  -2.857459e+02
   4.553245e+01  -2.825850e+02
   1.859966e+02  -1.278386e+02
   1.002745e+02  -6.795608e+01
   1.256807e+02  -6.260519e+01
   2.564827e+02  -5.691160e+01
   4.421852e+02   7.457808e+01
   3.026400e+02   3.102051e+02
  -1.655163e+01   4.438931e+02
  -3.293587e+02   4.087171e+02
  -4.422736e+02   1.814329e+02
  -2.832042e+02  -1.105077e+02
  -7.544506e+00  -2.520592e+02
   1.128255e+02  -1.859611e+02
   6.382523e+01  -1.362301e+01
  -1.325659e+02   3.512913e+01
  -1.700080e+02  -2.215417e+01
  -1.604988e+01  -1.850127e+02
   1.823996e+02  -1.705831e+02
   1.339292e+02   4.668518e+01
   3.318358e+01   1.831376e+02
  -1.586298e+02   7.219173e+00
  -1.616308e+02  -2.444112e+02
   4.452957e+01  -3.597867e+02
   2.380631e+02  -2.097106e+02
   2.856216e+02   6.070202e+01
   2.897899e+02   2.422349e+02
   6.108270e+01   2.306561e+02
  -1.150378e+02   1.780086e+02
  -1.433890e+02  -7.516431e-01
  -6.253269e+01  -3.802064e+01
   1.023441e+02   2.759093e+01
   3.422560e+01   1.375649e+02
  -1.089791e+02   5.737245e+01
  -1.973417e+02   3.515881e-01
  -5.866546e+01  -6.470224e+01
   1.285538e+02   5.396013e-01
   3.601859e+01   6.322482e+01
  -1.349911e+02   1.156550e+02
  -2.379675e+02  -1.626136e+01
  -2.516353e+02  -1.349514e+02
  -6.333864e+01  -2.458263e+02
   1.870160e+02  -2.467270e+02
   2.607974e+02  -1.092328e+02
   1.681228e+02   4.173036e+01
  -6.564222e+00   6.242908e+01
  -6.269605e+01  -4.091455e+01
   5.065173e+01  -8.937086e+01
   2.033310e+02  -6.046442e+01
   1.889581e+02   1.154262e+02
   8.430904e+01   1.827660e+02
  -9.838771e+01   1.084606e+02
  -1.006193e+02  -1.672486e+01
  -4.186274e+01  -3.179097e+01
   3.933809e+01   4.349744e+01
   1.103014e+01   6.593047e+01
  -7.887022e+01   1.031031e+02
  -2.184425e+02   4.495149e+01
  -1.736242e+02  -1.265947e+02
  -2.104616e+01  -1.818967e+02
   1.437889e+02  -1.645990e+02
   1.920538e+02   9.851863e+00
   9.227436e+01   8.847729e+01
  -4.374323e+01   1.139779e+02
  -6.601433e+01   3.728034e+01
  -2.961259e+01  -2.202289e+01
   1.119971e+01  -2.098804e+01
   8.447872e+00  -1.102844e+01
  -7.819732e+01  -2.096445e+01
  -5.849089e+01  -6.792600e+01
  -7.123755e+00  -1.281317e+02
   1.347872e+02  -1.459339e+02
   2.197455e+02  -5.410742e+01
   1.582090e+02   1.492399e+02
   5.244612e+01   2.089402e+02
  -1.269188e+02   1.767253e+02
  -1.446205e+02   1.096375e+01
  -4.174967e+01  -7.323998e+01
  -5.600522e+01  -6.455757e+01
  -5.059014e+01  -2.920294e+01
  -6.281912e+01  -4.863615e+00
  -3.059596e+01  -3.324488e+01
   3.356785e+01  -9.349842e+01
   1.398840e+02  -4.917936e+01
   1.204061e+02   1.692489e+01
  -7.848793e+00   9.639630e+01
  -1.247187e+02   4.989631e+01
  -1.739079e+02  -3.761401e+01
  -8.888266e+01  -2.046588e+02
   9.061852e+01  -2.109652e+02
   2.285775e+02  -9.512223e+01
   2.185875e+02   8.474218e+01
   1.253390e+02   1.539799e+02
  -3.429606e+01   1.438797e+02
  -1.156513e+02   9.301671e+01
  -4.187338e+01   7.857943e+01
  -4.022527e+01   8.016822e+01
  -9.165127e+01   3.325218e+01
  -8.557913e+01   8.052962e+00
  -1.030606e+02  -1.322867e+02
  -3.936947e-01  -1.730079e+02
   6.534280e+01  -1.199913e+02
   1.377506e+02  -5.292332e+01
   1.217876e+02   1.297216e+02
   3.877723e+01   1.317245e+02
  -6.640132e+01   7.980658e+01
  -4.712155e+01  -3.898124e+00
   4.357097e+00  -6.937513e+01
   3.174757e+01  -4.554128e+00
   8.410618e+00  -3.640610e+01
  -8.589678e+01  -8.452130e+00
  -2.338681e+01  -4.024104e+01
   9.606479e+01  -1.876897e+01
   1.617749e+02   1.329221e+01
   1.690462e+02   2.335787e+01
   3.756821e+01   9.899472e+01
  -1.200930e+02   7.653927e+01
  -1.636819e+02   3.913864e+01
  -6.314544e+01  -2.891987e+01
   3.166503e+01  -3.238568e+01
   7.272402e+01   4.127592e+01
   2.786739e+01   5.949607e+01
  -5.598200e+00   4.378150e+01
  -7.020030e+01  -1.948940e+00
  -5.429637e+01  -8.917175e+01
  -5.817722e+01  -5.639367e+01
  -4.560669e+01  -2.546384e-01
  -6.618613e+01  -2.052985e+01
  -6.377960e+00  -9.060645e+01
   2.355256e+01  -1.226297e+02
   1.305360e+02  -1.155377e+02
   1.493336e+02  -2.449105e+01
   1.340861e+02   5.781835e+01
  -2.249869e+01   1.097809e+02
  -8.699081e+01   6.693927e+01
  -5.450168e+01  -3.485448e+01
   5.098093e+01  -3.359892e+01
   1.352505e+02   2.312006e+01
   1.040126e+02   1.000666e+02
  -7.874657e+01   1.129540e+02
  -1.479235e+02   8.692189e+01
  -2.032017e+02  -6.975626e+01
  -4.398657e+01  -8.402720e+01
   2.925355e+01  -8.212627e+01
   5.752469e+01   2.988116e+01
  -6.915800e+00  -6.836151e+00
  -6.611108e+01   4.530639e+00
  -1.439643e+01  -9.963169e+01
   6.698187e+01  -1.847768e+02
   1.978021e+02  -5.287542e+01
   9.842461e+01   6.890221e+01
  -9.584111e+00   2.085192e+02
  -1.074352e+02   1.247245e+02
  -7.727872e+01  -1.325911e+01
  -3.711673e+01  -9.777099e+01
  -2.098731e+01  -4.135954e+01
   5.276084e+01  -3.273317e+00
   3.417584e+01   1.847168e+00
   4.570716e+01   4.603175e+00
  -3.745382e+00  -6.055952e+01
   2.323434e+00   6.075634e+00
   5.405215e+01   8.060539e+01
   3.532223e+01   1.250189e+02
  -3.577656e+01   3.119244e+01
  -1.262346e+02  -2.177363e+01
  -1.094360e+02  -7.982828e+01
  -1.225329e+01  -2.002018e+01
   8.177999e+01  -2.852914e+01
   1.135268e+02   7.303744e+00
   2.183520e+01  -2.665128e+00
  -6.596821e+01   2.938463e+01
   2.216896e+01   1.799405e+00
   3.278910e+01  -2.259706e+01
  -1.886919e+01   7.356877e+00
  -4.530515e+01  -1.621355e+01
  -1.012665e+02  -5.646094e+01
  -2.055716e+01  -9.269030e+01
   1.167696e+02  -1.423331e+02
   1.700217e+02  -6.931656e+01
   1.338107e+02   8.645120e+01
   3.173882e+01   1.113888e+02
  -6.428360e+01   1.408592e+02
  -1.114980e+02   5.683693e+01
  -5.665737e+01  -2.716478e+01
  -1.361918e+01  -1.566115e+01
   4.638111e+00   1.269262e+01
  -2.918292e+01   1.816398e+01
  -4.305217e+01  -7.518755e+01
  -4.900502e+01  -1.059262e+02
   4.439501e+01  -5.037212e+01
   7.893793e+01   3.311251e+01
   8.813951e+01   8.828765e+01
   1.446300e+01   9.940786e+01
  -6.021057e+01   2.050731e+01
  -7.394913e+01  -8.987397e+01
  -5.054715e+01  -1.019591e+02
   7.122110e+01  -7.011505e+01
   6.240760e+01   1.692037e+01
   4.931782e+01   6.231637e+01
  -4.373523e+01   6.526797e+01
  -3.721101e+01   3.320549e+01
   4.387145e+01   5.840681e+00
   7.975910e+01  -1.903040e+01
   3.287045e+01   2.962320e+01
  -6.722234e+01   7.319343e+01
  -7.607905e+01   3.105022e+01
  -1.103189e+02  -1.691170e+01
   2.727892e+01  -1.115175e+02
   3.706640e+01  -6.081632e+01
   7.043868e+01  -3.443873e+01
  -1.861610e+01   4.287259e+01
  -1.442461e+01   3.885789e+01
  -4.071688e+01  -2.847283e+01
  -1.577855e+01  -6.964620e+01
   2.083276e+01  -3.885304e+01
   7.448368e+01  -9.734674e+00
   5.539001e+01   3.279464e+01
  -1.215419e+01   1.760762e+01
  -6.976906e+00   4.672341e+01
   8.561000e-01  -2.020849e+01
   5.620550e+00   7.114806e+01
  -1.258043e+01   2.014499e+01
  -1.969983e+00   3.406299e+01
  -6.767388e+00  -2.124904e+00
  -3.367970e+01  -6.442215e+01
   3.213917e+01  -4.558609e+01
   3.257448e+01   3.492276e+01
   2.792255e+01   6.824173e+01
  -4.966146e+01   3.286927e+01
  -9.862711e+01  -4.106353e+01
  -5.953016e+01   1.820421e+00
   2.437670e+01  -7.596970e+01
   2.414205e+01   1.541092e+00
   2.663705e+01  -6.328567e-01
  -2.671261e+01   2.874476e+01
  -5.146795e+01  -6.669816e+00
   1.945052e+01  -3.642332e+01
   9.283308e+01  -3.341754e+01
