
 $NMID
 id='ANONYMOUS ', fmtdat='(2E16.6)'
 volume=1.0
 tramp=1.0
 $END
  -4.490861e+03   2.551861e+02
  -2.592021e+03  -2.947584e+03
   9.748150e+02  -2.910586e+03
   2.218798e+03  -8.125597e+02
   1.017284e+03   7.684026e+02
  -8.551550e+02   5.576162e+02
  -9.405097e+02  -4.845153e+02
   2.996332e+01  -1.102644e+03
   8.671281e+02  -8.772520e+02
   9.352111e+02   1.227703e+02
   3.716226e+02   8.937334e+02
  -2.983715e+02   8.756532e+02
  -6.716496e+02   1.042653e+02
  -3.462325e+02  -7.416765e+02
   2.927720e+02  -7.411755e+02
   6.082545e+02   6.336949e+01
   2.641522e+02   6.679821e+02
  -3.559210e+02   6.343879e+02
  -6.071636e+02   6.819796e+01
  -3.358734e+02  -3.428189e+02
   9.830579e+00  -4.189490e+02
   2.565395e+02  -2.645147e+02
   2.371049e+02   3.135577e+01
  -1.320585e+02   8.584400e+01
  -4.550408e+02  -1.084640e+02
  -1.844621e+02  -3.989103e+02
   4.863170e+02  -4.281716e+02
   8.770090e+02   8.659180e+01
   4.658487e+02   6.002381e+02
  -4.349394e+02   5.321610e+02
  -8.335207e+02  -5.012096e+00
  -3.910766e+02  -4.825377e+02
   2.904268e+02  -5.879581e+02
   5.552785e+02  -1.947140e+02
   4.527953e+02   2.491588e+02
   7.832905e+01   4.860115e+02
  -2.532100e+02   2.772642e+02
  -1.817383e+02  -1.813987e+02
   1.334415e+02  -4.202375e+02
   4.450752e+02   7.016951e+01
   2.349669e+02   7.372074e+02
  -3.211590e+02   6.821086e+02
  -5.876635e+02  -5.827711e+01
  -2.728561e+02  -5.570109e+02
   2.970363e+02  -3.311410e+02
   3.404469e+02   3.566601e+02
  -2.767503e+01   5.674979e+02
  -5.860789e+02   1.615128e+02
  -5.499886e+02  -4.098631e+02
  -1.479823e+02  -6.071133e+02
   3.408002e+02  -3.569932e+02
   6.402964e+02   7.989156e+01
   3.777122e+02   4.059382e+02
  -1.747305e+02   3.998672e+02
  -4.534881e+02   7.763130e+01
  -2.590887e+02  -2.351196e+02
   1.448133e+02  -1.228962e+02
   1.650769e+02   1.595707e+02
  -2.054949e+02   2.209018e+02
  -3.524358e+02  -5.727916e+01
  -1.392776e+02  -3.321956e+02
   1.600472e+02  -2.477743e+02
   3.550017e+02  -5.287071e+01
   1.862474e+02   5.305609e+01
  -2.175778e+01   2.007427e+02
  -2.353919e+02   3.737864e+02
  -3.422042e+02   2.464665e+02
  -3.171188e+02  -1.303903e+02
  -1.101861e+02  -4.351801e+02
   1.352592e+02  -3.338846e+02
   1.025389e+02  -7.724394e+01
  -2.213172e+01   5.240797e+01
   3.305049e+01  -9.302572e+01
   2.132407e+02  -1.627868e+02
   2.725296e+02   8.224153e+01
   2.027095e+02   2.581081e+02
  -6.359098e+01   2.546408e+02
  -2.244731e+02   4.708620e+01
  -2.255147e+02  -2.130092e+02
   1.352377e+01  -2.762965e+02
   2.439543e+02  -1.209128e+02
   3.676496e+02   1.781131e+02
   2.233297e+02   3.713161e+02
  -1.096271e+02   3.340220e+02
  -2.467336e+02   1.140512e+02
  -1.816974e+02   2.208821e+01
  -5.944382e+01  -4.418947e+00
  -2.004162e+02   7.883825e+01
  -3.428161e+02  -1.894373e+01
  -3.259577e+02  -2.483539e+02
  -3.534332e+01  -4.073479e+02
   3.091132e+02  -4.138513e+02
   4.978717e+02  -1.699870e+02
   3.794870e+02   7.357949e+01
   9.105995e+01   2.979833e+02
  -1.352813e+02   2.871251e+02
  -1.139981e+02   1.306027e+01
   1.367568e+02  -1.741864e+02
   2.137184e+02  -4.432339e+01
   6.158435e+01   1.826773e+02
  -1.977777e+02   1.839596e+02
  -1.799934e+02  -1.824584e+01
   3.776473e+01  -2.049448e+02
   1.927028e+02  -1.347371e+01
   1.545052e+02   2.718731e+02
   1.127780e+01   3.399504e+02
  -2.173971e+02   2.022349e+02
  -3.013653e+02  -5.136104e+01
  -2.834807e+02  -2.236286e+02
  -1.068365e+02  -2.747601e+02
   1.180310e+02  -1.827711e+02
   1.949651e+02  -2.263903e+01
   3.457015e+01   2.796450e+01
  -7.520520e+01  -6.808274e+01
   3.477721e+00  -1.344725e+02
   1.140394e+02  -1.184994e+02
   2.287797e+02  -1.882686e+01
   7.615674e+01   5.279535e+01
  -8.492870e+01   4.874550e+01
  -4.776072e+01  -4.412987e+01
   1.053654e+02  -8.493836e+01
   2.205931e+02  -1.770662e+01
   2.489168e+02   1.017355e+02
   4.427294e+01   2.223556e+02
  -1.386144e+02   2.453007e+02
  -2.882312e+02   1.380062e+02
  -1.362028e+02  -4.933176e+01
   7.795594e+00  -1.046743e+02
   7.837552e+01   2.726543e+00
  -3.193590e+01   9.886464e+01
  -1.990687e+02   5.015874e+01
  -2.361432e+02  -1.370460e+02
  -6.276209e+01  -1.988517e+02
   1.325024e+02  -1.905799e+02
   1.417171e+02  -5.034446e+01
   9.697760e+01   5.367359e+01
  -1.362883e+01  -2.375939e+00
  -3.299663e+01  -8.790406e+01
   7.708499e+01  -1.077011e+02
   2.079231e+02  -1.037660e+01
   1.764878e+02   1.314048e+02
   2.207644e+01   1.862710e+02
  -1.628843e+02   1.592443e+02
  -1.723562e+02   1.383222e+01
  -6.008492e+01  -1.207711e+02
   8.065333e+01  -8.614694e+01
   5.239899e+01  -1.956619e+01
   4.642261e+01   7.195414e+01
  -2.660106e+00   2.347112e+01
  -1.564055e+01  -5.184307e+01
   4.831741e+01   1.909358e+01
   9.357513e+01   1.978037e+01
   1.457408e+01   1.306241e+02
  -1.327253e+02   1.431890e+02
  -2.352347e+02   2.487145e+01
  -1.680394e+02  -1.725920e+02
  -4.418924e+01  -2.698311e+02
   1.213294e+02  -1.635661e+02
   1.527197e+02  -2.218812e+01
   6.972540e+01   6.452141e+01
   1.570886e+00   1.434947e+01
   6.138620e+01  -6.567616e-01
   6.445345e+01  -1.932200e+01
   3.970462e+01   7.744022e+01
  -4.449777e+01   1.254212e+02
  -6.603882e+01   5.270263e+01
  -1.048449e+02  -6.567978e+01
   5.496018e+01  -1.014578e+02
   1.445468e+02  -8.866441e+01
   2.045797e+02   1.826433e+01
   9.346528e+01   1.397343e+02
  -8.777069e+01   2.162956e+02
  -2.532358e+02   1.061817e+02
  -2.715190e+02  -7.713966e+01
  -1.141422e+02  -1.865959e+02
   6.324226e+01  -1.585083e+02
   8.069115e+01  -8.913107e+01
   5.280758e+01  -4.264848e+01
   7.624025e+01  -8.277106e+01
   6.158272e+01  -6.025737e+01
   7.861418e+01  -3.169011e+00
   9.252057e+01   1.348979e+02
   3.892894e+01   2.365088e+02
  -1.093741e+02   1.861932e+02
  -1.500501e+02   1.668243e+01
  -1.566057e+02  -1.048864e+02
  -4.596239e+01  -1.711779e+02
   6.100300e+01  -9.038886e+01
   4.585416e+01  -2.257436e+01
   4.874373e+01   5.862678e+00
   1.417786e+01   4.120825e+01
   7.707568e+01  -1.896636e+01
   1.015573e+02  -1.525004e+01
   5.221853e+01   4.953048e+01
  -6.175852e+01   8.159827e+01
  -1.293734e+02  -2.357667e+01
  -1.193387e+02  -1.471392e+01
  -1.373259e+01  -7.893592e+01
   1.003683e+02  -6.656923e+01
   1.671464e+02  -1.222435e+01
   3.718155e+01   4.120896e+01
  -8.204042e+01   3.249969e+01
  -7.261176e+01   1.174646e+01
  -1.065029e+01  -5.764765e+01
   5.379080e+01  -5.552392e+01
   8.213231e+01  -2.060550e+01
   5.889318e+01   4.308687e+01
   3.309036e+01   4.274598e+01
   7.452730e+01   2.497474e-02
   2.901351e+00   1.482026e+01
   3.022842e+01   7.195415e+01
  -3.408473e+01   1.272016e+02
  -8.761355e+01   1.131628e+02
  -1.268219e+02   2.072093e+01
  -1.295971e+02  -7.056882e+01
  -3.819562e+00  -7.986594e+01
   1.143460e+02  -2.015231e+01
   5.938863e+01   8.918975e+00
  -5.595370e+01   1.025186e+01
  -1.442598e+02  -6.235925e+01
  -6.871820e+01  -8.223922e+01
   5.292127e+01  -4.822232e+01
   1.574940e+02  -6.206395e+01
   1.308625e+02   3.037968e+01
   3.519742e+01   9.634428e+01
  -6.284257e+01   7.281674e+01
  -6.116242e+01   3.660303e+01
   4.235941e+01  -5.452795e+01
   1.022662e+02   4.749239e+01
   2.018785e+01   1.035554e+02
  -6.431052e+01   1.121451e+02
  -1.484710e+02   3.903468e+01
  -7.915490e+01  -1.051418e+02
   2.165402e+01  -1.665438e+02
   8.841102e+01  -1.393938e+02
   1.085569e+02  -1.267345e+00
   4.475237e+01   1.110990e+02
   7.671969e+00   1.196984e+02
  -3.372066e+01   2.928799e+01
  -2.693062e+01  -4.109086e+01
  -3.330828e+01  -3.371296e+01
  -1.524472e+01   3.743724e+01
   3.870492e+00  -3.595789e+01
  -7.328253e+01  -1.212281e+02
  -1.563340e+01  -1.156239e+02
   4.560351e+01  -8.143893e+01
   1.219325e+02   5.144619e+01
   9.671165e+01   6.713409e+01
   2.385112e+01   4.427601e+01
  -9.281190e+01   2.524714e+01
  -7.176398e+01   4.107027e+01
   2.489788e+01   9.518747e-01
   4.535034e+01  -9.850680e+00
  -7.186471e+00  -5.571894e+01
  -5.228198e+01   4.167365e+01
  -1.983479e+01   1.562328e+01
   8.585023e+01   1.842654e+01
   9.749553e+01   4.943664e+01
   1.014688e+01   5.349817e+01
  -1.278751e+02   1.417448e+02
  -2.050214e+02   5.792061e+01
  -1.814829e+02  -4.953317e+01
  -2.177073e+01  -1.709986e+02
   8.451925e+01  -1.363218e+02
   1.089159e+02  -4.051303e+01
   7.286939e+01   2.081367e+01
  -2.031911e+01  -2.140385e+01
  -2.074483e+01   2.618083e+01
  -1.481109e+00   1.670906e+01
   2.806074e+01   4.234408e+01
   2.890315e+01   1.279653e+02
  -2.995391e+01   7.128898e+01
  -6.144319e+01  -3.668672e+01
  -6.591043e+01  -9.578716e+01
   9.789671e+00  -1.179871e+02
   1.077934e+02  -4.007343e+01
   9.829006e+01   8.649937e+01
   4.849653e+01   8.352419e+01
  -1.024164e+02   1.006416e+02
  -1.102673e+02  -1.033689e+01
  -1.868590e+01  -5.289481e+01
  -1.739318e+01  -5.293907e+01
   5.021564e+01  -3.467566e+01
  -5.165935e+01  -2.039396e+01
  -9.242904e+01   6.517980e+00
   2.137861e+01  -3.202638e+01
   6.553392e+01  -7.743365e+01
   9.508142e+01  -1.060963e+02
   3.051770e+01   5.540467e+01
  -7.851010e+01   8.540172e+01
  -9.236829e+01   9.566316e+01
  -6.019205e+01   1.821785e+01
   2.133089e+01  -1.089682e+02
   3.289117e+01  -3.145822e+01
   2.398434e+01   5.934819e+01
   2.364114e+01   5.314238e+01
   1.034126e+01   1.246699e+01
  -3.187144e+01  -3.816563e+01
  -1.273363e+01  -4.968174e+01
   4.413782e+00   3.844798e-01
   1.050109e+01   3.765679e+00
  -3.076548e+00  -3.894356e+01
   9.176677e+00  -3.931824e+01
   2.176894e+01  -1.709626e+01
   3.690274e+01  -2.015991e+01
   4.823462e+01   4.400815e+01
  -1.305202e+01   3.918934e+01
  -8.156864e+01   3.971307e+01
  -4.030973e+01  -3.795372e+01
  -1.643741e+01  -7.008374e+01
   5.503177e+01  -5.072945e+01
   8.102945e+01   1.907518e+01
   3.374487e+01   3.040871e+01
  -4.670679e+01   2.444536e+01
  -1.088920e+02  -3.382807e+00
  -4.170385e+01  -2.605811e+00
   5.652129e+01   7.564462e+00
   5.154288e+01   2.113051e+01
  -3.340444e+01  -3.086656e+00
  -1.116298e+02   4.099746e+01
