
 $NMID
 id='ANONYMOUS ', fmtdat='(2E16.6)'
 volume=1.0
 tramp=1.0
 $END
   4.503809e+03   2.352775e+02
   2.485226e+03   2.953187e+03
  -9.688566e+02   2.840914e+03
  -2.270437e+03   7.118345e+02
  -8.835267e+02  -8.791757e+02
   8.034212e+02  -5.581545e+02
   9.947251e+02   6.585628e+02
  -7.696814e+01   1.098251e+03
  -8.946688e+02   8.009752e+02
  -9.865278e+02  -1.989966e+02
  -3.768592e+02  -9.476800e+02
   3.363178e+02  -9.504696e+02
   6.761452e+02  -6.374644e+01
   2.811279e+02   7.886372e+02
  -3.321729e+02   7.747940e+02
  -6.055328e+02  -2.730878e+01
  -2.715554e+02  -7.086927e+02
   3.974052e+02  -6.105110e+02
   6.039234e+02  -1.006826e+02
   3.577942e+02   3.938971e+02
   1.586651e+00   4.668674e+02
  -2.483004e+02   2.450780e+02
  -2.227002e+02  -3.875250e+01
   1.419811e+02  -1.049818e+02
   4.317344e+02   1.956676e+02
   1.791743e+02   4.718644e+02
  -4.778335e+02   4.390964e+02
  -8.737842e+02  -1.313702e+02
  -4.806077e+02  -5.728394e+02
   3.981337e+02  -5.003170e+02
   7.487962e+02  -3.993466e+00
   3.966648e+02   4.703120e+02
  -2.721150e+02   5.205051e+02
  -5.611948e+02   2.275705e+02
  -4.425159e+02  -2.627362e+02
  -4.079045e+01  -5.169069e+02
   2.220558e+02  -2.429795e+02
   2.212796e+02   2.244282e+02
  -2.192032e+02   5.042995e+02
  -4.394693e+02   2.844340e+00
  -2.393138e+02  -7.630461e+02
   3.477919e+02  -7.530843e+02
   6.511343e+02   5.571713e+01
   2.626377e+02   5.515411e+02
  -3.287977e+02   3.405739e+02
  -3.610792e+02  -3.361673e+02
   1.285407e+02  -5.563958e+02
   5.845116e+02  -1.720779e+02
   6.306956e+02   4.331748e+02
   1.089237e+02   6.112729e+02
  -4.015555e+02   3.759536e+02
  -6.166978e+02  -8.820649e+01
  -3.285411e+02  -4.447421e+02
   1.904465e+02  -3.606517e+02
   5.061398e+02  -4.656039e+01
   2.344392e+02   2.036853e+02
  -1.841343e+02   1.048696e+02
  -1.106943e+02  -1.488167e+02
   2.048955e+02  -2.672197e+02
   3.629886e+02   9.041120e+01
   1.734733e+02   3.150332e+02
  -2.160726e+02   2.559433e+02
  -3.579753e+02   3.691998e+01
  -1.912821e+02  -9.253774e+01
   4.185848e+01  -2.383194e+02
   2.363737e+02  -3.250121e+02
   3.239375e+02  -2.281011e+02
   2.912819e+02   1.327902e+02
   4.503228e+01   4.338809e+02
  -1.338264e+02   3.726385e+02
  -1.272071e+02   8.688177e+01
  -1.358243e+01  -4.497126e+01
  -5.633703e+01   1.441189e+02
  -2.178079e+02   1.088525e+02
  -3.055205e+02  -4.746029e+01
  -1.690613e+02  -2.794683e+02
   5.814752e+01  -2.478274e+02
   2.102502e+02  -9.101684e+00
   1.836519e+02   2.565811e+02
  -5.405712e+01   3.137957e+02
  -3.308541e+02   1.155049e+02
  -3.479955e+02  -1.926846e+02
  -1.724827e+02  -3.497067e+02
   1.047946e+02  -3.143494e+02
   2.258298e+02  -1.181620e+02
   1.342526e+02   2.429463e+01
   6.054346e+01   1.847283e+01
   2.422519e+02  -8.907084e+01
   3.882062e+02   5.775308e+01
   3.558186e+02   2.686014e+02
  -8.183411e+00   4.032046e+02
  -3.503118e+02   4.106850e+02
  -4.858394e+02   1.984541e+02
  -2.767017e+02  -1.173270e+02
  -5.368871e+01  -3.284074e+02
   1.629246e+02  -2.711025e+02
   6.468328e+01   1.280302e+01
  -1.315179e+02   1.310682e+02
  -1.954454e+02  -1.598713e+01
  -8.601029e+01  -1.980067e+02
   1.823060e+02  -1.512218e+02
   1.844253e+02   5.155921e+01
   1.731019e+01   1.666811e+02
  -2.153517e+02   5.112010e+01
  -1.783977e+02  -2.680394e+02
   2.454612e+01  -3.412038e+02
   2.351477e+02  -2.240068e+02
   3.176309e+02   6.949912e+01
   2.754488e+02   2.285815e+02
   1.088605e+02   3.182210e+02
  -1.355687e+02   1.870888e+02
  -1.833192e+02   4.344843e+01
  -6.655075e+01  -2.851091e+01
   6.412444e+01   1.805160e+01
   3.256359e+01   1.693691e+02
  -1.108650e+02   8.332149e+01
  -2.051711e+02  -3.251884e+01
  -5.318354e+01  -1.136731e+02
   4.832784e+01  -4.191792e+01
   3.747677e+01   9.924265e+01
  -6.111118e+01   9.487841e+01
  -2.394781e+02   4.460870e+01
  -2.202298e+02  -1.249726e+02
  -8.817501e+01  -2.583035e+02
   1.291513e+02  -2.824416e+02
   3.250387e+02  -1.548572e+02
   2.002153e+02   9.568564e+01
  -3.612436e+01   9.328806e+01
  -9.699188e+01  -2.923819e+00
   1.469840e+01  -8.743910e+01
   1.904271e+02  -8.407223e+01
   2.514366e+02   1.174255e+02
   7.413530e+01   2.309108e+02
  -6.327432e+01   1.450275e+02
  -1.736916e+02   6.516995e+01
  -1.145808e+02  -2.752484e+01
   3.082388e+01  -6.706142e+00
   3.536447e+01   3.805125e+01
  -6.584412e+01   1.099709e+02
  -1.926067e+02  -4.872080e+00
  -2.265048e+02  -1.408755e+02
  -1.984608e+01  -2.498274e+02
   1.257432e+02  -1.628721e+02
   1.982166e+02   6.941628e+00
   1.062820e+02   1.114037e+02
  -1.142809e+02   1.192850e+02
  -6.786633e+01   3.212635e+01
  -2.064877e+01  -3.311967e+01
   5.489006e+01  -3.314157e+01
  -1.174078e+01  -2.509351e+01
  -4.627116e+01   2.408091e+01
  -8.301094e+01  -1.042700e+02
  -1.140077e+01  -1.602254e+02
   1.222769e+02  -1.726342e+02
   2.304855e+02  -5.177949e+01
   2.220420e+02   1.380860e+02
   4.919623e+00   2.273897e+02
  -1.447336e+02   1.541609e+02
  -1.591361e+02   3.725317e+01
  -6.779632e+01  -5.921283e+01
  -5.757175e+01  -4.488902e+01
  -6.514248e+01   1.209218e+01
  -5.489594e+01   1.088048e+01
  -2.515395e+01  -5.548211e+01
   3.843977e+01  -1.046833e+02
   1.148964e+02  -3.589560e+01
   1.070447e+02   4.429406e+01
   3.242854e-01   1.028192e+02
  -1.318182e+02   7.067985e+01
  -2.126129e+02  -7.122044e+00
  -1.325880e+02  -1.793309e+02
   1.042648e+02  -2.301353e+02
   2.508912e+02  -6.080139e+01
   2.761537e+02   5.091453e+01
   9.381357e+01   1.709289e+02
  -4.461110e+01   1.695847e+02
  -1.011580e+02   9.933345e+01
  -5.701619e+01   3.236771e+01
  -6.540892e+01   9.501758e+01
  -6.695972e+01   2.164740e+01
  -1.049376e+02  -1.011977e+01
  -1.421736e+02  -1.015649e+02
  -7.675887e+01  -2.497548e+02
   1.130147e+02  -1.619995e+02
   1.847825e+02  -6.444223e+00
   1.787320e+02   1.250661e+02
   3.455913e+01   1.861979e+02
  -6.378853e+01   1.003763e+02
  -3.907595e+01   1.921134e+01
  -1.642897e+01  -5.699273e+01
  -1.208519e+00  -2.000715e+01
  -6.831967e+01  -3.521507e+01
  -6.960233e+01   1.498653e+01
  -4.961070e+01  -5.301533e+01
   6.900744e+01  -6.599299e+01
   1.269114e+02  -1.308644e+01
   1.273853e+02   5.249602e+01
   2.666554e+01   4.144290e+01
  -1.476812e+02   1.184377e+02
  -1.482358e+02   9.602339e+00
  -3.030221e+01  -1.389049e+01
   6.715802e+01  -2.792849e+01
   5.956822e+01  -2.178549e+01
   2.076845e+01   9.781349e+01
  -4.860422e+01   3.364885e+01
  -5.684513e+01  -2.570238e+01
  -2.097300e+01  -5.094108e+01
  -3.047340e+01  -3.781251e+01
  -2.107975e+01   6.871109e+00
  -5.449470e+01   1.106806e+00
  -9.029064e+01  -6.951895e+01
   2.433730e+01  -1.275649e+02
   1.287256e+02  -1.076242e+02
   1.593050e+02  -2.259053e+01
   9.387087e+01   1.120855e+02
   2.139753e+01   1.130484e+02
  -4.832366e+01   1.419142e+00
  -4.499117e+01   2.311076e+01
   4.843964e+01   1.266636e+01
   1.127066e+02   2.382979e+01
   5.699584e+01   1.196687e+02
  -7.430888e+01   1.156390e+02
  -1.817742e+02   4.688560e+01
  -1.584714e+02  -4.884470e+01
  -5.353259e+01  -8.957588e+01
   3.401110e+01  -5.523221e+01
   3.265963e+01  -3.262658e+01
  -2.512845e+01   3.120041e+01
  -1.042331e+02  -3.316706e+01
  -4.186220e+01  -1.362916e+02
   9.676566e+01  -1.346982e+02
   1.690376e+02  -1.002912e+02
   1.299843e+02   1.586854e+02
   8.494487e+00   2.080670e+02
  -8.709691e+01   1.366321e+02
  -6.303582e+01   2.091158e+01
  -6.687562e+01  -8.390472e+01
   4.247516e+00  -1.188152e+02
  -1.054842e+01  -7.289579e+00
   6.227643e+00   1.136374e+01
   1.735786e+01   2.030301e+01
   1.608318e+00  -2.484737e+01
   2.743607e+01  -1.602478e+01
   4.778868e+01   6.341394e+01
   3.866073e+01   1.083280e+02
  -3.179390e+01   6.345854e+01
  -1.730292e+02  -4.956108e+01
  -1.208203e+02  -1.219678e+02
   4.144547e+00  -7.461998e+01
   8.440623e+01  -2.397329e+01
   1.220855e+02  -2.530411e+01
  -5.366476e+00   1.520403e+01
  -3.720640e+01   5.308758e+01
  -2.369716e+01   5.310752e+01
   3.702869e+01   1.890666e+01
  -8.540416e+00  -3.606798e+00
  -7.629669e+01   4.045145e+00
  -1.128134e+02   2.290886e+01
   7.674966e+00  -4.765018e+01
   1.628833e+02  -1.525353e+02
   1.979299e+02  -5.128715e+01
   1.268980e+02   9.549391e+01
   3.517274e+01   1.753621e+02
  -6.116070e+01   1.271590e+02
  -1.232519e+02   1.541597e+01
  -1.177956e+02  -6.139632e+01
  -3.562183e+01  -5.054654e+01
   3.316285e+01   9.335715e+00
  -2.978863e+01   6.354648e+00
  -5.612550e+01  -4.988730e+01
  -2.235839e+01  -6.260929e+01
   2.728972e+01  -5.297703e+01
   9.069640e+01   5.692831e+01
   6.030331e+01   1.378386e+02
  -2.008553e+01   1.015505e+02
  -5.485395e+01   2.895188e+01
  -1.176692e+02  -8.545608e+01
  -2.127137e+01  -9.387521e+01
   6.878564e+01  -6.415564e+01
   1.143739e+02  -1.840773e+01
   4.228835e+01   3.093885e+01
  -4.555202e+00   4.583039e+01
  -4.645563e+01   5.443620e+01
   3.311204e+01  -8.641186e+00
   7.226326e+01  -3.434189e+01
  -2.083644e+01   4.672231e+00
  -7.786763e+01   5.037018e+01
  -6.853594e+01   4.325485e+01
  -3.656995e+01   4.018701e+01
  -1.391093e+00  -5.326030e+01
   3.892185e+01  -6.381026e+01
   3.379222e+01  -4.435071e+01
   1.304354e+01   8.333307e+01
  -3.988426e+01   1.816238e+01
  -2.040803e+01  -8.859905e+00
  -3.055449e+01  -4.874997e+01
   1.874025e+01  -3.421394e+01
   6.643855e+01  -1.504021e+01
   3.780326e+01   3.890918e+01
   9.074445e+00   1.355461e+01
  -1.656096e+01  -7.545499e-02
   1.115394e+01  -3.297831e+00
  -1.082396e+01   4.486380e+01
   4.855021e+00   6.490858e+01
  -2.931236e+01  -4.857352e+00
  -3.941733e+01  -5.420373e+01
   1.648118e+01  -6.137278e+01
   1.435595e+01  -4.525161e+01
   8.188946e+01   6.160447e+01
   3.628406e+01   4.470771e+01
  -5.994037e+01   3.224998e+01
  -7.865981e+01  -8.275363e+01
  -3.463160e+01  -5.339384e+01
   4.440121e+01   8.082769e+00
   2.479291e+01  -3.910332e+01
  -4.016033e+00  -2.347907e+01
  -1.262278e+01  -1.414662e+00
  -3.529212e+01  -4.383853e+01
   4.648459e+01   9.557588e+00
   1.315139e+02  -8.807113e+00
