
 $NMID
 id='ANONYMOUS ', fmtdat='(2E16.6)'
 volume=1.0
 tramp=1.0
 $END
  -2.958177e+03   6.363248e+01
  -2.249596e+03  -1.538990e+03
   6.093524e+01  -2.173669e+03
   1.402369e+03  -1.349761e+03
   1.032656e+03  -1.255909e+02
   3.160978e+01   2.005946e+02
  -4.982039e+02  -2.667696e+01
  -9.254158e+00  -5.570021e+02
   4.807647e+02  -5.494572e+02
   6.576028e+02  -3.966599e+01
   4.407767e+02   5.779705e+02
  -3.246456e+01   6.841032e+02
  -3.787979e+02   1.629888e+02
  -2.524471e+02  -4.627951e+02
   1.336930e+02  -6.062431e+02
   4.256300e+02  -5.056276e+01
   2.990890e+02   4.526965e+02
  -1.987573e+02   6.565923e+02
  -4.994016e+02   2.217696e+02
  -4.252630e+02  -1.360883e+02
  -1.860761e+02  -3.775128e+02
   1.057831e+02  -2.478968e+02
   9.896095e+01  -1.435793e+02
  -1.186549e+02  -9.680693e+01
  -2.414600e+02  -2.676728e+02
   1.881853e+01  -3.377704e+02
   4.736374e+02  -1.849106e+02
   6.326688e+02   2.004494e+02
   2.881733e+02   3.684306e+02
  -3.264315e+02   2.190664e+02
  -5.283744e+02  -8.455737e+01
  -2.144562e+02  -3.134490e+02
   2.798671e+02  -3.785755e+02
   4.258570e+02  -1.394523e+02
   3.382883e+02   1.617968e+02
   6.618188e+01   3.654389e+02
  -1.135385e+01   1.922657e+02
   3.465527e+01  -3.435809e+01
   1.637314e+02  -1.926252e+02
   2.092722e+02   1.428073e+02
   6.363801e+01   5.164703e+02
  -1.889831e+02   4.262283e+02
  -3.752435e+02  -1.194626e+01
  -1.889971e+02  -3.626798e+02
   1.408899e+02  -1.694965e+02
   1.750707e+02   2.558508e+02
  -8.007995e+01   3.539348e+02
  -4.206278e+02   2.643299e+01
  -4.620806e+02  -3.319972e+02
  -1.036057e+02  -5.134948e+02
   2.929550e+02  -2.311760e+02
   5.230661e+02   2.092045e+01
   3.469183e+02   2.420164e+02
  -6.488174e+01   2.425035e+02
  -3.497054e+02   1.179136e+02
  -1.810715e+02  -3.712826e+01
  -7.566714e+00  -5.791246e+01
   6.884222e+01   4.333966e+01
  -1.128358e+02   8.630546e+01
  -2.154123e+02  -2.911584e+01
  -1.611505e+02  -2.283151e+02
   1.246764e+02  -2.386997e+02
   3.389929e+02  -1.479748e+02
   2.744538e+02   9.535261e+01
  -6.772187e+01   2.659793e+02
  -2.795672e+02   3.443438e+02
  -3.201737e+02   1.495298e+02
  -2.186779e+02  -1.775196e+02
  -3.779060e+01  -4.082575e+02
   1.128633e+02  -3.244851e+02
   3.798087e+01  -1.630777e+02
   5.365523e+00  -8.938523e+01
   1.002895e+02  -1.037080e+02
   2.257846e+02  -9.379800e+01
   2.581981e+02   1.331288e+02
   1.207143e+02   2.594480e+02
  -7.614515e+01   2.285169e+02
  -2.013177e+02  -6.063467e+01
  -1.387367e+02  -2.653702e+02
   5.256630e+01  -2.561322e+02
   2.244493e+02  -2.425922e+01
   3.035892e+02   1.806206e+02
   1.212755e+02   3.167801e+02
  -4.730953e+01   2.773073e+02
  -1.662254e+02   1.322090e+02
  -1.259950e+02   3.646400e+01
  -1.531885e+02   4.165528e+01
  -2.503743e+02   2.411679e+01
  -4.209468e+02  -1.089540e+02
  -3.327115e+02  -2.896777e+02
   1.761737e+01  -4.377755e+02
   3.794566e+02  -4.104596e+02
   4.542974e+02  -1.615765e+02
   2.929118e+02   9.046812e+01
   3.916679e+01   2.807769e+02
  -1.238466e+02   2.121437e+02
  -1.470307e+01   2.733049e+01
   1.502193e+02  -2.942896e+01
   1.119689e+02   5.589080e+01
   1.619864e+01   1.625661e+02
  -1.030556e+02   1.223376e+02
  -1.516600e+02  -6.417719e+01
   2.610799e+01  -1.261616e+02
   1.239613e+02   2.353512e+01
   1.477737e+02   2.279853e+02
  -4.386898e+01   3.467760e+02
  -2.247940e+02   1.932086e+02
  -3.037543e+02  -5.766010e+01
  -2.735369e+02  -2.695024e+02
  -1.186206e+02  -2.941603e+02
   1.542007e+02  -1.455810e+02
   1.680974e+02  -3.084266e+01
   1.457870e+01   4.202396e+01
  -1.060145e+02  -7.369951e+01
  -6.031835e+00  -8.367088e+01
   1.176029e+02  -8.658932e+01
   1.535018e+02   2.239190e+01
  -2.252101e-01   3.185884e+01
  -6.608290e+01  -3.096407e+01
  -1.465150e+01  -9.050972e+01
   1.361848e+02  -7.502923e+01
   3.200407e+02  -1.399998e+01
   2.807314e+02   1.689076e+02
  -5.403085e+00   2.688252e+02
  -2.241150e+02   2.306214e+02
  -2.513061e+02   9.824106e+01
  -1.323490e+02  -4.170467e+01
   7.071074e+01  -8.232184e+01
   4.228139e+01  -1.873246e+01
  -6.972811e+01   8.823011e+01
  -1.932237e+02   2.350362e+01
  -1.766959e+02  -8.062214e+01
  -6.436111e+01  -1.726438e+02
   9.032670e+01  -1.645467e+02
   1.305297e+02  -1.691246e+00
   2.167056e+01   3.490314e+01
  -3.715764e+01  -2.864239e+01
  -1.970137e+01  -9.237023e+01
   7.465489e+01  -9.774225e+01
   2.016620e+02  -3.579366e+01
   1.946529e+02   1.738899e+02
   1.413966e+01   1.667760e+02
  -1.581930e+02   1.173572e+02
  -2.048459e+02  -1.677094e+01
  -5.772099e+01  -1.165431e+02
   7.214554e+01  -9.617310e+01
   8.237245e+01  -5.106013e+01
   5.010693e+00   3.470246e+01
   1.049927e+01  -8.213744e-01
  -1.597386e+01  -3.503582e+01
   7.936059e+01   1.291329e+01
   8.896418e+01   9.119624e+01
   4.745670e+00   1.839659e+02
  -1.414356e+02   1.459686e+02
  -2.184515e+02  -1.411217e+01
  -1.748335e+02  -1.735871e+02
  -2.429547e+01  -2.437879e+02
   1.171790e+02  -1.228112e+02
   1.315119e+02  -3.424326e+01
   8.535563e+01   5.910028e+01
   5.357380e+01  -1.032386e+00
   4.020358e+01   1.005155e+00
   1.067750e+02  -3.444071e+01
   2.747495e+01   6.317169e+01
  -4.756970e+01   1.080032e+02
  -1.575836e+02   7.133858e+01
  -9.373721e+01  -4.109344e+01
   1.234250e+00  -1.015607e+02
   2.092208e+02  -1.012810e+02
   2.021331e+02   5.215536e+01
   6.689443e+01   1.931720e+02
  -1.047682e+02   1.937160e+02
  -2.517277e+02   1.216691e+02
  -2.447730e+02  -1.630790e+02
  -9.205978e+01  -1.763034e+02
   4.370044e+01  -1.270130e+02
   8.618417e+01  -3.333364e+01
   1.004319e+02  -8.275174e+01
  -1.375956e+01  -6.844491e+01
   7.580864e+01  -6.988998e+01
   1.231960e+02   1.738231e+01
   1.458095e+02   1.216687e+02
   1.607606e+01   2.136810e+02
  -8.728864e+01   1.656237e+02
  -1.567980e+02   2.277453e+01
  -1.278164e+02  -1.362617e+02
   3.016343e+01  -1.633306e+02
   6.764784e+01  -1.180450e+02
   6.378208e+01   3.702126e+01
  -2.423969e+01   6.011759e+01
  -1.979981e+01   2.867707e+01
   6.975700e+01  -1.293183e+01
   1.083686e+02   4.109831e+01
   4.105829e+01   4.445851e+01
  -9.349865e+01   4.016251e+01
  -1.755482e+02  -2.706880e+01
  -1.633608e+02  -1.145615e+02
   1.527439e+01  -8.286364e+01
   1.021803e+02  -6.421353e+01
   1.282792e+02  -7.776850e-01
   4.759366e+01   7.625817e+01
  -5.325360e+01   8.753244e+00
  -9.493773e+01  -2.522072e+01
  -2.787450e+01  -2.743174e+01
   5.530452e+01  -4.855563e+01
   6.424524e+01  -1.764765e+00
   4.164067e+01   3.104146e+01
   4.463651e+01   3.574965e+01
   4.038270e+01   1.237863e+00
   5.330968e+01  -1.073606e+01
   4.930642e+01   8.421021e+01
  -1.506393e+01   1.750790e+02
  -1.439322e+02   1.875294e+02
  -1.762191e+02   2.165033e+01
  -1.470379e+02  -1.144450e+02
   3.474659e+01  -1.295668e+02
   9.359834e+01  -1.144994e+02
   8.508441e+01   4.765105e+01
  -3.278392e+01   3.651868e+01
  -1.521384e+02  -3.428680e+01
  -1.279426e+02  -4.452983e+01
   6.994567e+01  -8.164263e+01
   2.066299e+02  -5.402032e+01
   1.484729e+02   1.972489e+01
   5.834614e+01   1.078476e+02
  -1.127847e+02   9.131071e+01
  -4.155014e+01  -2.409377e+01
   4.689559e+01   3.117517e+00
   6.928874e+01   2.556805e+01
   6.135841e+01   8.296920e+01
  -9.906722e+01   1.793963e+02
  -1.409128e+02   8.521180e+01
  -1.302404e+02  -5.903135e+01
  -3.641956e+00  -1.833523e+02
   6.598880e+01  -1.464708e+02
   7.633708e+01  -9.220818e+00
   2.885431e+01   1.019188e+02
   2.496060e+00   7.192518e+01
  -2.623207e+01   2.987326e+01
  -6.685658e+01  -4.738495e+01
  -2.326863e+01  -3.550585e+01
   2.988053e+00   3.228925e+01
  -2.406051e+01  -3.723860e+01
  -4.537737e+01  -1.144034e+02
  -2.009663e+01  -1.129400e+02
   6.346673e+01  -3.748086e+01
   1.390184e+02   3.850742e+01
   1.471571e+02   7.269568e+01
   1.993579e+01   5.523366e+01
  -8.577455e+01  -2.911680e+01
  -6.706077e+01   4.440428e+01
  -4.148006e+01   1.996695e+01
   3.010874e+01  -5.948447e+00
   3.325643e+01   6.550437e+00
   2.592611e+01  -8.813999e+00
   1.185135e+01   4.520304e+01
   6.755351e+01  -2.917614e+01
   6.960166e+01   3.445350e+01
   2.937017e+01   9.641456e+01
  -9.032222e+01   8.685980e+01
  -1.767830e+02   7.403761e+01
  -1.474589e+02  -4.211527e+01
  -4.212284e+01  -1.385807e+02
   7.675307e+01  -1.427058e+02
   7.770319e+01  -4.453484e+01
   6.486923e+01   4.086980e+01
   2.361289e+01   4.821066e+01
   6.730217e+00   4.490808e+00
   4.578888e+01   8.465142e+00
   6.349455e+01   6.081979e+01
   6.719123e+00   1.299896e+02
  -1.865188e+01   5.493929e+01
  -6.729535e+01  -1.833341e+01
  -6.729956e+01  -7.816609e+01
  -1.987963e+01  -1.044697e+02
   6.951823e+01  -3.043188e+01
   8.479946e+01   2.339433e+01
   4.396722e+01   1.262768e+02
  -9.102234e+01   9.436298e+01
  -1.015265e+02  -2.654733e+01
  -1.644899e+01  -1.169301e+01
   4.318525e+01  -6.229358e+01
   6.226438e+01  -3.209099e+01
  -2.331655e+01   3.157780e+01
  -4.068400e+01  -2.339895e+01
  -1.636234e+01  -4.120378e+01
   1.043710e+02  -7.790563e+01
   1.090598e+02  -6.919645e+01
   6.551188e+01   1.507513e+01
  -9.237390e+00   1.052494e+02
  -4.490963e+01   8.646198e+01
  -6.923144e+01   2.582650e+01
   2.577449e+01  -6.467633e+01
   3.498774e+01  -7.345950e+01
   5.074132e+01   2.319671e+01
   3.855186e+01   7.477055e+01
   1.212746e+01   7.000630e+01
  -6.108195e+00  -2.270443e+01
  -9.113716e+01  -7.292322e+00
  -3.664731e+01  -4.372283e+01
  -1.605101e+01  -2.644945e+01
   1.305470e+01   2.056811e+01
   2.836696e+00  -6.338895e+01
  -9.570437e+00  -3.154835e+01
   4.408353e+00  -5.172527e+00
   5.265398e+01  -2.644864e+00
   3.630218e+01   6.406931e+00
  -5.133510e+00   6.329997e+01
  -4.884188e+01  -8.731432e+00
  -5.848550e+01  -4.791387e+01
   5.342366e+01  -4.361854e+01
   7.900095e+01  -2.064041e+01
   8.155456e+01   3.387691e+01
  -3.260101e+01   2.505548e+01
  -5.513907e+01  -7.760400e+00
  -3.342552e+01   1.406762e+01
   7.818439e+00  -3.058536e+01
   3.731313e+01  -6.243862e+00
  -1.850985e+01   3.275150e+01
  -8.135152e+01   4.113455e+01
