
 $NMID
 id='ANONYMOUS ', fmtdat='(2E16.6)'
 volume=1.0
 tramp=1.0
 $END
   4.120559e+03   2.194507e+02
   2.246215e+03   2.009370e+03
  -4.777508e+02   2.411440e+03
  -1.669710e+03   8.384076e+02
  -7.849124e+02  -2.754544e+02
   4.593723e+02  -2.481191e+02
   5.634699e+02   3.567411e+02
  -6.139103e+01   7.777626e+02
  -5.489188e+02   5.763757e+02
  -7.307655e+02  -2.632049e+01
  -4.236427e+02  -6.504565e+02
   1.549266e+02  -7.282241e+02
   4.615555e+02  -1.918267e+02
   2.897873e+02   5.415247e+02
  -1.937316e+02   6.257984e+02
  -4.862767e+02   2.929848e+01
  -2.936398e+02  -5.799116e+02
   2.336625e+02  -6.290085e+02
   4.838068e+02  -1.850005e+02
   4.316006e+02   2.883208e+02
   6.382439e+01   3.919699e+02
  -1.880404e+02   2.142962e+02
  -8.478898e+01   4.579491e+01
   1.800942e+02  -5.497152e+01
   3.339767e+02   2.064795e+02
   9.712655e+01   4.351341e+02
  -4.716502e+02   2.899282e+02
  -7.826194e+02  -1.273915e+02
  -2.763300e+02  -4.909561e+02
   4.155788e+02  -3.700015e+02
   6.829222e+02   1.340324e+02
   2.920045e+02   4.617627e+02
  -2.846536e+02   4.243849e+02
  -5.465684e+02   1.047650e+02
  -3.716267e+02  -2.391823e+02
  -2.813661e+00  -3.619466e+02
   1.440481e+02  -2.114720e+02
   4.259463e+01   1.588213e+02
  -2.311954e+02   3.072414e+02
  -3.621897e+02  -1.497914e+02
  -3.614520e+01  -5.673006e+02
   3.329834e+02  -5.626602e+02
   3.802400e+02   1.959482e+01
   1.221737e+02   4.401913e+02
  -2.296490e+02   2.005249e+02
  -2.325812e+02  -2.677664e+02
   1.081082e+02  -4.865257e+02
   4.806755e+02  -9.977840e+01
   5.641703e+02   3.713206e+02
   1.459175e+02   5.548426e+02
  -3.179209e+02   3.065606e+02
  -6.032155e+02  -1.065523e+02
  -3.809181e+02  -3.565327e+02
   1.265623e+02  -2.969788e+02
   3.653969e+02  -6.262666e+01
   1.885273e+02   1.321111e+02
  -4.221659e+01   2.694282e+01
  -8.807642e+01  -6.604682e+01
   1.763104e+02  -1.283823e+02
   2.462049e+02   6.805787e+01
   1.027798e+02   2.039716e+02
  -1.680198e+02   2.025610e+02
  -3.235343e+02   8.267928e+01
  -2.512450e+02  -5.782021e+01
  -1.530766e+01  -2.955022e+02
   2.699096e+02  -3.443735e+02
   3.986264e+02  -1.950890e+02
   2.354528e+02   1.702829e+02
   4.838569e+01   4.069138e+02
  -1.392709e+02   3.143994e+02
  -6.549319e+01   1.186680e+02
  -1.513086e+01   1.673842e+01
  -2.977728e+01   1.293187e+02
  -2.284187e+02   9.766371e+01
  -2.385983e+02  -9.797946e+01
  -1.520008e+02  -2.776929e+02
   1.210151e+02  -1.907826e+02
   1.888496e+02   3.661374e+01
   1.462703e+02   2.469069e+02
  -2.210012e+01   2.640204e+02
  -2.407927e+02   1.344186e+02
  -3.436352e+02  -1.878813e+02
  -2.004978e+02  -3.172893e+02
   7.971463e+01  -2.986616e+02
   1.839252e+02  -1.376285e+02
   1.707188e+02  -2.413989e+01
   1.432989e+02  -2.058998e+01
   2.384834e+02  -7.004210e+01
   3.983317e+02   8.404392e+01
   2.795814e+02   2.585523e+02
  -1.791145e+01   4.700444e+02
  -3.504204e+02   4.005231e+02
  -4.887113e+02   2.009683e+02
  -3.050395e+02  -1.208458e+02
  -4.840088e+01  -2.842137e+02
   1.017837e+02  -2.219524e+02
   3.851583e+01  -1.424038e+01
  -6.446855e+01   1.013136e+02
  -1.807849e+02  -1.654928e+01
  -1.350731e+01  -1.589646e+02
   1.631508e+02  -1.542001e+02
   1.471538e+02   4.127380e+01
  -4.424069e+01   1.687370e+02
  -1.812389e+02   2.075702e+01
  -1.484560e+02  -1.895911e+02
  -2.076255e+01  -3.352250e+02
   2.125725e+02  -1.607888e+02
   3.623458e+02   6.025823e+01
   2.648620e+02   2.179037e+02
   8.796016e+01   2.877172e+02
  -1.300218e+02   1.282880e+02
  -1.879973e+02   3.992221e+01
  -6.644465e+01   6.835444e+00
   4.837180e+01   6.758498e+01
   1.090375e+01   1.205388e+02
  -1.103463e+02   9.852249e+01
  -1.707405e+02  -1.031384e+01
  -6.059268e+01  -7.161370e+01
   5.226038e+01   2.430566e+01
   7.234450e+01   1.185354e+02
  -1.396572e+02   5.386275e+01
  -2.709838e+02   3.781053e+00
  -3.031170e+02  -1.461290e+02
  -5.071044e+01  -2.336910e+02
   1.812082e+02  -3.029390e+02
   2.296231e+02  -1.172998e+02
   2.017663e+02   5.394069e+01
   5.831006e+00   8.046650e+01
  -6.539022e+01  -2.374919e+01
   3.703610e+01  -9.990761e+01
   1.730302e+02  -2.377231e+01
   1.964758e+02   1.015926e+02
   4.724532e+01   2.111439e+02
  -1.190303e+02   1.703250e+02
  -1.115309e+02   4.131264e+01
  -6.616524e+01  -3.080883e+01
   4.778858e+01   4.944568e+00
   4.524823e+01   9.900575e+01
  -4.576904e+01   1.099347e+02
  -1.985688e+02   2.601698e+01
  -1.876258e+02  -1.021656e+02
  -2.807427e+01  -2.250329e+02
   1.660443e+02  -9.749332e+01
   1.654341e+02   2.864637e+01
   7.233499e+01   1.226802e+02
  -6.079443e+01   1.182545e+02
  -7.886053e+01  -7.068795e+00
  -5.286784e+01  -3.962892e+01
   2.799182e+01  -2.161849e+00
  -4.626200e+01   4.232372e+01
  -7.898302e+01  -2.005021e+01
  -9.287674e+01  -8.678348e+01
   1.037291e+01  -1.659981e+02
   9.915571e+01  -1.309543e+02
   1.654026e+02  -3.080782e+01
   1.971769e+02   1.197785e+02
   1.515395e+01   2.168375e+02
  -8.210137e+01   1.947098e+02
  -1.376260e+02  -2.390092e+01
  -5.781592e+01  -4.871386e+01
  -3.164685e+01  -2.814544e+01
  -7.124645e+01   3.644579e+01
  -4.748546e+01  -8.664931e+00
  -6.042712e+01  -7.625093e+01
   8.790286e+00  -1.242742e+02
   1.070643e+02  -6.242435e+01
   9.886643e+01   2.276036e+01
  -6.184835e+00   1.754034e+02
  -1.511369e+02   7.398013e+01
  -1.887068e+02  -6.441063e+01
  -9.874636e+01  -1.611580e+02
   1.140426e+02  -2.195901e+02
   2.775114e+02  -7.792925e+01
   2.552660e+02   9.703623e+01
   9.973373e+01   2.127635e+02
  -4.549870e+00   1.738105e+02
  -9.743140e+01   4.545371e+01
  -9.464782e+01   1.891099e+01
  -6.823309e+01   1.044285e+02
  -9.912021e+01   7.268612e+01
  -9.407789e+01  -6.153652e+01
  -1.284903e+02  -1.280510e+02
  -2.504917e+01  -2.098675e+02
   8.812849e+01  -2.013106e+02
   2.133679e+02  -3.368675e+01
   1.329678e+02   1.434583e+02
   2.995265e+01   1.838890e+02
  -9.797566e+01   1.125206e+02
  -7.871506e+01  -4.408079e+01
  -5.883359e+00  -9.510318e+01
   3.403064e+01  -8.482396e+01
  -8.917750e+00  -3.299263e+00
  -3.261901e+01   1.494674e+01
  -3.204024e+01  -4.368973e+01
   4.993138e+01  -4.253953e+01
   1.421180e+02  -6.216106e+00
   1.274900e+02   5.547196e+01
   8.659240e+00   1.154835e+02
  -1.262591e+02   8.920504e+01
  -1.604846e+02   2.347018e+01
  -4.621888e+01  -6.828652e+01
   3.569000e+01  -4.897336e+01
   1.345037e+02   4.254129e+00
   1.652665e+01   6.672001e+01
  -6.643919e+01   8.934153e+01
  -6.523324e+01   3.965693e+01
  -5.916508e+01  -4.970145e+01
  -2.069990e+01  -6.081984e+01
  -5.275159e+00  -4.738044e+00
  -8.691632e+01   5.472249e+00
  -2.018961e+01  -3.606709e+01
  -3.393850e+01  -1.618321e+02
   1.100514e+02  -1.422140e+02
   2.005520e+02  -2.681512e+01
   1.496950e+02   8.924711e+01
  -1.169632e+01   1.432830e+02
  -1.044344e+02   4.955729e+01
  -4.747292e+01  -1.109638e+01
   9.746504e+01   5.067391e-01
   1.075525e+02   3.448322e+01
   4.169163e+01   1.395982e+02
  -5.318071e+01   1.356687e+02
  -1.909062e+02   2.877603e+01
  -1.504726e+02  -3.443835e+01
  -5.528619e+01  -7.828292e+01
   8.875140e+01  -8.003438e+01
   1.346087e+01   1.194767e+01
   6.398649e+00   1.789379e+01
  -8.452092e+01   1.819216e-01
  -4.272278e+01  -9.272965e+01
   8.125081e+01  -1.455755e+02
   1.787185e+02  -6.608003e+01
   9.527141e+01   1.101195e+02
   3.002160e+01   1.919749e+02
  -6.483988e+01   1.386220e+02
  -9.698365e+01   7.113374e+00
  -9.903854e+01  -8.429929e+01
  -2.350693e+01  -7.631354e+01
   5.405609e+01  -6.778060e+01
   4.863556e+01   8.377201e+01
   4.416467e+01  -9.979198e+00
  -1.996866e+01   1.120415e+01
  -1.380964e+01   7.840666e+00
   8.955931e+00   8.299688e+01
   3.900128e+01   1.064055e+02
  -7.498831e+01   6.684263e+00
  -1.531843e+02   5.155583e+00
  -1.248824e+02  -5.132944e+01
  -2.024776e+01  -4.575607e+01
   5.384822e+01  -3.077978e+01
   8.911923e+01  -3.370420e+01
   2.254713e+01  -1.606062e+01
  -4.048607e+01   5.213794e+01
  -2.479009e+01   2.346919e+00
   1.451095e+01  -2.523037e+01
  -3.776296e+01  -2.372428e+01
  -5.993862e+01   3.512799e-01
  -8.510081e+01  -2.210103e+01
  -1.511936e+01  -9.914264e+01
   1.080603e+02  -1.082813e+02
   1.814161e+02  -3.841257e+01
   1.452677e+02   2.842742e+01
   3.811979e+01   1.690516e+02
  -5.430109e+01   1.614017e+02
  -1.529923e+02   6.378870e+01
  -1.083772e+02  -3.964657e+01
  -1.258502e+01  -4.982568e+01
   4.898999e+00  -2.712355e+01
  -1.373843e+01  -1.138207e+01
  -5.262273e+01  -2.311841e+01
  -2.086853e+01  -6.544618e+01
  -1.147230e+01  -2.453912e+01
   7.049468e+01   4.106667e+01
   8.595980e+01   1.042218e+02
   2.008906e+01   1.053069e+02
  -1.019395e+02   2.235949e+01
  -1.443650e+02  -8.286471e+01
  -4.012775e+01  -5.700215e+01
   2.545190e+01  -5.944377e+01
   8.536887e+01  -2.836418e+01
   5.573945e+01   5.781376e+01
  -1.595976e+00   7.182002e+01
  -1.719992e+01   7.220392e+01
   5.682281e+01   1.477457e+01
   5.294057e+01  -1.138139e+01
   7.259247e+00   3.402197e+01
  -8.689248e+01   9.155118e+01
  -9.389445e+01   5.092754e+01
  -8.971150e+01   5.173035e+00
  -3.015072e+01  -8.468950e+01
   8.424199e+01  -1.278566e+02
   4.677939e+01   5.286463e+00
   2.746492e+01   7.450522e+01
  -4.171315e+01   4.625572e+01
  -6.572379e+01  -2.583298e+01
  -2.861803e+01  -5.842506e+01
   1.766109e+00  -2.137095e+01
   3.314689e+01  -2.796252e+01
   2.115095e+01  -4.394498e+00
   2.761927e+01  -6.884737e+00
  -4.740368e+00   2.082008e+01
  -6.187279e+00   1.777642e+01
   4.896462e+00   4.315926e+01
  -1.351867e+01   5.371583e+01
  -4.119999e+01   2.578907e+01
  -4.380211e+01  -6.282321e+01
   8.316139e+00  -5.832586e+01
   2.470001e+01  -5.337915e+01
   2.691624e+01   8.219195e+00
   2.161730e+00   3.606078e+01
  -3.319081e+01   4.729355e+01
  -1.006756e+02  -3.063129e+01
  -2.943041e+01  -1.567379e+01
   4.164846e+01  -2.949911e+01
   1.692568e+01  -1.531449e+01
   1.940836e+00   9.202966e-01
  -7.709591e+00  -3.510597e+00
  -9.906640e+01  -4.460107e+01
  -1.555178e+01  -2.774234e+01
   4.945970e+01  -2.308573e+01
