
 $NMID
 id='ANONYMOUS ', fmtdat='(2E16.6)'
 volume=1.0
 tramp=1.0
 $END
  -3.516359e+03  -1.540358e+02
  -2.408810e+03  -2.068166e+03
   5.088678e+02  -2.350768e+03
   1.618359e+03  -9.734032e+02
   9.636897e+02   3.803060e+02
  -3.394489e+02   6.275446e+02
  -8.160756e+02  -1.941589e+02
  -1.112061e+02  -7.675182e+02
   6.120599e+02  -7.528993e+02
   7.556170e+02   2.113484e+01
   4.531531e+02   6.727996e+02
  -1.058973e+02   7.890212e+02
  -4.463834e+02   1.509226e+02
  -2.876946e+02  -5.999668e+02
   2.250909e+02  -6.604078e+02
   5.282576e+02  -2.996934e+01
   2.703319e+02   5.510346e+02
  -2.277116e+02   5.831497e+02
  -4.915279e+02   1.217179e+02
  -3.937236e+02  -2.591584e+02
  -7.572846e+01  -3.556885e+02
   1.641559e+02  -2.941555e+02
   1.374827e+02  -8.634044e+01
  -9.827084e+01  -1.917194e+01
  -2.927161e+02  -1.398881e+02
  -1.163415e+02  -3.799206e+02
   3.872014e+02  -2.968417e+02
   7.154694e+02   1.069402e+02
   3.537277e+02   4.269376e+02
  -3.265409e+02   3.158195e+02
  -5.701802e+02  -2.733450e+01
  -2.495556e+02  -3.606114e+02
   1.852315e+02  -3.971743e+02
   4.103939e+02  -1.667051e+02
   3.423888e+02   2.034995e+02
   7.910538e+01   3.674368e+02
  -1.493453e+02   2.345736e+02
  -6.980901e+01  -1.309448e+02
   1.296198e+02  -3.341534e+02
   2.734364e+02   6.134463e+01
   1.979647e+02   5.071999e+02
  -2.945001e+02   5.821205e+02
  -4.881716e+02   7.338662e+00
  -1.899063e+02  -4.307981e+02
   2.255320e+02  -2.486995e+02
   2.859831e+02   2.530505e+02
  -8.877437e+01   4.310335e+02
  -4.574091e+02   1.551617e+02
  -4.902601e+02  -4.011107e+02
  -1.340282e+02  -5.016581e+02
   3.138641e+02  -2.919439e+02
   5.116065e+02   4.294255e+01
   3.303582e+02   3.004036e+02
  -1.090774e+02   2.718436e+02
  -3.206916e+02   4.694152e+01
  -2.023394e+02  -1.416795e+02
   7.304698e+01  -7.858796e+01
   1.237931e+02   8.629607e+01
  -1.647442e+02   1.442316e+02
  -2.750402e+02  -6.900082e+01
  -1.841121e+02  -2.433011e+02
   1.491502e+02  -2.413495e+02
   3.023203e+02  -1.136429e+02
   2.348296e+02   6.165880e+01
  -1.553452e+01   2.249957e+02
  -2.595014e+02   3.091259e+02
  -3.356389e+02   1.510356e+02
  -2.120784e+02  -1.109667e+02
  -4.314964e+01  -3.400961e+02
   1.295408e+02  -3.017357e+02
   1.019848e+02  -1.484230e+02
  -3.002768e+00  -2.991567e+01
   4.520005e+01  -8.341161e+01
   1.872431e+02  -1.116156e+02
   2.325965e+02   8.170523e+01
   1.566669e+02   2.414443e+02
  -1.030485e+02   2.640926e+02
  -1.964877e+02   1.810859e+01
  -1.178210e+02  -2.123862e+02
   1.895371e+01  -1.756817e+02
   2.426806e+02  -1.057204e+02
   2.844715e+02   2.175401e+02
   1.401633e+02   2.926075e+02
  -7.723526e+01   2.172377e+02
  -1.872725e+02   1.253642e+02
  -1.173545e+02   4.968324e+01
  -1.220133e+02   1.870333e+01
  -2.276931e+02   7.249722e+00
  -3.375963e+02  -5.438136e+01
  -2.920843e+02  -2.716786e+02
   4.607393e+01  -3.470801e+02
   3.743081e+02  -3.453623e+02
   4.198907e+02  -1.722316e+02
   2.754566e+02   4.889223e+01
   2.195696e+01   1.861794e+02
  -1.232922e+02   2.155420e+02
  -1.738585e+01   5.138850e+01
   9.960058e+01  -8.905740e+01
   1.495644e+02   2.675887e+01
   4.672152e+01   1.593018e+02
  -1.137722e+02   1.488611e+02
  -1.457021e+02  -4.370515e+01
   3.172987e+01  -1.958676e+02
   1.402466e+02  -4.196320e+00
   1.575213e+02   2.202912e+02
  -5.468789e+01   3.165292e+02
  -2.014598e+02   1.419313e+02
  -2.914496e+02  -8.807912e+01
  -2.108016e+02  -2.480988e+02
  -7.768060e+01  -2.129104e+02
   9.070418e+01  -1.495432e+02
   1.643665e+02   1.411443e+01
   2.651034e+01   3.357063e+01
  -1.556873e+01  -3.579561e+01
  -6.221020e+00  -7.929513e+01
   1.001914e+02  -9.447955e+01
   1.472352e+02   2.993996e+01
   5.196857e+01   5.856070e+01
  -5.000939e+01   3.490644e+01
  -6.290239e+01  -5.981649e+01
   9.802888e+01  -7.197275e+01
   2.590144e+02   1.657449e+01
   2.466915e+02   1.425946e+02
   6.184241e+01   2.335150e+02
  -2.138526e+02   1.995177e+02
  -2.746504e+02   1.169804e+02
  -1.496074e+02  -6.868931e+01
   3.980791e+01  -5.484639e+01
   9.741521e+01  -3.738559e+00
  -2.089719e+01   7.066651e+01
  -2.023180e+02   4.432761e+01
  -2.180937e+02  -1.173357e+02
  -5.145288e+01  -1.680877e+02
   1.004997e+02  -1.294104e+02
   1.209672e+02  -2.660564e+01
   5.609068e+01   1.472831e+01
  -2.236558e+01  -1.835075e+01
  -4.615358e+01  -1.073945e+02
   8.151152e+01  -7.943359e+01
   2.172543e+02   1.057203e+01
   1.828534e+02   1.583401e+02
   2.624133e+01   1.993741e+02
  -1.293733e+02   1.545258e+02
  -1.728175e+02  -3.451207e+00
  -6.962500e+01  -9.207749e+01
   4.404583e+01  -6.437244e+01
   9.948049e+01  -3.005376e+01
   3.788826e+01   6.728143e+01
  -2.714760e+01  -1.562229e+01
   3.517483e+01  -3.193961e+00
   7.816531e+01   6.815279e+00
   1.076865e+02   7.823973e+01
   3.839113e+01   1.625337e+02
  -1.255767e+02   1.101381e+02
  -1.572569e+02   7.184997e+01
  -1.535501e+02  -1.140520e+02
  -2.131006e+01  -2.075284e+02
   1.216067e+02  -1.274926e+02
   1.087976e+02  -4.300982e+01
   6.692437e+01   5.871892e+01
   4.501411e+01   2.741541e+01
   5.433837e+01  -8.345270e+01
   5.863688e+01   2.544815e+01
   5.344350e+01   5.975166e+01
  -6.128214e+01   8.972347e+01
  -1.180752e+02   1.454745e+01
  -8.031288e+01  -1.176559e+00
   5.509084e+01  -1.344066e+02
   1.552731e+02  -8.627242e+01
   1.861752e+02   3.740842e+01
   5.762159e+01   1.594870e+02
  -1.123889e+02   2.284265e+02
  -2.368583e+02   3.956186e+01
  -2.504876e+02  -8.136940e+01
  -7.385507e+01  -1.600043e+02
   2.692247e+00  -1.377689e+02
   8.582294e+01  -1.122673e+02
   7.925451e+01  -7.200932e+01
   6.767718e+01  -4.492226e+01
   1.506044e+02  -7.233570e+01
   1.051253e+02   1.400572e+01
   1.060387e+02   1.279733e+02
   2.703520e+01   2.444549e+02
  -1.031136e+02   1.798012e+02
  -1.657878e+02  -4.418688e+01
  -1.305288e+02  -9.479701e+01
  -2.490264e+01  -1.494558e+02
   7.156275e+01  -5.523057e+01
   5.719731e+01  -9.009079e+00
  -2.261908e+01   2.642046e+01
  -4.281328e+01   4.753873e+01
   1.440972e+01   9.432304e+00
   7.529164e+01   2.220131e+01
   4.907196e+00   2.272388e+01
  -6.294679e+01   4.071213e+01
  -1.386531e+02   3.867620e+00
  -1.521636e+02  -4.205530e+01
  -1.285058e+01  -1.055383e+02
   1.584055e+02  -6.238850e+01
   1.260520e+02   2.027928e+01
   3.934672e+01   6.782405e+01
  -5.679866e+01   5.379707e+01
  -8.197919e+01   1.753290e+01
   2.067942e+01  -5.972472e+01
   4.194776e+01  -6.852908e+01
   3.165480e+01  -1.681831e+01
   5.936052e+01   4.866096e+01
   1.127015e+01   3.019847e+01
   5.347999e+01  -8.147217e+00
   3.886615e+01  -1.029097e+01
   7.527247e+00   8.188109e+01
  -4.709409e+01   1.491749e+02
  -1.128108e+02   1.229668e+02
  -1.483805e+02  -1.548384e+01
  -1.117827e+02  -6.468635e+01
  -2.690950e+01  -5.587522e+01
   6.597531e+01  -8.468663e+01
   4.901137e+01  -4.472180e+01
  -5.033236e+01   3.493597e+00
  -1.321886e+02  -2.898814e+01
  -6.255312e+01  -7.193566e+01
   6.689210e+01  -8.910163e+01
   1.531765e+02  -3.522878e+01
   1.321120e+02  -1.250876e+01
  -6.189738e-01   9.573864e+01
  -3.463853e+01   6.298673e+01
  -2.242504e+01  -2.326455e+01
   3.023296e+01  -4.574165e+01
   5.975213e+01  -1.296509e+01
   3.950594e+01   6.999534e+01
  -7.737895e+01   1.490983e+02
  -1.351970e+02   4.505017e+01
  -1.131171e+02  -1.115533e+02
   3.240244e+00  -1.557660e+02
   8.794642e+01  -1.130323e+02
   6.687106e+01  -5.888531e+00
   4.033619e+01   1.452904e+02
   1.576308e+00   5.386924e+01
  -3.768816e+01   1.002230e+01
  -8.596679e+01  -1.793115e+01
  -2.208575e+01  -2.063190e+01
  -1.441334e+01   1.082194e+01
  -3.941178e+01  -2.972626e+01
  -5.614072e+01  -9.113813e+01
  -1.735431e+01  -1.150950e+02
   4.878007e+01  -2.008211e+01
   1.561651e+02   3.006906e+01
   9.580351e+01   6.304314e+01
  -1.047171e+01   4.985444e+01
  -7.895388e+01   1.977176e+01
  -8.987844e+01  -1.491230e+01
   1.031511e+01  -3.298398e+01
   5.842399e+01  -3.052133e+01
   3.589609e+01   1.264432e+01
  -1.169483e+01  -4.361974e+00
   2.562617e+01  -2.800562e+00
   5.013033e+01   2.686843e+01
   1.004169e+02   1.666634e+01
   5.298164e+01   3.605823e+01
  -1.156041e+02   1.221273e+02
  -1.761944e+02   2.758252e+01
  -1.251859e+02  -6.705297e+01
  -5.214780e+01  -2.129902e+02
   1.308880e+02  -1.427627e+02
   8.107821e+01  -5.100222e+01
   1.081822e+02   2.566654e+01
   4.804749e+01   6.988156e+01
   2.718932e+01  -2.833522e+01
  -1.568906e+01   2.097395e+01
   1.053431e+01   5.634664e+01
   1.409467e+01   1.222470e+02
  -2.621743e+01   6.349987e+01
  -4.670974e+01  -2.270057e+01
  -5.246765e+01  -5.563911e+01
  -9.178091e+00  -8.927372e+01
   5.653040e+01  -7.910363e+00
   8.018457e+01   7.930823e+01
   4.474281e+01   1.234875e+02
  -1.050696e+02   3.921413e+01
  -6.601075e+01  -2.360624e+01
  -2.494692e+01  -6.214329e+01
   1.391440e+01  -5.514980e+01
   3.905027e+01  -1.263850e+01
  -2.140698e+00  -1.218229e+01
  -5.888615e+01  -6.321394e+00
  -2.499490e+01  -2.206095e+01
   9.096424e+01  -4.133840e+01
   8.688488e+01  -4.845318e+01
   4.075837e+01   9.085751e+00
  -2.308019e+00   5.936454e+01
  -8.920284e+00   4.243510e+01
   3.060363e+00   1.481592e+01
  -1.075723e+01  -5.042222e+01
   5.603929e+01  -4.322738e+00
   5.001828e+01   3.397607e+00
   1.703172e+01   2.121574e+01
  -1.589144e+01   3.044200e+01
  -1.945214e+01   5.614165e+00
  -2.957571e+01   1.505777e+01
  -2.175690e+01  -1.175170e+01
   9.054878e+00   3.210743e+01
   5.294973e+00  -1.311545e+01
  -8.772919e+00  -3.461883e+01
  -7.717433e+00  -2.507962e+01
   3.962023e+01   4.284907e+00
   5.656319e+01   4.729107e+01
  -9.560147e+00   9.495147e+01
  -3.432631e+01   1.702793e+01
  -5.366260e+01  -4.374945e+00
  -1.499034e+01  -6.975961e+01
   3.514069e+01  -5.114183e+01
   7.168968e+01   3.213546e+00
   4.001293e+01   4.206723e+01
  -2.518670e+01   5.529129e+01
  -3.935833e+01  -1.377007e+01
  -1.581822e+01   7.619640e+00
   2.650764e+01   2.991188e+01
   8.402620e+01   1.285769e+01
  -2.510226e+01   5.558538e+01
  -6.468282e+01   2.259718e+01
