
 $NMID
 id='ANONYMOUS ', fmtdat='(2E16.6)'
 volume=1.0
 tramp=1.0
 $END
   4.488481e+03   2.900106e+02
   2.357628e+03   3.037342e+03
  -1.040972e+03   2.601919e+03
  -2.200686e+03   8.839523e+02
  -9.134918e+02  -6.624609e+02
   9.515342e+02  -4.741035e+02
   1.029526e+03   5.916683e+02
  -8.515485e+01   1.139567e+03
  -8.840322e+02   7.149160e+02
  -9.357768e+02  -1.473977e+02
  -3.840163e+02  -8.856683e+02
   3.284044e+02  -8.911018e+02
   6.788356e+02  -5.703343e+01
   2.844878e+02   6.995811e+02
  -3.150990e+02   7.389877e+02
  -5.818459e+02  -3.068424e+01
  -2.320043e+02  -6.960910e+02
   3.731876e+02  -6.288690e+02
   5.683288e+02  -2.554302e+01
   3.663137e+02   3.883686e+02
  -3.577057e+01   4.465922e+02
  -2.802871e+02   2.455609e+02
  -2.166918e+02  -4.971754e+01
   1.289574e+02  -1.096494e+02
   4.395038e+02   1.423251e+02
   1.698311e+02   4.326090e+02
  -4.636605e+02   4.280339e+02
  -8.646559e+02  -1.087061e+02
  -4.351011e+02  -5.590731e+02
   4.028075e+02  -5.393756e+02
   7.704140e+02   6.824755e+01
   3.754509e+02   4.860612e+02
  -2.535811e+02   5.533375e+02
  -5.895361e+02   2.433025e+02
  -4.556787e+02  -2.535454e+02
  -5.959718e+01  -4.932149e+02
   1.918371e+02  -2.297851e+02
   2.162440e+02   2.791785e+02
  -1.911092e+02   3.356380e+02
  -4.855185e+02  -5.435553e+01
  -2.283401e+02  -6.675060e+02
   3.474189e+02  -7.172415e+02
   6.122415e+02   4.702444e+01
   2.758586e+02   5.723227e+02
  -3.042353e+02   3.389456e+02
  -3.984503e+02  -3.299993e+02
   5.129982e+01  -5.486969e+02
   5.312507e+02  -1.905052e+02
   6.112146e+02   4.210354e+02
   1.443206e+02   6.024969e+02
  -3.906215e+02   3.582480e+02
  -6.437644e+02  -5.209876e+01
  -3.559361e+02  -3.735655e+02
   2.042697e+02  -3.610333e+02
   4.583741e+02  -2.321756e+01
   1.902051e+02   2.624828e+02
  -1.761031e+02   1.352568e+02
  -1.407487e+02  -1.479512e+02
   2.005171e+02  -1.884527e+02
   3.578347e+02   1.189946e+02
   1.586321e+02   3.316370e+02
  -1.936729e+02   2.634729e+02
  -3.463580e+02   2.716668e+01
  -1.669755e+02  -6.714966e+01
   3.466557e+01  -1.954312e+02
   1.842983e+02  -3.212935e+02
   2.935664e+02  -2.178238e+02
   2.720770e+02   1.144877e+02
   6.926157e+01   4.704890e+02
  -1.303642e+02   3.701975e+02
  -1.295231e+02   8.389857e+01
  -2.402082e+01  -2.597008e+01
  -6.850949e+01   8.817590e+01
  -2.022208e+02   1.675437e+02
  -2.904720e+02  -2.930222e+01
  -1.692977e+02  -2.578764e+02
   2.171372e+01  -2.894068e+02
   2.464323e+02  -2.375820e+01
   2.522846e+02   2.567736e+02
  -4.367345e-01   2.925150e+02
  -2.866362e+02   1.303736e+02
  -3.871075e+02  -1.235671e+02
  -1.727781e+02  -3.598444e+02
   9.001946e+01  -3.137908e+02
   2.758099e+02  -1.264043e+02
   1.342378e+02  -8.421407e+00
   1.065513e+02  -8.918447e+00
   2.563180e+02  -5.846135e+01
   3.984567e+02   4.234191e+01
   3.648248e+02   2.818011e+02
   2.350507e+01   4.221100e+02
  -3.744593e+02   4.072293e+02
  -4.993610e+02   2.128597e+02
  -3.552125e+02  -9.621858e+01
  -7.066336e+01  -2.760886e+02
   1.368207e+02  -2.789396e+02
   1.195220e+02  -4.254705e+01
  -7.962667e+01   9.654922e+01
  -1.861667e+02   2.240031e+01
  -6.788800e+01  -2.161195e+02
   2.046338e+02  -1.526153e+02
   1.967689e+02   4.089774e+01
  -2.438852e+00   2.190325e+02
  -2.052739e+02   5.577321e+01
  -1.475109e+02  -2.124139e+02
   4.824114e+01  -3.251961e+02
   2.107638e+02  -1.984257e+02
   3.216880e+02   6.300777e+01
   2.376847e+02   1.768036e+02
   1.091943e+02   2.357128e+02
  -8.236740e+01   2.085257e+02
  -2.111869e+02   4.239538e+01
  -3.873358e+01  -7.217470e+00
   5.457821e+01   3.088666e+01
   4.169020e+01   1.218813e+02
  -7.615292e+01   8.650719e+01
  -1.850911e+02  -4.043868e+01
  -6.550515e+01  -1.008605e+02
   7.961562e+01  -3.832194e+01
   7.764595e+01   3.488889e+01
  -1.006908e+02   1.368810e+02
  -2.779762e+02   1.356839e+01
  -2.582395e+02  -1.238467e+02
  -6.591241e+01  -2.627957e+02
   1.959933e+02  -2.823266e+02
   2.726137e+02  -9.670381e+01
   1.379542e+02   7.193303e+00
   4.545929e+00   1.135523e+02
  -8.942558e+01   7.291692e+00
   5.843083e+01  -1.284507e+02
   1.977226e+02  -7.045806e+01
   2.321003e+02   1.120604e+02
   6.116090e+01   2.189012e+02
  -1.072527e+02   1.628682e+02
  -1.419672e+02   3.533610e+01
  -9.439416e+01  -2.134618e+01
  -1.361578e+01  -3.051712e+01
   3.160741e+01   8.140706e+01
  -7.891473e+01   1.126231e+02
  -2.165440e+02   8.665700e+01
  -1.664438e+02  -1.377755e+02
  -2.297084e+01  -2.119566e+02
   1.485586e+02  -1.870029e+02
   2.282769e+02  -3.907853e+01
   8.050043e+01   1.060441e+02
  -7.819123e+01   1.194066e+02
  -8.337892e+01   9.952915e+00
  -1.787879e+01  -2.703552e+01
   2.424317e+01  -2.296137e+01
   1.807125e+00   3.005815e+01
  -5.093680e+01  -8.945660e+00
  -7.442846e+01  -8.379057e+01
  -4.593573e+01  -1.702489e+02
   1.016412e+02  -1.556866e+02
   2.584247e+02  -3.189512e+01
   1.672437e+02   1.041317e+02
   8.790933e+01   2.102967e+02
  -1.713717e+02   1.549589e+02
  -1.419408e+02   2.439143e+01
  -4.302759e+01  -6.261712e+01
  -3.646475e+01  -6.497827e+01
  -3.833264e+01   1.756782e+01
  -1.106935e+02   8.526693e+00
  -3.602573e+01  -1.620619e+01
   2.695113e+01  -9.541841e+01
   1.250898e+02  -8.823655e+01
   7.085058e+01  -1.055760e+01
  -6.135952e+00   7.417502e+01
  -1.191052e+02   8.023007e+01
  -1.962472e+02  -3.938312e+01
  -1.059036e+02  -1.834360e+02
   9.061411e+01  -2.697070e+02
   2.577303e+02  -1.107582e+02
   2.449785e+02   7.109512e+01
   8.199130e+01   2.080886e+02
  -1.614313e+01   1.568492e+02
  -1.060194e+02   9.917469e+01
  -7.618160e+01   7.839933e+01
  -5.649597e+01   1.095021e+02
  -4.853882e+01   7.056276e+01
  -1.102802e+02   3.702901e+01
  -1.186686e+02  -1.028505e+02
  -2.366516e+01  -2.729931e+02
   1.195173e+02  -1.815081e+02
   1.907101e+02  -2.963111e+01
   1.170981e+02   1.435989e+02
  -5.923243e+00   1.878438e+02
  -8.153442e+01   1.025351e+02
  -7.960304e+01  -5.142013e+00
  -1.944812e+01  -3.478327e+01
  -1.218317e+01  -5.893532e+01
  -5.133354e+01  -2.958448e+01
  -4.447891e+01  -3.688378e+01
  -4.608497e+01  -4.330990e+01
   5.653354e+01  -8.028653e+01
   1.302634e+02  -9.607903e+00
   1.457213e+02   9.615595e+01
   4.027375e+01   1.127527e+02
  -1.259974e+02   9.095227e+01
  -1.527883e+02  -1.593333e+00
  -4.847386e+01  -4.396574e+01
   9.400594e+01  -9.783511e+00
   9.344230e+01   9.589854e+00
   2.887777e+01   1.034168e+02
  -2.837483e+01   9.590194e+01
  -8.492993e+01  -1.673785e+01
  -5.606425e+01  -7.231528e+01
  -2.644080e+01  -5.413200e+01
  -4.071768e+01   1.792883e+01
  -6.292656e+01   2.856075e+01
  -7.531062e+01  -5.418683e+01
   1.606886e+01  -1.315422e+02
   8.787369e+01  -1.743970e+02
   1.660537e+02  -3.911746e+01
   1.550920e+02   8.689949e+01
   3.126625e+01   7.546087e+01
  -8.092705e+01   8.030556e+01
  -1.129288e+01  -1.869069e+01
   4.213923e+01   1.296200e+01
   1.379975e+02   4.064932e+01
   7.306059e+01   1.125932e+02
  -8.078092e+01   5.232819e+01
  -1.984062e+02   8.899531e+01
  -1.375338e+02  -5.310140e+01
  -3.821301e+01  -8.749237e+01
   4.857578e+01  -5.394472e+01
   5.630024e+01  -4.063820e+01
  -5.574817e+01   2.860773e+01
  -5.174095e+01  -1.953473e+01
  -2.745822e+01  -1.168991e+02
   9.121211e+01  -1.231454e+02
   1.373184e+02  -9.240161e+01
   1.565475e+02   8.331617e+01
  -5.914057e+00   1.916489e+02
  -7.088904e+01   1.443944e+02
  -1.231697e+02  -3.337347e+01
  -4.848096e+01  -1.094861e+02
  -1.582871e+01  -1.081303e+02
   1.785363e+01  -4.731757e+01
   4.572742e+01   5.712526e+01
   4.959291e+01   2.242675e+01
   2.624377e+00  -3.146486e+01
   4.630383e+01   1.306245e+01
   7.564527e+01   1.012962e+02
   5.067096e+01   1.193450e+02
  -6.747826e+01   7.238692e+01
  -1.544150e+02  -7.576802e+01
  -9.604845e+01  -7.664313e+01
  -1.420354e+01  -4.700028e+01
   9.855888e+01  -3.450198e+01
   6.816800e+01   9.329632e+00
   1.087310e+01   9.051029e+00
  -1.734395e+01   2.689756e+01
  -2.071522e+01   2.546863e+01
   2.268117e+01   1.609105e+00
   8.734916e+00   5.288059e+00
  -1.018527e+02  -4.083184e+00
  -7.979017e+01  -1.110444e+01
  -2.214082e+01  -9.495422e+01
   1.107018e+02  -1.297912e+02
   1.843477e+02  -7.310652e+01
   1.226474e+02   9.700853e+01
  -8.834458e+00   1.654899e+02
  -4.891054e+01   1.467312e+02
  -1.039407e+02   2.420535e+01
  -7.005521e+01  -3.725682e+01
  -3.282943e+01  -1.341191e+01
  -2.387521e+01   2.309507e+01
  -2.707789e+01   2.158798e+01
  -2.953036e+01  -5.108561e+01
  -1.159943e+01  -8.995932e+01
   5.269720e+01  -9.175685e+01
   6.899263e+01   3.940921e+01
   1.031667e+02   8.359995e+01
  -2.291822e+01   9.064541e+01
  -1.006832e+02   4.906116e+01
  -5.332107e+01  -5.677166e+01
  -6.289886e+01  -9.265190e+01
   6.954999e+01  -3.477116e+01
   7.686830e+01   4.659606e+01
   1.572722e+01   3.164675e+01
   8.672011e+00   7.520215e+01
  -2.423957e+01   3.452401e+01
   4.703203e+01  -5.067413e+00
   4.886455e+01  -3.672776e+01
  -1.983513e+00  -7.262835e+00
  -1.081735e+02   7.092413e+01
  -9.151437e+01   4.825664e+01
  -6.828543e+01  -3.045587e+01
   8.924011e+00  -5.909302e+01
   3.759941e+01  -8.318468e+01
   1.951033e+01  -5.343381e+00
   2.059793e+01   5.665833e+01
  -2.797219e+01   7.342905e+01
  -1.203534e+01  -2.881478e+01
  -3.862594e+01  -1.911386e+01
  -2.803344e+01  -2.069695e+01
  -1.364808e+01   3.254016e+01
   1.997746e+01   2.616723e+01
   2.955053e+01  -5.095108e+00
   1.332582e+01   2.938332e+00
  -3.713637e-01   6.120844e+01
  -1.366835e+00   2.790596e+01
   1.024731e+00   1.648931e+01
  -8.180714e+00  -2.121780e+01
   9.086595e+00  -6.049193e+01
  -1.581554e+01  -6.133267e+01
   4.917183e+01  -4.622452e+01
   4.729595e+01   3.925631e+01
   4.758362e+00   5.115597e+01
  -3.739902e+01  -1.227645e+01
  -8.194088e+01  -2.003871e+01
  -5.709171e+01  -2.019041e+01
   5.073844e+01  -2.139368e+01
   7.625460e+01   8.829764e-01
   1.082479e+01   4.133857e+00
  -4.004192e+01   2.557724e+01
  -5.624990e+01  -6.148342e+01
   3.524239e+01  -7.438801e+01
   1.372505e+02  -3.673271e+01
