
 $NMID
 id='ANONYMOUS ', fmtdat='(2E16.6)'
 volume=1.0
 tramp=1.0
 $END
  -4.614325e+03  -2.954914e+02
  -2.395431e+03  -2.729375e+03
   9.890693e+02  -2.756602e+03
   2.377008e+03  -8.152297e+02
   8.654741e+02   9.350425e+02
  -8.808752e+02   6.091988e+02
  -1.058954e+03  -5.542384e+02
   2.408718e+00  -1.183817e+03
   9.742760e+02  -8.513354e+02
   9.484258e+02   1.690720e+02
   4.517046e+02   9.499204e+02
  -3.486783e+02   8.858690e+02
  -6.409111e+02   9.382467e+01
  -3.607085e+02  -7.798422e+02
   3.202621e+02  -7.583468e+02
   6.292083e+02   4.087369e+00
   2.704624e+02   7.263959e+02
  -4.070255e+02   6.029280e+02
  -6.076612e+02   1.008219e+02
  -3.906533e+02  -3.806238e+02
   7.768507e+00  -4.667828e+02
   2.774031e+02  -2.859314e+02
   2.603029e+02   3.647823e+01
  -1.246576e+02   1.014763e+02
  -4.545432e+02  -9.739536e+01
  -1.668447e+02  -4.555663e+02
   4.833681e+02  -4.391894e+02
   8.590264e+02   7.839939e+01
   4.245658e+02   6.144192e+02
  -4.014864e+02   5.043575e+02
  -7.221695e+02  -9.221044e+00
  -3.626903e+02  -4.899690e+02
   2.450627e+02  -5.265570e+02
   6.094241e+02  -2.226259e+02
   4.557484e+02   2.351944e+02
   5.930144e+01   4.956799e+02
  -2.042884e+02   3.089536e+02
  -1.750356e+02  -2.384382e+02
   2.045379e+02  -4.531701e+02
   4.336041e+02   1.035426e+01
   2.476830e+02   7.061266e+02
  -3.386616e+02   7.420642e+02
  -6.067038e+02  -1.378336e+01
  -2.819135e+02  -6.101722e+02
   2.836260e+02  -2.517260e+02
   3.731829e+02   3.266006e+02
  -7.162418e+01   5.432641e+02
  -5.020348e+02   1.139348e+02
  -6.136975e+02  -4.050502e+02
  -1.986369e+02  -5.839726e+02
   4.212855e+02  -3.376228e+02
   6.413134e+02   1.098672e+02
   3.580239e+02   3.897340e+02
  -1.805008e+02   3.808608e+02
  -4.367058e+02  -4.554047e-01
  -2.397669e+02  -2.366744e+02
   1.642453e+02  -8.294796e+01
   1.398289e+02   1.599401e+02
  -1.843287e+02   2.205350e+02
  -3.569747e+02  -1.142295e+02
  -1.162057e+02  -3.374808e+02
   2.327277e+02  -2.290715e+02
   3.007563e+02  -2.274612e+01
   2.104333e+02   1.058928e+02
  -1.473037e+01   2.324438e+02
  -2.440017e+02   3.050393e+02
  -3.565908e+02   2.329514e+02
  -2.763847e+02  -1.488654e+02
  -9.916797e+01  -4.276252e+02
   1.240043e+02  -3.813505e+02
   1.249907e+02  -1.115730e+02
   1.076340e+01   1.310684e+01
   4.654555e+01  -9.330340e+01
   2.077031e+02  -1.445556e+02
   3.023770e+02   6.888833e+01
   1.430935e+02   2.472193e+02
  -3.773799e+01   2.865127e+02
  -2.120577e+02   1.703317e+01
  -1.934701e+02  -2.296341e+02
  -6.418640e+00  -2.975553e+02
   2.627823e+02  -9.709089e+01
   3.526164e+02   2.066574e+02
   2.089863e+02   3.335242e+02
  -1.144873e+02   2.822137e+02
  -2.343712e+02   1.083243e+02
  -1.299330e+02  -2.537557e+01
  -7.172755e+01   1.027834e+01
  -2.166498e+02   4.393586e+01
  -3.899068e+02  -8.379257e+01
  -2.860128e+02  -2.966020e+02
   3.232012e+01  -4.344914e+02
   4.019218e+02  -4.160302e+02
   4.754741e+02  -1.611149e+02
   3.515277e+02   1.019534e+02
   4.735845e+01   3.474030e+02
  -1.294638e+02   2.795426e+02
  -6.211945e+01  -5.159745e+00
   8.957111e+01  -9.801576e+01
   1.690474e+02   1.815662e+01
   7.531255e+01   2.317395e+02
  -1.978418e+02   1.895758e+02
  -2.060607e+02  -5.652669e+01
   1.404338e+00  -2.370214e+02
   1.846392e+02  -4.556752e+01
   1.637465e+02   2.606634e+02
  -3.468733e+01   3.786079e+02
  -2.296681e+02   1.791300e+02
  -3.390204e+02  -3.514439e+01
  -2.812703e+02  -2.248992e+02
  -9.847975e+01  -3.212054e+02
   1.074623e+02  -1.794178e+02
   1.696505e+02  -1.229128e+01
   6.971376e+01   1.186924e+01
  -7.280704e+01  -1.080907e+01
  -4.661039e+01  -1.507119e+02
   1.322762e+02  -1.145065e+02
   2.338467e+02   2.457173e+01
   6.143140e+01   8.828469e+01
  -1.026689e+02   4.711232e+01
  -7.048453e+01  -9.460128e+01
   9.440389e+01  -9.719292e+01
   2.782529e+02   1.877508e+01
   2.412552e+02   1.633378e+02
   5.445598e+01   3.102282e+02
  -1.714468e+02   2.976419e+02
  -2.987224e+02   1.482398e+02
  -1.488007e+02  -7.368776e+01
   1.760190e+01  -1.078362e+02
   5.736300e+01   2.559484e+01
  -6.124388e+01   8.855783e+01
  -1.842252e+02   4.395223e+01
  -1.898770e+02  -1.165294e+02
  -6.884054e+01  -2.020725e+02
   9.167094e+01  -1.279625e+02
   1.432459e+02  -3.555527e+01
   4.992518e+01   9.086664e+01
  -3.155410e+01   2.285232e+01
  -5.927778e+01  -9.689602e+01
   6.904994e+01  -1.301331e+02
   2.275313e+02  -5.565540e+01
   2.152976e+02   1.308549e+02
   3.006865e+01   2.359274e+02
  -1.885802e+02   1.636791e+02
  -2.074847e+02   7.995145e+00
  -8.164894e+01  -1.513282e+02
   7.428952e+01  -9.727771e+01
   6.969478e+01  -1.821943e+01
   2.297151e+01   5.026111e+01
  -1.646996e+01   2.051957e+01
   1.046555e+01  -2.509585e+01
   8.584539e+01   1.084633e+01
   1.051975e+02   8.408021e+01
   3.430224e+01   1.079691e+02
  -1.406351e+02   1.403441e+02
  -2.900072e+02   3.924963e+01
  -2.524451e+02  -1.637856e+02
  -6.701999e+01  -2.284512e+02
   7.174978e+01  -1.814858e+02
   1.513049e+02  -2.820634e+00
   5.654189e+01   8.974941e+01
   9.924526e+00   3.600903e+01
   4.002470e+01  -2.180119e+01
   1.935401e+01   2.043023e+01
   2.711093e+01   3.819104e+01
  -1.624511e+01   7.949265e+01
  -1.010433e+02   7.374661e+01
  -1.014086e+02   3.517130e+00
   1.247086e+01  -7.494924e+01
   1.335793e+02  -1.137312e+02
   2.086212e+02   6.756628e+01
   1.195922e+02   2.145260e+02
  -8.949560e+01   2.268787e+02
  -2.716444e+02   1.031129e+02
  -2.380515e+02  -9.557455e+01
  -4.823815e+01  -1.838647e+02
  -8.412799e+00  -1.362869e+02
   1.092511e+02  -9.313705e+01
   6.764696e+01  -7.278731e+01
   7.436853e+01  -1.370693e+02
   9.238696e+01  -6.846722e+01
   1.046860e+02   2.672756e+01
   7.468932e+01   1.725968e+02
   3.952762e+01   2.567851e+02
  -1.308834e+02   1.652721e+02
  -1.782026e+02   1.008994e+01
  -1.433306e+02  -1.236280e+02
  -3.432369e+00  -1.786306e+02
   4.505064e+01  -1.062089e+02
   3.074795e+01   5.628552e+00
   1.173659e+01   6.419902e+01
   5.213483e+01   4.569368e+01
   5.460346e+01   4.198874e+01
   9.810089e+01   9.042111e+00
   4.360098e+01   3.446382e+01
  -1.885335e+01   2.871441e+01
  -1.441086e+02   2.044592e+01
  -1.770865e+02  -9.909126e+01
  -2.911834e+01  -1.307190e+02
   1.120949e+02  -7.970369e+01
   1.536772e+02  -7.021885e+01
   5.520496e+01   3.106456e+01
  -6.304091e+01   7.000431e+01
  -9.806691e+01  -4.048461e+01
   1.547453e+01  -7.624765e+01
   6.101508e+01  -3.916861e+01
   4.276738e+01  -1.568970e+01
   5.556236e+01   5.950571e+01
   6.388616e+01   4.768038e+00
   5.290647e+01   1.492563e+01
   5.817679e+01   1.585273e+01
   3.973457e+01   8.102702e+01
   5.651553e-01   1.587877e+02
  -1.089964e+02   1.606801e+02
  -1.648236e+02   3.783638e+01
  -1.189656e+02  -4.319875e+01
  -4.116746e+01  -7.360444e+01
   8.259976e+01  -4.716671e+01
   3.935389e+01  -1.836898e+01
  -5.010569e+01  -4.458810e+01
  -1.180508e+02  -6.339674e+00
  -9.226301e+01  -1.058759e+02
   1.162458e+02  -1.638262e+02
   2.033657e+02  -1.873660e+01
   1.219091e+02   2.574448e+01
   5.222597e+01   1.115121e+02
  -8.102715e+01   8.791012e+01
  -7.018206e+01   1.009807e+01
   3.659568e+01  -4.089815e+01
   8.100853e+01   5.067005e+01
   4.610537e+01   1.293578e+02
  -7.542927e+01   1.537539e+02
  -2.022029e+02   7.946094e+01
  -1.141432e+02  -1.530466e+02
  -6.530074e+00  -2.591203e+02
   1.007816e+02  -1.402450e+02
   9.988913e+01  -2.366420e+01
   9.175643e+01   1.150665e+02
  -6.222006e-01   8.302101e+01
  -3.597264e+01   2.410957e+01
  -4.683777e+01  -5.218059e+01
  -2.352664e+01   9.982226e+00
  -1.504630e+01  -2.105933e+01
  -2.195227e+01  -1.648991e+01
  -6.581343e+01  -7.037176e+01
  -7.938857e+01  -1.098417e+02
   3.531462e+01  -1.824537e+01
   1.222258e+02   4.823041e+01
   1.272766e+02   7.007016e+01
   4.899730e+01   6.919295e+01
  -1.196984e+02  -4.868872e+00
  -1.152129e+02  -1.672760e+01
  -2.254734e+01  -3.485416e+00
   3.007653e+01   1.531870e+01
   4.375745e+01  -1.558023e+01
  -3.741586e+00   9.457969e+00
   1.628371e+01  -1.304053e+01
   8.473866e+01   2.764340e+01
   6.833655e+01  -7.688986e+00
  -8.763458e+00   6.466922e+01
  -9.636333e+01   9.990995e+01
  -2.161784e+02   5.191884e+01
  -1.366995e+02  -5.653554e+01
  -4.370686e+01  -1.689571e+02
   4.651339e+01  -1.553503e+02
   1.093006e+02  -2.668195e+01
   7.913667e+01  -6.753041e+00
   3.393502e+01   3.979188e+01
   2.712365e+00  -2.410258e+01
   1.654645e+01   4.747115e+00
   4.445180e+01   6.004143e+01
   1.564334e+01   5.935074e+01
  -1.074003e+01   8.207778e+01
  -5.305567e+01  -1.017148e+01
  -1.050411e+02  -1.215357e+02
   2.676564e+00  -1.124974e+02
   8.080185e+01  -1.888276e+01
   1.124481e+02   5.683075e+01
   4.658929e+01   1.110415e+02
  -3.186003e+01   1.009135e+02
  -5.748754e+01  -2.085292e+01
  -5.032320e+01  -2.286718e+01
   3.363346e+01  -3.531981e+01
   2.131814e+01  -5.089619e+01
  -5.848187e+01   4.842564e+00
  -8.217643e+01  -1.990303e+00
  -1.661604e+01  -9.496184e+00
   9.420342e+01  -7.273199e+01
   5.064042e+01  -7.324864e+01
   6.569136e+01  -4.418178e+00
  -2.951076e+01   5.492713e+01
  -1.684103e+01   6.358438e+01
   1.076561e+01   1.621519e+01
   1.047509e+01  -8.938107e+01
   6.297894e+01  -5.537940e+01
   4.069715e+01   3.573013e+01
   2.448711e+01   4.571194e+01
  -3.104716e+01   1.963404e+01
  -4.121353e+01  -1.139749e+01
  -3.014481e+01  -5.974226e+00
  -4.155508e+01   1.010050e+01
   1.382199e+01  -1.316687e+01
  -1.769183e+01   2.691734e+01
  -2.521079e+01  -2.183758e+01
  -1.495401e+00  -1.508791e+01
   2.194075e+01  -4.264497e+01
   5.504770e+01   5.218675e+01
   2.810023e+00   8.629292e+01
  -5.504491e+01   3.103431e+01
  -7.209522e+01  -3.697389e+01
  -3.035426e+01  -3.061764e+01
   5.134692e+01  -2.778491e+01
   1.017513e+02   2.657944e+01
   8.447898e+01   6.418644e+01
  -1.604832e+01   6.605585e+01
  -5.589433e+01   1.259514e+01
  -2.379179e+01   3.603826e+01
   5.879429e+01   1.101664e+01
   2.287251e+01   4.483674e+01
  -4.341954e+00  -1.528060e+01
  -9.445732e+01   1.916371e+01
