
 $NMID
 id='ANONYMOUS ', fmtdat='(2E16.6)'
 volume=1.0
 tramp=1.0
 $END
   3.889206e+03  -8.295061e+01
   2.740729e+03   1.922932e+03
  -3.489951e+02   2.737836e+03
  -1.867084e+03   1.268544e+03
  -1.191907e+03  -3.797592e+02
   3.149592e+02  -7.079434e+02
   8.165680e+02   6.715211e+01
   1.639357e+02   8.430224e+02
  -6.486494e+02   8.796437e+02
  -9.234966e+02   7.769641e+01
  -5.828714e+02  -7.919477e+02
   1.280300e+02  -8.735010e+02
   5.903925e+02  -2.087209e+02
   3.979771e+02   6.448451e+02
  -1.906056e+02   7.255315e+02
  -5.554096e+02   4.423696e+01
  -3.536116e+02  -6.292582e+02
   2.768981e+02  -6.729318e+02
   5.948770e+02  -1.402035e+02
   4.168452e+02   3.416385e+02
   7.119859e+01   4.532980e+02
  -1.853155e+02   2.411420e+02
  -1.521866e+02   7.804784e+01
   1.018351e+02  -2.583831e+01
   3.836113e+02   1.618660e+02
   1.793685e+02   4.198333e+02
  -4.675455e+02   3.815367e+02
  -6.850921e+02  -1.949116e+01
  -3.979617e+02  -5.238969e+02
   3.320313e+02  -3.736705e+02
   6.319279e+02   5.648690e+01
   3.141974e+02   4.516844e+02
  -2.516853e+02   4.419590e+02
  -5.173007e+02   1.924896e+02
  -3.772291e+02  -2.050442e+02
  -1.026821e+02  -4.410829e+02
   1.541323e+02  -2.886834e+02
   1.469708e+02   2.069631e+02
  -1.914959e+02   3.360534e+02
  -3.784486e+02   1.069143e+00
  -2.551039e+02  -6.644683e+02
   1.814136e+02  -6.298474e+02
   4.858701e+02  -5.484101e+01
   2.655163e+02   4.502804e+02
  -2.504296e+02   2.940336e+02
  -3.391872e+02  -2.492069e+02
   6.224843e+01  -5.040255e+02
   4.913567e+02  -1.325879e+02
   5.952895e+02   3.461889e+02
   1.634900e+02   5.673686e+02
  -3.582493e+02   3.050426e+02
  -5.775660e+02  -5.888924e+01
  -3.830604e+02  -3.815332e+02
   4.400682e+01  -3.565095e+02
   3.876523e+02  -1.129156e+02
   2.375073e+02   1.705996e+02
  -8.887871e+01   1.329186e+02
  -1.651466e+02  -9.304443e+01
   8.429506e+01  -1.579990e+02
   2.700216e+02   2.150323e+01
   1.506974e+02   3.077609e+02
  -2.194420e+02   2.941213e+02
  -3.252035e+02   8.588133e+01
  -2.191216e+02  -9.268085e+01
   3.334154e+01  -2.745493e+02
   2.736082e+02  -3.395417e+02
   3.737399e+02  -2.109097e+02
   2.770564e+02   1.590275e+02
   7.994372e+01   3.943056e+02
  -7.660422e+01   3.387239e+02
  -6.884688e+01   1.208990e+02
  -3.850441e+01   4.263627e+01
  -7.945974e+01   1.097420e+02
  -2.318684e+02   1.031128e+02
  -2.834470e+02  -7.091074e+01
  -1.301485e+02  -2.632792e+02
   7.534057e+01  -2.446277e+02
   2.152098e+02  -1.086532e+00
   1.932760e+02   1.987209e+02
  -6.288944e+01   2.949269e+02
  -2.608951e+02   7.988907e+01
  -3.238884e+02  -1.230219e+02
  -1.825570e+02  -3.342347e+02
   9.127749e+01  -2.797695e+02
   2.426104e+02  -1.450274e+02
   1.453212e+02  -2.805191e+01
   1.343676e+02  -1.999646e+01
   2.283970e+02  -3.703876e+01
   3.642096e+02   6.876421e+01
   3.149925e+02   3.103203e+02
  -2.405930e+00   4.319993e+02
  -3.460338e+02   3.874316e+02
  -4.353982e+02   1.908709e+02
  -3.018981e+02  -1.516974e+02
  -7.236289e+01  -2.288856e+02
   1.117439e+02  -2.108285e+02
   6.726682e+01  -4.768883e+01
  -1.337788e+02   9.305217e+01
  -9.539086e+01   2.295948e+01
  -3.114613e+00  -1.811221e+02
   1.509284e+02  -1.775199e+02
   1.977533e+02   3.259045e+01
  -5.328594e+01   1.893955e+02
  -1.850213e+02   4.853859e+01
  -1.649351e+02  -2.076882e+02
   4.017695e+01  -3.333106e+02
   2.195239e+02  -2.203388e+02
   3.694959e+02   9.662886e+01
   2.768049e+02   2.687404e+02
   8.050960e+01   2.931019e+02
  -1.228995e+02   1.570016e+02
  -1.618257e+02   1.045998e+01
  -5.969784e+01  -4.701011e+01
   3.054338e+01   3.927873e+01
   3.555337e+01   1.513698e+02
  -1.183452e+02   1.010255e+02
  -1.636716e+02  -3.811761e+01
  -5.167599e+01  -8.794162e+01
   1.206567e+02   1.502851e+01
   3.770057e+01   8.744246e+01
  -1.459492e+02   1.058520e+02
  -2.827099e+02  -5.243513e+00
  -2.951690e+02  -1.391699e+02
  -7.448969e+01  -2.857143e+02
   2.077926e+02  -2.741038e+02
   2.864520e+02  -1.231698e+02
   1.701838e+02   6.236112e+01
  -1.524520e+01   6.053644e+01
  -1.078093e+02  -2.053034e+01
   1.785168e+01  -1.333725e+02
   2.203953e+02  -6.664172e+01
   2.377570e+02   1.333372e+02
   4.038457e+01   2.080627e+02
  -5.731925e+01   1.794217e+02
  -1.192751e+02   6.093511e+01
  -5.283417e+01  -1.002667e+02
   2.446141e+01  -1.802901e+01
   1.630825e+01   6.168796e+01
  -6.661991e+01   9.466939e+01
  -1.985410e+02   3.621473e+01
  -2.029855e+02  -1.642331e+02
   3.122267e+00  -2.156135e+02
   1.739625e+02  -1.886852e+02
   2.077054e+02  -6.535760e+00
   6.295000e+01   1.155377e+02
  -8.336345e+01   1.477815e+02
  -7.108209e+01   1.483219e+01
  -1.751633e+00  -4.990631e+01
   3.495311e+01  -3.015157e+01
  -3.135082e+01  -1.896831e+01
  -6.334243e+01  -9.930281e+00
  -1.176647e+02  -8.947204e+01
   2.375193e+01  -1.853768e+02
   1.087468e+02  -1.434886e+02
   1.953916e+02  -1.539565e+01
   2.139959e+02   1.254400e+02
   3.115244e+01   1.907758e+02
  -1.196233e+02   1.936572e+02
  -1.354513e+02   2.127239e+00
  -5.904504e+01  -6.971862e+01
   1.588233e+01  -3.493416e+01
  -7.732923e+01   2.062180e+01
  -9.505974e+01   2.491118e+01
  -8.191644e+01  -4.129485e+01
   3.227154e+01  -6.877902e+01
   1.112847e+02  -7.210879e+01
   1.153857e+02   3.152399e+01
  -3.884286e+01   1.149869e+02
  -1.620729e+02   8.415039e+01
  -2.221517e+02  -3.523002e+01
  -9.931388e+01  -2.383381e+02
   8.027824e+01  -2.431567e+02
   2.217608e+02  -9.795214e+01
   2.791488e+02   7.766520e+01
   9.488620e+01   2.256501e+02
  -3.931439e+01   1.622831e+02
  -1.301268e+02   5.222968e+01
  -7.657920e+01   2.377084e+01
  -3.149335e+01   8.011102e+01
  -8.233060e+01   6.538090e+01
  -1.904487e+02   6.399269e+00
  -1.061431e+02  -1.298357e+02
  -6.387160e+01  -2.014072e+02
   9.973905e+01  -1.885318e+02
   1.851772e+02  -2.527190e+01
   1.579301e+02   7.798218e+01
  -2.607035e+00   1.809244e+02
  -7.914983e+01   8.375105e+01
  -3.109962e+01   9.358936e+00
  -1.763850e+01  -4.060045e+01
   3.035139e+01  -1.050113e+01
  -3.615649e+01   9.465653e+00
  -9.152993e+01  -1.799509e+01
  -5.116414e+01  -2.438920e+01
   3.371662e+01  -6.862930e+01
   1.455050e+02  -3.647394e+01
   1.501094e+02   4.997524e+01
   3.416236e+01   8.186550e+01
  -1.427746e+02   7.834401e+01
  -1.631513e+02   2.617584e+01
  -3.691137e+01  -4.997951e+01
   8.549402e+01  -6.527669e+01
   1.137117e+02   1.404422e+01
   2.733940e+01   4.893672e+01
  -2.150673e+01   5.807471e+01
  -8.559618e+01  -1.767721e+01
  -5.567267e+01  -4.425963e+01
  -1.570046e+01  -4.251771e+01
  -4.834476e+01   9.313496e-01
  -5.993697e+01   4.837193e+00
  -2.187228e+01  -7.898156e+01
   6.460006e+01  -1.413736e+02
   1.171356e+02  -1.496447e+02
   1.860039e+02  -5.568023e+00
   1.241771e+02   9.177406e+01
   4.726053e+00   1.096192e+02
  -8.057935e+01   8.589621e+01
  -7.045724e+01  -1.668017e+01
   1.741880e+01  -1.465497e+01
   1.579612e+02   2.885105e+01
   8.646378e+01   1.199304e+02
  -8.345870e+01   1.004467e+02
  -1.722141e+02   3.487740e+01
  -1.788367e+02  -2.410310e+01
   2.534603e+00  -1.110813e+02
   8.628978e+01  -6.696181e+01
   5.556301e+01  -2.455266e+00
  -4.014098e+01   3.289306e+01
  -1.005448e+02  -4.520146e+00
  -5.510415e+01  -1.227613e+02
   9.504384e+01  -1.764851e+02
   1.926359e+02  -9.151888e+01
   1.019722e+02   1.010064e+02
   4.619210e+01   2.112036e+02
  -1.033458e+02   1.684712e+02
  -8.859013e+01   1.770925e+01
  -4.832692e+01  -1.488469e+02
  -1.876949e+01  -9.885145e+01
   6.961101e+01  -1.174883e+01
   5.822072e+01   4.394685e+01
   3.666357e+01   3.334902e+01
   2.153101e+01  -5.059311e+01
  -4.274964e+00  -2.104616e+01
   2.409430e+01   9.388712e+01
   5.767730e+01   7.394829e+01
  -7.241820e+01   2.947010e+01
  -1.344887e+02   1.036968e+01
  -1.122782e+02  -4.471874e+01
  -1.513956e+00  -4.194870e+01
   1.240523e+02  -5.390180e+01
   9.160087e+01  -3.430804e+01
   3.381562e+01  -5.727667e-01
  -3.088763e+01   6.509671e+01
  -4.323201e+01   1.907568e+01
  -1.265416e+01  -1.530580e+01
  -2.829504e+01   1.951953e+00
  -8.176237e+01  -2.593452e+01
  -1.064408e+02   1.114492e+01
  -1.111927e+01  -8.112762e+01
   9.807879e+01  -1.426663e+02
   1.842746e+02  -7.889038e+01
   1.618282e+02   2.711996e+01
   2.025156e+01   1.650825e+02
  -7.614589e+01   1.894164e+02
  -1.200678e+02   5.628420e+01
  -9.211189e+01  -5.705048e+00
  -7.959036e+01  -4.513817e+01
  -2.578311e+01  -3.408702e+01
  -1.452300e+01   1.224625e+00
  -4.434650e+01  -3.472052e+01
  -2.138186e+01  -8.834010e+01
   2.416015e+01  -7.050983e+01
   9.690648e+01   2.244326e+01
   7.427009e+01   1.134684e+02
   1.737491e+01   1.435908e+02
  -1.061722e+02   1.530016e+01
  -1.101036e+02  -8.090041e+01
  -5.003766e+01  -7.383698e+01
   3.569857e+01  -8.898026e+01
   7.373723e+01   1.017484e+00
   2.768829e+01   8.282919e+01
  -7.095544e+01   8.449526e+01
  -2.860534e+01   7.744369e+00
   5.061965e+01  -2.345590e+01
   6.640564e+01  -5.493293e+00
   2.440650e+01   4.306144e+01
  -9.173687e+01   5.891581e+01
  -1.114129e+02   4.711122e+01
  -8.409912e+01  -1.730364e+01
   1.309705e+01  -8.988030e+01
   6.721759e+01  -1.165188e+02
   5.661023e+01  -4.434122e+00
  -1.833773e+01   5.510785e+01
  -5.120511e+01   7.680443e+01
  -5.526222e+01  -2.839967e+00
  -4.270585e+01  -5.257295e+01
  -7.323627e+00  -2.236223e+01
   4.701868e+01  -3.586392e-01
   5.501232e-01   1.740138e+01
   2.744970e+01   7.182094e-01
  -2.632366e+01  -3.523363e-01
  -1.267932e+01   2.668331e+01
   5.495760e+00   6.584589e+01
   4.017459e+01   5.609955e+01
  -1.736020e+01   4.570458e+01
  -3.895258e+01  -5.992955e+01
  -2.591999e+01  -6.126506e+01
   9.057578e+01   1.403644e+01
   5.267286e+01   1.628371e+01
  -2.871556e+00   4.367956e+01
  -5.674640e+01   4.301866e+01
  -1.113315e+02   2.194875e+00
  -7.355956e+01  -2.712851e+01
   7.148741e+00  -4.968830e+01
   7.357059e+01  -4.239284e+01
   1.375099e+01  -1.706015e+01
   4.943159e+00   1.052157e+01
  -3.269634e+01   5.679964e+00
   5.733937e+01  -1.085459e+01
   8.722038e+01  -1.788750e+01
