
 $NMID
 id='ANONYMOUS ', fmtdat='(2E16.6)'
 volume=1.0
 tramp=1.0
 $END
   4.163555e+03  -1.936704e+02
   2.722597e+03   2.321761e+03
  -4.270406e+02   2.961820e+03
  -2.171932e+03   1.134428e+03
  -1.227591e+03  -6.008587e+02
   4.855482e+02  -7.160281e+02
   9.519018e+02   2.544562e+02
   8.676884e+01   1.012877e+03
  -7.523337e+02   8.778007e+02
  -9.853136e+02   3.362456e+00
  -5.592415e+02  -8.449262e+02
   2.002799e+02  -9.129377e+02
   6.841470e+02  -1.745331e+02
   3.764109e+02   7.054671e+02
  -2.864737e+02   8.195234e+02
  -6.319831e+02   4.024021e+01
  -3.210134e+02  -7.140199e+02
   3.115466e+02  -6.124344e+02
   6.492946e+02  -1.633764e+02
   3.982939e+02   3.821935e+02
   3.885875e+00   4.874866e+02
  -2.562719e+02   2.712573e+02
  -1.995506e+02   3.155796e+01
   9.161136e+01  -8.386160e+01
   3.559266e+02   1.020846e+02
   1.932614e+02   3.895850e+02
  -4.327520e+02   4.359184e+02
  -8.237847e+02  -4.952470e+01
  -3.951057e+02  -5.332085e+02
   3.911269e+02  -5.178706e+02
   7.404893e+02  -9.063010e+00
   3.410052e+02   4.515702e+02
  -2.647770e+02   5.263819e+02
  -5.906672e+02   2.364710e+02
  -4.362362e+02  -2.425478e+02
  -6.895546e+01  -4.757444e+02
   1.720962e+02  -3.456449e+02
   2.366089e+02   1.859459e+02
  -1.152424e+02   4.457638e+02
  -3.764068e+02   2.687366e+00
  -2.108048e+02  -7.182452e+02
   3.229964e+02  -7.185147e+02
   6.276836e+02  -5.431207e+01
   2.434311e+02   5.443940e+02
  -2.897711e+02   3.732790e+02
  -3.805676e+02  -3.614356e+02
   5.958856e+01  -5.279227e+02
   5.715093e+02  -1.331774e+02
   5.738093e+02   4.154878e+02
   1.976729e+02   5.656798e+02
  -3.503841e+02   3.245958e+02
  -6.301357e+02  -5.341653e+01
  -3.587204e+02  -3.611712e+02
   7.331727e+01  -3.818636e+02
   3.953256e+02  -6.296480e+01
   2.772195e+02   1.906042e+02
  -1.210806e+02   1.442800e+02
  -1.769210e+02  -1.315044e+02
   1.235077e+02  -1.997351e+02
   3.078263e+02   3.476489e+01
   1.710613e+02   3.006130e+02
  -2.158070e+02   2.620255e+02
  -3.483914e+02   5.386866e+01
  -1.961715e+02  -1.024376e+02
   2.118648e+01  -2.311050e+02
   2.100329e+02  -3.171893e+02
   3.062877e+02  -1.679135e+02
   3.084956e+02   1.386820e+02
   1.173773e+02   4.691699e+02
  -9.817824e+01   4.253237e+02
  -1.315342e+02   1.233274e+02
   2.906504e+01  -5.115196e+00
  -4.180584e+01   7.037295e+01
  -1.956587e+02   1.594071e+02
  -2.523421e+02  -6.745926e+00
  -1.467035e+02  -2.442450e+02
   4.251954e+01  -2.096419e+02
   2.370387e+02  -3.265459e+01
   2.082269e+02   1.981279e+02
  -1.827068e+01   2.522380e+02
  -3.085380e+02   1.361434e+02
  -3.054872e+02  -1.840331e+02
  -2.061496e+02  -3.797315e+02
   1.202469e+02  -3.082025e+02
   2.303434e+02  -1.265994e+02
   1.449593e+02   1.834037e+01
   1.076321e+02  -2.745188e+01
   2.070961e+02  -6.934445e+01
   4.189762e+02   5.872187e+01
   3.396061e+02   2.876063e+02
   9.061306e+00   4.415040e+02
  -3.200134e+02   4.422206e+02
  -4.535397e+02   1.760256e+02
  -3.336456e+02  -8.585070e+01
  -8.596683e+01  -2.832705e+02
   1.209627e+02  -2.512146e+02
   1.000441e+02  -4.791392e+01
  -9.531229e+01   1.256291e+02
  -1.650735e+02  -3.666155e+01
  -2.369953e+01  -1.868088e+02
   1.600588e+02  -2.125262e+02
   1.682450e+02   3.319724e+01
   3.141826e+00   1.736596e+02
  -1.524604e+02   8.522743e+00
  -1.562599e+02  -2.622127e+02
   1.430058e+01  -3.630744e+02
   2.576259e+02  -1.914146e+02
   3.357154e+02   5.965300e+01
   2.370903e+02   2.415806e+02
   6.851984e+01   2.560807e+02
  -1.092847e+02   1.551528e+02
  -2.058314e+02   5.046746e+01
  -5.527008e+01  -4.707549e+01
   1.040277e+02   6.714920e+01
   5.378315e+01   1.490472e+02
  -1.096386e+02   1.279269e+02
  -1.995598e+02   3.341248e+00
  -5.169861e+01  -4.236453e+01
   8.930588e+01  -1.952662e+01
   4.422740e+01   9.133927e+01
  -1.274080e+02   9.261582e+01
  -2.490167e+02  -6.966775e+00
  -2.059195e+02  -1.359222e+02
  -8.819404e+01  -2.460715e+02
   1.501012e+02  -2.617045e+02
   2.637166e+02  -1.474908e+02
   1.565931e+02   9.772590e+01
  -1.950314e+01   1.064155e+02
  -8.603887e+01   2.803487e+01
   4.441495e+01  -1.079851e+02
   1.984152e+02  -7.616236e+01
   2.348224e+02   9.899127e+01
   6.997571e+01   2.172994e+02
  -1.262579e+02   1.631925e+02
  -1.507982e+02   1.357807e+01
  -5.313514e+01  -2.302424e+00
   1.073824e+01   2.755435e+01
   7.184137e+01   3.007382e+01
  -6.151815e+01   1.359325e+02
  -2.054440e+02   1.733630e+01
  -2.175509e+02  -1.376941e+02
  -5.776069e+01  -2.608305e+02
   1.919385e+02  -1.854802e+02
   2.000760e+02   3.499331e+01
   5.773351e+01   9.250229e+01
  -8.157505e+01   1.195351e+02
  -5.738708e+01   3.387548e+01
  -4.991432e+01  -4.182712e+01
   2.606831e+01   7.229813e+00
   1.526303e+01   2.901447e+00
  -6.500076e+01  -1.633724e+01
  -8.743530e+01  -7.690263e+01
  -2.316809e+01  -1.759723e+02
   1.690522e+02  -1.698615e+02
   2.508222e+02  -3.852393e+01
   1.777355e+02   1.506370e+02
   2.677477e+01   1.835727e+02
  -1.155332e+02   1.478755e+02
  -1.381284e+02   2.772940e+01
  -6.610121e+01  -6.829361e+01
  -4.941124e+01  -1.943127e+01
  -4.981696e+01  -1.044016e+01
  -7.720704e+01   4.216833e+00
  -6.779450e+01  -7.520455e+01
   6.854213e+01  -8.475928e+01
   9.615504e+01  -5.960600e+01
   7.911029e+01   4.340111e+01
  -5.567375e+01   1.120407e+02
  -1.029712e+02   7.593873e+01
  -1.898857e+02  -5.634645e+01
  -7.934122e+01  -2.076421e+02
   1.625375e+02  -2.137982e+02
   2.968182e+02  -9.395235e+01
   2.374549e+02   1.267487e+02
   1.378992e+02   1.678726e+02
  -3.486712e+01   1.530483e+02
  -1.043656e+02   1.176389e+02
  -5.597812e+01   7.552922e+01
  -7.626743e+01   1.096820e+02
  -8.712637e+01   6.718447e+01
  -9.342324e+01   1.212473e+01
  -1.206316e+02  -1.582876e+02
  -5.550252e+01  -2.246243e+02
   9.171831e+01  -1.806909e+02
   1.445203e+02  -1.031024e+00
   1.158825e+02   6.958232e+01
   2.154262e+01   1.222408e+02
  -7.592240e+01   6.879557e+01
  -6.677429e+01   1.128931e+01
   7.549175e+00  -7.007914e+01
   2.726754e+01  -1.593580e+01
  -6.157456e+01  -5.339421e+01
  -5.478929e+01  -1.256742e+01
  -4.853556e+01  -3.035178e+01
   8.670118e+01   8.076610e+00
   1.482552e+02  -2.767170e+00
   1.769223e+02   2.001619e+01
   1.151131e+01   1.088339e+02
  -8.956073e+01   6.133297e+01
  -1.393619e+02  -2.073405e+00
  -4.633493e+01  -8.043816e+01
   3.427971e+01  -8.002167e+01
   1.124914e+02  -6.010229e+00
  -1.684218e+01   6.698980e+01
  -8.318947e+01   3.150470e+01
  -8.120755e+01   1.243037e+01
  -2.577876e+01  -7.537113e+01
  -5.579178e+01  -4.183168e+01
  -6.313816e+01  -5.193743e+00
  -1.011835e+02  -1.082222e+01
  -4.021079e+01  -8.525464e+01
   5.534427e+01  -1.408477e+02
   1.051667e+02  -1.370856e+02
   1.492158e+02  -2.092486e+01
   1.275053e+02   7.359720e+01
  -1.228448e+01   1.511938e+02
  -1.073307e+02   3.880873e+01
  -8.079491e+01  -4.498321e+00
   6.818566e+01  -2.929443e+01
   1.223163e+02   2.858147e+01
   8.721839e+01   8.586179e+01
  -7.376329e+01   1.073557e+02
  -2.389182e+02   6.292223e+01
  -1.523828e+02  -3.148362e+01
  -6.193124e+01  -6.512883e+01
   9.782164e+01  -7.923689e+01
   1.505950e+01  -5.079259e+00
  -5.288270e+01  -2.159063e+01
  -1.076130e+02  -1.270742e+00
  -2.921229e+01  -1.287265e+02
   1.297900e+02  -1.138938e+02
   1.641390e+02  -3.834525e+01
   1.443889e+02   1.156377e+02
   4.593626e+00   2.020199e+02
  -7.850292e+01   1.421401e+02
  -1.261397e+02   1.189657e+01
  -3.358274e+01  -1.116052e+02
   1.658563e+01  -7.936322e+01
   4.592369e+01  -3.331309e+01
   1.822450e+01   5.510214e+01
  -2.090276e+01   4.784586e+01
  -1.246658e+01  -4.047274e+01
  -6.326350e+00   3.456189e+01
   5.399610e+01   1.180123e+02
   2.562043e+01   8.494919e+01
  -7.642616e+01   4.606545e+01
  -1.267399e+02  -2.612494e+01
  -1.220579e+02  -9.649383e+01
  -6.834324e+00  -4.342876e+01
   6.654489e+01   8.649082e+00
   7.902077e+01   9.996048e+00
  -2.084666e+01  -6.206480e+01
  -5.148016e+01   3.069708e+01
   1.588830e+01   2.498075e+01
   3.546064e+01  -2.852658e+01
  -4.612458e+01  -2.167408e+01
  -4.164464e+01   5.481024e+00
  -8.321889e+01  -3.179684e+01
   8.802016e+00  -6.422735e+01
   9.927890e+01  -1.146061e+02
   1.723536e+02  -2.976462e+01
   1.097684e+02   6.314617e+01
   3.739172e+01   1.466554e+02
  -8.994866e+01   1.290777e+02
  -1.162089e+02   6.898146e+01
  -6.560851e+01  -1.862126e+01
  -7.637751e+01  -1.025764e+01
   1.629904e+01  -2.624151e+01
  -2.837072e+01   1.796950e+00
  -4.405550e+01  -8.812163e+01
   2.313774e+00  -7.934489e+01
   3.525178e+01  -6.239576e+01
   6.320538e+01   2.946908e+01
   6.935017e+01   9.485174e+01
  -6.317018e+00   1.058746e+02
  -5.351214e+01   1.916298e+01
  -1.101195e+02  -5.370408e+01
  -4.270676e+00  -9.737213e+01
   2.412544e+01  -3.789179e+01
   9.424727e+01   2.384056e+01
  -4.176278e+00   1.809031e+01
  -2.754314e+01   4.207212e+01
  -2.582659e+01   3.882813e+01
   4.412059e+01   2.367276e+01
   6.238364e+01   1.189217e+01
  -5.561135e+01   2.447102e+01
  -7.788860e+01   6.729512e+01
  -1.167963e+02   8.413052e+01
  -7.713428e+01  -1.613373e+01
  -5.925552e-01  -9.005030e+01
   2.442781e+01  -4.761853e+01
   8.252586e+00  -1.844440e+01
   1.942523e+00   6.195258e+01
  -1.718646e-01   3.747336e+01
  -2.896626e+01  -1.272729e+01
  -2.808241e+01  -9.324011e+01
   8.883355e+00  -2.143424e+01
   3.017890e+01   5.084149e+00
   5.337366e+01   7.715768e+00
   5.642495e+01  -3.831715e+01
  -6.279849e+00   7.191137e+00
  -2.060984e+01   1.805618e+01
   4.927944e+00   2.399153e+01
  -1.113542e+01   1.868693e+01
  -5.213925e+01   1.525845e+01
  -6.090336e+01  -3.578896e+01
   7.691505e+00  -4.372658e+01
   6.402724e+01  -7.789368e+00
   5.818707e+01   5.923589e+01
   1.647565e+01   5.188203e+01
  -6.297398e+01   5.432778e+01
  -1.250748e+02  -2.544708e+01
  -8.258933e+01  -1.068128e+01
   9.379935e+00  -5.538416e+01
   6.820104e+01  -2.191360e+01
   3.942984e+01  -3.946314e+01
  -3.968615e+01  -1.820553e+01
  -6.609386e+01  -3.721406e+00
   1.272845e+01  -2.639132e+01
   7.996440e+01  -2.749493e+01
