
 $NMID
 id='ANONYMOUS ', fmtdat='(2E16.6)'
 volume=1.0
 tramp=1.0
 $END
  -4.626584e+03   1.367491e+02
  -2.627760e+03  -2.516784e+03
   5.902362e+02  -2.936029e+03
   2.151748e+03  -1.032424e+03
   1.045797e+03   7.960947e+02
  -5.469843e+02   6.528727e+02
  -1.003957e+03  -3.478335e+02
  -1.372138e+02  -1.024496e+03
   7.895239e+02  -8.714526e+02
   9.754864e+02   3.960291e+01
   5.281050e+02   8.377277e+02
  -1.372302e+02   9.481760e+02
  -6.883825e+02   1.756593e+02
  -4.207543e+02  -6.801562e+02
   2.435313e+02  -7.828735e+02
   6.479857e+02  -8.117130e+01
   3.061483e+02   6.584853e+02
  -3.703745e+02   6.466567e+02
  -5.727556e+02   1.366189e+02
  -3.960296e+02  -3.302334e+02
  -4.870124e+01  -4.723912e+02
   2.284089e+02  -2.911446e+02
   2.133572e+02  -2.056316e+01
  -1.623775e+01   1.155813e+02
  -4.159498e+02  -9.520587e+01
  -1.910250e+02  -3.876811e+02
   4.243327e+02  -4.362981e+02
   8.719522e+02   3.809171e+01
   5.096564e+02   5.556679e+02
  -3.550966e+02   5.508095e+02
  -6.952117e+02  -4.476166e+01
  -3.523597e+02  -5.230190e+02
   3.016644e+02  -5.187381e+02
   5.889320e+02  -2.069689e+02
   4.623441e+02   2.371682e+02
   8.649255e+01   4.702855e+02
  -2.006258e+02   2.869258e+02
  -1.497860e+02  -1.494137e+02
   1.508033e+02  -4.348661e+02
   4.305147e+02   8.983213e+00
   2.318083e+02   6.575902e+02
  -2.767143e+02   7.674714e+02
  -6.199663e+02   8.304578e+01
  -2.432624e+02  -5.482248e+02
   2.631125e+02  -3.380718e+02
   4.165726e+02   3.356186e+02
  -3.718656e+01   5.528386e+02
  -5.389986e+02   1.391748e+02
  -5.878834e+02  -3.869130e+02
  -1.919995e+02  -6.194689e+02
   3.616387e+02  -3.143642e+02
   6.219866e+02   2.095319e+00
   3.430398e+02   3.372993e+02
  -1.728349e+02   3.736444e+02
  -4.516130e+02   7.489927e+01
  -2.555891e+02  -1.924168e+02
   1.116380e+02  -1.594351e+02
   1.594016e+02   9.059944e+01
  -1.438973e+02   1.968657e+02
  -3.618547e+02   8.976952e+00
  -1.898853e+02  -2.885153e+02
   1.935969e+02  -2.809517e+02
   3.560254e+02  -1.255462e+02
   2.429463e+02   1.061674e+02
  -3.533209e+01   1.658442e+02
  -2.534222e+02   3.509257e+02
  -3.378566e+02   2.011726e+02
  -2.530632e+02  -1.139917e+02
  -1.072887e+02  -4.304834e+02
   9.978572e+01  -3.770389e+02
   9.190859e+01  -1.384973e+02
   3.321195e+01   4.539486e+00
   2.446323e+01  -4.725672e+01
   2.191608e+02  -1.232385e+02
   2.900810e+02   3.622358e+01
   1.946444e+02   2.819378e+02
  -6.803670e+01   2.346889e+02
  -2.333092e+02   1.643196e+01
  -1.928454e+02  -2.593126e+02
   9.291059e+00  -2.681698e+02
   2.729444e+02  -1.161327e+02
   3.677951e+02   1.985704e+02
   2.139363e+02   3.703050e+02
  -9.076967e+01   2.998672e+02
  -2.051974e+02   1.234839e+02
  -1.651340e+02   4.718541e+01
  -8.275767e+01   1.028387e+01
  -2.344745e+02   6.360248e+01
  -4.080597e+02  -3.066810e+01
  -3.325905e+02  -2.860565e+02
  -4.742428e+01  -4.826749e+02
   3.236550e+02  -4.553833e+02
   4.503134e+02  -2.589391e+02
   3.292599e+02   7.728911e+01
   7.722447e+01   3.340099e+02
  -1.426853e+02   2.503330e+02
  -9.262748e+01   3.701950e+01
   1.029701e+02  -9.252048e+01
   1.955106e+02   1.830733e+01
   4.638273e+01   1.455017e+02
  -1.629875e+02   1.495526e+02
  -2.142312e+02  -5.581392e+01
  -1.955683e+01  -1.956860e+02
   1.951050e+02  -2.022945e+01
   1.965203e+02   2.438180e+02
  -2.697294e+01   3.457263e+02
  -2.185290e+02   1.982266e+02
  -3.402125e+02  -5.492023e+01
  -2.578981e+02  -2.254176e+02
  -1.006165e+02  -2.138794e+02
   9.902067e+01  -1.291916e+02
   1.464641e+02  -4.042463e+01
   6.382138e+01   2.911820e+00
  -7.109645e+01  -6.621003e+01
  -2.539832e+01  -1.267379e+02
   1.229545e+02  -1.095714e+02
   1.913745e+02   2.948016e+01
   5.100846e+01   4.690917e+01
  -7.253192e+01   1.120889e+01
  -7.550976e+01  -5.237444e+01
   1.280976e+02  -8.835355e+01
   2.410776e+02  -2.073369e+01
   2.696711e+02   1.323028e+02
   7.795601e+01   2.654166e+02
  -1.439190e+02   2.848925e+02
  -2.623332e+02   1.379855e+02
  -1.558161e+02  -1.872657e+01
  -6.288206e+00  -1.143735e+02
   1.337681e+02  -4.187282e+01
  -6.216301e+01   9.990623e+01
  -1.916601e+02   6.839688e+01
  -2.125596e+02  -8.493478e+01
  -8.614365e+01  -2.027619e+02
   4.908842e+01  -1.697118e+02
   1.441360e+02  -8.576405e+01
   1.052088e+02   2.616298e+01
  -2.346824e+01   1.802486e+01
  -4.532046e+01  -5.717615e+01
   6.313087e+01  -1.234072e+02
   2.191109e+02  -3.434004e+01
   2.039206e+02   1.237145e+02
   3.574434e+01   1.797880e+02
  -1.665170e+02   1.584199e+02
  -2.118980e+02   3.422761e+01
  -5.637878e+01  -7.801339e+01
   2.665897e+01  -5.213416e+01
   7.969954e+01  -6.075690e+01
   4.928648e+01   1.845201e+01
  -1.171806e+01   2.800424e+01
  -2.823217e+00   7.521762e+00
   5.418686e+01   1.776990e+01
   5.892158e+01   5.983130e+01
   1.693280e+01   1.684654e+02
  -1.094018e+02   1.730580e+02
  -2.741241e+02   4.599393e+01
  -1.894860e+02  -1.755962e+02
  -7.008516e+01  -2.519911e+02
   1.217062e+02  -1.892649e+02
   1.460010e+02  -2.276807e+01
   8.290565e+01   6.523241e+01
   1.403210e+01   3.076825e+01
   6.238426e+01  -2.824394e+01
   9.538924e+01  -1.005880e+01
   5.343068e+01   5.754996e+01
  -5.296122e+01   1.145561e+02
  -1.226201e+02   5.558910e+01
  -5.825730e+01  -4.230303e+01
  -1.857737e+01  -1.387049e+02
   1.161538e+02  -1.028252e+02
   2.060111e+02   6.592880e+01
   7.370630e+01   1.862149e+02
  -1.065072e+02   2.209788e+02
  -2.938409e+02   1.500473e+02
  -2.816838e+02  -8.201574e+01
  -7.875141e+01  -1.920504e+02
   1.649171e+01  -1.658973e+02
   6.410683e+01  -8.765132e+01
   8.931344e+01  -7.603702e+01
   4.355745e+01  -9.531656e+01
   9.622574e+01  -6.312442e+01
   1.101126e+02   4.729662e+01
   1.211939e+02   1.675195e+02
   3.461241e+01   2.453516e+02
  -9.718723e+01   1.785136e+02
  -1.424917e+02   3.946977e+01
  -1.049267e+02  -1.046899e+02
  -2.701322e+01  -1.262793e+02
   4.365908e+01  -8.965774e+01
   6.918446e+01   2.176699e+01
   8.068030e+00   3.658046e+01
  -3.543072e+01   4.711962e+01
   1.595497e+01   1.971798e+01
   7.092884e+01   1.998841e+01
   9.146107e+00   4.603928e+01
  -9.070806e+01   5.757752e+01
  -1.895329e+02   7.330738e+00
  -1.088556e+02  -6.153520e+01
   1.017806e+01  -7.685758e+01
   8.456262e+01  -6.041548e+01
   1.453070e+02   2.396733e+01
   3.853428e+01   4.097644e+01
  -6.338019e+01   4.848551e+01
  -9.435274e+01  -2.473352e+01
   8.379752e-01  -5.976101e+01
   4.331594e+01  -6.832078e+01
   5.325281e+01  -1.366958e+00
   2.306224e+01   6.744546e+01
   5.090761e+01   3.718827e+01
   4.492883e+01   9.237910e+00
   3.494363e+01  -7.077537e+00
   7.956151e+00   4.343404e+01
  -1.477388e+01   1.274495e+02
  -9.581420e+01   1.455273e+02
  -1.505771e+02   1.314069e+01
  -1.566077e+02  -7.855201e+01
  -6.273773e+01  -1.574010e+02
   9.485169e+01  -3.498311e+01
   4.005541e+01  -3.459125e+00
  -7.215839e+01  -1.124689e+01
  -1.242031e+02  -7.098776e+01
  -8.234657e+01  -8.224017e+01
   1.219764e+02  -1.313885e+02
   1.598959e+02  -9.331625e+01
   1.424912e+02  -5.526655e+00
   5.082831e+01   1.091864e+02
  -7.469549e+01   1.433027e+01
  -6.121093e+01  -7.713112e+00
   4.260304e+01  -5.882201e+01
   9.906037e+01   3.719208e+01
   2.744844e+01   1.287634e+02
  -9.433377e+01   1.542821e+02
  -1.430638e+02   4.480902e+01
  -1.013245e+02  -9.415494e+01
  -2.531948e+01  -1.792489e+02
   7.795172e+01  -1.255040e+02
   1.437711e+02  -1.141572e+01
   5.545030e+01   1.028198e+02
  -7.130260e+00   1.067779e+02
  -3.978556e+01  -1.327031e+01
  -5.263191e+01  -2.781625e+01
  -5.299296e+01  -4.068977e+01
   3.021949e+01   4.216698e+01
  -7.141743e+00  -3.021073e+01
  -3.541284e+01  -9.444356e+01
  -4.516420e+01  -1.234369e+02
   9.547387e+00  -4.752619e+01
   1.106968e+02   1.534476e+01
   1.053514e+02   7.258787e+01
   3.255212e+01   3.402035e+01
  -1.037939e+02   2.448834e+01
  -8.923468e+01   1.798087e+01
   7.776657e-01  -4.326001e+01
   2.090661e+01  -1.409631e+01
   2.148655e+01   7.294791e+00
  -2.601859e+01   6.526873e+00
  -1.438335e+01  -2.549038e+00
   4.722472e+01  -1.113062e+01
   8.539631e+01   2.097372e+01
   4.963924e+01   5.477131e+01
  -8.631386e+01   9.509508e+01
  -1.937417e+02   3.553191e+01
  -1.487111e+02  -3.971387e+01
  -6.551247e+01  -1.558700e+02
   5.568245e+01  -1.343255e+02
   8.276768e+01  -4.960208e+01
   9.107232e+01   5.050707e+01
   2.247341e+01   3.666342e+01
  -2.212861e+01   1.775302e+01
   3.264701e+01  -3.818480e-01
   8.146597e+00   5.079507e+01
   2.374084e+01   1.216045e+02
  -2.023501e+01   8.596352e+01
  -6.864146e+01  -1.140522e+01
  -7.547457e+01  -1.321593e+02
  -1.336716e+01  -1.270383e+02
   6.366722e+01  -9.845225e+00
   1.074086e+02   1.533756e+01
   4.137014e+01   7.681975e+01
  -8.254866e+01   6.091609e+01
  -9.265647e+01  -2.794737e+00
  -1.548773e+01  -2.474806e+01
   4.048839e+01  -7.335240e+01
   4.057731e+01  -4.621393e+01
  -2.102838e+00  -1.131014e+00
  -4.994357e+01   9.026623e+00
   3.414803e+01  -3.361612e+01
   2.145699e+01  -5.292389e+01
   7.668404e+01  -4.903824e+01
   6.911448e+01  -8.514632e-01
  -2.205551e+01   1.003958e+02
  -4.468758e+01   9.968640e+01
  -2.073186e+01  -1.179945e+01
  -1.330872e+01  -4.309789e+01
   4.301691e+01  -5.339868e+01
  -1.166152e+00   2.084476e+01
   4.366690e+01   4.406321e+01
  -1.154568e+01   1.798232e+01
  -6.796834e+01   6.242457e+00
  -5.997434e+01  -2.257428e+01
  -5.498336e+01  -5.844933e+00
   3.383097e+00  -7.887744e+00
   5.937670e+00   3.296840e+01
   4.147825e+01  -2.450637e+01
   4.012209e+01  -4.699360e+01
   3.982165e+01  -1.814383e+01
   6.146886e+01   6.879634e+01
  -3.841423e+01   6.469734e+01
  -4.102570e+01   5.663687e+01
  -7.038208e+01  -9.412753e+01
  -4.206861e+01  -3.719498e+01
   8.052976e+01  -2.388981e+01
   8.861559e+01   1.757157e+01
   5.088291e+01   5.900854e+01
   8.294072e+00   4.006283e+01
  -5.662392e+01   3.010883e+00
  -4.646425e+01   1.117781e+01
   2.177955e+01   4.049915e+01
   6.504180e+01   1.635972e+01
  -8.906654e+00   2.048117e+00
  -1.029610e+02   1.975810e+01
