
 $NMID
 id='ANONYMOUS ', fmtdat='(2E16.6)'
 volume=1.0
 tramp=1.0
 $END
  -3.594171e+03  -3.447060e+01
  -2.175520e+03  -2.066163e+03
   5.187305e+02  -2.029382e+03
   1.329766e+03  -9.024758e+02
   6.898381e+02   5.346763e+01
  -2.269865e+02   1.645835e+02
  -4.443627e+02  -2.691041e+02
   6.579039e+01  -6.568038e+02
   5.543628e+02  -5.136058e+02
   5.739325e+02   9.185566e+00
   3.132265e+02   5.369813e+02
  -1.253990e+02   6.097525e+02
  -3.958497e+02   1.117144e+02
  -2.755873e+02  -4.706921e+02
   1.865111e+02  -5.377355e+02
   3.858442e+02   1.900584e-01
   2.197539e+02   5.252428e+02
  -1.867287e+02   5.345214e+02
  -4.909409e+02   1.871540e+02
  -4.032601e+02  -1.886304e+02
  -5.795779e+01  -3.195825e+02
   1.098901e+02  -1.979111e+02
   8.450028e+01  -6.990145e+01
  -1.315410e+02  -4.433513e+01
  -2.759914e+02  -2.479550e+02
  -3.173874e+01  -3.667226e+02
   4.433725e+02  -1.971389e+02
   6.389441e+02   1.799487e+02
   2.214774e+02   4.054671e+02
  -3.973233e+02   2.812980e+02
  -5.574425e+02  -1.498595e+02
  -2.290652e+02  -3.741023e+02
   2.610556e+02  -3.820529e+02
   4.199249e+02  -1.237510e+02
   2.962820e+02   1.849510e+02
   9.472191e+01   3.428648e+02
  -7.814029e+01   1.920538e+02
   2.409916e+01  -1.313044e+02
   1.593613e+02  -2.377748e+02
   2.525908e+02   7.500951e+01
   3.841673e+01   5.168977e+02
  -2.914875e+02   4.724780e+02
  -4.186747e+02  -2.760472e+01
  -1.265679e+02  -3.984154e+02
   2.154070e+02  -1.109862e+02
   2.504679e+02   2.374714e+02
  -1.730360e+02   4.058052e+02
  -4.706912e+02   5.239980e+01
  -4.828057e+02  -3.336411e+02
  -1.696571e+02  -4.467600e+02
   3.004868e+02  -2.571562e+02
   5.279250e+02   3.948605e+01
   2.957035e+02   2.717435e+02
  -1.320985e+02   2.295174e+02
  -3.480144e+02   9.266449e+01
  -1.431025e+02  -9.876622e+01
   9.873208e+01  -2.130382e+01
   3.151580e+01   8.407298e+01
  -1.309690e+02   2.409301e+01
  -2.373219e+02  -8.421584e+01
  -9.362511e+01  -2.444808e+02
   1.848739e+02  -2.182164e+02
   2.960800e+02  -7.905114e+01
   1.762220e+02   6.230355e+01
  -8.090281e+00   2.793124e+02
  -2.039865e+02   3.309924e+02
  -3.507712e+02   1.916582e+02
  -2.594697e+02  -1.499074e+02
  -8.205940e+01  -4.051411e+02
   5.662745e+01  -3.287352e+02
   3.572356e+01  -1.346011e+02
   1.205662e+01  -1.168878e+02
   9.160632e+01  -1.092587e+02
   2.426338e+02  -8.671149e+01
   2.452320e+02   9.134666e+01
   8.529168e+01   2.798817e+02
  -7.943065e+01   1.908752e+02
  -2.115039e+02   1.051172e+01
  -1.286508e+02  -2.087713e+02
   3.857044e+01  -2.595204e+02
   2.171154e+02  -1.002828e+02
   3.233554e+02   1.930129e+02
   1.828067e+02   2.914633e+02
  -8.973380e+01   2.467355e+02
  -1.492326e+02   1.164395e+02
  -1.301626e+02   7.076666e+01
  -1.287688e+02   6.790455e+01
  -2.297576e+02   2.441339e+01
  -3.703815e+02  -1.020329e+02
  -3.095973e+02  -2.994026e+02
   9.302909e+00  -3.992425e+02
   3.383691e+02  -3.601902e+02
   4.391246e+02  -1.591759e+02
   2.702427e+02   1.108195e+02
   5.439967e+01   2.678901e+02
  -1.027168e+02   2.144213e+02
   2.150614e+00   2.540757e+01
   9.936511e+01  -6.724621e+01
   1.720533e+02   1.095975e+00
  -3.852763e+01   1.807192e+02
  -1.174270e+02   1.220079e+02
  -1.453337e+02  -5.027265e+01
   5.569950e+01  -1.319515e+02
   1.716391e+02   7.549483e+01
   1.615034e+02   2.365534e+02
  -6.201157e+01   2.929969e+02
  -2.281218e+02   1.546477e+02
  -2.979102e+02  -9.818124e+01
  -2.511956e+02  -2.046078e+02
  -7.059743e+01  -2.165650e+02
   1.108000e+02  -1.426056e+02
   1.707983e+02  -8.070102e+00
   1.852648e+01   1.034633e+01
  -8.622331e+01  -5.785352e+01
   9.754809e-01  -1.163403e+02
   1.343655e+02  -4.324767e+01
   1.961452e+02   6.275806e+01
   5.735275e+01   6.065184e+01
  -8.680299e+01  -2.042682e+01
  -5.188457e+01  -5.672464e+01
   1.411985e+02  -5.760009e+01
   2.837386e+02   5.540473e+01
   2.505134e+02   1.256399e+02
   3.841041e+01   2.463214e+02
  -2.130254e+02   2.239811e+02
  -2.657079e+02   1.033664e+02
  -1.389328e+02  -4.817934e+01
   1.294041e+01  -5.523301e+01
   6.536897e+01   3.223816e+01
  -4.645697e+01   9.008930e+01
  -1.842724e+02   8.147004e+01
  -1.474275e+02  -1.155429e+02
  -1.810820e+01  -1.801001e+02
   6.627725e+01  -1.445187e+02
   1.082396e+02  -6.987406e+00
   7.684802e+01   7.784638e+01
  -2.167698e+01  -5.359078e+01
  -2.793496e+01  -1.223861e+02
   7.448019e+01  -1.286411e+02
   1.855454e+02  -3.718550e+00
   1.857200e+02   1.161573e+02
   4.136808e+01   2.339575e+02
  -1.635313e+02   1.002115e+02
  -1.721124e+02   2.650564e+01
  -7.148127e+01  -9.875203e+01
   4.524721e+01  -7.742971e+01
   6.523347e+01  -2.441223e+01
   7.519662e+00  -8.843924e+00
  -5.547240e+01   1.462049e+01
   2.289073e+01  -2.857627e+01
   6.735311e+01  -1.255198e+01
   9.373405e+01   5.965637e+01
   2.287654e+01   1.778987e+02
  -1.276518e+02   1.414562e+02
  -2.003005e+02  -3.788976e+01
  -1.737418e+02  -1.076769e+02
  -2.186970e+00  -2.124692e+02
   6.889908e+01  -1.389377e+02
   1.072154e+02  -4.724066e+01
   7.080127e+01   4.428124e+01
   7.012328e+00  -3.108453e+00
   5.056487e+01  -2.571970e+00
   9.956035e+01   1.746604e+01
   2.390339e+01   6.833023e+01
  -3.532505e+01   1.033060e+02
  -1.004621e+02   3.402532e+01
  -1.063493e+02  -4.321801e+01
   1.897042e+01  -9.161442e+01
   1.446197e+02  -9.789604e+01
   2.322789e+02   5.354650e+01
   1.053980e+02   2.005027e+02
  -1.234568e+02   2.164994e+02
  -2.549290e+02   4.955518e+01
  -2.396688e+02  -9.073592e+01
  -7.463574e+01  -1.716721e+02
   1.782009e+01  -1.166035e+02
   4.909167e+01  -9.500072e+01
   7.723317e+01  -6.907050e+01
   5.835408e+01  -1.361177e+02
   1.007943e+02  -9.964826e+01
   1.026301e+02   3.340781e+01
   8.816026e+01   1.382756e+02
   5.836772e+01   1.980010e+02
  -1.023034e+02   1.495770e+02
  -1.213545e+02   4.787750e+00
  -9.953506e+01  -1.256054e+02
   2.718128e+01  -1.094571e+02
   8.565052e+01  -1.016550e+02
   2.270924e+01  -2.157326e+01
  -4.650149e-01   7.901624e+01
  -3.129197e+01   1.564800e+01
   6.998784e+01  -2.155863e+01
   6.594785e+01   4.776149e+01
   2.980199e+01   3.754870e+01
  -9.270070e+01   3.519893e+01
  -2.115584e+02  -1.383634e+01
  -9.701103e+01  -4.125251e+01
   1.044312e+01  -8.974634e+01
   1.223164e+02  -3.868242e+01
   1.391713e+02  -1.350772e+01
   3.467886e+01   5.035935e+01
  -2.539215e+01   2.269561e+01
  -5.740139e+01  -2.636569e+01
  -1.874739e+01  -6.954871e+01
   4.396949e+01  -5.525799e+01
   5.950452e+01   1.527782e+01
   5.159871e+01   8.724644e+01
   4.567257e+01   2.689980e+01
   3.819748e+01   1.775690e+01
   7.868185e+01   3.425139e+00
   2.289570e+01   4.914613e+01
   3.706062e+00   1.534043e+02
  -9.690583e+01   1.401528e+02
  -1.497401e+02   4.104718e+01
  -1.238842e+02  -8.151739e+01
  -1.328937e+01  -1.188427e+02
   7.211907e+01  -3.862161e+01
   6.354031e+01  -4.358395e+00
  -6.334752e+01   1.447802e+01
  -1.520287e+02  -5.467443e+01
  -5.665517e+01  -1.137577e+02
   9.047482e+01  -1.123884e+02
   1.723410e+02  -5.974719e+01
   1.474405e+02  -1.112656e+01
   3.744144e+01   5.251010e+01
  -5.239987e+01   5.750139e+01
  -5.106681e+01  -1.349275e+01
   1.418360e+01  -3.200806e+01
   7.996791e+01   7.864444e+00
   4.703172e+01   1.030064e+02
  -9.277091e+01   1.494816e+02
  -1.264050e+02   7.280568e+01
  -1.348005e+02  -1.239573e+02
  -2.028253e+00  -2.029956e+02
   5.796154e+01  -1.477016e+02
   1.368392e+02   3.089595e+01
   5.886212e+01   9.444146e+01
   2.201163e+00   1.241078e+02
  -5.350066e+01   1.203997e+01
  -4.644451e+01  -2.432531e+01
  -2.318835e+01  -6.107660e+00
   2.639018e+01   5.020277e+00
  -4.745470e+01   4.376398e-02
  -6.529262e+01  -6.239319e+01
  -1.604695e+01  -1.158256e+02
  -3.876085e-01  -2.305707e+01
   1.306085e+02   1.729039e+01
   9.228264e+01   8.718013e+01
   3.469725e+01   2.674183e+01
  -6.941737e+01   1.372581e+01
  -7.037411e+01   3.932994e+01
  -3.078942e+01   7.072090e-02
   3.904188e+01  -2.465339e+01
   4.015789e+01  -3.121092e+01
  -6.211712e+00  -1.927504e+01
   2.362789e+01   1.908365e+01
   7.798767e+01   9.364287e+00
   6.330881e+01   8.147396e+00
   2.935231e+01   7.884887e+01
  -1.186249e+02   1.056085e+02
  -1.673899e+02   3.902808e+01
  -1.169759e+02  -2.529794e+01
  -4.475449e+01  -1.565166e+02
   1.194884e+02  -1.478231e+02
   1.357926e+02  -4.844278e+01
   8.126619e+01   1.195533e+01
   5.422884e+01   5.004390e+01
   7.921982e+00   2.570094e+01
   2.933306e+01   4.070786e+01
   7.127228e+01   5.983380e+01
  -1.032168e+01   8.121691e+01
   3.868173e+00   8.167690e+01
  -5.771066e+01  -5.864278e+00
  -7.033174e+01  -8.387402e+01
  -4.922060e+01  -9.069492e+01
   9.206791e+01  -1.076060e+01
   1.256540e+02   6.289990e+01
   8.307418e+01   9.088123e+01
  -7.512862e+01   2.290825e+01
  -7.494155e+01  -1.313541e+01
  -2.334694e+01  -3.595454e+01
   6.202767e+01  -5.884989e+01
   5.870512e+01  -7.206432e+01
  -1.433900e+01   3.768620e+01
  -7.025401e+01  -9.597158e+00
  -3.645878e+01  -4.365496e+01
   7.644558e+01  -8.772652e+01
   1.225429e+02  -7.690367e+01
   5.629601e+01   3.316178e+01
   4.531970e+00   9.381145e+01
  -3.544230e+01   9.853388e+01
  -5.706338e+01   4.321982e+00
   2.613506e+01  -2.928943e+01
   3.549758e+01  -5.852823e+01
   9.590077e+00   3.547487e+01
   4.489288e+01   2.359022e+01
   8.490884e-01   7.306526e+00
  -4.723851e+01   1.195831e+01
  -1.435869e+01  -7.949291e+00
  -1.108202e+01  -3.562406e+01
  -6.170156e+00   2.512696e+01
   1.956128e+01  -2.369348e+01
   2.676823e+00  -4.725513e+01
   2.718977e+01  -4.259158e+01
   2.360731e+01  -3.275936e+01
   5.125169e+01   1.500080e+01
  -1.197966e+01   6.252474e+01
  -1.498415e+01   1.868538e+01
  -2.807519e+01   7.880648e+00
  -1.017980e+01  -6.319716e+01
   6.392106e+01  -6.489642e+01
   7.457143e+01   2.411695e+01
   5.723000e+01   2.567872e+01
  -1.390780e+01   2.474873e+01
  -4.664768e+01  -1.483947e+00
  -2.927192e+01   2.759108e+01
   1.018582e+01   3.537375e+01
   2.606127e+00  -6.205654e+00
  -4.674079e+01   3.352374e+01
  -5.820959e+01   2.236661e-01
