
 $NMID
 id='ANONYMOUS ', fmtdat='(2E16.6)'
 volume=1.0
 tramp=1.0
 $END
  -3.871337e+03   1.176481e+01
  -2.230066e+03  -1.920114e+03
   2.680191e+02  -2.443177e+03
   1.638565e+03  -1.212413e+03
   1.036112e+03   1.715326e+02
  -2.020803e+02   3.609683e+02
  -6.225387e+02  -2.433629e+02
   2.083059e+01  -7.994684e+02
   6.384219e+02  -6.695592e+02
   7.606643e+02   4.378452e+01
   4.332473e+02   6.447383e+02
  -7.324619e+01   7.230807e+02
  -4.036982e+02   7.355481e+01
  -2.658477e+02  -5.131121e+02
   1.195574e+02  -6.313715e+02
   4.765387e+02  -5.305974e+01
   3.010444e+02   5.249364e+02
  -1.690911e+02   6.068659e+02
  -5.455559e+02   2.390029e+02
  -4.397468e+02  -2.691922e+02
  -1.186879e+02  -4.066884e+02
   1.755207e+02  -2.688453e+02
   9.011532e+01  -8.092774e+01
  -1.549508e+02   1.072490e+01
  -2.821902e+02  -2.001813e+02
  -7.065982e+01  -4.142606e+02
   4.857848e+02  -2.324652e+02
   7.237535e+02   1.857287e+02
   3.265856e+02   4.029706e+02
  -3.605630e+02   3.564110e+02
  -5.936515e+02  -9.250564e+01
  -2.514030e+02  -4.034652e+02
   2.681951e+02  -4.284558e+02
   5.236132e+02  -1.854694e+02
   3.626794e+02   1.611495e+02
   1.009864e+02   3.865188e+02
  -1.207064e+02   2.597082e+02
  -5.989503e+01  -1.535805e+02
   1.845715e+02  -2.320366e+02
   3.565426e+02   1.135259e+02
   1.170107e+02   5.844123e+02
  -2.857343e+02   5.636968e+02
  -4.797109e+02  -7.835332e+00
  -2.241289e+02  -3.971600e+02
   2.476197e+02  -2.388246e+02
   2.562804e+02   3.115232e+02
  -1.080122e+02   4.599149e+02
  -5.307613e+02   1.170873e+02
  -5.412160e+02  -4.244942e+02
  -1.541877e+02  -5.659112e+02
   3.178827e+02  -2.534516e+02
   5.769832e+02   7.444506e+01
   3.799518e+02   2.815488e+02
  -1.112237e+02   2.434714e+02
  -3.422905e+02   6.068248e+01
  -2.486910e+02  -1.139758e+02
  -4.047701e-01  -1.026701e+02
   8.397255e+01   8.156695e+01
  -1.418491e+02   1.108036e+02
  -3.088704e+02  -9.986126e+01
  -1.443262e+02  -2.229072e+02
   1.444492e+02  -2.760960e+02
   3.870942e+02  -1.237065e+02
   2.045226e+02   7.117839e+01
  -1.909011e+01   2.785062e+02
  -2.436059e+02   3.731594e+02
  -3.486589e+02   1.902153e+02
  -2.725249e+02  -2.157771e+02
  -8.691705e+01  -4.255869e+02
   8.809253e+01  -3.709164e+02
   4.709483e+01  -1.504183e+02
   3.809221e+01  -8.755800e+01
   8.455409e+01  -7.343159e+01
   2.137802e+02  -7.970415e+01
   2.842857e+02   1.092696e+02
   9.075237e+01   2.729571e+02
  -5.492949e+01   2.407407e+02
  -2.294521e+02  -1.892195e+01
  -2.102006e+02  -2.562404e+02
   9.602468e+00  -2.953696e+02
   2.443960e+02  -9.141105e+01
   3.441763e+02   2.213982e+02
   1.803568e+02   3.475013e+02
  -7.582316e+01   2.954300e+02
  -1.782615e+02   1.464878e+02
  -1.707715e+02   5.922941e+01
  -1.884006e+02   7.345767e+01
  -2.773570e+02   5.534498e+01
  -4.176516e+02  -1.113530e+02
  -3.267839e+02  -3.076620e+02
   3.492476e+01  -4.426786e+02
   3.778286e+02  -4.443339e+02
   5.039204e+02  -1.898305e+02
   2.774609e+02   7.340306e+01
   5.025491e+00   2.530748e+02
  -1.022220e+02   2.522524e+02
  -7.716578e+01   2.660113e+01
   1.043302e+02  -7.141427e+01
   1.411474e+02   5.392107e+01
   3.795057e+01   1.503978e+02
  -1.795055e+02   1.330585e+02
  -1.367518e+02  -5.817195e+01
   3.929142e+01  -1.522112e+02
   1.636407e+02   1.608637e+01
   1.399731e+02   2.749789e+02
  -2.926692e+01   3.884899e+02
  -2.811803e+02   1.898197e+02
  -3.593835e+02  -6.769475e+01
  -2.719617e+02  -2.734136e+02
  -5.821739e+01  -2.620685e+02
   8.476811e+01  -1.321017e+02
   1.578698e+02  -1.653363e+01
   3.608206e+01   4.854383e+01
  -6.259265e+01  -6.499042e+01
   1.531003e+01  -1.431399e+02
   1.039342e+02  -1.132039e+02
   1.640728e+02   4.204163e+01
   3.849073e+01   5.153886e+01
  -8.686205e+01  -3.317021e+01
  -4.545917e+01  -1.153789e+02
   1.649449e+02  -8.060691e+01
   2.581241e+02   3.348293e+01
   2.869052e+02   1.954596e+02
   2.042456e+00   2.907442e+02
  -2.161176e+02   2.418625e+02
  -2.534414e+02   1.094095e+02
  -1.601882e+02  -5.431214e+01
  -1.119642e+01  -1.134799e+02
   8.896218e+01  -2.427803e+01
  -6.473049e+01   1.057992e+02
  -2.180252e+02   3.351572e+01
  -1.954122e+02  -1.333015e+02
  -8.003735e+01  -2.143798e+02
   8.747765e+01  -1.540195e+02
   1.419045e+02   2.267154e+00
   6.095527e+01   3.743985e+01
  -6.432152e+01   1.932831e+01
  -5.683254e+01  -4.639764e+01
   1.171717e+02  -9.770018e+01
   2.269069e+02  -4.449316e+01
   2.266686e+02   1.326885e+02
  -6.784926e+00   2.262794e+02
  -1.625667e+02   1.580963e+02
  -2.045951e+02   2.283270e+00
  -1.683070e+01  -1.229383e+02
   4.993761e+01  -1.124825e+02
   9.715865e+01  -1.331362e+01
  -2.690705e+01   1.148743e+01
  -8.382631e+00   1.127463e+01
   5.640844e+01  -2.439723e+01
   1.170720e+02   1.366581e+01
   1.038734e+02   1.008928e+02
   6.773365e+00   1.719227e+02
  -1.425922e+02   1.992087e+02
  -2.563218e+02   1.897328e+01
  -2.132922e+02  -1.539662e+02
  -3.956292e+01  -2.717918e+02
   1.526128e+02  -1.106858e+02
   1.263105e+02   8.999072e-01
   6.114583e+01   7.364045e+01
   2.068884e+01   1.082905e+01
   4.632473e+01  -5.607371e+01
   1.169007e+02  -6.505118e+00
   7.889470e+01   5.909930e+01
  -2.905490e+01   1.503411e+02
  -1.161671e+02   6.354597e+01
  -1.224187e+02  -4.648807e+01
   3.326975e+01  -1.284099e+02
   1.766564e+02  -8.137529e+01
   2.130197e+02   9.902632e+01
   6.986451e+01   2.162627e+02
  -1.388080e+02   2.500504e+02
  -2.636586e+02   3.481794e+01
  -2.612280e+02  -1.036617e+02
  -8.612703e+01  -1.603559e+02
   1.923639e+01  -1.784656e+02
   5.535602e+01  -7.994070e+01
   5.330812e+01  -9.122757e+01
   1.117334e+02  -1.333084e+02
   9.565278e+01  -7.845639e+01
   1.567599e+02   1.492152e+01
   1.298289e+02   1.672984e+02
   3.721159e+01   2.128491e+02
  -9.559599e+01   1.639581e+02
  -1.610435e+02   1.336287e+00
  -1.293489e+02  -1.117376e+02
  -4.726225e+01  -1.691426e+02
   8.784081e+01  -7.067288e+01
   8.299877e+01  -2.853298e+01
  -7.285427e+00   4.016871e+01
   1.937668e-01   1.253921e+01
   3.739291e+01   8.193477e+00
   1.103011e+02   5.088191e+01
   8.958787e+01   5.480257e+01
  -7.242639e+01   5.562001e+01
  -2.224710e+02   2.677395e+01
  -1.417152e+02  -5.602479e+01
  -9.972967e+00  -8.327751e+01
   1.532255e+02  -6.226431e+01
   1.675531e+02  -2.766559e+01
   4.622999e+01   4.231962e+01
  -5.722053e+01   3.043861e+01
  -7.793189e+01  -4.369597e+01
  -2.482486e+01  -5.997241e+01
   4.588989e+01  -6.883328e+01
   9.718428e+01   2.938002e+00
   6.233062e+01   4.097698e+01
   3.725948e+01   5.804547e+01
   3.119154e+01  -8.343379e+00
   4.491099e+01  -3.744684e-01
   3.709498e+01   6.991274e+01
  -2.919644e+01   1.815451e+02
  -1.456499e+02   1.811583e+02
  -1.407989e+02   4.913618e+01
  -1.223821e+02  -1.095463e+02
   1.887201e+01  -1.224176e+02
   8.907492e+01  -5.952261e+01
   6.656626e+01   4.918862e+01
  -7.994507e+01   9.999368e+00
  -1.632503e+02  -4.405923e+01
  -4.593846e+01  -1.072966e+02
   7.793095e+01  -1.165175e+02
   1.626171e+02  -7.040895e+01
   1.923553e+02   7.413724e+01
   2.876613e+01   1.121368e+02
  -8.764620e+01   6.487780e+01
  -8.127590e+01   3.782404e-01
   4.299960e+01  -2.895018e+01
   1.018240e+02  -2.557249e+01
   1.468512e+01   9.712911e+01
  -8.192247e+01   1.599368e+02
  -1.801405e+02   5.366132e+01
  -1.407507e+02  -9.849566e+01
  -5.640878e+01  -1.654340e+02
   8.120266e+01  -1.551230e+02
   9.266981e+01   3.419002e+01
   1.546632e+01   1.249721e+02
  -8.520171e-01   8.133209e+01
  -1.080355e+02  -2.674794e+01
  -7.707155e+01  -2.439067e+01
  -3.265539e+00   1.028849e+01
  -2.729545e+00   2.195847e+01
  -3.711254e+01  -3.089017e+01
  -1.963133e+01  -1.045177e+02
  -5.027371e+01  -1.147031e+02
   7.353779e+01  -6.102608e+01
   1.265727e+02   4.148944e+01
   1.441599e+02   5.195474e+01
   7.062119e+00   2.948046e+01
  -8.910610e+01   1.745894e+01
  -9.992722e+01   9.229672e+00
   5.245502e+00   1.070795e+01
   8.589529e+00   1.541450e+01
  -1.075891e+01  -7.391842e+00
  -1.064751e+01   5.365132e+01
   3.013901e+01  -6.520543e+00
   8.787816e+01   1.445414e+01
   9.898446e+01   4.363244e+01
   2.323971e+01   9.372870e+01
  -1.308191e+02   1.328842e+02
  -1.558870e+02   9.189639e+01
  -1.511999e+02  -8.262032e+01
  -2.228602e+01  -1.665565e+02
   1.230212e+02  -1.576755e+02
   1.132791e+02  -5.442218e+01
   7.195944e+01  -3.214634e+01
   6.806437e+01   2.087020e+01
  -1.380266e+01  -3.716266e+00
   3.744592e+01   1.152033e+01
   3.996740e+01   3.677006e+01
  -4.022623e+00   1.079483e+02
  -7.281538e+01   8.108884e+01
  -6.433383e+01  -4.338380e+01
  -7.762396e+01  -1.122939e+02
  -4.082260e+01  -8.752730e+01
   3.738799e+01  -5.590981e+01
   1.297641e+02   8.196650e+01
   5.935665e+01   3.735711e+01
  -7.599201e+01   4.005464e+01
  -1.191896e+02  -1.529016e+01
  -5.074477e+01  -4.867039e+01
   5.006718e+01  -5.131169e+01
   2.473707e+01  -1.709244e+01
  -5.349555e+01   9.044239e+00
  -7.852861e+01   1.158854e+00
   2.485262e+00  -3.028280e+01
   6.012854e+01  -6.351357e+01
   8.769746e+01  -3.742786e+01
   1.083553e+02   3.550266e+01
   1.869873e+00   4.031374e+01
  -5.631989e+01   8.590447e+01
  -6.584983e+01   1.541737e+01
  -1.314778e+00  -2.686938e+01
   2.779397e+01  -6.178921e+01
   6.095078e+01  -1.302606e+01
   7.732467e+01   5.379081e+01
  -7.068304e+00   6.060091e+01
  -4.114536e+01   3.386464e+01
   1.983875e+00  -5.094643e+01
   1.254119e+01   1.390240e+01
  -4.312288e+00  -2.455496e+01
   1.018674e+01   1.069781e+01
  -3.198156e+01  -3.250257e+01
   2.131325e+01  -2.160891e+01
   4.240470e+01  -5.320650e+01
   3.880989e+01   8.914962e+01
   1.454499e+01   9.485465e+01
  -2.580002e+01   5.970692e+01
  -7.425349e+01  -1.990764e+01
  -3.157267e+01  -5.275403e+01
   5.506549e+01  -2.924930e+01
   8.600661e+01   8.337749e+00
   8.501010e+01   4.069658e+01
  -2.204140e+01   3.591551e+01
  -6.536431e+01   4.095741e+01
   2.064548e+01   1.900794e+01
   7.416724e+01  -2.162628e+01
   3.922127e+01  -1.782966e+01
  -2.357043e+01   4.343126e+00
  -8.128634e+01  -5.301252e+00
