
 $NMID
 id='ANONYMOUS ', fmtdat='(2E16.6)'
 volume=1.0
 tramp=1.0
 $END
   4.339468e+03   4.323110e+02
   2.503812e+03   2.674736e+03
  -7.037310e+02   2.735093e+03
  -2.147162e+03   8.173925e+02
  -9.850604e+02  -5.789521e+02
   5.903652e+02  -5.465906e+02
   8.570453e+02   4.040079e+02
   1.385060e+01   1.072704e+03
  -8.324223e+02   7.692362e+02
  -9.334954e+02  -8.235569e+01
  -4.925466e+02  -8.474543e+02
   2.253195e+02  -9.055427e+02
   6.490167e+02  -9.700206e+01
   4.213566e+02   7.375129e+02
  -2.321100e+02   6.949365e+02
  -6.237687e+02   1.940144e+01
  -2.911753e+02  -6.919576e+02
   3.595235e+02  -6.591663e+02
   5.678230e+02  -1.001043e+02
   4.165895e+02   3.877271e+02
  -3.101362e+00   4.773101e+02
  -2.024732e+02   2.329607e+02
  -1.893991e+02   4.023529e+01
   1.134934e+02  -6.503779e+01
   3.559328e+02   9.817965e+01
   2.060807e+02   3.513432e+02
  -4.665572e+02   4.157574e+02
  -8.356456e+02  -9.214883e+01
  -4.068603e+02  -5.259250e+02
   3.825037e+02  -4.878680e+02
   7.724076e+02   3.904874e+01
   3.418864e+02   4.826526e+02
  -3.118692e+02   5.609701e+02
  -5.737609e+02   1.416154e+02
  -4.263604e+02  -2.371065e+02
  -7.961494e+01  -4.286814e+02
   1.953863e+02  -2.426091e+02
   1.370325e+02   2.312751e+02
  -1.526029e+02   4.767060e+02
  -4.506260e+02  -1.217017e+01
  -2.331433e+02  -6.508711e+02
   3.094808e+02  -6.517738e+02
   6.245237e+02  -4.088094e+01
   2.313823e+02   5.351725e+02
  -3.159234e+02   3.849497e+02
  -3.825374e+02  -2.996815e+02
   9.138912e+01  -5.505250e+02
   5.546558e+02  -1.362030e+02
   5.834624e+02   3.911631e+02
   1.463768e+02   6.015365e+02
  -3.705584e+02   3.187598e+02
  -5.690003e+02  -1.121724e+02
  -4.098311e+02  -3.958009e+02
   1.333786e+02  -3.384399e+02
   5.009348e+02  -1.019582e+02
   2.633847e+02   1.929476e+02
  -6.837271e+01   7.939723e+01
  -1.304714e+02  -1.783862e+02
   1.299537e+02  -1.590422e+02
   3.597039e+02   6.925663e+01
   1.200808e+02   2.907204e+02
  -1.907465e+02   2.745365e+02
  -3.449572e+02   7.211372e+01
  -2.107169e+02  -9.050352e+01
   7.978203e+01  -2.463516e+02
   2.434134e+02  -3.147668e+02
   3.087818e+02  -1.880166e+02
   2.822833e+02   1.179649e+02
   2.938161e+01   4.778316e+02
  -7.786724e+01   3.246976e+02
  -6.298742e+01   1.280282e+02
  -2.523843e+01  -2.660970e+01
  -4.503606e+01   1.155097e+02
  -1.845034e+02   1.230033e+02
  -2.481507e+02  -7.057949e+00
  -1.693138e+02  -2.904609e+02
   5.230942e+01  -2.771328e+02
   2.421678e+02  -3.780564e+01
   2.139377e+02   2.419161e+02
  -1.689631e+01   2.791544e+02
  -2.373932e+02   1.282736e+02
  -3.640681e+02  -1.815155e+02
  -1.792697e+02  -3.934854e+02
   1.198417e+02  -3.307521e+02
   2.237252e+02  -1.044499e+02
   1.454931e+02   8.505626e+00
   7.771162e+01  -1.318218e+01
   2.211265e+02  -7.148553e+01
   4.208736e+02   6.761635e+01
   3.257071e+02   2.731538e+02
  -4.287516e+00   4.629826e+02
  -3.509232e+02   3.931970e+02
  -5.051139e+02   1.884838e+02
  -3.121359e+02  -9.616074e+01
  -4.855528e+01  -3.032949e+02
   1.110611e+02  -2.400656e+02
   7.500651e+01  -2.124652e+01
  -1.231329e+02   1.135972e+02
  -1.935781e+02  -5.439583e+01
  -1.330759e+01  -2.344563e+02
   1.665760e+02  -1.608081e+02
   2.008820e+02   4.793789e+01
  -4.131095e+01   1.976912e+02
  -1.889017e+02   2.284193e+01
  -1.537109e+02  -2.383715e+02
   1.748652e+01  -2.758790e+02
   2.152777e+02  -1.777708e+02
   2.873618e+02   4.655275e+01
   2.712135e+02   2.140494e+02
   6.079511e+01   2.793003e+02
  -9.868277e+01   1.851414e+02
  -1.905944e+02   3.630506e+01
  -3.566546e+01  -6.141082e+01
   2.869651e+01   3.943984e+01
   1.839970e+01   1.102849e+02
  -1.059752e+02   1.374978e+02
  -1.871398e+02  -1.685193e+01
  -6.767927e+01  -5.011946e+01
   7.606514e+01   1.134109e+00
   4.535623e+01   6.160656e+01
  -8.084537e+01   1.200074e+02
  -2.972704e+02  -7.616989e+00
  -2.594148e+02  -1.610055e+02
  -5.152523e+01  -2.663525e+02
   2.005971e+02  -2.547316e+02
   2.444092e+02  -1.181496e+02
   1.471377e+02   5.587922e+01
  -2.365676e+01   8.529431e+01
  -9.361909e+01  -3.428269e+00
   1.572951e+01  -1.539544e+02
   1.799585e+02  -3.704601e+01
   2.148194e+02   8.429879e+01
   6.343556e+01   2.045274e+02
  -7.547057e+01   1.566321e+02
  -1.156462e+02   1.387378e+01
  -9.916441e+01  -4.869827e+01
   3.794776e+01  -8.766506e+00
   2.794509e+01   7.966972e+01
  -9.542581e+01   9.250266e+01
  -1.794168e+02   5.116394e+01
  -1.738327e+02  -1.662778e+02
  -4.138192e+01  -2.078758e+02
   1.803275e+02  -1.707119e+02
   2.239195e+02  -1.623196e+01
   5.989282e+01   1.108884e+02
  -5.644755e+01   1.122924e+02
  -8.952723e+01   2.389968e+01
   3.587765e+00  -3.163244e+01
   3.051808e+01  -3.311692e+01
  -2.225380e+01   3.462885e+01
  -9.252424e+01  -4.289969e+01
  -7.819451e+01  -1.022439e+02
  -9.093671e+00  -1.683661e+02
   8.108493e+01  -1.712253e+02
   2.548171e+02  -3.211081e+01
   1.929354e+02   1.526160e+02
   2.641045e+01   2.271555e+02
  -1.318465e+02   1.621812e+02
  -1.374249e+02   1.378257e+01
  -4.286079e+01  -2.936451e+01
  -3.659064e+01  -4.865328e+01
  -4.354671e+01   2.297659e+00
  -6.791332e+01  -3.391355e+00
  -3.394032e+01  -5.586059e+01
   6.096389e+01  -7.858432e+01
   1.378976e+02  -9.754056e+01
   8.231681e+01   1.832663e+01
  -3.413986e+01   1.248438e+02
  -1.066282e+02   9.895070e+01
  -1.943289e+02  -5.667803e+01
  -6.518894e+01  -1.585430e+02
   1.285291e+02  -1.980532e+02
   2.451890e+02  -2.891354e+01
   2.361684e+02   9.827394e+01
   1.131126e+02   1.709208e+02
  -4.692074e+01   1.780798e+02
  -5.637586e+01   7.695054e+01
  -8.248845e+01   7.124500e+01
  -2.434536e+01   8.319334e+01
  -9.317196e+01   7.267809e+01
  -1.148936e+02  -2.597845e+01
  -1.055508e+02  -1.284388e+02
  -6.286520e+01  -2.274538e+02
   9.865614e+01  -1.778175e+02
   1.826988e+02  -1.046004e+01
   1.365923e+02   1.151181e+02
   3.053499e+01   1.802962e+02
  -5.760157e+01   9.972767e+01
  -1.486171e+01   5.955051e-01
  -2.395843e+00  -6.885257e+01
  -2.928739e+00  -2.336490e+01
  -5.953174e+01  -3.031353e+01
  -8.925953e+01   5.827130e+00
  -4.779083e+01  -7.787084e+01
   3.483707e+01  -3.231722e-01
   1.454585e+02  -8.429332e-01
   1.207905e+02   9.698613e+01
   4.063911e+01   8.748953e+01
  -1.117138e+02   6.920215e+01
  -1.367579e+02  -8.401579e+00
  -5.679769e+01  -3.257594e+01
   6.190295e+01  -5.105415e+01
   7.748581e+01   3.478757e+01
   1.191361e+01   8.255661e+01
  -3.931572e+01   2.168298e+01
  -5.979563e+01  -2.955948e+01
  -4.521619e+01  -3.539616e+01
  -6.525014e+01  -2.063938e+01
  -4.720017e+01  -1.927604e+01
  -7.936714e+01  -4.093939e+01
  -4.127425e+01  -7.147233e+01
   3.276723e+01  -1.669987e+02
   1.000029e+02  -8.751459e+01
   1.748355e+02  -1.734108e+01
   1.148282e+02   5.804883e+01
   2.490712e+01   1.356115e+02
  -1.308930e+02   5.563566e+01
  -5.426570e+00   2.653166e+01
   5.390064e+01   5.538515e+00
   1.415309e+02   4.060897e+01
   3.886492e+01   1.065639e+02
  -8.475179e+01   1.041748e+02
  -2.110690e+02   8.808132e+00
  -1.574957e+02  -2.969524e+01
  -3.663767e+01  -1.072503e+02
   8.672788e+01  -1.404241e+01
  -6.659501e+00   3.267119e+01
  -6.378161e+00   1.487314e+01
  -1.059186e+02  -1.731051e+01
   5.692974e-01  -1.040515e+02
   9.044432e+01  -1.878169e+02
   1.748225e+02  -5.957516e+01
   1.334477e+02   9.192173e+01
   1.740973e+01   1.946240e+02
  -7.993008e+01   1.341261e+02
  -1.390783e+02   2.666068e+00
  -4.856406e+01  -1.118211e+02
  -1.207390e-01  -1.260005e+02
   3.219131e+01  -6.137572e+00
   8.596960e+01   2.110309e+01
   2.057832e+01   2.387008e+01
   4.773273e+01  -4.452124e+01
  -1.198538e+01  -3.557435e+01
   3.914488e+01   7.294844e+01
   4.674511e+01   1.208329e+02
  -7.692881e+01   8.462556e+00
  -1.644085e+02  -4.520628e+01
  -1.203558e+02  -6.903909e+01
  -1.780974e+01  -7.075429e+01
   9.056410e+01  -7.269502e+01
   6.909185e+01  -4.738150e+01
   3.623240e+01  -3.219797e+00
  -3.834276e+01   2.795601e+01
  -9.759742e+00   4.594115e+01
  -3.541455e+00   8.832974e+00
  -4.226580e+01  -3.257514e+01
  -6.784682e+01  -2.072654e+01
  -7.953791e+01  -5.148976e+01
  -1.246498e+01  -6.141400e+01
   1.083348e+02  -1.153992e+02
   1.821887e+02  -7.550487e+01
   1.239900e+02   4.787565e+01
   3.814607e+01   1.845394e+02
  -9.728425e+01   1.081813e+02
  -6.527760e+01   6.813567e+01
  -7.915371e+01  -4.055414e+01
  -3.349085e+00  -4.385760e+01
   3.236853e+01  -4.557782e+01
  -3.430251e+01  -1.315464e+01
  -3.546929e+01  -5.355254e+01
  -1.991479e+01  -1.072661e+02
   4.197444e+01  -7.315560e+01
   5.499044e+01   1.942801e+01
   9.106962e+01   8.679907e+01
   1.445804e+01   1.112415e+02
  -9.893944e+01   5.508166e+01
  -7.694584e+01  -1.112690e+02
  -3.098238e+01  -1.391843e+02
   1.013397e+02  -4.384206e+01
   9.598425e+01  -4.701519e+00
   5.078374e+01  -4.170012e+00
  -4.450613e+01   5.612176e+01
  -4.650436e+01   3.756589e+01
   8.761710e+01   6.016820e+01
   4.025722e+01  -2.564612e+01
   5.299056e+00  -2.515520e+01
  -6.518214e+01   7.590283e+01
  -1.008239e+02   4.565592e+01
  -9.303416e+01   1.099050e+01
   3.829175e+01  -7.680050e+01
   4.033628e+01  -8.619125e+01
   5.025876e+01  -9.647948e+00
   3.848728e+01   5.968052e+01
  -4.816959e+00   1.829205e+01
  -2.732695e+01  -1.530653e+01
  -1.481017e+01  -5.319746e+01
  -2.030077e+01  -4.405406e+01
   3.653453e+01   3.819358e+00
   2.057612e+01   5.162076e+00
   1.390376e+01   2.019419e+01
   1.353670e+01  -2.407265e+01
   2.070555e+01   1.909907e+01
  -5.033945e+00   4.158395e+01
  -1.232846e+01   2.160490e+01
   7.448868e+00  -2.571473e+00
  -1.216422e+00  -4.127471e+01
   2.932276e+00  -7.711605e+01
   5.478596e+01  -4.718075e+01
   6.755185e+01   5.128994e+01
   5.462763e+00   7.079569e+01
  -8.638689e+01  -1.695895e+01
  -9.596500e+01   5.966616e-02
  -4.157792e+01  -3.806239e+01
   5.733760e+01  -4.055310e+01
   6.885263e+01  -1.710909e+01
   6.431980e+00  -7.889016e+00
  -4.548155e+01   9.886026e+00
  -4.770704e+01   1.924843e+01
   4.451611e+01  -2.905277e+01
   5.801461e+01  -3.304318e+01
