
 $NMID
 id='ANONYMOUS ', fmtdat='(2E16.6)'
 volume=1.0
 tramp=1.0
 $END
   4.065888e+03  -1.822535e+02
   2.242067e+03   2.598275e+03
  -7.012653e+02   2.511515e+03
  -1.791495e+03   7.910203e+02
  -8.556999e+02  -5.448019e+02
   5.482743e+02  -3.251470e+02
   6.662199e+02   4.507537e+02
  -3.917231e+01   9.501457e+02
  -8.088800e+02   6.228105e+02
  -8.963144e+02  -1.281728e+02
  -4.149747e+02  -7.997744e+02
   2.877558e+02  -7.552104e+02
   5.411800e+02  -3.687826e+01
   3.208825e+02   6.234445e+02
  -2.415039e+02   6.600445e+02
  -5.599956e+02  -4.090661e+01
  -2.398380e+02  -6.072634e+02
   3.078973e+02  -6.246350e+02
   5.610130e+02  -1.092691e+02
   3.586287e+02   3.386917e+02
   1.898186e+01   4.288471e+02
  -2.186324e+02   2.507906e+02
  -1.865966e+02  -6.684451e+00
   1.380555e+02  -9.385213e+01
   3.757350e+02   2.013083e+02
   7.983543e+01   4.715459e+02
  -5.094988e+02   2.941212e+02
  -7.615894e+02  -1.050880e+02
  -3.044750e+02  -5.439224e+02
   3.699729e+02  -4.243376e+02
   6.729034e+02   7.423842e+01
   2.656353e+02   4.140495e+02
  -3.233094e+02   4.444854e+02
  -5.463179e+02   1.767961e+02
  -3.564329e+02  -2.319239e+02
  -7.110366e+01  -4.235817e+02
   1.364470e+02  -1.880026e+02
   5.239417e+01   1.656811e+02
  -2.175059e+02   3.263032e+02
  -4.222271e+02  -7.815029e+01
  -1.433610e+02  -6.646177e+02
   3.789939e+02  -5.751792e+02
   4.676019e+02   6.358948e+01
   2.292559e+02   5.036158e+02
  -2.698057e+02   2.197233e+02
  -2.815971e+02  -3.472177e+02
   1.166406e+02  -4.638723e+02
   4.782321e+02  -1.032814e+02
   5.458381e+02   3.961709e+02
   1.477721e+02   5.740270e+02
  -4.072834e+02   3.060913e+02
  -5.419609e+02  -1.253205e+02
  -3.619406e+02  -3.952025e+02
   1.523085e+02  -3.157483e+02
   4.095850e+02  -4.640029e+01
   2.067480e+02   1.648396e+02
  -1.036631e+02   7.916963e+01
  -1.304987e+02  -1.771188e+02
   2.009282e+02  -1.626151e+02
   3.275119e+02   5.102796e+01
   1.458319e+02   2.890461e+02
  -2.602389e+02   2.744449e+02
  -3.196046e+02   6.114612e+01
  -2.145669e+02  -8.884718e+01
   1.453858e+01  -2.312344e+02
   2.341427e+02  -2.793809e+02
   3.436918e+02  -1.681731e+02
   2.692443e+02   1.261098e+02
   3.631207e+01   4.162069e+02
  -1.085372e+02   3.649303e+02
  -8.848270e+01   6.531990e+01
  -1.792007e+01  -2.392440e+01
  -4.874383e+01   7.755989e+01
  -2.228849e+02   1.363759e+02
  -2.755020e+02  -7.193509e+01
  -1.539161e+02  -2.553985e+02
   5.973648e+01  -1.811247e+02
   2.651595e+02   1.404926e+01
   1.837079e+02   2.372814e+02
  -1.157571e+01   2.738363e+02
  -3.122780e+02   1.453618e+02
  -3.684451e+02  -1.520523e+02
  -2.066991e+02  -3.628737e+02
   1.003546e+02  -2.947754e+02
   2.017177e+02  -9.209280e+01
   1.717873e+02  -3.518285e+01
   9.930438e+01  -3.673928e+01
   2.392154e+02  -3.711870e+01
   3.792944e+02   1.003051e+02
   3.106659e+02   3.211202e+02
  -1.211040e+01   4.085776e+02
  -4.498792e+02   4.000610e+02
  -4.953874e+02   1.592598e+02
  -2.883522e+02  -1.212070e+02
   1.208975e+01  -3.313524e+02
   1.018525e+02  -2.630487e+02
   7.930111e+01  -2.472233e+01
  -1.119011e+02   7.571411e+01
  -1.350442e+02  -5.505426e+01
  -2.992146e+01  -1.826555e+02
   1.454528e+02  -1.658799e+02
   1.602831e+02   5.015383e+01
   2.222664e+01   1.799570e+02
  -1.857843e+02  -1.003511e+01
  -1.421517e+02  -2.168161e+02
   4.824239e+01  -3.411122e+02
   2.225578e+02  -1.862977e+02
   3.285871e+02   6.321289e+01
   2.840499e+02   2.477321e+02
   5.836844e+01   2.542396e+02
  -1.317083e+02   1.337329e+02
  -1.848855e+02   1.082292e+01
   1.694384e+01  -1.699496e+01
   4.951023e+01   5.896439e+01
   1.596177e+01   1.440508e+02
  -1.259431e+02   5.336042e+01
  -1.557498e+02   1.764168e+00
  -5.265646e+01  -8.939006e+01
   1.251211e+02   3.232635e+00
   3.184776e+01   5.999518e+01
  -1.325669e+02   1.051942e+02
  -2.681344e+02  -5.462167e+01
  -2.244221e+02  -1.360302e+02
  -7.308952e+01  -2.818334e+02
   2.098693e+02  -2.248007e+02
   2.648574e+02  -1.404978e+02
   1.086770e+02   4.941583e+01
  -2.373083e+01   7.281585e+01
  -7.095043e+01  -2.216397e+01
   3.072881e+01  -1.024130e+02
   1.988371e+02  -2.252290e+01
   2.389138e+02   1.154577e+02
   7.557414e+01   1.990304e+02
  -7.841752e+01   1.374094e+02
  -1.456381e+02   2.514056e+01
  -6.034010e+01  -8.653742e+01
   3.178190e+01  -1.412162e+01
   5.117392e+01   1.135545e+02
  -8.850189e+01   1.147328e+02
  -1.999074e+02  -1.503735e+01
  -1.372547e+02  -1.112815e+02
  -1.957846e+01  -2.273712e+02
   1.414834e+02  -1.366013e+02
   2.313891e+02  -1.407337e+01
   4.712363e+01   8.787522e+01
  -6.612074e+01   1.153349e+02
  -6.132240e+01   1.036461e+00
  -5.604714e+00  -4.406722e+01
   1.935698e+01  -4.307987e+01
  -2.532577e+01  -1.171426e+01
  -1.051467e+02  -3.707615e+01
  -1.037488e+02  -1.051537e+02
  -1.748886e+01  -1.644857e+02
   1.232746e+02  -1.185054e+02
   2.411361e+02  -4.031196e+01
   1.916674e+02   1.474671e+02
   4.506509e+01   1.907986e+02
  -1.299572e+02   1.758236e+02
  -1.435937e+02   6.676672e+01
  -9.713843e+01  -7.156512e+01
  -3.263777e+01  -4.939999e+01
  -5.917932e+01   4.859506e+01
  -6.260155e+01   9.838747e+00
  -6.406845e+01  -5.630958e+01
   4.137711e+01  -1.307425e+02
   1.097652e+02  -7.646574e+01
   6.222908e+01   4.467220e+01
  -2.875252e+01   8.460163e+01
  -1.542502e+02   7.945173e+01
  -1.784718e+02  -6.533746e+01
  -9.146582e+01  -1.849891e+02
   1.154285e+02  -2.633868e+02
   2.734144e+02  -1.212157e+02
   2.370301e+02   8.100187e+01
   6.301350e+01   2.034414e+02
  -1.176211e+00   1.485863e+02
  -1.393519e+02   2.487960e+01
  -9.180220e+01   3.821772e+01
  -6.935901e+01   8.433753e+01
  -7.936976e+01   9.569432e+01
  -1.269586e+02   1.075428e+01
  -1.363576e+02  -1.410357e+02
  -4.218384e+01  -1.884729e+02
   1.226244e+02  -1.563427e+02
   1.710441e+02  -3.196691e+01
   1.804356e+02   1.178401e+02
  -9.188331e-01   1.521032e+02
  -7.912662e+01   6.271042e+01
  -4.836979e+01   1.530485e+01
   8.557439e+00  -4.595254e+01
   5.520805e+01  -1.056946e+01
  -7.108292e+01  -6.806977e+01
  -1.107383e+02   1.727660e+01
  -4.338200e+01  -3.876620e+01
   6.703635e+01  -4.767263e+01
   1.329258e+02   3.288915e-01
   1.127206e+02   3.262429e+01
   1.044664e+01   7.947736e+01
  -9.925453e+01   6.473152e+01
  -1.608407e+02  -1.453186e+01
  -3.086163e+01  -3.253088e+01
   5.732995e+01  -6.258946e+01
   9.256704e+01  -2.081317e+01
  -3.715835e+00   7.097456e+01
  -7.690383e+01   5.437673e+01
  -5.931739e+01  -1.169135e+01
  -6.038205e+01  -6.237316e+01
  -2.768344e+01  -3.035602e+01
  -4.706140e+01  -3.230539e+01
  -5.275579e+01   3.001747e-01
  -4.417434e+01  -4.995954e+01
   1.623657e+01  -1.322229e+02
   1.146089e+02  -1.698885e+02
   1.812433e+02  -3.773789e+01
   1.814301e+02   9.275250e+01
  -2.070364e+01   9.564168e+01
  -1.129836e+02   4.630501e+01
  -5.584555e+01  -1.166549e+01
   3.163132e+01  -6.051614e+01
   1.358644e+02   2.588061e+01
   6.830916e+01   1.009793e+02
  -7.098059e+01   1.391279e+02
  -2.105726e+02   2.532900e+01
  -1.235989e+02  -4.607246e+01
  -5.073183e+01  -8.004706e+01
   5.962239e+01  -4.582949e+01
   3.214899e+01   2.601499e+01
  -6.486598e+01  -4.178638e+00
  -1.142120e+02  -2.560035e+01
  -2.797194e+01  -1.222680e+02
   9.593108e+01  -1.460166e+02
   1.677159e+02  -3.198108e+01
   9.898583e+01   9.897818e+01
   3.796078e+01   1.811150e+02
  -1.311182e+02   1.608433e+02
  -9.910028e+01   1.032321e+01
  -8.264573e+01  -1.045360e+02
  -3.289023e+00  -1.071749e+02
   5.553122e+01  -3.081846e+01
   4.471318e+01   4.031199e+01
   1.843033e+01  -3.031163e+01
  -4.575612e+01  -4.332618e+01
   1.773158e+01   4.743062e+01
   5.600363e+01   1.083488e+02
   3.147250e+01   1.108503e+02
  -6.750263e+01   7.087751e+01
  -1.689393e+02  -4.938639e+01
  -1.313440e+02  -1.061790e+02
   9.529163e+00  -3.774883e+01
   7.504947e+01  -5.386484e+00
   9.964856e+01   2.556191e+01
  -2.539388e+00   1.612038e+01
  -2.093494e+01   2.489977e+00
  -4.599010e+00   1.051592e+01
   3.962739e+01   2.287084e+01
  -2.121717e+00  -1.587706e+01
  -7.090977e+01   1.577284e+01
  -1.162866e+02  -5.671367e+00
  -4.654208e+00  -8.783238e+01
   1.273091e+02  -9.623300e+01
   1.708040e+02  -8.106100e+01
   1.384597e+02   4.904962e+01
  -5.592977e+00   1.499928e+02
  -5.820150e+01   1.464763e+02
  -1.086409e+02   4.975728e+01
  -9.918183e+01  -6.176021e+00
  -3.693543e+01  -4.027788e+01
  -1.663026e+01   9.844595e+00
   7.769042e-02  -6.207725e+00
  -3.649587e+01  -3.892122e+01
  -7.435431e+00  -5.016999e+01
   2.482495e+01  -9.482961e+01
   4.513404e+01   4.594104e+01
   9.027202e+01   6.895051e+01
  -1.848838e+01   9.558991e+01
  -9.246947e+01   1.625644e+01
  -7.319179e+01  -6.985303e+01
  -4.472624e+01  -7.793180e+01
   4.893483e+01  -4.145258e+01
   1.066586e+02   7.558519e+01
   3.253213e+01   5.458729e+01
  -2.883687e+01   3.972066e+01
  -3.866944e+01   2.686590e+01
   6.255193e+01   1.952084e+01
   4.133550e+01  -1.684960e+01
  -8.245960e+00  -1.633773e+01
  -7.811290e+01   6.794639e+01
  -9.180410e+01   5.449998e+01
  -6.623851e+01  -4.329420e+01
   3.576339e+01  -3.939921e+01
   7.765812e+01  -8.432373e+01
  -5.342368e+00  -5.717821e+01
   1.522668e+01   3.279963e+01
   2.067540e+01   7.586568e+01
  -1.236800e+01  -1.608958e+01
  -5.748860e+01  -4.273146e+01
   3.579994e+01  -4.262030e+01
   2.863705e+01  -2.642200e-01
  -2.311350e+01   3.568401e+01
  -1.020630e+00  -5.062530e+01
  -5.939525e+00   8.588072e+00
  -1.930867e+01   1.974621e+01
   2.292930e+01   4.550063e+01
  -2.260581e+01   6.605836e+01
  -1.479747e+01  -5.915933e+00
  -3.146502e+01  -6.125850e+01
   4.635221e+01  -6.923525e+01
   1.655359e+01  -3.853114e+01
   4.218441e+01   2.265696e+01
  -1.537328e+01   3.245023e+01
  -2.416951e+01   2.050138e+01
  -6.908483e+01   1.494799e+01
  -4.786174e+01   2.526863e+00
  -2.270315e+01  -2.678649e+01
   4.206343e+01  -6.008642e+01
   4.088184e+01  -5.646859e+00
  -3.671523e+01  -5.722877e+00
  -1.789445e+01  -8.346950e+00
   1.997403e+01  -5.426574e+01
   9.125784e+01  -4.561817e+01
