
 $NMID
 id='ANONYMOUS ', fmtdat='(2E16.6)'
 volume=1.0
 tramp=1.0
 $END
   3.886509e+03  -8.818351e+01
   2.324609e+03   2.223143e+03
  -3.788947e+02   2.469398e+03
  -1.508838e+03   1.028591e+03
  -1.032310e+03  -2.345197e+02
   2.557727e+02  -2.897946e+02
   6.267188e+02   2.183983e+02
   7.331206e+01   7.146931e+02
  -6.122819e+02   6.535221e+02
  -7.608457e+02   3.620437e+00
  -4.481512e+02  -6.313022e+02
   8.813859e+01  -7.516550e+02
   4.633193e+02  -1.401170e+02
   3.218053e+02   5.241746e+02
  -2.017880e+02   6.144904e+02
  -4.990313e+02   4.866671e+01
  -3.007259e+02  -6.259213e+02
   2.232641e+02  -5.901228e+02
   5.159823e+02  -1.928210e+02
   3.846642e+02   2.133405e+02
   7.929449e+01   4.131365e+02
  -1.198952e+02   2.370217e+02
  -1.273350e+02   5.799543e+01
   1.121709e+02   3.782796e+01
   2.974458e+02   2.516693e+02
   8.708259e+01   4.583050e+02
  -4.180568e+02   2.094128e+02
  -6.830495e+02  -1.672684e+02
  -3.113047e+02  -4.449423e+02
   3.353114e+02  -2.615183e+02
   5.917808e+02   1.123548e+02
   2.483810e+02   4.112728e+02
  -3.146939e+02   3.979082e+02
  -4.877435e+02   1.690791e+02
  -3.708206e+02  -1.791096e+02
  -6.457224e+01  -4.096106e+02
   8.091977e+01  -1.886732e+02
   1.320836e+01   1.626869e+02
  -1.960394e+02   2.698176e+02
  -2.660634e+02  -9.497088e+01
  -8.744895e+01  -5.671530e+02
   3.113966e+02  -5.252704e+02
   3.463323e+02  -4.305308e+01
   1.975453e+02   3.544015e+02
  -2.130423e+02   2.084958e+02
  -2.323846e+02  -2.930721e+02
   1.406937e+02  -4.297730e+02
   4.892889e+02  -9.966552e+01
   5.635300e+02   4.063474e+02
   1.361011e+02   5.394974e+02
  -3.191334e+02   2.989095e+02
  -5.271289e+02  -9.604379e+01
  -3.496471e+02  -3.141903e+02
   1.031433e+02  -2.297189e+02
   3.737630e+02  -3.335082e+01
   2.211341e+02   7.087620e+01
  -6.218273e+01   1.234644e+01
  -6.513444e+01  -7.161084e+01
   1.407995e+02  -1.341083e+02
   2.799530e+02   9.082666e+01
   1.260305e+02   2.237506e+02
  -1.842170e+02   3.112757e+02
  -3.511581e+02   9.454000e+01
  -2.754611e+02  -1.121838e+02
  -2.843770e+01  -2.874354e+02
   2.110857e+02  -3.928341e+02
   3.975803e+02  -1.791668e+02
   2.569378e+02   1.698647e+02
   8.460094e+01   4.036346e+02
  -1.348128e+02   3.229385e+02
  -5.164604e+01   1.201055e+02
  -4.729016e+00   7.704749e+01
  -1.299783e+02   1.177917e+02
  -2.649653e+02   1.074252e+02
  -2.992109e+02  -1.077199e+02
  -7.712671e+01  -3.155473e+02
   1.591952e+01  -2.004263e+02
   1.975067e+02   3.146156e+01
   1.344994e+02   2.399981e+02
  -5.971908e+01   2.568829e+02
  -2.839213e+02   5.840224e+01
  -2.850279e+02  -1.949365e+02
  -1.566449e+02  -2.821124e+02
   9.227578e+01  -2.913191e+02
   1.621962e+02  -1.554620e+02
   1.397496e+02  -9.345894e+01
   1.444062e+02  -5.973847e+01
   2.856619e+02  -5.675580e+01
   3.974280e+02   8.630849e+01
   3.403584e+02   3.137857e+02
  -3.372612e+01   4.601998e+02
  -4.105906e+02   3.995986e+02
  -4.609831e+02   1.187633e+02
  -3.237967e+02  -1.141340e+02
  -6.623648e+01  -2.966955e+02
   1.137699e+02  -2.082760e+02
   1.518991e+01  -2.849231e+01
  -8.606263e+01   1.064718e+02
  -1.270768e+02  -3.655936e+01
  -4.992965e+01  -1.623034e+02
   1.526952e+02  -1.021356e+02
   8.830025e+01   4.382993e+01
  -1.146773e+01   1.657495e+02
  -1.683446e+02   9.861086e+00
  -1.929492e+02  -2.405659e+02
  -1.026685e+01  -3.283457e+02
   2.526624e+02  -1.852760e+02
   3.527398e+02   5.704282e+01
   2.815823e+02   2.632635e+02
   1.052809e+02   2.924168e+02
  -1.452647e+02   1.118777e+02
  -1.755967e+02   3.791703e+00
  -1.471540e+01  -1.638916e+01
   5.584061e+01   6.819575e+01
   1.081421e+01   1.109724e+02
  -1.488644e+02   5.406159e+01
  -1.473079e+02  -3.940632e+01
  -2.615230e+01  -5.466756e+01
   7.404842e+01  -7.346591e+00
   4.321834e+01   5.773868e+01
  -1.357195e+02   6.860314e+01
  -2.987241e+02   1.182485e+01
  -2.760722e+02  -1.487770e+02
  -9.482433e+00  -2.474929e+02
   2.187038e+02  -2.805838e+02
   2.521471e+02  -6.137157e+01
   1.262830e+02   1.256958e+02
  -5.326797e+00   1.091573e+02
  -7.713979e+01  -3.545780e+00
   5.153801e+01  -1.001145e+02
   1.876921e+02  -1.847881e+01
   1.959362e+02   1.046279e+02
   7.703468e+01   2.103337e+02
  -5.404248e+01   1.336616e+02
  -1.625520e+02   2.591609e+01
  -3.354727e+01  -4.306218e+01
   1.703213e+01   1.569899e+01
   2.799895e+01   1.066360e+02
  -7.525565e+01   1.472957e+02
  -1.824102e+02   6.283048e+00
  -1.970813e+02  -1.201031e+02
  -1.356802e+01  -2.041656e+02
   1.516964e+02  -1.204653e+02
   1.875044e+02   7.462783e+00
   6.022526e+01   1.013061e+02
  -1.124322e+02   9.407521e+01
  -6.639735e+01   1.250034e+01
  -8.027127e+00   4.757957e+00
   4.374878e+01   5.637739e+00
  -2.153526e+01   1.287716e+01
  -9.673222e+01  -4.404309e+01
  -8.508930e+01  -1.155656e+02
  -5.212520e+01  -1.582049e+02
   1.534265e+02  -1.486570e+02
   2.006052e+02  -2.292200e+01
   1.916863e+02   1.150799e+02
   2.440893e+01   2.441922e+02
  -1.213363e+02   1.789361e+02
  -1.405046e+02   5.568054e+01
  -7.995828e+01  -3.424218e+01
  -3.316072e+01  -3.518362e+01
  -7.048944e+01  -7.853887e+00
  -9.062462e+01  -1.257416e+01
  -7.367765e+01  -7.562590e+01
   7.384555e+01  -8.123800e+01
   8.791758e+01  -4.629078e+01
   1.117847e+02   4.498648e+01
  -3.893402e+01   1.569350e+02
  -1.698052e+02   5.696002e+01
  -1.928310e+02  -7.657092e+01
  -6.425204e+01  -2.232462e+02
   1.717587e+02  -2.373692e+02
   2.787795e+02  -1.145949e+02
   2.598878e+02   1.262895e+02
   1.173951e+02   1.766806e+02
  -5.937023e+01   1.487428e+02
  -8.511584e+01   4.023073e+01
  -5.865194e+01   8.114463e+01
  -5.009972e+01   8.473472e+01
  -8.746839e+01   7.352112e+01
  -1.354286e+02   2.815479e+00
  -8.408027e+01  -1.663875e+02
  -2.845137e+01  -2.280019e+02
   1.184061e+02  -1.583945e+02
   2.315754e+02   9.239034e+00
   1.407903e+02   1.612472e+02
   1.519708e+01   1.923415e+02
  -8.821420e+01   6.795830e+01
  -4.953279e+01  -3.069114e+01
   4.015157e+00  -6.073718e+01
   1.047461e+01  -5.365383e+01
  -3.314255e+00   1.714787e+01
  -1.074929e+02  -1.549011e+01
  -2.781372e+01   5.715746e+00
   1.133155e+02  -7.578272e+00
   1.598073e+02   3.071737e+00
   1.222409e+02   6.671916e+01
   4.624928e+00   1.051292e+02
  -1.020694e+02   5.571835e+01
  -1.309164e+02   1.090149e+01
  -6.824395e+01  -5.201172e+01
   5.012155e+01  -4.242738e+01
   6.414060e+01   3.391496e+01
  -9.669666e+00   6.860669e+01
  -4.452268e+01   7.147425e+01
  -6.843171e+01   1.097771e+01
  -5.175793e+01  -4.654655e+01
  -7.373980e+01  -7.762902e+01
  -1.229992e+01  -3.969759e+01
  -6.449706e+01  -4.280886e+01
  -4.468895e+01  -3.506677e+01
   2.910068e+01  -1.770583e+02
   1.104500e+02  -1.830977e+02
   1.526833e+02  -4.359343e+01
   1.257414e+02   1.030240e+02
  -4.266994e+00   1.214832e+02
  -8.570229e+01   8.615053e+01
  -7.996026e+01   3.772566e+01
   7.116313e+01   1.576808e+01
   1.296518e+02   5.612812e+01
   4.250207e+01   1.432133e+02
  -1.000931e+02   8.932786e+01
  -2.001234e+02   8.381687e+01
  -1.649961e+02   3.216259e+01
  -3.984883e+01  -7.527721e+01
   7.190153e+01  -7.050970e+01
   4.130027e+01  -8.711901e+00
  -2.897134e+01   3.158096e+01
  -9.229751e+01  -1.768823e+01
  -3.465029e+01  -1.049369e+02
   7.710417e+01  -1.497297e+02
   1.369357e+02  -6.207757e+01
   1.447536e+02   8.668179e+01
   3.731537e+01   1.805998e+02
  -9.659543e+01   2.040927e+02
  -1.081337e+02  -3.589463e+01
  -6.423731e+01  -9.249190e+01
   1.079008e+01  -9.231987e+01
   6.553031e+01  -8.570864e+00
   4.291662e+01   5.498056e+01
   9.575253e+00   1.758989e+01
  -1.281048e+01  -4.323846e+01
   5.645352e+01   3.029229e+01
   1.638805e+01   1.056352e+02
   3.892345e+01   1.130788e+02
  -1.717924e+01   4.128275e+01
  -1.204097e+02  -3.337783e+01
  -1.107857e+02  -6.308638e+01
  -7.165618e+01  -4.686308e+01
   8.835285e+01  -3.018895e+00
   8.862745e+01  -2.697404e+00
   1.645890e+01   2.363226e+01
  -8.752646e+00   2.175122e+01
  -2.204719e+01  -1.745326e+01
   1.906080e+01   2.193987e+01
  -5.432981e+00   4.246686e+01
  -4.251811e+01  -1.113236e+01
  -1.116022e+02  -2.443175e+01
  -7.736062e+00  -8.161638e+01
   9.798376e+01  -1.213634e+02
   1.538064e+02  -5.341016e+01
   1.446066e+02   4.676151e+01
  -5.732307e+00   1.622241e+02
  -7.351877e+01   1.573142e+02
  -1.785908e+02   4.163651e+01
  -6.640045e+01  -4.128767e+01
  -4.848703e+01  -2.904094e+01
   1.239686e+01  -4.064016e+01
  -1.786607e+00   3.092211e+01
  -5.477126e+01  -3.939744e+01
  -3.770312e+01  -7.722193e+01
   2.079978e+01  -7.664417e+01
   8.312552e+01   9.475994e+00
   7.788553e+01   1.051577e+02
   1.568901e+01   8.787766e+01
  -9.080928e+01   4.207436e+01
  -5.330681e+01  -4.731268e+01
  -1.642048e+01  -8.665566e+01
   5.763227e+01  -1.004224e+02
   9.899611e+01   1.794742e+01
   4.468474e+01   3.514443e+01
  -2.586251e+01   9.263707e+01
  -7.312951e+01   3.171287e+01
   1.718936e+01   1.822477e+01
   7.425789e+01   3.075100e+01
  -1.116708e+01   3.530352e+01
  -1.054722e+02   7.499586e+01
  -1.199419e+02   2.927536e+01
  -8.919667e+01   9.971718e-01
   1.939001e+01  -9.720060e+01
   7.375625e+01  -6.571379e+01
   9.268828e+01  -5.433086e+01
  -3.759763e+00   5.532767e+01
   2.084962e+00   5.140646e+01
  -6.184743e+01   2.592373e+01
  -7.515889e+01  -4.232308e+01
   3.798064e+01  -9.569076e+00
   2.260600e+01   1.150791e+01
   4.555950e+01   5.252787e+01
   2.645535e+01   4.594194e+01
  -1.805278e+01  -3.438738e+01
  -8.989786e-01  -1.969153e+01
  -1.921789e+01   4.366621e+01
  -2.456579e+01   6.215700e+01
  -5.118183e+01   4.483922e+01
  -3.263435e+01  -3.324718e+01
  -1.666860e+01  -3.079761e+01
   3.881193e+01  -4.804692e+01
   6.921756e+01   3.605033e+01
   3.679770e+01   3.041329e+01
  -7.786068e+01   6.885508e+01
  -1.123543e+02   1.491891e+01
  -5.834995e+01  -3.627127e+01
   2.830116e+01  -4.998107e+01
   7.372997e+01  -5.259402e+01
   5.646246e+01   4.892670e+00
  -6.085143e-01  -1.895645e+01
  -5.003130e+01   3.176931e+01
   3.873749e+00  -1.731176e+01
   8.329144e+01  -2.728769e+01
