
 $NMID
 id='ANONYMOUS ', fmtdat='(2E16.6)'
 volume=1.0
 tramp=1.0
 $END
   4.433165e+03   1.255767e+02
   2.549100e+03   2.499015e+03
  -7.799473e+02   2.702510e+03
  -2.088649e+03   9.098163e+02
  -9.272690e+02  -6.069625e+02
   6.507263e+02  -6.571376e+02
   8.918042e+02   3.659745e+02
   2.000386e+01   1.106043e+03
  -7.768097e+02   7.900482e+02
  -1.009928e+03  -6.605871e+01
  -5.194742e+02  -8.733570e+02
   2.114804e+02  -9.630812e+02
   6.490025e+02  -1.488613e+02
   4.037137e+02   7.080646e+02
  -3.101227e+02   8.185574e+02
  -6.356025e+02   1.547467e+01
  -2.842741e+02  -6.993219e+02
   3.305352e+02  -6.932701e+02
   6.188254e+02  -7.027331e+01
   3.896361e+02   3.849008e+02
   1.399282e+01   4.375579e+02
  -2.643268e+02   2.526257e+02
  -2.392708e+02   2.250597e+01
   1.348504e+02  -7.483901e+01
   4.486913e+02   1.049504e+02
   1.827938e+02   4.577364e+02
  -4.727235e+02   4.557318e+02
  -8.344341e+02  -1.071705e+02
  -4.191586e+02  -6.171463e+02
   3.448067e+02  -4.938850e+02
   7.779488e+02   9.465397e+00
   3.547344e+02   5.097237e+02
  -2.833810e+02   5.467187e+02
  -6.301276e+02   1.701876e+02
  -4.372283e+02  -2.316885e+02
  -9.270588e+01  -5.199492e+02
   2.271937e+02  -3.259583e+02
   1.438790e+02   1.951503e+02
  -2.019359e+02   4.158308e+02
  -5.650034e+02  -8.000080e+01
  -2.214675e+02  -6.862779e+02
   3.072445e+02  -6.821286e+02
   6.709960e+02  -3.048167e+01
   2.498190e+02   5.144090e+02
  -2.597280e+02   3.365086e+02
  -4.039134e+02  -3.418312e+02
   6.262580e+01  -5.954386e+02
   4.804660e+02  -1.406470e+02
   6.025557e+02   3.974094e+02
   1.818384e+02   5.922771e+02
  -3.384798e+02   3.196602e+02
  -6.429926e+02  -7.940490e+01
  -3.669553e+02  -3.869177e+02
   1.400162e+02  -3.534294e+02
   3.969087e+02  -5.022485e+01
   2.869814e+02   1.834204e+02
  -9.302923e+01   1.251528e+02
  -1.810064e+02  -1.122837e+02
   1.466659e+02  -2.156122e+02
   3.169692e+02   2.078093e+01
   1.793226e+02   2.836085e+02
  -2.046010e+02   2.846968e+02
  -3.599563e+02   1.564320e+02
  -2.107967e+02  -9.830398e+01
   4.395445e+01  -2.290424e+02
   2.359832e+02  -3.460295e+02
   3.582526e+02  -1.926867e+02
   2.974756e+02   1.604544e+02
   6.380118e+01   4.209575e+02
  -1.456594e+02   3.450855e+02
  -1.307931e+02   8.579967e+01
  -9.737567e+00  -4.696460e-02
   1.387783e+01   6.596276e+01
  -2.437373e+02   1.143298e+02
  -2.822691e+02  -6.310992e+01
  -1.495575e+02  -2.954271e+02
   5.455968e+01  -3.148254e+02
   2.289740e+02   1.552123e+01
   1.986570e+02   2.377765e+02
   2.528358e+01   2.916706e+02
  -2.311155e+02   1.007205e+02
  -3.616021e+02  -1.781650e+02
  -1.904053e+02  -3.488370e+02
   8.586854e+01  -2.931972e+02
   2.216707e+02  -1.476142e+02
   1.347993e+02   2.893639e+00
   1.238495e+02  -2.952883e+01
   2.250676e+02  -4.132893e+01
   4.073008e+02   4.620638e+01
   3.689227e+02   2.550875e+02
  -1.485966e+01   4.572884e+02
  -3.227313e+02   4.194045e+02
  -4.914181e+02   2.238685e+02
  -3.252381e+02  -1.187952e+02
  -5.687452e+01  -3.092540e+02
   1.570652e+02  -2.785226e+02
   9.421998e+01  -6.360550e+01
  -9.965590e+01   9.279899e+01
  -2.026695e+02   4.735821e-01
  -3.563111e+01  -1.742395e+02
   1.581764e+02  -1.922365e+02
   1.710115e+02   2.264484e+01
  -1.857437e-01   2.098681e+02
  -1.861104e+02   1.533415e+01
  -1.739617e+02  -2.725480e+02
   2.092162e+01  -3.875869e+02
   1.987769e+02  -2.460220e+02
   3.378700e+02   7.307025e+01
   2.435543e+02   2.346566e+02
   9.666336e+01   2.917784e+02
  -1.006350e+02   1.530332e+02
  -1.484357e+02   3.807506e+00
  -2.785742e+01  -7.046198e+01
   5.984613e+01   4.756955e+01
   2.783665e+01   8.216541e+01
  -1.310251e+02   1.153604e+02
  -2.016079e+02   9.902848e+00
  -8.944887e+01  -6.368460e+01
   9.829859e+01  -3.324699e+01
   8.013481e+01   5.247784e+01
  -9.951743e+01   6.986465e+01
  -2.597498e+02   1.451078e+01
  -2.848169e+02  -1.301890e+02
  -4.449772e+01  -2.579889e+02
   1.843728e+02  -2.919882e+02
   2.737654e+02  -1.113244e+02
   1.470693e+02   6.677739e+01
  -7.822551e+01   9.570876e+01
  -7.826725e+01   1.741549e-02
   5.951473e+01  -1.011614e+02
   2.250984e+02  -7.811776e+01
   2.035837e+02   9.235482e+01
   7.359031e+01   1.772516e+02
  -4.944940e+01   1.674059e+02
  -1.493714e+02   4.518864e+01
  -1.121157e+02  -8.582190e+01
   4.752718e+01   1.791408e+01
   3.186784e+01   4.152257e+01
  -2.940590e+01   1.189436e+02
  -1.600145e+02   4.338447e+01
  -1.782272e+02  -1.325064e+02
  -6.931382e+01  -2.092943e+02
   1.756845e+02  -1.412516e+02
   2.182887e+02  -3.062815e+01
   5.324025e+01   9.848343e+01
  -1.688998e+01   8.741529e+01
  -6.894653e+01   1.738367e+01
  -6.387504e+00  -4.172686e+01
   5.072872e+00  -3.070102e+01
  -2.766206e+01   1.943661e+01
  -3.831718e+01  -2.241031e+01
  -6.404162e+01  -9.615296e+01
  -1.399731e+01  -1.199327e+02
   1.448407e+02  -1.470191e+02
   2.302527e+02  -2.595007e+01
   2.020035e+02   1.110176e+02
   7.912114e+01   2.247471e+02
  -8.949305e+01   1.875892e+02
  -1.535864e+02   3.447540e+01
  -1.064119e+02  -6.722401e+01
  -4.159076e+01  -8.445896e+00
  -6.733886e+01   6.657961e+00
  -8.708501e+01  -1.068182e+01
  -3.199924e+01  -5.213968e+01
   3.830605e+01  -8.934621e+01
   7.816004e+01  -2.040926e+01
   6.258566e+01   1.590714e+01
  -2.355532e+01   1.327373e+02
  -1.449817e+02   1.122143e+02
  -1.933880e+02  -5.526801e+01
  -1.181830e+02  -1.734780e+02
   8.341790e+01  -2.256326e+02
   2.849345e+02  -1.000373e+02
   1.989600e+02   9.580287e+01
   1.143244e+02   2.106776e+02
  -2.309952e+01   1.496613e+02
  -7.703321e+01   1.283189e+02
  -9.307541e+01   5.301205e+01
  -6.208041e+01   1.356277e+02
  -9.856325e+01   4.208864e+01
  -1.233830e+02  -2.203456e+01
  -1.381356e+02  -1.243530e+02
  -6.922804e+01  -2.232210e+02
   9.152397e+01  -1.432188e+02
   1.556707e+02  -6.495360e+01
   1.094158e+02   1.169358e+02
   3.368754e+01   1.834303e+02
  -6.138474e+01   8.121345e+01
  -5.726452e+01   2.180338e+01
  -4.060929e+01  -3.523585e+01
   4.579544e+01  -3.528926e+01
  -4.641724e+01   8.702203e+00
  -7.262872e+01   3.699937e+00
  -4.851088e+01  -4.107795e+01
   8.789083e+01  -4.684961e+01
   1.203616e+02  -5.632391e+01
   1.637362e+02   4.486040e+01
   4.588755e+01   1.148600e+02
  -1.053893e+02   6.769759e+01
  -1.331431e+02   7.461061e+00
  -5.711089e+01  -7.292763e+01
   5.639274e+01  -2.913436e+01
   6.138726e+01   1.756549e+01
   3.255437e+01   4.403444e+01
  -6.947792e+01   5.593978e+01
  -9.411630e+01   4.022058e-01
  -2.616359e+01  -7.611922e+01
  -5.294028e+01  -4.159723e+01
  -6.521704e+01  -2.534004e+01
  -4.864047e+01   2.189788e+01
  -3.724516e+01  -4.533456e+01
   3.362455e+01  -1.094299e+02
   8.832249e+01  -1.387847e+02
   1.289547e+02  -3.698698e+01
   1.000741e+02   1.098653e+02
   2.166973e+00   1.174873e+02
  -1.266809e+02   4.108014e+01
  -1.004945e+02  -7.995842e+00
   5.188788e+01   7.710304e+00
   1.291544e+02   4.226633e+01
   7.048613e+01   8.608570e+01
  -9.038769e+01   1.313074e+02
  -1.825347e+02   6.193169e+01
  -1.523413e+02  -5.183077e+01
  -5.292894e+01  -6.856632e+01
   9.798656e+01  -7.207693e+01
   2.950804e+01   1.016023e+01
  -6.829011e+01   2.663463e+01
  -8.833991e+01  -3.977234e+01
  -2.196735e+01  -9.254555e+01
   1.216767e+02  -1.618853e+02
   1.746419e+02  -8.909836e+01
   8.871579e+01   7.698525e+01
   2.213669e+01   1.997426e+02
  -9.259931e+01   1.546797e+02
  -1.392778e+02  -3.390056e+01
  -2.589266e+01  -1.284852e+02
  -2.083336e+01  -1.470625e+02
   5.951757e+01  -4.826831e+00
   4.825073e+01   4.258130e+01
  -1.046293e+01   4.779230e+01
  -1.064848e+01   1.332223e+01
   7.660561e+00   3.972293e+01
   4.635810e+01   6.222431e+01
   4.987248e+01   5.695607e+01
  -4.260756e+01   5.477179e+01
  -1.553342e+02  -1.489100e+01
  -1.104534e+02  -5.829225e+01
  -9.479431e+00  -5.330634e+01
   1.069919e+02  -5.970631e+01
   8.515713e+01   3.134264e+01
  -3.723028e-01   1.666389e+00
  -7.560277e+01   1.174779e+01
  -3.502430e+01   4.225299e+01
   2.005520e+01   6.759714e+00
  -1.152025e+01  -2.351770e+01
  -1.007062e+02   1.155650e+01
  -1.054217e+02  -3.287076e+01
  -2.266077e+01  -1.179450e+02
   1.015263e+02  -1.257113e+02
   1.690043e+02  -4.917949e+01
   1.171778e+02   6.182716e+01
   2.154349e+01   1.537455e+02
  -1.181446e+02   1.920152e+02
  -1.221292e+02   5.809047e+01
  -9.684599e+01  -1.662344e+01
  -3.819557e+01  -4.325034e+01
  -2.208882e+00  -4.032096e+00
  -2.804338e+00   1.814008e+01
  -1.032586e+01  -2.605127e+01
   5.360660e+00  -9.190547e+01
   6.610969e+01  -7.798263e+01
   5.944984e+01   1.430725e+01
   9.245505e+01   1.099011e+02
   4.642008e+01   1.217419e+02
  -5.096142e+01   2.211424e+01
  -1.121268e+02  -6.084382e+01
  -1.748842e+00  -9.651581e+01
   8.346993e+01  -2.466078e+01
   1.210041e+02   3.230226e+01
   3.249960e+01   2.757519e+01
  -3.272199e+01   4.560923e+01
   9.717764e+00   2.325302e+01
   8.107467e+00   6.831142e+00
   3.472924e+01  -7.236887e+00
   3.183456e+01   5.945872e+00
  -5.851983e+01   4.940597e+01
  -8.531077e+01   6.941312e+01
  -7.735932e+01   1.293614e+01
   2.468283e+01  -6.844211e+01
   5.336823e+01  -1.132580e+02
   4.311157e+01   3.011180e+01
  -2.115709e+01   8.278793e+01
  -2.735641e+01   6.731271e+01
  -6.419421e+01  -3.103945e+01
  -4.923369e+01  -6.827163e+01
   2.325220e+01  -5.519831e+01
   6.257296e+01  -7.325916e+00
   4.106435e+01   3.225370e+01
   1.184863e+01   1.931600e+01
  -5.073368e+00  -1.896603e+01
   1.423710e+00   2.269512e+01
  -5.264725e+01   4.261702e+01
   2.907906e+00   2.158919e+01
  -4.871853e+01  -9.096960e+00
  -2.568240e+01  -6.685333e+01
  -2.461368e+01  -4.962325e+01
   4.844792e+01  -9.429811e+00
   3.997435e+01   3.800225e+01
   3.688445e+00   9.832937e+01
  -5.213148e+01   6.643951e+01
  -7.095140e+01   8.034616e-01
  -5.342764e+01  -2.591984e+01
   1.005294e+01  -3.500519e+01
   7.661743e+01  -1.918893e+01
   1.333325e+01   1.526798e+00
  -3.629498e+01  -1.349590e+01
  -2.670695e+01   2.301079e+00
   1.058487e+01  -3.308430e+01
   1.291375e+02  -1.693716e+01
