
 $NMID
 id='ANONYMOUS ', fmtdat='(2E16.6)'
 volume=1.0
 tramp=1.0
 $END
  -4.519351e+03   2.225063e+01
  -2.572991e+03  -2.763151e+03
   8.044001e+02  -2.945431e+03
   2.336539e+03  -1.002832e+03
   1.122597e+03   9.002145e+02
  -7.608154e+02   7.654529e+02
  -1.096911e+03  -4.286251e+02
   1.822280e+01  -1.290091e+03
   9.413263e+02  -8.479845e+02
   1.101460e+03   2.123481e+02
   4.653547e+02   1.041305e+03
  -3.225833e+02   9.381079e+02
  -7.474965e+02   1.084331e+02
  -4.346733e+02  -8.001055e+02
   3.406673e+02  -8.149906e+02
   7.245960e+02  -6.848793e+00
   3.113298e+02   7.725092e+02
  -3.325567e+02   6.894087e+02
  -6.252768e+02   8.697686e+01
  -4.039765e+02  -4.124631e+02
  -2.210729e+01  -4.713797e+02
   2.888536e+02  -2.191202e+02
   2.564270e+02  -3.420258e+01
  -1.255543e+02   1.237368e+02
  -4.359190e+02  -7.649186e+01
  -2.778613e+02  -4.464915e+02
   4.581089e+02  -4.451602e+02
   8.882860e+02   2.449418e+00
   5.689556e+02   6.518957e+02
  -4.073390e+02   5.579241e+02
  -8.279355e+02  -2.062282e+01
  -4.261349e+02  -4.806977e+02
   2.488533e+02  -6.013945e+02
   5.957466e+02  -2.667300e+02
   4.789143e+02   2.396383e+02
   1.321685e+02   5.460228e+02
  -2.341490e+02   3.958098e+02
  -2.246772e+02  -2.397043e+02
   1.422045e+02  -5.203465e+02
   5.362018e+02  -2.757851e+01
   3.455831e+02   7.689218e+02
  -3.160897e+02   8.362949e+02
  -6.793112e+02  -1.655303e+01
  -3.152726e+02  -5.899016e+02
   3.378758e+02  -3.836776e+02
   4.144425e+02   3.254175e+02
  -5.783973e+01   6.163713e+02
  -6.280304e+02   2.074093e+02
  -6.431859e+02  -4.217273e+02
  -1.734626e+02  -6.178009e+02
   3.823389e+02  -3.941723e+02
   6.973944e+02   6.321025e+01
   3.785431e+02   4.227072e+02
  -1.682180e+02   4.215586e+02
  -5.331581e+02   7.199536e+01
  -2.849001e+02  -2.749663e+02
   1.556564e+02  -1.702759e+02
   1.896387e+02   1.730155e+02
  -1.709902e+02   2.112505e+02
  -3.837342e+02  -4.157761e+01
  -1.217966e+02  -3.305006e+02
   2.238005e+02  -2.591372e+02
   3.432321e+02  -8.448934e+01
   1.805415e+02   8.571721e+01
  -2.760613e+00   2.046528e+02
  -2.321007e+02   3.524449e+02
  -3.592613e+02   2.463937e+02
  -3.686888e+02  -1.264383e+02
  -7.012731e+01  -5.016766e+02
   1.016090e+02  -4.431585e+02
   1.580549e+02  -1.248962e+02
   2.435090e+01   7.391637e+01
   4.253935e+01  -5.334869e+01
   2.084958e+02  -1.672981e+02
   3.121038e+02   2.678057e+01
   2.054989e+02   2.745233e+02
  -4.319368e+01   3.017934e+02
  -2.215353e+02   5.652152e+01
  -2.675558e+02  -2.293735e+02
  -2.402956e+01  -3.420284e+02
   2.848131e+02  -1.418665e+02
   3.916772e+02   1.558382e+02
   2.288699e+02   3.545988e+02
  -8.121212e+01   2.867563e+02
  -2.484108e+02   1.274567e+02
  -1.896614e+02  -3.788564e+01
  -1.104104e+02   5.434146e+00
  -2.535499e+02   7.480955e+01
  -4.006949e+02  -3.305097e+01
  -3.885229e+02  -2.503437e+02
   8.765671e+00  -4.620698e+02
   3.628538e+02  -4.302256e+02
   5.068884e+02  -1.812543e+02
   3.578324e+02   7.852427e+01
   4.289414e+01   3.568847e+02
  -1.229736e+02   2.976558e+02
  -8.509374e+01   3.484496e+01
   7.723767e+01  -1.219211e+02
   2.223180e+02   1.508260e+01
   7.522091e+01   1.915233e+02
  -1.602455e+02   2.492414e+02
  -2.258073e+02  -8.341213e+01
  -1.500652e+00  -2.478401e+02
   2.149045e+02  -5.683286e+01
   1.563446e+02   2.261533e+02
  -4.253115e+01   3.544671e+02
  -2.216668e+02   2.196152e+02
  -3.316562e+02  -1.107229e+02
  -2.507350e+02  -2.507186e+02
  -1.347694e+02  -2.629921e+02
   1.358273e+02  -1.645450e+02
   1.533322e+02  -2.703127e+01
   3.326271e+01   5.773133e+01
  -7.500027e+01  -1.545865e+00
  -5.063683e+01  -8.735525e+01
   1.169025e+02  -7.913443e+01
   2.150527e+02  -4.362819e+00
   7.294171e+01   7.955018e+01
  -6.759486e+01   3.799893e+01
  -3.662693e+01  -8.389978e+01
   1.360599e+02  -7.239535e+01
   2.133722e+02  -2.254046e+01
   2.603347e+02   1.145536e+02
   7.722336e+01   2.185541e+02
  -1.577862e+02   2.846652e+02
  -2.843783e+02   1.450429e+02
  -1.694673e+02  -2.210311e+01
   1.205173e+01  -1.143219e+02
   1.311324e+02  -3.221533e+01
  -2.693442e+01   1.072410e+02
  -2.426132e+02   8.815023e+01
  -2.456484e+02  -1.099662e+02
  -6.803045e+01  -2.173086e+02
   7.145478e+01  -1.919746e+02
   1.581734e+02  -3.940332e+01
   1.020258e+02   5.816822e+01
  -2.439758e+01   7.767073e+00
  -5.863567e+01  -3.897987e+01
   4.849830e+01  -1.162398e+02
   2.279509e+02   3.691916e+00
   2.370139e+02   9.595580e+01
   2.815399e+01   2.051377e+02
  -1.608472e+02   1.587929e+02
  -1.991133e+02   1.831943e+01
  -8.490710e+01  -1.674450e+02
   1.004727e+02  -1.015922e+02
   7.645331e+01  -5.483527e+01
   1.248131e+01   7.097874e-01
  -3.157050e+01   7.331616e+00
   2.860881e+01  -3.568489e+01
   5.616302e+01  -1.364911e+01
   1.100600e+02   9.685534e+01
   3.269163e+01   1.477662e+02
  -1.205987e+02   1.364375e+02
  -2.599363e+02   4.525084e+01
  -2.124732e+02  -1.519947e+02
  -5.905881e+01  -2.604003e+02
   1.120208e+02  -1.644375e+02
   1.471847e+02  -3.159269e+01
   5.821957e+01   8.423525e+01
   3.253363e+01   1.631935e+01
   3.150491e+01  -2.703148e+01
   9.606979e+01  -2.243484e+01
   2.557056e+01   5.607926e+01
  -2.439948e+01   1.189233e+02
  -1.613417e+02   6.190109e+01
  -6.043077e+01  -4.948801e+01
   3.122432e+01  -1.014959e+02
   1.446149e+02  -5.410526e+01
   2.229030e+02   8.157700e+01
   9.164485e+01   2.554044e+02
  -9.726866e+01   2.216315e+02
  -2.887977e+02   1.125616e+02
  -2.541978e+02  -5.664747e+01
  -1.010419e+02  -1.793483e+02
   3.432035e+01  -1.544523e+02
   7.440788e+01  -1.025024e+02
   6.848360e+01  -6.898228e+01
   7.961144e+01  -9.560791e+01
   8.691035e+01  -5.841405e+01
   1.028461e+02   6.113853e+01
   1.127140e+02   1.278865e+02
   6.404283e+01   2.245885e+02
  -8.598047e+01   1.691749e+02
  -1.733331e+02  -1.447378e+01
  -1.613746e+02  -9.130730e+01
   7.093181e+00  -1.506252e+02
   8.986632e+01  -9.962067e+01
   3.675569e+01   3.731470e+01
   9.460302e+00   7.175270e+01
   3.739233e+00   1.226807e+00
   6.327429e+00   1.579445e+01
   1.063429e+02   3.570058e+01
   4.650585e+01   4.127501e+01
  -5.806380e+01   3.784784e+01
  -1.720787e+02   4.271461e+01
  -9.598489e+01  -2.758909e+01
  -3.550086e+00  -1.090256e+02
   1.394176e+02  -9.001043e+01
   1.184640e+02  -1.079446e+00
   5.559855e+01   3.167305e+01
  -9.220999e+01   2.726115e+01
  -6.505718e+01  -6.834639e+00
  -2.320614e+01  -1.072947e+02
   4.929190e+01  -6.100400e+01
   6.515646e+01   4.491356e+01
   1.732418e+01   6.036456e+01
   5.286416e+01   5.788548e+01
   8.225504e+01   2.507299e+01
   6.694529e+01  -2.068668e+01
   3.062974e+01   8.509250e+01
  -3.762685e+01   1.089742e+02
  -1.324601e+02   1.671057e+02
  -1.986460e+02   4.085869e+01
  -1.271789e+02  -9.323101e+01
   2.490473e+00  -1.174067e+02
   1.202991e+02  -4.987545e+01
   6.541598e+01   3.222310e+01
  -8.663291e+01   1.839112e+01
  -1.256057e+02  -3.232923e+01
  -8.654630e+01  -1.091939e+02
   7.556640e+01  -9.539286e+01
   2.084087e+02  -9.530789e+01
   1.506737e+02   2.732399e+01
   4.989113e+01   1.121676e+02
  -5.574828e+01   3.609504e+01
  -6.321685e+01   8.561664e+00
   6.441932e+01  -1.469663e+01
   7.610098e+01   2.476504e+01
   6.278708e+01   7.316302e+01
  -6.891196e+01   1.381039e+02
  -1.722787e+02   5.510256e-01
  -1.736237e+02  -1.342863e+02
   2.377013e+01  -1.806021e+02
   9.290501e+01  -1.546959e+02
   1.085788e+02   4.544834e+01
   6.785915e+01   9.229587e+01
   3.874283e+00   1.280659e+02
  -2.665463e+01   6.353732e+01
  -5.500858e+01  -3.325968e+01
  -4.193031e+01  -4.317551e+01
   2.818251e+01   3.840486e+00
  -1.088952e+01  -2.139489e+01
  -6.440249e+01  -8.979809e+01
  -5.021723e+01  -9.810512e+01
   2.617778e+01  -1.082422e+01
   1.047651e+02   1.735073e+01
   1.286130e+02   1.126254e+02
   2.028661e+01   5.659450e+01
  -8.846487e+01   6.833958e+00
  -1.018127e+02   3.060394e+01
   5.440916e+00   1.330171e+00
   5.141220e+01  -2.488361e+01
   1.560062e+01   7.157883e+00
  -2.346127e+01  -1.198469e+01
  -3.514825e+00  -1.711272e+01
   3.489460e+01   1.792427e+01
   9.010289e+01   5.894439e+01
   1.294328e+01   9.193313e+01
  -1.446878e+02   1.244704e+02
  -1.635435e+02   8.262800e+01
  -1.256145e+02  -5.611466e+01
  -3.570082e+01  -1.551265e+02
   8.224537e+01  -1.368854e+02
   1.157619e+02  -3.999946e+01
   8.207782e+01   5.139359e+01
   2.962354e+01   3.822549e+01
   7.842077e+00   1.826145e+01
   1.851081e+01  -2.410930e+01
   9.238802e+01   4.323847e+01
  -1.084371e+01   9.869872e+01
  -7.026287e+01   9.016582e+01
  -8.446145e+01  -1.285167e+01
  -9.137615e+01  -1.132953e+02
   7.540859e+00  -1.145196e+02
   6.663031e+01  -3.732420e+01
   9.625759e+01   7.485153e+01
   2.272275e+01   1.139378e+02
  -6.849571e+01   5.065173e+01
  -8.689597e+01  -1.818741e+01
  -7.250364e+01  -4.480907e+01
   1.202332e+01  -7.407532e+01
   4.433225e+01  -4.060028e+01
  -4.407444e+01   1.678920e+01
  -4.975026e+01   2.096489e+01
   2.590174e+01   2.665073e+01
   6.090714e+01  -7.746043e+01
   1.100383e+02  -8.444570e+01
   4.164142e+01   5.680934e+00
  -4.419449e+00   9.030330e+01
  -6.738388e+01   9.695419e+01
  -4.487437e+01  -1.498817e+01
  -6.600874e+00  -8.418912e+01
   5.305339e+01  -2.409928e+01
   4.508125e+01   2.486309e+01
   6.146227e+00   4.452755e+01
  -1.863152e+01  -6.503643e+00
  -3.246660e+01  -1.973874e+01
  -5.185288e+01  -2.619108e+01
  -9.541907e+00  -1.230894e+01
   2.584265e+01  -2.200674e+01
   2.866390e+00   3.373499e+01
   5.129082e+01  -2.516562e+01
   6.362935e+00  -4.538858e+01
   3.491848e+01   2.825306e+00
   1.903326e+01   3.584446e+01
   6.570099e+00   6.223610e+01
  -5.158470e+01   1.638528e+01
  -8.416305e+01  -3.628577e+01
  -2.200229e+01  -5.430686e+01
   4.320636e+01  -3.548223e+01
   9.151828e+01   1.376101e+01
   4.400051e+01   4.280436e+01
  -2.061192e+01   3.717630e+01
  -1.092702e+02   4.201092e+01
  -3.588433e+01   1.546503e+01
   5.991809e+01  -1.139099e+01
   2.660169e+01  -1.625585e+00
  -2.919443e+01   2.828338e+01
  -7.659682e+01   3.431165e+01
