
 $NMID
 id='ANONYMOUS ', fmtdat='(2E16.6)'
 volume=1.0
 tramp=1.0
 $END
  -3.602703e+03  -3.666585e+02
  -2.066988e+03  -2.402318e+03
   4.620297e+02  -2.316418e+03
   1.490331e+03  -9.857736e+02
   7.809992e+02   5.981601e+01
  -2.831875e+02   2.043853e+02
  -5.166989e+02  -2.412999e+02
   1.112671e+02  -6.959266e+02
   6.277790e+02  -5.705387e+02
   6.956993e+02   3.110010e+01
   4.324417e+02   6.231341e+02
  -1.120868e+02   7.124359e+02
  -4.000337e+02   8.259845e+01
  -2.867415e+02  -5.305862e+02
   2.041841e+02  -6.329221e+02
   5.206779e+02   3.247718e+01
   2.038408e+02   5.901849e+02
  -2.337878e+02   6.067609e+02
  -4.970779e+02   2.206600e+02
  -4.270724e+02  -2.491037e+02
  -7.470020e+01  -3.714855e+02
   1.850984e+02  -2.372697e+02
   1.104669e+02  -2.715307e+01
  -1.656647e+02  -8.482469e+00
  -3.779878e+02  -2.125995e+02
  -8.578626e+01  -3.972178e+02
   5.082288e+02  -1.845423e+02
   6.681383e+02   1.974630e+02
   2.370571e+02   4.852062e+02
  -4.300375e+02   2.430851e+02
  -6.094455e+02  -1.302044e+02
  -2.238457e+02  -4.705524e+02
   2.601034e+02  -3.955683e+02
   4.968749e+02  -9.559290e+01
   3.625239e+02   1.843719e+02
   2.117606e+01   3.417576e+02
  -1.072605e+02   2.151495e+02
  -3.327918e+00  -1.609703e+02
   2.431203e+02  -2.358063e+02
   2.987212e+02   1.186025e+02
   5.667419e+01   6.150918e+02
  -3.236988e+02   5.430680e+02
  -3.831564e+02   2.196825e+00
  -1.128958e+02  -3.703262e+02
   1.623033e+02  -1.441384e+02
   2.288448e+02   3.139628e+02
  -1.479837e+02   4.406822e+02
  -5.276964e+02   6.073962e+01
  -5.467274e+02  -4.768561e+02
  -1.094533e+02  -5.398875e+02
   3.436574e+02  -2.830410e+02
   5.245658e+02   9.280986e+01
   3.529697e+02   3.089964e+02
  -1.048650e+02   2.806149e+02
  -3.906383e+02   7.915678e+01
  -2.329936e+02  -1.044227e+02
   3.412400e+01  -6.898241e+01
   9.127602e+01   1.263549e+02
  -1.591000e+02   7.708574e+01
  -2.815911e+02  -1.307104e+02
  -1.408789e+02  -2.513830e+02
   1.900682e+02  -2.459295e+02
   3.187315e+02  -1.128735e+02
   1.978611e+02   1.380340e+02
   1.030561e+01   2.885377e+02
  -2.723554e+02   4.015635e+02
  -4.132012e+02   1.930390e+02
  -2.466121e+02  -1.762705e+02
  -4.202973e+01  -3.613543e+02
   1.066484e+02  -3.521220e+02
   3.394964e+01  -1.945345e+02
   1.463012e+01  -1.007752e+02
   9.319394e+01  -1.271366e+02
   2.663483e+02  -8.491270e+01
   2.699838e+02   1.284177e+02
   1.106697e+02   3.069622e+02
  -1.180943e+02   1.913147e+02
  -2.201451e+02  -5.604116e-01
  -1.628140e+02  -2.680155e+02
   4.331747e+01  -2.738168e+02
   2.753289e+02  -5.795388e+01
   3.205700e+02   2.214761e+02
   1.630541e+02   3.437713e+02
  -7.652805e+01   2.582783e+02
  -1.871340e+02   1.654423e+02
  -1.212902e+02   6.552881e+01
  -1.590282e+02   6.234976e+01
  -2.629521e+02   7.237493e+00
  -4.285279e+02  -9.727510e+01
  -3.061957e+02  -3.166530e+02
   6.669420e+01  -4.509899e+02
   3.821965e+02  -4.073101e+02
   5.208728e+02  -1.420081e+02
   2.973630e+02   1.286066e+02
  -1.580660e+01   2.770404e+02
  -1.191270e+02   1.802839e+02
  -3.711632e+01  -8.844541e+00
   1.353493e+02  -7.056256e+01
   1.598798e+02   2.793219e+01
   3.597013e+00   1.442352e+02
  -1.548258e+02   1.122432e+02
  -1.333124e+02  -3.277205e+01
   3.306187e+01  -1.342798e+02
   1.434842e+02   1.994949e+01
   1.601643e+02   2.364135e+02
  -4.639103e+01   3.440456e+02
  -2.493840e+02   2.180079e+02
  -3.986677e+02  -6.485447e+01
  -2.985614e+02  -2.199482e+02
  -4.729125e+01  -2.809844e+02
   1.065104e+02  -1.539094e+02
   1.954201e+02   3.586150e+01
   3.091189e+01   5.266631e+01
  -5.931931e+01  -7.452986e+01
   6.763804e+00  -1.507679e+02
   1.369239e+02  -8.471516e+01
   1.783054e+02   5.626747e+01
   3.431298e+01   7.870457e+01
  -6.841858e+01  -2.137728e+01
  -5.143045e+01  -9.853718e+01
   1.377459e+02  -9.027340e+01
   2.748987e+02   1.254285e+01
   2.558970e+02   1.807230e+02
   2.434009e+01   2.868669e+02
  -2.048919e+02   2.817931e+02
  -2.853771e+02   1.038721e+02
  -1.668941e+02  -2.691330e+01
   4.017180e+01  -7.942162e+01
   8.161345e+01  -9.219755e+00
  -4.163182e+01   8.767208e+01
  -1.852966e+02   3.986050e+01
  -1.994862e+02  -1.146817e+02
  -5.379478e+01  -1.752556e+02
   9.861458e+01  -1.490735e+02
   1.339465e+02  -5.972389e+00
   1.223060e+01   5.171522e+01
  -2.302033e+01  -3.906407e+01
  -3.139773e+01  -1.068616e+02
   7.875064e+01  -1.546500e+02
   1.652753e+02  -2.746912e+01
   1.489416e+02   1.369097e+02
   1.363335e+01   2.142208e+02
  -1.559801e+02   1.827142e+02
  -1.898289e+02   1.146598e+01
  -5.141756e+01  -1.200002e+02
   1.824769e+01  -1.195819e+02
   6.343785e+01  -4.827253e+01
  -1.372787e+01   1.191678e+01
  -2.265961e+01   1.573138e+01
   8.427107e+00  -1.769998e+01
   4.202030e+01   1.401123e+00
   8.751985e+01   8.605795e+01
   3.452894e+01   1.789012e+02
  -1.171821e+02   1.659627e+02
  -2.495512e+02   2.131068e+01
  -1.660984e+02  -1.874178e+02
  -5.481489e+01  -2.183890e+02
   1.128741e+02  -1.874227e+02
   1.643724e+02  -4.132403e+01
   5.820307e+01   4.397635e+01
   4.179964e+01   3.352031e+01
   4.043977e+01  -3.046879e+01
   7.714280e+01  -4.731783e+01
   3.486289e+01   5.752950e+01
  -2.371271e+01   1.207211e+02
  -9.509398e+01   8.292982e+01
  -1.044383e+02  -3.393901e+01
   5.797337e+01  -1.471817e+02
   1.833301e+02  -8.580591e+01
   2.291909e+02   8.002381e+01
   7.206304e+01   2.419267e+02
  -8.053718e+01   2.460929e+02
  -2.529618e+02   5.728513e+01
  -2.450487e+02  -1.096699e+02
  -9.832373e+01  -1.537450e+02
   2.712600e+01  -1.314788e+02
   6.095313e+01  -1.202440e+02
   6.334834e+01  -7.721844e+01
   5.774696e+01  -9.825397e+01
   7.774043e+01  -9.984902e+01
   1.084009e+02   3.738804e+00
   1.248062e+02   1.626101e+02
   5.492181e+01   2.344028e+02
  -7.786676e+01   1.676268e+02
  -1.869305e+02   1.385932e+01
  -1.247324e+02  -1.276095e+02
  -7.830368e+00  -1.681351e+02
   7.790516e+01  -1.229521e+02
   9.539405e+01   4.653016e+00
   2.774590e+01   4.610126e+01
  -1.983631e+01   5.476906e+01
   6.294778e+01   2.044323e+01
   7.211709e+01  -2.223432e+00
   7.076057e+01   4.707686e+01
  -8.706298e+01   2.094660e+01
  -1.326191e+02   2.861785e+01
  -1.128596e+02  -6.819881e+01
   1.375792e+01  -1.083172e+02
   1.241498e+02  -5.119712e+01
   1.477250e+02   8.811472e+00
   5.490156e+01  -9.528656e+00
  -8.859228e+01   4.488793e+01
  -9.016715e+01  -2.978156e+01
  -2.922704e+01  -5.170428e+01
   5.153757e+01  -9.506958e+01
   7.485865e+01  -1.989448e+01
   7.660755e+01   3.426527e+01
   3.163691e+01   7.196289e+01
   1.662978e+01  -2.026733e+01
   8.322167e+01   1.944482e+01
   4.858961e+01   4.076637e+01
  -2.861158e+01   1.658137e+02
  -1.354156e+02   1.347976e+02
  -1.708657e+02   5.368742e+01
  -1.597362e+02  -9.153071e+01
   1.805752e+01  -1.490745e+02
   9.650433e+01  -8.612510e+01
   5.557990e+01  -8.648649e-01
  -5.285722e+01   1.240713e+01
  -1.388663e+02  -5.659651e+01
  -4.391432e+01  -1.005632e+02
   9.533534e+01  -1.282711e+02
   1.999233e+02  -3.876033e+01
   1.563764e+02   3.379013e+01
   4.312672e+01   7.605423e+01
  -3.313955e+01   5.853143e+01
  -6.768951e+01  -1.300862e+01
   7.212915e+00  -1.512758e+01
   9.538604e+01   1.807278e+01
   7.574811e+01   1.310400e+02
  -9.734991e+01   1.565783e+02
  -1.963345e+02   4.263528e+01
  -1.470158e+02  -9.354274e+01
  -4.015233e+01  -1.724930e+02
   8.447609e+01  -1.506651e+02
   1.355609e+02   5.402986e+00
   3.352725e+01   8.089588e+01
  -2.734266e+01   1.166208e+02
  -5.747113e+01   1.874516e+01
  -3.404297e+01  -2.054812e+01
  -8.357113e+01  -4.550129e+01
   7.538228e+00  -1.831818e+01
  -2.139570e+01  -5.206836e+00
  -3.868531e+01  -7.324339e+01
  -4.051593e+01  -1.207809e+02
   5.575954e+01  -2.096532e+01
   1.445598e+02   1.079646e+01
   9.531356e+01   7.719021e+01
   1.684502e+01   5.938505e+01
  -8.056163e+01  -1.012857e+01
  -8.804347e+01   2.079933e+01
   1.315365e+01   8.404715e+00
   3.842038e+01  -2.739847e+01
   2.665389e+01  -4.398336e+01
  -3.081246e+01  -2.769715e+00
   2.679023e+01  -5.534381e+00
   5.906937e+01  -3.125714e+00
   7.248144e+01   3.661015e+01
   5.914704e+01   1.218636e+02
  -1.169762e+02   1.311657e+02
  -1.838656e+02   5.990890e+01
  -1.466037e+02  -7.686190e+01
  -6.225604e+00  -1.582221e+02
   9.524979e+01  -1.594562e+02
   1.185758e+02  -3.518984e+01
   8.044254e+01  -1.271436e+01
   1.096990e+01   4.692989e+01
   2.756307e+01  -9.180372e-01
   3.989457e+01   1.757233e+01
   6.153461e+01   5.597483e+01
   2.009032e+01   1.141002e+02
  -3.367676e+01   4.411889e+01
  -9.404478e+01   6.059699e+00
  -3.538926e+01  -1.195228e+02
  -2.285164e+01  -1.001283e+02
   5.105863e+01  -2.525290e+01
   1.079300e+02   7.562067e+01
   2.977604e+01   1.140405e+02
  -3.411185e+01   2.438320e+01
  -1.205261e+02  -2.606015e+01
  -4.220100e+01  -8.059812e+01
   3.477501e+01  -4.998826e+01
   5.065526e+01  -1.675944e+01
  -1.666233e+01  -1.818852e+00
  -7.817911e+01   1.039293e+01
  -2.639065e+01  -3.864979e+01
   7.277380e+01  -7.001158e+01
   1.364911e+02  -8.554763e+01
   8.660640e+01   3.446353e+01
  -2.887242e+01   7.391110e+01
  -6.503377e+01   1.052056e+02
  -5.707996e+01   3.254270e+01
  -6.438073e-01  -8.128662e+01
   3.600067e+01  -7.285479e+01
   3.466669e+01   1.697755e+01
   3.883368e+01   5.795239e+01
  -1.810615e+01   3.243804e+01
  -1.713700e+01   2.553625e+01
  -3.090280e+00  -3.815908e+01
   5.096302e+00   4.752248e+01
   2.779596e+00   1.175277e+01
   3.975290e+00   7.165849e+00
   1.298973e+01  -3.954372e+01
   2.194750e+01  -3.520133e+01
   5.350124e+01  -3.447084e+01
   6.614438e+01  -1.344088e+01
   4.783171e+01   2.878700e+01
  -3.750128e+01   3.650439e+01
  -2.931787e+01  -5.038517e+01
  -5.191208e+01  -8.516833e+01
   1.028636e+02  -4.085934e+01
   1.192354e+02  -6.535204e+00
   4.462684e+01   4.778259e+01
  -4.065573e+01   5.269653e+01
  -4.821908e+01   3.511266e+01
  -7.222023e+01   2.349561e+01
   5.045186e+01  -8.676285e-01
   4.395866e+01  -9.544162e+00
  -3.978418e+01   7.495532e+01
  -1.128494e+02   4.423773e+00
