
 $NMID
 id='ANONYMOUS ', fmtdat='(2E16.6)'
 volume=1.0
 tramp=1.0
 $END
  -4.565294e+03  -3.108330e+02
  -2.404913e+03  -2.763215e+03
   6.910789e+02  -2.871977e+03
   2.088965e+03  -9.632213e+02
   9.886612e+02   5.329281e+02
  -6.565783e+02   4.786759e+02
  -9.084506e+02  -5.493036e+02
   1.064559e+02  -1.019473e+03
   8.661101e+02  -7.162505e+02
   9.700393e+02   5.857268e+01
   4.882574e+02   8.869251e+02
  -2.215671e+02   9.105420e+02
  -6.549241e+02   1.452894e+02
  -3.503403e+02  -7.814719e+02
   2.973660e+02  -7.718637e+02
   6.435419e+02   1.823944e+01
   3.099044e+02   7.419303e+02
  -3.364727e+02   6.624615e+02
  -5.656657e+02   5.361102e+01
  -3.860990e+02  -3.863051e+02
   2.552774e+01  -4.522281e+02
   2.421652e+02  -2.387551e+02
   2.424319e+02   2.758088e+00
  -1.672410e+02   6.072436e+01
  -4.059573e+02  -1.231893e+02
  -1.686260e+02  -4.075387e+02
   4.474499e+02  -4.205962e+02
   8.565414e+02   7.695615e+01
   4.220179e+02   6.068569e+02
  -3.754921e+02   4.877898e+02
  -7.810759e+02  -1.136094e+02
  -3.122496e+02  -5.367479e+02
   3.436548e+02  -5.179137e+02
   6.088242e+02  -1.954149e+02
   4.233076e+02   2.554780e+02
   3.715141e+01   4.778309e+02
  -2.235382e+02   2.614749e+02
  -7.679773e+01  -2.021979e+02
   2.313435e+02  -4.385947e+02
   4.369032e+02  -9.036650e-01
   2.066580e+02   7.342807e+02
  -2.958168e+02   7.229831e+02
  -5.698542e+02  -4.927796e-01
  -2.541483e+02  -6.086271e+02
   3.043096e+02  -2.850595e+02
   4.261989e+02   3.687120e+02
  -8.302097e+01   5.340388e+02
  -6.244302e+02   1.173660e+02
  -6.186250e+02  -4.116911e+02
  -1.177863e+02  -6.303464e+02
   4.165822e+02  -3.249537e+02
   6.771199e+02   6.995412e+01
   4.389551e+02   3.989526e+02
  -1.199278e+02   3.473783e+02
  -4.334060e+02   4.282446e+01
  -1.943377e+02  -1.823117e+02
   9.299307e+01  -1.086477e+02
   1.632298e+02   1.621735e+02
  -1.319442e+02   2.289830e+02
  -3.492300e+02  -7.596102e+01
  -1.733139e+02  -3.102060e+02
   1.883510e+02  -2.613778e+02
   3.607614e+02  -6.153706e+01
   1.681679e+02   9.234944e+01
  -5.017453e+01   2.594408e+02
  -2.243813e+02   3.267240e+02
  -3.814385e+02   2.061133e+02
  -2.786038e+02  -1.423889e+02
  -4.910864e+01  -4.184230e+02
   1.393495e+02  -3.366279e+02
   9.176652e+01  -9.239442e+01
  -5.755048e+00   3.160463e+00
   2.507872e+01  -9.356063e+01
   2.290460e+02  -1.733791e+02
   2.654307e+02   6.160705e+01
   1.386667e+02   2.585691e+02
  -7.938797e+01   2.347190e+02
  -2.279645e+02   1.080129e+01
  -2.560135e+02  -2.663419e+02
   1.294029e+00  -2.959438e+02
   2.762287e+02  -1.460632e+02
   3.773538e+02   1.812818e+02
   1.654303e+02   3.883574e+02
  -9.469935e+01   3.380807e+02
  -2.681781e+02   1.034488e+02
  -1.343003e+02   9.438298e+00
  -8.009092e+01   7.629162e+01
  -2.377367e+02   7.702420e+01
  -4.323283e+02  -4.613467e+00
  -3.644275e+02  -2.607196e+02
  -5.883856e+00  -4.533698e+02
   3.662921e+02  -4.604701e+02
   5.321269e+02  -1.945886e+02
   3.037619e+02   1.536848e+02
   4.845558e+01   3.172579e+02
  -1.169372e+02   2.582288e+02
  -8.419999e+01  -1.769681e+01
   1.523077e+02  -8.209885e+01
   1.701767e+02   1.031344e+01
   4.639118e+01   2.027669e+02
  -1.656228e+02   1.145434e+02
  -1.699724e+02  -7.916672e+01
   1.344271e+01  -2.002186e+02
   2.252017e+02  -5.222200e+01
   1.717660e+02   2.469393e+02
  -7.564642e+00   3.400897e+02
  -2.636822e+02   2.101454e+02
  -3.175206e+02  -7.007108e+01
  -3.164283e+02  -2.540705e+02
  -4.545225e+01  -2.799237e+02
   1.235696e+02  -1.574086e+02
   1.852974e+02  -3.849206e+01
   3.930638e+01   3.482180e+01
  -8.122483e+01  -4.944651e+00
  -2.228061e+01  -1.207921e+02
   1.196399e+02  -1.075349e+02
   1.865244e+02  -1.602915e+00
   4.616340e+01   1.071128e+02
  -4.278196e+01   7.412011e+00
  -4.643682e+01  -7.165989e+01
   1.416416e+02  -8.115444e+01
   2.948857e+02   4.333266e+01
   2.285133e+02   1.510215e+02
   7.972605e+01   2.762931e+02
  -1.427155e+02   2.216140e+02
  -2.944526e+02   9.188983e+01
  -1.782480e+02  -1.004991e+01
   3.026115e+01  -1.074279e+02
   1.064808e+02   1.443446e+01
   4.936288e+00   1.065413e+02
  -1.661241e+02   5.433985e+01
  -2.329736e+02  -8.202313e+01
  -8.493441e+01  -1.931650e+02
   7.141694e+01  -1.641978e+02
   1.189438e+02  -1.317471e+01
   4.659122e+01   2.555019e+01
  -7.911259e+00  -6.941342e+00
  -8.346395e+00  -1.074573e+02
   6.799335e+01  -1.331346e+02
   2.022694e+02  -3.425190e+01
   2.072969e+02   1.469542e+02
   2.866036e+01   1.879040e+02
  -1.031671e+02   1.857417e+02
  -2.229666e+02   2.355246e+01
  -8.821743e+01  -8.466799e+01
   4.926321e+01  -9.756211e+01
   1.222902e+02  -9.308289e+00
   3.088869e+01   3.677244e+01
  -3.567310e+01  -1.884454e+00
  -3.930098e+00  -4.116725e+01
   9.768190e+01   6.839760e+01
   7.259344e+01   1.058569e+02
   1.655785e+01   1.651990e+02
  -1.115537e+02   1.717489e+02
  -2.780903e+02   3.572384e+01
  -2.305477e+02  -1.535735e+02
  -1.442662e+01  -2.689973e+02
   1.569499e+02  -1.704143e+02
   2.086972e+02  -1.183962e+00
   8.976332e+01   5.852820e+01
   3.821133e+01   4.546125e+01
   6.232109e+01   1.364296e+01
   9.085469e+01  -2.238346e+01
   5.563133e+01   1.843110e+01
  -4.416396e+01   8.611992e+01
  -1.466816e+02   6.550899e+01
  -1.211170e+02  -5.978285e+01
   4.289894e+01  -1.547816e+02
   1.255213e+02  -8.037267e+01
   1.788110e+02   1.879792e+01
   1.233274e+02   1.849985e+02
  -1.198503e+02   2.652637e+02
  -2.435783e+02   7.925360e+01
  -2.749576e+02  -7.977485e+01
  -9.636265e+01  -1.691756e+02
   9.289404e+01  -1.837198e+02
   9.174309e+01  -7.762062e+01
   9.555451e+01  -9.679037e+01
   7.574098e+01  -9.346455e+01
   5.111674e+01  -4.738631e+01
   1.316147e+02   1.169295e+01
   1.456749e+02   1.777440e+02
   6.744052e+01   2.388749e+02
  -1.038890e+02   1.495798e+02
  -1.969490e+02   3.013834e+01
  -1.521815e+02  -1.164260e+02
  -1.244443e+01  -1.483486e+02
   7.542008e+01  -8.968880e+01
   4.648507e+01   8.916879e+00
   3.527450e+00   4.902670e+01
  -1.906345e+01   1.872611e+01
   5.649745e+01   1.598417e+01
   5.609609e+01   4.066677e+01
   3.964549e+01   5.659882e+01
  -7.137919e+01   1.925349e+01
  -1.632523e+02   7.688092e+00
  -1.546597e+02  -5.105090e+01
  -6.166306e+00  -8.427899e+01
   1.215708e+02  -7.340125e+01
   1.475659e+02  -2.754020e+01
   3.824340e+01   6.927163e+01
  -6.298629e+01   4.264310e+01
  -8.095944e+01  -3.161755e+00
   2.874936e+00  -5.647877e+01
   5.449286e+01  -6.207851e+01
   6.200248e+01   1.053298e+01
   2.731898e+01   3.460491e+01
   1.631917e+01   7.033737e+01
   4.232398e+01   1.907388e+01
   6.869986e+01   2.660914e+01
   2.644972e+01   6.832591e+01
  -1.047322e+01   1.357293e+02
  -9.704747e+01   1.274799e+02
  -1.834075e+02   3.816360e+01
  -1.335676e+02  -1.010286e+02
   2.087384e+01  -1.278513e+02
   1.033601e+02  -7.711294e+01
   2.453321e+01   1.632176e+01
  -3.547605e+01   2.244432e+01
  -1.286019e+02  -2.728665e+01
  -9.147080e+01  -1.066392e+02
   6.499433e+01  -1.005956e+02
   2.045081e+02  -4.589614e+01
   1.841031e+02   3.716400e+01
   5.767404e+01   1.050726e+02
  -6.058567e+01   6.150772e+01
  -5.443958e+01   2.866208e+00
   3.599936e+01  -5.124462e+01
   9.190027e+01  -4.206581e+00
   3.773159e+01   1.313755e+02
  -1.008330e+02   1.888653e+02
  -1.556635e+02   6.149910e+01
  -1.241858e+02  -1.013075e+02
   1.645057e+00  -2.145025e+02
   5.746761e+01  -1.336204e+02
   1.185395e+02   2.727346e-01
   8.546570e+01   1.032066e+02
   1.990302e-01   1.133468e+02
  -2.118907e+01   2.509773e+01
  -3.798303e+01  -2.964901e+01
  -5.066865e+01   1.500456e+00
  -2.699681e+01   1.949631e+01
  -3.848280e+01  -1.140983e+01
  -5.401814e+01  -8.838589e+01
  -6.021249e+01  -1.088687e+02
   6.736938e+01  -4.418145e+01
   1.345617e+02   8.098240e+01
   1.396517e+02   9.011199e+01
   5.808600e+00   1.135801e+01
  -1.021385e+02  -6.688100e+00
  -9.774228e+01   2.427543e+01
  -1.488159e+00  -8.914920e+00
   2.167690e+01  -4.983152e+01
  -7.674940e+00  -5.615172e+01
   1.311497e+01  -1.898932e+01
   1.141392e+01   9.099857e+00
   6.015501e+01   1.285136e-01
   6.518302e+01   3.156547e+01
   1.218453e+01   1.026152e+02
  -1.072317e+02   1.453007e+02
  -1.816816e+02   8.387870e+01
  -1.660030e+02  -6.492803e+01
  -1.816149e+01  -1.668635e+02
   9.116539e+01  -1.871671e+02
   1.112393e+02  -7.120317e+01
   8.392985e+01  -2.554354e+01
   1.052921e+01   5.047566e+01
   2.572511e+00  -1.404092e+01
  -3.550761e+00   2.383078e+00
   6.510345e+01   8.262757e+01
   2.690192e+01   1.063573e+02
  -5.132528e+01   3.865744e+01
  -6.946083e+01  -2.042790e+00
  -5.670567e+01  -7.934077e+01
   9.855807e+00  -1.442671e+02
   8.594392e+01  -2.140928e+01
   6.923107e+01   5.090532e+01
   9.354515e+01   1.067857e+02
  -3.305061e+01   7.320815e+01
  -1.342607e+02  -4.816295e+00
  -1.500973e+01  -4.095470e+01
   3.174167e+01  -7.238328e+01
   4.931108e+01  -1.473328e+01
  -4.955731e+01   4.727596e+01
  -7.735297e+01   2.457934e+01
  -2.812978e+01   1.333459e+01
   6.021744e+01  -4.971795e+01
   1.120947e+02  -6.948827e+01
   5.368382e+01  -9.961703e+00
  -3.050715e+01   9.335552e+01
  -6.098789e+01   8.663982e+01
  -7.698351e+01  -2.544554e+01
  -6.127400e+00  -1.498506e+01
   2.984418e+01  -4.300112e+01
   5.869707e+01  -6.705983e+00
   4.800302e+01   3.633298e+01
  -4.673348e+00   2.496741e+01
  -2.408314e+01   7.779562e+00
  -4.277036e+01  -2.602260e+01
  -5.566521e+01  -4.449916e+00
   3.160621e+01   4.514273e+01
   7.464455e+00  -1.378691e+01
  -1.730475e+01  -8.428132e+01
   5.235852e+01  -5.585257e+01
   3.085039e+01   2.253706e+00
   3.644321e+01   1.650746e+01
   1.312169e+01   3.885845e+01
  -4.040712e+01   4.740762e+01
  -5.309472e+01  -5.191898e+01
   1.165230e+01  -5.510138e+01
   7.933668e+01  -2.867717e+01
   8.047104e+01   1.511732e+00
   7.246970e+01   4.694804e+01
  -3.399739e+00   1.605221e+01
  -9.275577e+01   1.154703e+00
  -2.064431e+01  -1.011257e+01
   5.206293e+01  -7.467341e+00
   3.332742e+01   3.350811e+01
  -1.685109e+01  -1.322955e+01
  -1.013574e+02   3.893186e+01
