
 $NMID
 id='ANONYMOUS ', fmtdat='(2E16.6)'
 volume=1.0
 tramp=1.0
 $END
  -3.835286e+03   7.407699e+01
  -2.066504e+03  -2.284941e+03
   5.726578e+02  -2.435993e+03
   1.600565e+03  -8.270770e+02
   9.240044e+02   2.435887e+02
  -3.994164e+02   3.102583e+02
  -6.293526e+02  -3.073814e+02
   1.085402e+01  -8.597110e+02
   6.569267e+02  -6.745254e+02
   7.594184e+02   6.124830e+01
   3.649624e+02   6.881741e+02
  -1.304301e+02   7.355793e+02
  -4.375669e+02   1.052955e+02
  -3.189444e+02  -5.998883e+02
   2.638283e+02  -5.851993e+02
   5.027567e+02   2.688424e+01
   2.655947e+02   5.802697e+02
  -2.004098e+02   5.716360e+02
  -5.574603e+02   1.506024e+02
  -4.640021e+02  -2.572825e+02
  -5.504300e+01  -3.670473e+02
   1.645686e+02  -2.681099e+02
   1.314755e+02  -3.901558e+01
  -1.573970e+02  -9.591458e-01
  -3.146703e+02  -2.347983e+02
  -2.819087e+01  -4.063927e+02
   5.308666e+02  -2.570828e+02
   7.434784e+02   1.456312e+02
   3.640534e+02   5.223380e+02
  -3.800732e+02   3.331924e+02
  -6.252050e+02  -5.665342e+01
  -2.189465e+02  -4.594834e+02
   2.878907e+02  -4.312849e+02
   5.229011e+02  -1.602946e+02
   3.751160e+02   2.043392e+02
   6.958903e+01   4.176182e+02
  -1.406207e+02   2.132577e+02
  -1.596226e+01  -1.457672e+02
   2.009586e+02  -2.839794e+02
   3.473820e+02   7.886029e+01
   7.525481e+01   6.286479e+02
  -3.402407e+02   6.158949e+02
  -4.944759e+02  -1.189003e+01
  -2.443669e+02  -4.595205e+02
   2.298776e+02  -2.558247e+02
   2.562212e+02   3.542734e+02
  -1.363308e+02   4.597978e+02
  -5.298828e+02   1.072386e+02
  -5.002956e+02  -4.408261e+02
  -1.689187e+02  -5.776625e+02
   4.210000e+02  -2.805413e+02
   5.980356e+02   8.003555e+01
   3.235548e+02   3.125470e+02
  -1.420454e+02   2.751101e+02
  -3.744342e+02   9.150822e+01
  -1.864196e+02  -9.930738e+01
   7.935926e+01  -2.013430e+01
   1.169133e+02   9.802074e+01
  -1.556546e+02   1.256405e+02
  -3.000604e+02  -5.336524e+01
  -1.132934e+02  -2.950038e+02
   1.829145e+02  -2.533906e+02
   3.377518e+02  -1.065337e+02
   2.325128e+02   1.250175e+02
  -3.034051e+01   2.368621e+02
  -2.517557e+02   3.526001e+02
  -3.836094e+02   2.073620e+02
  -2.633604e+02  -1.553847e+02
  -4.405500e+01  -4.445510e+02
   1.034426e+02  -3.553836e+02
   8.090721e+01  -1.736129e+02
   2.256197e+01  -2.608722e+01
   8.270214e+01  -8.865487e+01
   2.310680e+02  -5.233325e+01
   3.083278e+02   9.676897e+01
   1.283144e+02   2.941483e+02
  -9.957690e+01   2.299760e+02
  -2.510189e+02  -4.918776e+01
  -2.003688e+02  -2.675964e+02
   3.298089e+01  -2.921357e+02
   2.513802e+02  -8.911806e+01
   3.206379e+02   1.748539e+02
   1.876175e+02   3.192322e+02
  -9.980958e+01   2.921440e+02
  -1.824435e+02   1.407107e+02
  -1.675339e+02   4.710983e+01
  -1.181888e+02   2.869953e+01
  -2.600794e+02   2.861439e+01
  -4.425404e+02  -7.030484e+01
  -3.166131e+02  -2.591600e+02
   2.452336e+01  -4.932283e+02
   3.812681e+02  -4.168793e+02
   4.658246e+02  -2.049203e+02
   3.274894e+02   9.285152e+01
  -2.656063e+00   2.811711e+02
  -1.227356e+02   2.265301e+02
  -4.171246e+01   3.817755e+01
   1.721192e+02  -1.044939e+02
   1.366939e+02   3.687442e+01
   8.589467e+01   1.507648e+02
  -1.691086e+02   9.728490e+01
  -1.682846e+02  -2.002839e+01
   2.225406e+01  -2.053899e+02
   1.633334e+02   2.279275e+01
   1.698506e+02   2.112534e+02
  -8.698269e-01   3.513169e+02
  -2.214524e+02   2.050388e+02
  -3.476221e+02  -4.597149e+01
  -3.068799e+02  -2.110350e+02
  -7.017625e+01  -2.570583e+02
   9.246134e+01  -1.361881e+02
   1.629457e+02   9.864608e+00
   3.100359e+01   5.855545e+01
  -6.356930e+01  -7.026749e+01
  -2.122640e+01  -1.677320e+02
   1.628195e+02  -5.420452e+01
   1.832424e+02   3.574173e+01
   3.919719e+01   6.679646e+01
  -1.028301e+02   6.079227e+01
  -5.171361e+01  -1.095454e+02
   1.228770e+02  -6.982458e+01
   2.596877e+02   5.011693e+00
   2.491054e+02   1.245369e+02
   2.108336e+01   2.518244e+02
  -1.864408e+02   2.495411e+02
  -2.869649e+02   1.189538e+02
  -1.376392e+02  -2.948420e+01
   2.332886e+01  -9.668407e+01
   1.076743e+02   1.706585e+01
  -3.525429e+01   1.115546e+02
  -1.961505e+02   7.563932e+01
  -2.115485e+02  -1.046235e+02
  -2.294389e+01  -2.288183e+02
   1.261614e+02  -1.749344e+02
   1.636368e+02  -2.651319e+01
   6.318774e+01   3.974624e+01
  -6.977492e+01   2.039553e+00
   1.403717e+01  -1.033626e+02
   8.316890e+01  -1.002298e+02
   1.979954e+02   1.429775e+01
   1.683449e+02   1.435391e+02
  -2.506146e+00   2.064945e+02
  -1.476748e+02   1.808505e+02
  -2.311383e+02  -9.939204e+00
  -5.045272e+01  -1.484937e+02
   1.075358e+02  -9.435397e+01
   8.327206e+01  -4.499166e+01
  -1.651571e+01   1.623229e+01
  -2.670025e+01   1.237635e+01
   4.200220e+00  -1.191256e+01
   8.093854e+01  -1.064007e+01
   9.447748e+01   8.116036e+01
   2.831302e+01   1.789726e+02
  -1.348601e+02   1.553799e+02
  -2.162516e+02   2.919082e+01
  -2.039453e+02  -1.402101e+02
  -2.009281e+01  -2.276482e+02
   1.129965e+02  -1.957092e+02
   1.412823e+02  -2.079653e+01
   6.074870e+01   7.131036e+01
   3.208617e+01   2.821856e+01
   4.715322e+01  -3.715158e+01
   5.715636e+01  -3.552439e+01
   5.937319e+01   4.324996e+01
  -2.071999e+01   1.232710e+02
  -1.267829e+02   7.811751e+01
  -4.266127e+01  -2.185402e+01
   2.151755e+01  -1.428201e+02
   1.373474e+02  -8.041645e+01
   1.954833e+02   5.481417e+01
   9.925008e+01   2.194470e+02
  -1.471915e+02   2.501272e+02
  -2.724802e+02   1.094027e+02
  -2.515307e+02  -8.018231e+01
  -1.003712e+02  -1.729894e+02
   2.587618e+01  -1.390028e+02
   8.360262e+01  -7.713416e+01
   1.067731e+02  -3.253490e+01
   6.291431e+01  -5.277313e+01
   1.140577e+02  -8.622839e+01
   1.391162e+02   3.477162e+01
   1.284049e+02   1.511349e+02
   9.634206e+00   2.007002e+02
  -1.145953e+02   1.485594e+02
  -1.477849e+02   2.601453e+01
  -1.430310e+02  -1.451037e+02
  -4.094903e+01  -1.402006e+02
   5.776281e+01  -1.285673e+02
   4.230941e+01   1.867430e+01
   5.251814e-02   4.237567e+01
   1.744766e+01   3.945983e+01
   4.814902e+01   3.814159e+01
   7.463611e+01  -7.319852e+00
   4.819833e+01   2.853004e+01
  -5.540941e+01   5.748427e+01
  -1.571502e+02  -1.746286e+00
  -1.307972e+02  -5.207448e+01
  -6.264953e+01  -7.685566e+01
   9.567727e+01  -5.043538e+01
   1.558631e+02  -1.576372e+01
   2.486234e+01   5.133376e+01
  -3.605942e+01   2.627589e+01
  -7.355349e+01  -3.655641e+01
   4.575172e+00  -8.809063e+01
   3.886515e+01  -7.357849e+01
   3.718342e+01  -3.654907e+00
  -3.078205e+00   5.245222e+01
   8.404007e+01   3.056691e+01
   4.332462e+01   9.169439e+00
   9.108909e+01  -1.197201e+01
   5.351156e+01   6.330195e+01
  -3.263150e+01   1.508827e+02
  -9.202378e+01   1.645513e+02
  -1.554015e+02   2.811218e+01
  -1.301408e+02  -7.584773e+01
   2.423895e+00  -1.582637e+02
   5.955939e+01  -2.208981e+01
   7.205694e+01   1.027161e+01
  -5.027910e+01   1.566449e+01
  -1.158072e+02  -1.897183e+00
  -9.838224e+01  -1.317682e+02
   8.250387e+01  -1.134412e+02
   2.034613e+02  -1.970639e+01
   1.610332e+02   3.010356e+01
   5.711499e+01   1.089096e+02
  -1.809394e+01   8.480905e+01
  -4.896445e+01   6.280632e+00
   6.485902e+01  -6.697202e+00
   1.082095e+02  -2.324915e+00
   3.014449e+01   8.981165e+01
  -1.201887e+02   1.597680e+02
  -1.522362e+02   4.087763e+01
  -1.259328e+02  -1.067752e+02
   1.256571e+00  -1.964930e+02
   8.321779e+01  -1.589931e+02
   1.076306e+02   3.391759e+01
   5.810184e+01   9.603099e+01
   1.435071e+01   1.155924e+02
  -1.991884e+01   1.360021e+01
  -5.666104e+01  -5.058402e+01
  -2.269787e+01  -1.042839e+01
  -4.500248e+01   5.996945e+01
  -3.711640e+01  -3.842574e+01
  -7.464644e+01  -1.184622e+02
  -2.099118e+01  -1.282993e+02
   7.859345e+01  -4.333308e+01
   1.533297e+02   1.222843e+01
   1.389543e+02   1.016421e+02
   2.457072e+00   6.803073e+01
  -1.057185e+02   2.723574e+01
  -6.902770e+01  -1.507359e+01
  -4.428376e+00   1.756082e+01
   6.005042e+01  -1.703062e+01
  -2.643985e+01  -3.155219e+01
  -3.206352e+01   2.090202e+01
  -1.033598e+01  -3.804888e+01
   1.015001e+02   4.434029e+01
   6.594550e+01   1.004319e+01
   1.642045e+00   7.170048e+01
  -1.403599e+02   1.234164e+02
  -1.816964e+02   6.720488e+01
  -1.517744e+02  -7.138306e+01
  -1.081632e+01  -1.647445e+02
   1.134043e+02  -1.451924e+02
   1.422677e+02  -7.516065e+01
   9.800892e+01   5.630597e+01
   1.994088e+01   4.051587e+01
   1.915814e+01  -5.243890e+00
  -1.494046e+01   4.908933e+00
   1.100041e+01   4.076432e+01
   9.805835e+00   9.965489e+01
  -5.093138e+01   1.112365e+02
  -7.723999e+01  -4.519771e+01
  -7.233954e+01  -8.722634e+01
  -1.557563e+01  -1.273699e+02
   9.397516e+01  -3.912509e+01
   1.176056e+02   7.378572e+01
   3.724898e+01   1.245400e+02
  -6.052144e+01   6.712688e+01
  -1.018561e+02  -2.056404e+01
  -2.617971e+01  -8.360536e+01
   4.156092e+01  -7.923481e+01
   2.589463e+01  -3.717753e+01
  -4.220273e+01  -3.318747e+01
  -8.424526e+01   2.888643e+01
  -3.241987e+01  -3.315238e+01
   1.126468e+02  -5.001720e+01
   6.586654e+01  -5.266511e+01
   8.503550e+01   5.489079e+00
  -3.105583e+01   1.024941e+02
  -3.373765e+01   7.913022e+01
  -4.773916e+01  -5.660057e+00
  -7.240509e+00  -3.301588e+01
   3.173842e+01  -3.648077e+01
   4.561896e+01   4.401383e+01
   1.307920e+01   5.088493e+01
  -1.980993e+01   7.350980e+01
  -2.629365e+01  -1.076808e+01
  -3.215892e+01   8.667836e+00
  -1.721348e+01   3.049584e+00
   1.656913e+01   1.159749e+01
   2.479082e+01  -2.856580e+01
  -4.623789e+00  -1.611871e+01
   2.208923e+01  -6.178620e+01
   8.418646e+00  -1.719286e+01
   2.448848e+01   6.021393e+01
  -3.202335e+01   3.532979e+01
  -2.305742e+01   1.462146e+01
  -8.487014e+01  -2.718936e+01
  -9.177005e+00  -4.768035e+01
   8.107747e+01  -1.728600e+01
   6.578442e+01  -4.679009e+00
   5.651964e+01   3.580033e+01
  -4.830692e+01   3.807340e+01
  -6.571840e+01   4.839464e-01
  -2.141712e+01   4.512272e+01
  -1.483698e+00  -7.416257e+00
   4.925544e+00   4.129387e+01
  -3.949786e+01   3.204303e+01
  -7.307354e+01   1.696908e+01
