
 $NMID
 id='ANONYMOUS ', fmtdat='(2E16.6)'
 volume=1.0
 tramp=1.0
 $END
   2.677122e+03  -1.393160e+02
   1.865099e+03   1.239192e+03
   2.181967e+02   1.798620e+03
  -1.167549e+03   1.156731e+03
  -8.439570e+02   2.705990e+02
  -8.852017e+01  -3.340849e+02
   2.946413e+02  -2.982514e+01
   1.678013e+02   4.843626e+02
  -3.128296e+02   4.939422e+02
  -5.303342e+02   1.552000e+02
  -4.304323e+02  -3.851249e+02
  -3.414601e+01  -5.752119e+02
   2.492622e+02  -2.313365e+02
   2.377131e+02   2.924430e+02
  -3.830397e+01   4.473930e+02
  -2.800658e+02   7.530093e+01
  -2.438478e+02  -3.979886e+02
   4.736235e+01  -4.931600e+02
   3.513572e+02  -2.188365e+02
   3.685997e+02   8.198854e+01
   1.493893e+02   2.846015e+02
  -7.282046e+01   2.313232e+02
  -4.946868e+01   1.127892e+02
   9.723377e+01   1.328957e+02
   1.897750e+02   2.165975e+02
   2.396231e+01   2.016932e+02
  -3.297973e+02   1.274370e+02
  -4.459192e+02  -7.217988e+01
  -2.324392e+02  -2.255167e+02
   2.511926e+02  -1.415973e+02
   4.221873e+02   5.292861e+01
   1.698555e+02   1.989661e+02
  -1.346788e+02   2.605845e+02
  -3.307511e+02   1.869731e+02
  -2.536955e+02  -6.042702e+01
  -1.407357e+02  -2.453237e+02
  -1.462496e+01  -2.172522e+02
   6.408996e-01  -2.076508e+01
   1.758658e+00   1.318063e+02
  -2.196802e+02  -2.581925e+01
  -5.076380e+01  -3.218534e+02
   1.466438e+02  -3.559849e+02
   2.794011e+02  -5.078811e+01
   2.088555e+02   1.879402e+02
  -6.063284e+01   1.163308e+02
  -1.034913e+02  -1.720237e+02
   6.370863e+01  -3.182614e+02
   3.423944e+02  -1.687823e+01
   3.667314e+02   2.657911e+02
   1.528948e+02   3.736167e+02
  -2.636970e+02   1.805355e+02
  -4.563180e+02  -5.601878e+01
  -3.405688e+02  -2.113275e+02
   2.964268e+01  -2.088515e+02
   2.640088e+02  -1.026450e+02
   1.954961e+02  -3.081908e+00
   2.018211e+01   2.746056e+00
  -2.633627e+01  -5.939950e+01
   9.974448e+01  -4.625702e+01
   1.853330e+02   5.472088e+01
   1.141590e+02   1.822998e+02
  -1.207557e+02   1.927423e+02
  -2.651840e+02   9.424455e+01
  -1.881582e+02  -9.988593e+01
   3.301972e+01  -2.173522e+02
   2.328943e+02  -2.866043e+02
   2.720133e+02  -1.312624e+02
   2.386693e+02   7.468687e+01
   7.129055e+01   2.907352e+02
  -5.766789e+01   2.799290e+02
  -4.020323e+01   1.861369e+02
  -8.275550e+01   8.304837e+01
  -1.365191e+02   9.828611e+01
  -1.846716e+02   3.507988e+01
  -1.464904e+02  -1.199408e+02
  -8.306396e+01  -1.740767e+02
   5.357534e+01  -1.467805e+02
   1.343973e+02   5.221688e+01
   9.079210e+01   1.914696e+02
  -1.840391e+01   2.340994e+02
  -1.980548e+02   3.459338e+01
  -2.217239e+02  -1.302557e+02
  -1.295927e+02  -1.990212e+02
   6.022081e+00  -1.935575e+02
   1.353980e+02  -1.293710e+02
   1.032612e+02  -7.296597e+01
   1.774446e+02  -3.411103e+01
   1.923660e+02   1.363678e+00
   2.989446e+02   1.011477e+02
   2.073477e+02   2.254841e+02
  -3.393457e+01   3.216218e+02
  -3.356366e+02   2.966712e+02
  -4.059229e+02   1.608220e+02
  -2.455110e+02  -5.705201e+01
   2.610904e+01  -2.012964e+02
   1.024934e+02  -1.859612e+02
   3.705826e+01  -4.761684e+01
  -6.913282e+01   2.578997e+01
  -8.156386e+01  -1.663883e+01
   2.679624e+01  -1.055680e+02
   8.308002e+01  -7.758300e+01
   1.039810e+02   4.495791e+01
  -7.519233e+00   1.098209e+02
  -1.171003e+02   3.626654e+01
  -1.144628e+02  -1.926182e+02
  -6.196360e+00  -2.954755e+02
   1.656492e+02  -1.829927e+02
   2.860765e+02   3.010254e+01
   2.236690e+02   1.876418e+02
   5.432084e+01   1.828263e+02
  -8.210557e+01   1.189090e+02
  -1.024437e+02  -5.947381e-01
  -3.521317e+01   9.653773e+00
   1.180957e+01   5.971560e+01
  -6.566284e+00   9.501073e+01
  -7.377563e+01   5.285160e+01
  -1.427716e+02  -1.580414e+01
  -3.053969e+01  -1.275103e+01
   6.953330e+01   1.094707e+01
   2.770621e+01   6.033022e+01
  -1.035410e+02   4.475969e+01
  -2.003097e+02  -4.059565e+01
  -2.090552e+02  -1.388468e+02
  -3.206120e+00  -2.109786e+02
   1.615962e+02  -2.129936e+02
   2.058497e+02  -7.701267e+01
   1.119316e+02   2.619017e+01
  -2.435219e+01   6.142644e+01
  -1.016877e+02  -3.582845e+00
   9.694058e+00  -5.321532e+01
   1.348766e+02  -5.885683e+01
   1.641137e+02   9.876684e+01
   4.630736e+01   1.222313e+02
  -7.105998e+01   9.213923e+01
  -8.267620e+01   4.409526e+01
  -5.261792e+01  -3.471217e+00
  -9.689693e+00   3.716134e+01
   6.200585e+00   7.452879e+01
  -6.818487e+01   8.572621e+01
  -1.653363e+02   4.046980e+00
  -1.222432e+02  -1.170195e+02
  -1.304710e+01  -1.989063e+02
   1.206433e+02  -9.827903e+01
   1.590027e+02   9.770071e+00
   6.172073e+01   8.223073e+01
  -4.891677e+01   4.764483e+01
  -5.005965e+01   2.582130e+01
   2.322622e+01  -1.600272e+01
   2.530808e+01   2.484480e+01
  -6.754723e+01   7.517673e+01
  -1.012706e+02  -3.213327e+00
  -9.114971e+01  -8.619774e+01
   6.135877e+00  -1.377956e+02
   1.282749e+02  -1.436620e+02
   1.881694e+02  -2.939649e-01
   1.718001e+02   1.268127e+02
   1.200019e+01   1.588287e+02
  -7.197487e+01   1.136230e+02
  -9.382243e+01   6.027839e+01
  -3.156445e+01  -1.886754e+01
  -2.780084e+01  -1.497500e+01
  -4.261278e+01   2.059416e+01
  -1.311379e+02  -3.623134e+01
  -3.437310e+01  -4.214298e+01
   2.827081e+01  -6.789786e+01
   9.982434e+01  -2.270260e+01
   1.048836e+02   8.223949e+01
  -1.339251e+01   7.198937e+01
  -1.666378e+02   6.980032e+01
  -1.466582e+02  -9.796514e+01
  -6.636417e+01  -1.937947e+02
   1.461218e+02  -2.246885e+02
   2.222780e+02  -7.609410e+01
   2.099462e+02   4.742854e+01
   6.052262e+01   1.650851e+02
  -6.207435e+01   8.921292e+01
  -7.879979e+01   8.929778e+01
  -1.059250e+02   7.376463e+01
  -7.375929e+01   5.673462e+01
  -9.153215e+01   3.226851e+01
  -1.315973e+02  -2.148922e+01
  -1.054384e+02  -1.125611e+02
  -2.981697e+01  -1.546079e+02
   5.595930e+01  -1.097506e+02
   1.327045e+02  -6.151175e+01
   1.254547e+02   9.968822e+01
  -4.883668e+00   1.201082e+02
  -5.394792e+01   3.030171e+01
   4.569765e+00  -3.805273e+01
  -8.619163e+00  -2.945462e+01
   3.960854e+01  -6.173156e+01
  -5.361951e+01  -1.820558e+01
  -6.769008e+01   2.529822e+01
  -8.121816e+01  -3.425219e+00
   4.692907e+01  -2.943416e+01
   1.694874e+02  -2.506837e+01
   1.156090e+02   8.754523e+00
  -3.328325e+01   5.271597e+01
  -1.310219e+02   5.607164e+01
  -1.335392e+02  -4.539273e+00
  -2.729316e+01  -1.596688e+01
   5.082507e+01  -3.608891e+01
   4.572155e+01   8.164856e+00
   3.861997e+01   5.923313e+01
  -8.005065e+01   3.746149e+01
  -7.237586e+01  -8.881695e+00
  -1.916255e+01  -9.250690e+01
  -1.769737e+01  -2.265068e+01
  -2.884102e+01   3.712115e+00
  -3.200861e+01   1.560367e+01
  -3.927705e+01  -7.249729e+01
   3.144656e+01  -1.375324e+02
   8.267096e+01  -1.342012e+02
   1.001130e+02  -5.934025e+00
   1.165777e+02   7.383191e+01
  -2.293702e+01   1.340330e+02
  -6.433978e+01   5.980879e+01
  -1.951683e+01   2.968763e+01
   8.092280e+01   2.015314e+01
   1.304370e+02   3.073824e+01
   2.796290e+01   1.115446e+02
  -6.724647e+01   8.194999e+01
  -1.278948e+02   5.694868e+01
  -1.160634e+02  -3.929551e+01
  -3.659246e+01  -5.861275e+01
   2.411993e+01  -3.209142e+01
   5.078646e+01  -1.967720e-01
  -3.527174e+01   1.054062e+01
  -8.457907e+01  -1.828977e+01
  -2.259900e+01  -1.241155e+02
   8.690862e+01  -1.371383e+02
   1.503693e+02  -5.917245e+01
   1.160568e+02   7.519360e+01
  -5.175191e+00   1.303899e+02
  -2.792286e+01   1.221993e+02
  -7.191103e+01   3.728056e+01
  -6.099477e+01  -8.222546e+01
  -2.336035e+01  -1.249029e+02
   8.835315e+00   1.921441e+01
   2.269863e+01   2.591601e+01
   1.362493e+00   2.848914e+01
  -1.924404e-01  -5.541786e+01
   4.605749e+01   5.235123e+01
   5.873816e+01   9.204380e+01
   3.430939e+01   7.542690e+01
  -3.116022e+01   2.009871e+01
  -1.165627e+02  -1.485916e+01
  -9.374115e+01  -3.140968e+01
  -4.410855e+01  -6.221405e+01
   6.744356e+01  -2.589491e+01
   6.101971e+01   1.262945e+01
  -4.509665e+00  -2.931683e+00
  -9.498206e+01   7.189455e+00
  -5.729669e+00   4.534581e+00
   3.635504e+01   9.322588e-02
  -2.069218e+01  -4.797886e+00
  -6.552962e+01   1.001666e+01
  -6.331940e+01   1.853104e+01
   2.379429e+01  -8.249831e+01
   5.208599e+01  -5.129604e+01
   1.509209e+02  -7.123866e+01
   1.225795e+02   8.326207e+01
   4.719388e+01   1.201242e+02
  -5.927363e+01   1.501708e+02
  -1.102589e+02   7.161573e+01
  -9.767398e+01   1.600495e+01
  -5.869783e+01  -5.385567e+01
  -4.594027e+01  -2.044933e+01
  -6.205201e+01  -2.654145e+01
  -2.153592e+01   2.112550e+00
  -1.244585e+00  -5.573914e+01
   6.729117e+00  -7.524389e+01
   6.573560e+01  -1.532484e+00
   6.514291e+01   6.930417e+01
  -3.799940e+00   1.491054e+02
  -3.780172e+00   5.665937e+01
  -9.625916e+01  -4.810408e+01
  -1.046231e+00  -1.022572e+02
   7.053812e+01  -3.900090e+01
   7.401389e+01   7.131964e+00
   4.648264e+01   6.190940e+01
  -2.143594e+01   6.482048e+01
  -3.201595e+01   3.880708e+01
   3.532505e+01   8.644737e+00
   6.407765e+01  -1.408523e+01
  -1.520613e+01   6.089760e+01
  -3.739270e+01   6.851686e+01
  -4.856956e+01   2.722974e+01
  -7.855399e+01  -2.644135e+01
   6.723362e+01  -4.036242e+01
   5.221809e+01  -8.739984e+01
   4.138749e+01   3.633083e+01
   2.174941e+01   5.697738e+01
  -5.890329e+01   6.524669e+01
  -2.879313e+01  -7.128007e+00
  -1.661554e+01  -6.731191e+01
   3.288731e+01  -2.163925e+01
   1.691635e+01  -9.800204e+00
   2.279627e+01  -5.685456e+00
   1.564701e+01  -8.203888e+00
  -2.954924e+01  -2.034065e+00
   2.028447e+00  -3.318613e+00
   1.414623e+01   3.075096e+01
  -2.218097e+01   9.063483e+01
  -3.128194e+01  -5.786161e+00
  -3.253358e+01  -1.038508e+01
  -3.324118e+01  -5.199056e+01
   1.790255e+01  -3.207609e+01
   4.356555e+01   1.944635e+01
   9.161091e+00   6.017009e+01
  -6.076892e+01   1.908497e+01
  -3.592651e+01  -3.297934e+01
  -4.395083e+01  -1.786331e+01
   9.127988e+00  -4.356786e+00
   5.763196e+01  -6.968328e+00
   3.275207e+01   1.194558e+01
  -1.130227e+01   1.450048e+01
  -1.852698e+00  -2.053892e+01
   1.349770e+01  -1.095541e+01
   1.020021e+02  -6.556353e+01
