
 $NMID
 id='ANONYMOUS ', fmtdat='(2E16.6)'
 volume=1.0
 tramp=1.0
 $END
   4.225683e+03   9.126739e-01
   2.611361e+03   2.351330e+03
  -4.154927e+02   2.794940e+03
  -1.892067e+03   1.069957e+03
  -1.029962e+03  -5.025168e+02
   4.887013e+02  -6.538161e+02
   8.637200e+02   2.687559e+02
   1.247100e+02   9.175176e+02
  -7.199103e+02   8.337864e+02
  -9.278491e+02   2.387096e+01
  -4.809431e+02  -8.572583e+02
   1.937388e+02  -8.539468e+02
   5.862580e+02  -1.661263e+02
   4.591788e+02   6.773057e+02
  -1.905679e+02   7.321842e+02
  -5.750421e+02   1.127229e+01
  -2.942145e+02  -6.839677e+02
   2.377753e+02  -6.091708e+02
   5.828071e+02  -1.818327e+02
   4.366812e+02   3.009655e+02
   2.247850e+01   4.468547e+02
  -2.191766e+02   2.471294e+02
  -1.822808e+02   4.628492e+01
   1.216593e+02  -3.273231e+01
   3.641302e+02   1.558744e+02
   1.496337e+02   4.109146e+02
  -4.306796e+02   3.105709e+02
  -8.038399e+02  -7.923158e+01
  -3.524404e+02  -5.258587e+02
   3.428235e+02  -4.187710e+02
   6.580071e+02   5.047714e+00
   3.038462e+02   3.939981e+02
  -2.777294e+02   5.255346e+02
  -5.706042e+02   1.842398e+02
  -4.196868e+02  -1.816101e+02
  -1.073491e+02  -3.932016e+02
   1.489013e+02  -2.803708e+02
   1.270976e+02   1.805752e+02
  -1.568962e+02   3.847017e+02
  -3.753422e+02  -9.284288e+01
  -1.887095e+02  -6.049518e+02
   2.450947e+02  -6.569750e+02
   4.803898e+02   2.415810e+01
   1.569339e+02   4.963955e+02
  -2.937706e+02   2.823194e+02
  -3.491277e+02  -3.212444e+02
   1.014264e+02  -5.089581e+02
   4.718035e+02  -1.068741e+02
   5.954466e+02   3.843680e+02
   1.884648e+02   5.580534e+02
  -3.193312e+02   3.353372e+02
  -6.148994e+02  -6.537534e+01
  -3.558619e+02  -3.504875e+02
   1.464222e+02  -3.239700e+02
   4.281366e+02  -5.201838e+01
   2.243440e+02   1.419101e+02
  -9.608186e+01   1.645377e+02
  -1.143834e+02  -1.372426e+02
   1.246238e+02  -1.801017e+02
   3.397640e+02   8.646218e+01
   1.202050e+02   2.801047e+02
  -1.501582e+02   2.480486e+02
  -3.095045e+02   1.564489e+02
  -2.407862e+02  -1.168602e+02
   9.352191e+00  -2.736234e+02
   2.223723e+02  -3.537092e+02
   3.315786e+02  -2.006381e+02
   2.744062e+02   1.154363e+02
   7.427590e+01   4.076128e+02
  -7.492771e+01   3.305804e+02
  -8.508881e+01   1.134837e+02
  -2.193822e+01   1.456687e+01
  -2.000557e+01   7.790292e+01
  -1.822447e+02   1.410599e+02
  -2.561122e+02  -6.114703e+01
  -1.646811e+02  -2.476812e+02
   4.600685e+01  -2.170212e+02
   2.346826e+02  -1.994724e+01
   1.806889e+02   2.597234e+02
  -1.150019e+01   2.568207e+02
  -2.814642e+02   8.538040e+01
  -3.630249e+02  -1.583927e+02
  -2.166827e+02  -3.390985e+02
   7.109232e+01  -2.894404e+02
   2.080132e+02  -1.403702e+02
   1.256824e+02  -2.034517e+01
   1.220011e+02  -4.469519e+01
   2.180236e+02  -5.774316e+01
   4.116378e+02   7.547814e+01
   2.984962e+02   2.933505e+02
   5.874889e+01   4.390640e+02
  -3.583539e+02   4.302753e+02
  -5.178649e+02   1.842374e+02
  -3.382967e+02  -1.302542e+02
  -3.428043e+01  -2.793455e+02
   9.871108e+01  -2.230279e+02
   9.086249e+01  -2.998992e+01
  -8.724630e+01   8.229802e+01
  -1.814772e+02  -2.176258e+01
  -4.057255e+01  -1.827737e+02
   1.143720e+02  -1.530773e+02
   1.786029e+02   7.475098e+01
  -6.649370e+01   2.183028e+02
  -1.979169e+02   5.105950e+01
  -1.258383e+02  -2.878757e+02
   3.574529e+01  -3.760424e+02
   2.514648e+02  -1.839252e+02
   3.300097e+02   6.738437e+01
   2.862542e+02   2.034038e+02
   9.057347e+01   2.715492e+02
  -1.343960e+02   1.704745e+02
  -1.676034e+02   3.052044e+01
  -1.965776e+01  -5.484567e+01
   7.699322e+01   3.565618e+01
   3.453648e+01   1.056396e+02
  -1.063764e+02   7.514647e+01
  -1.604268e+02  -3.756264e+01
  -7.561455e+01  -9.300087e+01
   8.222345e+01  -9.896597e+00
   4.040882e+01   7.328448e+01
  -1.116965e+02   1.352004e+02
  -2.801424e+02  -3.192505e+01
  -2.485399e+02  -1.463208e+02
  -7.720717e+01  -2.620979e+02
   1.860184e+02  -2.574023e+02
   2.763333e+02  -1.204237e+02
   1.579789e+02   4.583327e+01
  -3.362855e+01   8.098558e+01
  -7.773045e+01  -1.156444e+01
   6.107937e+01  -9.579661e+01
   1.714192e+02  -7.162326e+01
   2.045462e+02   7.756753e+01
   4.863083e+01   1.870837e+02
  -8.209499e+01   1.303978e+02
  -1.579526e+02   1.680136e+01
  -6.749160e+01  -2.637750e+01
   1.769326e+01  -9.038000e+00
   9.104089e+01   7.007763e+01
  -9.189047e+01   1.226097e+02
  -1.904578e+02   6.548481e+01
  -1.445963e+02  -1.302677e+02
  -4.789324e+01  -2.055491e+02
   1.127333e+02  -1.692784e+02
   1.799587e+02  -3.167812e+01
   3.896991e+01   9.154184e+01
  -5.593836e+01   1.064105e+02
  -5.892217e+01   3.483151e+01
   2.273055e+01   1.738974e+01
   1.461537e+01  -2.565910e+00
  -1.130121e+01  -1.320184e+01
  -4.335136e+01  -2.750960e+01
  -1.070333e+02  -7.794592e+01
  -1.158810e+01  -1.662488e+02
   1.628762e+02  -1.903379e+02
   2.376940e+02  -2.887740e+01
   2.268791e+02   1.115581e+02
   3.150851e+01   2.484477e+02
  -1.086398e+02   2.011080e+02
  -1.521355e+02   4.831445e+01
  -4.661733e+01  -7.938544e+01
  -2.399279e+01  -4.365581e+01
  -9.841180e+01  -5.634006e+00
  -7.606380e+01  -3.316860e+00
  -2.674619e+01  -6.232758e+01
   3.256653e+01  -7.983864e+01
   9.843609e+01  -4.642927e+01
   9.495308e+01   2.127360e+01
  -1.286059e+00   1.082589e+02
  -1.459731e+02   9.187243e+01
  -2.165763e+02  -4.793718e+01
  -1.171846e+02  -2.027985e+02
   1.200699e+02  -2.206110e+02
   2.470751e+02  -8.256944e+01
   2.462343e+02   3.421630e+01
   1.290914e+02   2.122865e+02
  -9.785099e+00   1.548563e+02
  -7.928716e+01   8.368089e+01
  -5.538173e+01   5.017832e+01
  -4.341712e+01   6.278499e+01
  -9.741579e+01   7.080497e+01
  -1.672617e+02  -2.007082e+01
  -1.006292e+02  -1.636859e+02
  -7.287647e+01  -2.348797e+02
   8.401582e+01  -2.245525e+02
   2.097997e+02  -2.905176e+01
   1.088524e+02   1.239660e+02
   3.874292e+01   1.280998e+02
  -7.074608e+00   8.749866e+01
  -4.879231e+01   1.143092e+01
  -4.589436e+01  -4.567120e+00
  -2.390406e+01  -6.943795e+00
  -2.408595e+01  -1.976517e+01
  -5.170288e+01  -1.996292e+01
  -1.530314e+01  -4.688973e+01
   8.459679e+01  -5.325169e+00
   1.463932e+02   4.067648e+01
   1.362571e+02   6.724882e+00
   1.083592e+01   9.515362e+01
  -1.292814e+02   9.002331e+01
  -1.273576e+02   4.084518e+01
  -5.625932e+01  -5.107402e+01
   4.153915e+01  -4.302598e+00
   6.758070e+01  -3.412290e-01
   3.871976e+01   7.827634e+01
  -7.769495e+01   5.856149e+01
  -9.878985e+01  -3.491352e+01
  -3.382784e+01  -7.608314e+01
  -4.133804e+01  -3.618755e+01
  -7.229838e+01   2.061762e+01
  -6.981398e+01   3.290766e+01
  -1.346203e+01  -5.958366e+01
  -3.449475e+00  -1.288279e+02
   1.292760e+02  -1.304657e+02
   1.809462e+02  -4.960143e+01
   9.297817e+01   1.094460e+02
  -2.091344e+01   8.930071e+01
  -9.449200e+01   2.629053e+01
  -5.339265e+01  -1.543167e+01
   1.666798e+01  -2.671827e+01
   1.144442e+02   1.135084e+01
   1.304604e+02   9.305624e+01
  -6.693991e+01   1.134474e+02
  -2.007335e+02   3.264603e+01
  -1.795466e+02  -4.596499e+01
  -3.492598e+01  -6.805261e+01
   6.605830e+01  -9.111416e+01
   6.981376e+01  -4.904581e+01
  -2.759541e+01   4.644797e+01
  -8.983515e+01  -3.849456e+01
  -2.624404e+01  -1.284991e+02
   9.284500e+01  -1.553756e+02
   1.799139e+02  -4.970470e+01
   9.481016e+01   1.115027e+02
   1.423829e+01   1.866599e+02
  -5.699885e+01   1.613486e+02
  -8.620690e+01   6.102656e+01
  -1.036950e+02  -6.750061e+01
  -2.611857e+01  -1.312885e+02
   4.990261e+01  -3.551470e+00
   4.511619e+01   4.325418e+01
   5.383222e+00   4.291242e+01
  -1.142050e+01  -1.433254e+01
   4.087757e+01  -4.252111e+01
   4.704279e+01   8.062396e+01
   4.417162e+01   7.429784e+01
  -5.046180e+01   4.259624e+01
  -1.265651e+02  -1.654028e+01
  -1.528018e+02  -5.455847e+01
  -1.888152e+01  -3.218167e+00
   3.958315e+01  -8.408494e+01
   9.029253e+01  -3.170935e+01
   2.313066e+01  -2.011897e-02
  -3.877093e+01  -1.070125e+00
  -3.643849e+01  -1.221410e+01
   3.898405e+00  -2.760553e+01
  -2.673022e+00   4.420636e+01
  -5.469284e+01   1.787562e+01
  -8.750860e+01  -8.042593e+00
  -3.414221e+01  -1.327562e+02
   1.331256e+02  -1.111031e+02
   1.929012e+02  -1.100675e+02
   1.369328e+02   8.050978e+01
   2.639637e+01   1.879296e+02
  -8.902594e+01   1.370104e+02
  -1.015440e+02   5.289848e+01
  -5.697918e+01  -2.435868e+01
  -3.157436e+01  -8.055306e+01
  -3.411456e+01   7.809993e+00
   9.355228e+00  -3.740001e+00
  -6.468398e+01  -1.486305e+01
  -7.965704e+00  -9.058627e+01
   4.343828e+01  -7.345342e+01
   9.423518e+01   7.565508e+00
   7.303401e+01   1.294012e+02
   3.485196e+01   6.718072e+01
  -5.269399e+01   1.169315e+01
  -1.198228e+02  -9.530193e+01
  -5.169847e+01  -1.182156e+02
   6.572896e+01  -2.735136e+01
   9.084530e+01   3.006141e+01
  -5.838368e+00   7.029305e+01
  -3.008356e+01   5.093470e+01
  -3.021146e+01   5.435260e+01
   2.256619e+01   1.068215e+01
   1.160867e+02   2.564932e+01
   1.084996e+01   4.803109e+01
  -1.142225e+02   5.235211e+01
  -9.929124e+01   3.244592e+01
  -2.124124e+01  -2.523056e+01
   3.027428e+01  -4.780455e+01
   5.295107e+01  -5.161688e+01
   6.876804e+01   5.363666e+00
   2.163047e+01   3.466967e+01
  -3.009931e+01   2.594895e+01
  -5.335179e+01  -3.152748e+01
  -6.257854e+00  -6.665712e+01
  -7.302287e+00  -4.105034e+01
   4.168302e+01   2.052838e+01
   3.850034e+01   2.911769e+01
  -3.773953e+01  -1.220220e+01
  -4.069975e+01  -3.118753e+01
  -1.785476e+01  -2.001299e+01
   5.076159e+00   5.909724e+01
  -3.360495e+01   3.916257e+01
  -4.745439e+01  -3.546173e+00
  -2.364547e+01  -5.922573e+01
   1.582206e+01  -3.359305e+01
   8.971572e+01  -3.212187e-01
   5.223972e+01   2.183748e+01
   1.451588e+01   8.383903e+01
  -6.569864e+01   3.922627e+01
  -1.165821e+02  -6.073666e+00
  -7.711585e+01  -4.017671e+01
  -8.229266e+00  -5.467612e+01
   3.692368e+01  -1.975083e+01
   2.925807e+01   2.581254e+01
  -3.163063e+01   4.670313e+00
  -3.204422e+01  -2.411570e+01
  -8.109231e+00  -1.411526e+00
   1.034383e+02  -4.924294e+00
