
 $NMID
 id='ANONYMOUS ', fmtdat='(2E16.6)'
 volume=1.0
 tramp=1.0
 $END
  -3.353484e+03   1.447382e+02
  -2.414971e+03  -1.593361e+03
  -1.621777e+02  -2.230420e+03
   1.462367e+03  -1.313022e+03
   1.036731e+03  -4.788299e+01
  -5.582265e+01   3.497560e+02
  -4.542039e+02  -1.360370e+02
  -5.086490e+01  -6.109483e+02
   5.261320e+02  -6.646592e+02
   7.438006e+02  -1.675399e+02
   5.191466e+02   5.878057e+02
  -3.038087e+01   7.384540e+02
  -3.993273e+02   2.859049e+02
  -3.177317e+02  -4.107088e+02
   8.232511e+01  -6.397297e+02
   4.179410e+02  -8.799111e+01
   2.923225e+02   4.710091e+02
  -1.120695e+02   6.085199e+02
  -4.295821e+02   2.070093e+02
  -4.353637e+02  -1.982378e+02
  -1.031135e+02  -3.631508e+02
   1.431323e+02  -2.288363e+02
   9.849930e+01  -7.184785e+01
  -9.784152e+01  -7.160870e+01
  -2.609481e+02  -1.634106e+02
  -1.094541e+02  -3.162501e+02
   4.415675e+02  -2.093173e+02
   6.701995e+02   8.157468e+01
   2.754644e+02   3.492982e+02
  -3.036502e+02   2.182238e+02
  -5.312776e+02  -9.786037e+01
  -2.578208e+02  -3.369238e+02
   2.368527e+02  -3.638427e+02
   4.240595e+02  -2.160652e+02
   3.133977e+02   1.319337e+02
   1.022470e+02   3.117119e+02
  -1.094071e+01   2.268347e+02
   2.400637e+01  -4.143978e+01
   8.906355e+01  -2.763954e+02
   2.407272e+02   3.268211e+01
   1.056783e+02   5.075954e+02
  -1.651847e+02   4.756100e+02
  -3.192634e+02  -3.122739e+01
  -1.690550e+02  -2.879574e+02
   1.429016e+02  -2.576839e+02
   2.518011e+02   2.482690e+02
  -6.386649e+01   4.629353e+02
  -5.153083e+02   1.010091e+02
  -4.558709e+02  -3.338962e+02
  -1.594616e+02  -4.982432e+02
   2.449095e+02  -2.938070e+02
   5.303792e+02   4.287029e+01
   3.794758e+02   2.793077e+02
  -4.756880e+01   3.016243e+02
  -2.977033e+02   1.854632e+02
  -2.364637e+02  -7.865361e+01
  -4.928676e+00  -7.404283e+01
   1.299852e+02  -3.679000e+00
  -3.441745e+01   9.534891e+01
  -2.860131e+02  -1.568784e+01
  -1.538574e+02  -2.076237e+02
   1.419736e+02  -2.401654e+02
   3.011403e+02  -1.084946e+02
   2.511286e+02   8.977957e+01
  -8.393019e+01   3.231603e+02
  -3.000631e+02   2.921909e+02
  -3.686147e+02   1.691142e+02
  -2.152128e+02  -1.174185e+02
  -3.561706e+01  -3.668017e+02
   3.685105e+01  -3.359878e+02
   9.423231e+01  -1.549579e+02
   2.927282e+01  -1.005500e+02
   8.761112e+01  -1.076137e+02
   2.241822e+02  -9.091694e+01
   2.525503e+02   8.040200e+01
   1.011472e+02   2.643068e+02
  -6.127638e+01   1.589671e+02
  -1.725507e+02  -4.471753e+01
  -1.355971e+02  -2.598935e+02
   2.414253e+01  -2.475693e+02
   2.157471e+02  -1.052272e+02
   2.998378e+02   1.432779e+02
   1.482599e+02   2.460888e+02
  -3.259565e+01   2.751825e+02
  -1.519683e+02   1.793203e+02
  -1.257130e+02   3.557113e+01
  -1.573345e+02   6.505093e+01
  -2.458121e+02   2.541810e+01
  -3.784989e+02  -5.790604e+01
  -3.064775e+02  -2.376658e+02
   9.294747e+00  -3.479506e+02
   3.665476e+02  -3.968515e+02
   4.266728e+02  -2.342812e+02
   2.820848e+02   8.931283e+01
   5.780792e+00   2.717531e+02
  -6.926575e+01   1.877007e+02
  -2.362455e+01   7.191106e+01
   1.234836e+02  -7.241734e+01
   1.941334e+02   4.994431e+01
   2.727101e+01   1.640038e+02
  -1.128034e+02   9.894617e+01
  -1.418563e+02  -8.770522e+01
   7.054222e+01  -1.534209e+02
   1.776207e+02  -4.672783e+01
   1.166489e+02   2.406179e+02
  -5.036211e+01   3.552452e+02
  -2.318111e+02   1.491170e+02
  -3.417634e+02  -7.075608e+01
  -2.337701e+02  -2.233408e+02
  -1.136779e+02  -2.440256e+02
   9.878214e+01  -1.132190e+02
   1.435288e+02  -3.566800e+01
   3.909140e+01  -1.963902e+01
  -3.201370e+01  -7.405644e+01
   1.683406e+01  -9.312562e+01
   1.148590e+02  -8.195113e+01
   1.962537e+02   3.349223e+01
  -1.385557e+00   1.018061e+01
  -1.003157e+02   2.074980e+01
  -5.134840e+01  -1.049559e+02
   1.263898e+02  -9.982790e+01
   2.739643e+02   6.057044e+00
   2.841269e+02   1.100116e+02
   2.467257e+01   2.746013e+02
  -2.049332e+02   2.482079e+02
  -2.641950e+02   1.260827e+02
  -1.556705e+02  -1.924953e+01
   1.905388e+01  -8.082250e+01
   8.807607e+01  -2.140577e+01
  -1.129550e+01   8.863226e+01
  -2.126050e+02   6.735880e+01
  -1.786306e+02  -6.469843e+01
  -6.679352e+01  -1.850378e+02
   4.907559e+01  -1.197094e+02
   6.463730e+01  -7.979735e+00
   6.126818e+01   3.877237e+01
  -2.480162e+01  -1.278658e+01
  -1.921354e+01  -1.416679e+02
   1.068712e+02  -1.147299e+02
   1.907145e+02   1.566002e+01
   1.914771e+02   8.021405e+01
   3.626321e+01   2.012879e+02
  -1.598977e+02   1.431905e+02
  -1.493965e+02   3.610635e+01
  -6.741034e+01  -9.774092e+01
   5.286291e+01  -9.924788e+01
   6.286989e+01  -3.554685e+01
   3.253427e+01  -1.571780e+01
  -2.175753e+01  -7.477221e+00
   4.590628e+00  -1.413831e+01
   8.034899e+01   4.203027e+01
   6.478780e+01   1.248364e+02
   9.541106e+00   1.675550e+02
  -1.333257e+02   1.586215e+02
  -2.254582e+02   5.431426e+00
  -1.756273e+02  -1.786082e+02
  -5.398794e+01  -2.299596e+02
   9.573453e+01  -1.960773e+02
   1.154260e+02  -4.533683e+01
   5.564198e+01   4.904101e+01
   3.385497e+01   4.426673e+01
   9.552875e+01  -2.315110e+00
   5.559027e+01  -9.731892e+00
   2.326567e+01   4.204696e+01
  -6.191988e+01   9.210345e+01
  -8.111964e+01   5.821359e+01
  -9.123520e+01  -1.043544e+01
   4.549950e+01  -9.352752e+01
   1.607976e+02  -7.271651e+01
   1.743215e+02   8.415695e+01
   9.566388e+01   2.040245e+02
  -8.814000e+01   2.609912e+02
  -2.728332e+02   4.626901e+01
  -2.428955e+02  -7.660093e+01
  -9.920313e+01  -1.589375e+02
   4.171802e+01  -1.477732e+02
   7.582545e+01  -9.608464e+01
   7.511327e+01  -7.706885e+01
   6.252644e+01  -1.191612e+02
   1.163040e+02  -5.663289e+01
   1.349526e+02   3.945441e+01
   9.497790e+01   1.499779e+02
   4.305832e+01   2.164493e+02
  -1.050875e+02   1.581726e+02
  -1.777889e+02   1.629124e+01
  -1.354069e+02  -1.238862e+02
  -8.814416e+00  -1.700779e+02
   1.176127e+02  -9.061162e+01
   6.607377e+01   3.907176e+00
  -1.119139e+01   5.364118e+01
  -6.338282e+01   3.634109e+00
   1.988663e+01   1.271865e+01
   6.446139e+01   2.454156e+01
   3.992337e+01   7.861004e+01
  -7.565195e+01   2.788452e+01
  -1.413696e+02  -3.062625e+00
  -1.319549e+02  -6.110606e+01
  -2.813366e+01  -1.154050e+02
   9.931792e+01  -9.374297e+01
   1.388987e+02  -3.945328e+00
   4.500130e+01   6.750035e+01
  -6.723262e+01   2.853527e+01
  -9.989815e+01  -1.987122e+01
   4.408491e+00  -8.959688e+01
   4.848750e+01  -7.155967e+01
   6.791277e+01   3.525113e+01
   4.148090e+01   5.256255e+01
   5.436543e+01   1.541362e+01
   4.465577e+01   9.426900e+00
   8.869939e+01  -4.432236e-01
   4.671844e+01   5.745513e+01
   2.691921e+01   1.269876e+02
  -1.621535e+02   1.607489e+02
  -1.420146e+02   5.614604e+01
  -1.296938e+02  -1.341213e+02
   3.441285e+01  -1.557902e+02
   8.858589e+01  -3.416327e+01
   9.398010e+01   1.162307e+01
  -4.319869e+01   9.297046e+00
  -1.153084e+02  -4.146421e+01
  -5.901583e+01  -8.789455e+01
   4.428766e+01  -8.293936e+01
   1.490663e+02  -4.503292e+01
   1.443255e+02   2.936615e+01
   4.722043e+01   7.791484e+01
  -3.117585e+01   8.707020e+01
  -4.329352e+01  -2.823706e+01
   8.223337e+01  -5.313954e+00
   8.821486e+01  -1.644768e+00
   4.813051e+01   1.125982e+02
  -7.982030e+01   1.788200e+02
  -1.485799e+02   6.877077e+01
  -1.330805e+02  -9.035011e+01
  -5.121476e+00  -1.566440e+02
   8.001934e+01  -1.603346e+02
   6.698521e+01  -8.299804e+00
   6.103681e+01   1.115907e+02
   9.436786e+00   7.011918e+01
  -2.264399e+01   7.587137e-01
  -6.092398e+01  -5.007100e-01
  -2.936215e+01  -1.203483e+01
  -4.031162e+01  -5.258717e+01
  -4.875529e+01  -1.254448e+01
  -8.718751e+01  -9.578660e+01
  -8.059550e+00  -1.137466e+02
   5.148928e+01  -3.557102e+00
   1.472049e+02   4.684012e+01
   9.020376e+01   7.127439e+01
   2.227803e+01   6.715977e+01
  -6.563714e+01   6.000831e+01
  -6.427915e+01   1.806135e+00
   1.048317e+01   3.063647e-02
   2.733957e+01  -2.743286e+01
   1.867247e+01  -4.110004e+01
   2.069120e-01  -6.688702e+00
   2.019099e+01   3.397343e+00
   8.775748e+01   4.809030e-01
   7.515532e+01   5.129542e+01
   7.951426e+00   9.130126e+01
  -9.211425e+01   7.713103e+01
  -1.785219e+02   7.589852e+01
  -1.226688e+02  -5.097797e+01
  -3.131078e+01  -1.149084e+02
   7.324101e+01  -1.946277e+02
   1.133472e+02  -8.654607e+01
   7.142351e+01  -9.989486e+00
   2.434743e+01   8.341712e+01
  -5.117671e-01  -2.118784e+00
   3.539650e+01   5.679433e+01
   4.150295e+01   4.763705e+01
   1.904477e+00   1.002140e+02
  -4.355049e+01   6.103748e+01
  -5.747387e+01  -1.083065e+01
  -9.789640e+01  -7.524432e+01
  -2.347146e+01  -1.074280e+02
   6.131776e+01  -2.116680e+01
   7.204078e+01   9.070327e+01
   2.295064e+01   9.960903e+01
  -3.679363e+01   6.871952e+01
  -7.319102e+01   4.354682e+00
  -1.912987e+01  -6.903581e+01
   3.993653e+01  -4.092401e+01
   1.863636e+01  -3.724564e+01
  -1.254064e+01   5.200497e+00
  -8.519979e+01   1.219247e+01
  -3.290920e+01  -5.908358e+01
   7.886282e+01  -9.868585e+01
   8.201395e+01  -5.571266e+01
   7.196538e+01   4.433998e+01
  -2.241294e+01   1.017198e+02
  -6.345685e+01   6.118229e+01
  -2.190073e-03  -2.773570e+00
  -1.575563e+01  -1.560932e+01
   4.272801e+01  -7.738217e+01
   5.265765e+01  -6.303421e+00
   3.390571e+01   5.654275e+01
   1.122887e+01   3.480376e+01
  -1.642050e+01  -3.993805e+01
  -6.856463e+01   1.468401e+01
  -2.942683e+01   6.543532e+00
  -4.543146e+00   5.522113e+00
  -3.753416e+01   1.056189e+01
  -3.566866e+01  -3.050325e+01
  -1.401069e+01  -4.223760e+01
   5.530417e+01  -1.820493e+01
   3.501185e+01   3.423722e+01
  -1.562272e+01   1.865126e+01
  -2.073688e+01  -1.501253e+01
  -2.362794e+01  -2.822379e+01
  -3.241807e+01  -8.069468e+01
   5.321622e+01  -1.396805e+01
   1.023955e+02   1.355926e+01
   5.145139e+01   5.135036e+00
  -4.224623e+01   3.547728e+01
  -9.828598e+01   1.383361e+01
  -5.278858e+01   2.897642e+00
   1.537875e+01  -3.749074e+01
   3.093467e+01   5.242059e+01
  -2.109096e+01   1.233151e+01
  -6.685605e+01   1.543392e+01
