
 $NMID
 id='ANONYMOUS ', fmtdat='(2E16.6)'
 volume=1.0
 tramp=1.0
 $END
   3.514153e+03   2.128640e+02
   2.230557e+03   2.013661e+03
  -1.969229e+02   2.192560e+03
  -1.659559e+03   1.170023e+03
  -1.016483e+03  -2.596961e+02
   2.475875e+02  -3.825383e+02
   5.248253e+02   1.590295e+02
   3.793819e+01   6.993942e+02
  -5.696833e+02   7.236266e+02
  -7.359084e+02  -3.524333e+00
  -4.140311e+02  -6.248908e+02
   5.005970e+01  -6.924232e+02
   4.092263e+02  -1.635218e+02
   2.694226e+02   4.578820e+02
  -1.532340e+02   5.742770e+02
  -4.386036e+02   6.093056e+01
  -2.580300e+02  -5.320631e+02
   1.674718e+02  -5.810464e+02
   4.597577e+02  -1.672554e+02
   4.262568e+02   2.938919e+02
   1.044156e+02   3.356397e+02
  -1.423739e+02   2.511376e+02
  -1.248406e+02   7.156227e+01
   9.255708e+01   1.441410e+01
   2.697036e+02   1.966921e+02
   7.284440e+01   3.678626e+02
  -4.432784e+02   2.252893e+02
  -6.833308e+02  -1.192235e+02
  -2.467151e+02  -3.829538e+02
   3.257178e+02  -2.588923e+02
   5.805978e+02   5.380067e+01
   2.559989e+02   3.502225e+02
  -2.000533e+02   3.951819e+02
  -4.717981e+02   1.999758e+02
  -3.198746e+02  -1.236336e+02
  -1.056413e+02  -3.585202e+02
   7.393681e+01  -2.409757e+02
   1.033692e+02   1.292897e+02
  -1.230195e+02   2.193366e+02
  -2.160262e+02  -6.364275e+01
  -7.304212e+01  -5.520455e+02
   1.828813e+02  -5.132133e+02
   4.399313e+02  -3.558645e+01
   1.990313e+02   3.948450e+02
  -1.565899e+02   2.450230e+02
  -1.815100e+02  -2.765884e+02
   6.951770e+01  -4.355733e+02
   4.772866e+02  -5.900712e+01
   4.697834e+02   3.646022e+02
   1.601746e+02   4.953371e+02
  -2.828041e+02   3.276201e+02
  -5.118883e+02  -8.002102e+01
  -3.625391e+02  -3.051103e+02
   9.592568e+01  -2.886606e+02
   3.202129e+02  -1.299432e+02
   1.707299e+02   1.055645e+02
  -8.550437e+01   2.720973e+01
  -7.109557e+01  -6.128495e+01
   1.300833e+02  -8.625594e+01
   2.639714e+02   8.319029e+01
   9.477273e+01   2.216043e+02
  -1.750548e+02   2.632094e+02
  -3.252358e+02   8.260304e+01
  -2.344832e+02  -1.404674e+02
   6.046899e+01  -2.212319e+02
   2.478254e+02  -2.972090e+02
   2.890392e+02  -1.523576e+02
   2.432798e+02   1.201747e+02
   6.124657e+01   3.533459e+02
  -6.338542e+01   3.791890e+02
  -7.552520e+01   1.451505e+02
  -7.012075e+01   6.229352e+01
  -1.189001e+02   6.375322e+01
  -2.216326e+02   9.048524e+01
  -2.336640e+02  -1.058291e+02
  -1.060302e+02  -2.515985e+02
   5.527842e+01  -1.633531e+02
   1.965242e+02   4.610554e+00
   1.393589e+02   2.344839e+02
  -2.615470e+01   2.707920e+02
  -2.545685e+02   1.125513e+02
  -2.475372e+02  -1.515743e+02
  -1.455017e+02  -3.100728e+02
   7.204251e+01  -2.761570e+02
   2.119706e+02  -1.414582e+02
   1.559922e+02  -4.556695e+01
   1.486436e+02  -8.575265e+01
   2.685507e+02  -5.564881e+01
   4.249737e+02   8.230845e+01
   2.996716e+02   3.069524e+02
  -2.223524e+01   4.364184e+02
  -3.918634e+02   3.677185e+02
  -4.355911e+02   1.754287e+02
  -3.036069e+02  -1.291060e+02
   1.886978e+01  -2.554634e+02
   9.728470e+01  -2.160044e+02
   5.323761e+01  -4.281718e+01
  -1.368643e+02   3.670504e+01
  -2.004809e+02  -2.321839e+01
   3.588327e+01  -1.730251e+02
   1.322614e+02  -1.007618e+02
   1.255902e+02   6.764037e+01
  -1.647392e+00   1.467436e+02
  -1.805921e+02   4.631313e+01
  -1.698167e+02  -2.286070e+02
   5.242491e+01  -3.074221e+02
   1.968791e+02  -2.022393e+02
   3.070539e+02   3.363804e+01
   2.397271e+02   2.416476e+02
   7.068636e+01   2.261232e+02
  -1.258078e+02   1.629056e+02
  -1.824014e+02   2.073746e+01
  -6.491707e+01  -3.669739e+01
   3.973986e+01   7.131833e+01
  -5.070079e+00   1.187905e+02
  -1.477326e+02   5.487527e+01
  -1.503801e+02  -9.671254e+00
  -4.662477e+01  -5.277998e+01
   4.663442e+01   2.231596e+00
   6.072689e+01   6.761382e+01
  -1.649145e+02   6.646454e+01
  -3.062785e+02   7.287503e+00
  -2.494106e+02  -1.379836e+02
  -3.079815e+01  -2.305979e+02
   1.938521e+02  -2.451409e+02
   2.420655e+02  -1.110426e+02
   1.802342e+02   2.016784e+01
  -3.932683e+01   9.072182e+01
  -6.381509e+01  -3.722820e+01
   1.870326e+01  -1.079243e+02
   1.963650e+02  -5.645965e+00
   1.915364e+02   7.992856e+01
   6.119558e+01   1.961586e+02
  -9.177208e+01   1.383659e+02
  -8.028714e+01   3.668305e+01
  -5.667988e+01  -7.560142e+01
   4.191574e+01  -9.787103e+00
   2.191923e+01   7.841602e+01
  -3.961174e+01   1.110544e+02
  -1.774225e+02  -1.315070e+01
  -1.759556e+02  -1.280498e+02
  -4.835421e+01  -1.709831e+02
   1.604679e+02  -1.352883e+02
   1.423282e+02   4.906053e+00
   3.855650e+01   7.764968e+01
  -3.867090e+01   9.669823e+01
  -1.047266e+02   4.036044e+01
   2.466199e+01  -3.161200e+01
   3.774352e+01  -1.421938e+01
   1.110203e+01   1.974912e+01
  -1.075152e+02  -4.053887e+00
  -8.759300e+01  -8.535505e+01
   1.819471e+01  -2.012115e+02
   1.434327e+02  -1.319733e+02
   2.585217e+02   1.688298e+01
   1.586461e+02   1.347757e+02
   2.844331e+01   2.206407e+02
  -1.287123e+02   1.502534e+02
  -1.387977e+02   2.615739e+01
  -6.704424e+01  -4.016390e+01
  -4.481838e+01  -4.187532e+01
  -2.224156e+01  -8.017488e+00
  -4.130769e+01   1.058951e+01
  -2.438170e+01  -1.304778e+01
   3.138989e+01  -9.931542e+01
   1.424808e+02  -2.636585e+01
   7.855953e+01   7.460299e+01
  -1.266891e+01   1.221364e+02
  -1.499053e+02   6.470862e+01
  -2.133579e+02  -8.446180e+01
  -9.880456e+01  -2.292876e+02
   1.088127e+02  -1.867470e+02
   2.793251e+02  -6.264252e+01
   2.863475e+02   8.614330e+01
   1.186794e+02   1.937904e+02
  -3.700941e+01   1.324195e+02
  -1.037578e+02   7.154132e+01
  -1.024035e+02   5.883006e+01
  -4.967047e+01   1.267411e+02
  -9.739504e+01   5.735163e+01
  -1.619455e+02   1.046797e+01
  -1.060792e+02  -1.557697e+02
  -2.180170e+01  -2.265211e+02
   6.569444e+01  -1.599524e+02
   1.435264e+02   1.527974e+01
   1.040984e+02   1.159714e+02
   1.982368e+01   1.578286e+02
  -5.692457e+01   1.346580e+02
  -4.663637e+01  -3.043879e+01
  -8.077866e+00  -5.600213e+01
   3.589631e+01  -2.307296e+01
  -2.810181e+01  -6.645371e+01
  -7.099206e+01  -1.441718e-01
  -5.513699e+01  -6.543321e+01
   6.461247e+01  -3.387318e+01
   1.440641e+02  -1.643193e+01
   1.641225e+02   4.341542e+01
   2.975138e+00   7.271313e+01
  -1.530830e+02   7.347464e+01
  -1.432430e+02   5.197382e+00
  -7.002932e+01  -1.976752e+01
   5.232289e+01  -8.501297e+01
   1.288691e+02   4.556945e+01
  -1.632309e+00   9.217852e+01
  -6.088583e+01   3.060551e+01
  -4.295856e+01   8.685081e+00
  -5.160360e+01  -2.772462e+01
  -2.846012e+01  -4.893498e+01
  -5.311573e+01  -1.727039e+01
  -8.018949e+01  -4.214264e+01
  -2.883923e+01  -4.078070e+01
   5.107693e+01  -1.478450e+02
   1.071643e+02  -1.619244e+02
   1.437148e+02  -2.241656e+01
   1.134710e+02   8.789530e+01
  -1.457231e+01   1.192526e+02
  -9.401859e+01   6.652807e+01
  -6.878274e+01   3.565461e+00
   3.018719e+01  -3.159729e+01
   1.662173e+02   3.712866e+01
   9.643676e+01   9.518365e+01
  -5.172031e+01   8.219746e+01
  -1.655758e+02   3.049732e+01
  -1.538274e+02  -5.411595e+01
  -1.849196e+01  -8.351579e+01
   5.340196e+01  -8.324374e+01
   2.466392e+01   4.338632e+00
  -1.108602e+01   5.026049e+00
  -8.352864e+01  -1.439765e+01
  -6.417326e+01  -8.002993e+01
   9.516378e+01  -1.602021e+02
   1.496152e+02  -1.184245e+02
   1.559246e+02   6.140498e+01
   2.209216e+01   2.090633e+02
  -7.579154e+01   1.378815e+02
  -1.044657e+02   4.517707e+00
  -6.699074e+01  -1.068725e+02
   9.721357e-01  -1.212180e+02
   4.799830e+01  -6.348964e+01
   5.563637e+01  -4.113513e+00
  -6.988585e+00   8.959255e+00
   7.788368e+00   1.055082e+00
  -1.125551e+00  -2.542637e+01
   9.021452e+01   5.383098e+01
   6.249026e+01   8.443664e+01
  -7.261384e+01   6.141221e+01
  -1.112929e+02   1.047642e+00
  -1.031979e+02  -4.190596e+01
  -4.114369e+01  -2.973902e+01
   7.353805e+01  -2.413282e+01
   4.706987e+01  -2.626613e+01
  -1.706080e+01   4.236891e+01
  -1.780426e+01   3.741008e+01
   3.196670e+00  -4.166975e-01
   3.946227e+01  -1.113203e+01
  -1.030968e+01  -1.897302e+01
  -4.351134e+01  -1.311176e+01
  -3.228761e+01  -5.030566e+01
  -7.785563e+00  -8.929291e+01
   9.167526e+01  -1.031889e+02
   1.941218e+02  -7.763001e+01
   9.304627e+01   3.353697e+01
   3.276071e+01   1.173016e+02
  -7.069621e+01   1.681698e+02
  -1.277677e+02   6.337695e+01
  -1.236353e+02   1.399269e+01
  -3.322584e+01  -6.146593e+01
   4.261600e+01  -1.912827e+01
   1.178221e+00  -3.111323e+01
  -4.354270e+01  -7.664907e+01
  -2.201196e+01  -7.542041e+01
   1.912982e+01  -5.433045e+01
   7.578046e+01   2.781264e+01
   1.090925e+02   1.058734e+02
   2.879504e+01   6.413480e+01
  -6.811188e+01   1.176127e+01
  -1.072329e+02  -5.053543e+01
  -2.558416e+01  -1.147804e+02
   6.567537e+01  -5.174634e+01
   8.207600e+01  -2.795309e+01
   1.898902e+01   2.310662e+01
  -1.759270e+01   3.445686e+01
  -3.980285e+01   1.417379e+01
   5.370559e+01   3.314443e+01
   6.251233e+01   4.935204e+00
   5.824667e+01   1.579499e+01
  -1.087908e+02   5.978213e+01
  -1.468568e+02   7.412975e+01
  -3.120486e+01   9.937189e+00
   4.729090e+01  -4.946832e+01
   5.519368e+01  -4.480281e+01
   1.156772e+01  -3.614996e+01
  -1.895169e+01   9.830471e+01
  -3.349191e+01   1.868794e+01
  -6.175713e+01  -4.247472e+01
  -2.835475e+01  -1.117820e+01
  -4.428056e+01  -1.932896e+01
  -4.620752e+00   2.103045e+01
   4.796235e+00   1.810289e+01
   2.344400e+01  -1.697003e+01
  -1.656480e+01   2.535918e+01
  -4.558738e+00   9.456356e+00
  -1.173421e+01   7.099061e+01
  -3.266589e+00   6.881484e+01
  -4.143861e+01   5.443920e+01
  -9.574535e+01  -1.875365e+01
  -8.823588e+00  -7.540883e+01
   6.226262e+01  -9.566506e+00
   1.033235e+02   3.947776e+01
   4.165985e-01   7.468970e+01
  -3.924056e+01   3.795648e+01
  -7.709903e+01   1.094635e+01
  -6.983429e+01  -4.493021e+00
   6.869365e+01  -2.344164e+01
   9.479128e+01  -5.170902e+01
   2.058216e+01  -2.330147e+01
  -3.053805e+01   1.418121e+01
  -6.629980e+01  -3.770745e+01
   2.994221e+01  -7.570884e+00
   5.181324e+01   3.316003e+01
