
 $NMID
 id='ANONYMOUS ', fmtdat='(2E16.6)'
 volume=1.0
 tramp=1.0
 $END
  -4.038504e+03  -9.705982e+01
  -2.215548e+03  -2.178564e+03
   5.379780e+02  -2.185632e+03
   1.589214e+03  -1.032821e+03
   9.127622e+02   3.550906e+02
  -4.494682e+02   4.918212e+02
  -6.068377e+02  -3.171073e+02
  -2.822780e+01  -8.444551e+02
   7.225630e+02  -6.678807e+02
   8.294588e+02   2.414838e+01
   3.898656e+02   6.854794e+02
  -1.854568e+02   7.623984e+02
  -5.055538e+02   9.468893e+01
  -2.992054e+02  -6.146460e+02
   2.104671e+02  -6.506252e+02
   4.935987e+02   9.113216e-01
   2.539141e+02   5.932103e+02
  -2.464172e+02   6.028872e+02
  -5.550491e+02   1.234746e+02
  -3.340305e+02  -3.247045e+02
  -7.944859e+00  -4.195899e+02
   2.293232e+02  -2.277246e+02
   1.379309e+02  -6.474857e+01
  -1.785345e+02   4.310050e+01
  -3.778811e+02  -1.815021e+02
  -1.286244e+02  -4.207749e+02
   4.404963e+02  -2.681050e+02
   7.647404e+02   1.605310e+02
   3.807770e+02   4.878669e+02
  -3.614742e+02   3.654307e+02
  -6.613298e+02  -8.879333e+01
  -2.803104e+02  -4.952997e+02
   3.192591e+02  -4.723693e+02
   5.551592e+02  -1.519987e+02
   3.320312e+02   2.243995e+02
   6.090708e+01   4.007151e+02
  -1.824208e+02   2.065618e+02
  -3.261621e+01  -1.749645e+02
   1.849938e+02  -3.122132e+02
   3.585764e+02   7.857392e+01
   1.897580e+02   6.047703e+02
  -3.114922e+02   6.052074e+02
  -5.473990e+02  -4.350314e+01
  -1.791409e+02  -4.478194e+02
   2.000109e+02  -1.991809e+02
   2.768990e+02   3.311643e+02
  -1.030917e+02   5.140731e+02
  -5.161222e+02   1.171911e+02
  -5.821023e+02  -3.976452e+02
  -1.432948e+02  -5.250465e+02
   3.719718e+02  -3.400390e+02
   5.737897e+02   5.457527e+01
   3.099206e+02   3.774332e+02
  -1.638031e+02   3.456017e+02
  -3.551968e+02   7.957685e+01
  -2.301263e+02  -1.587312e+02
   9.419495e+01  -1.070596e+02
   1.073069e+02   1.618128e+02
  -1.534855e+02   8.924831e+01
  -2.891061e+02  -8.861694e+01
  -1.129516e+02  -2.836936e+02
   1.646123e+02  -2.317662e+02
   3.518730e+02  -6.417679e+01
   2.149576e+02   8.690966e+01
  -2.466506e+01   2.517658e+02
  -2.135449e+02   3.580260e+02
  -2.945245e+02   2.123597e+02
  -2.434695e+02  -1.803727e+02
  -6.144200e+01  -3.746277e+02
   5.742107e+01  -3.900714e+02
   8.017215e+01  -1.309969e+02
   2.405146e+01  -1.299451e+01
   1.598014e+01  -1.443793e+02
   2.222843e+02  -1.403229e+02
   2.438493e+02   6.022434e+01
   1.142692e+02   2.553436e+02
  -8.399991e+01   2.126921e+02
  -2.088654e+02  -2.888195e+01
  -1.678555e+02  -2.477192e+02
   3.982839e+00  -2.258127e+02
   2.112474e+02  -8.278358e+01
   3.529397e+02   1.895639e+02
   1.700320e+02   3.925449e+02
  -1.120269e+02   2.769813e+02
  -2.488086e+02   1.425236e+02
  -1.301860e+02   1.630719e+01
  -1.192435e+02   8.754352e+01
  -2.237981e+02   6.501016e+01
  -3.853311e+02  -7.076672e+01
  -3.454372e+02  -2.761501e+02
   3.310904e+01  -4.067684e+02
   3.803529e+02  -4.063466e+02
   4.580593e+02  -2.038720e+02
   2.469077e+02   8.058108e+01
   7.395371e+00   2.609068e+02
  -1.299374e+02   2.067921e+02
  -2.124139e+01   8.214132e+00
   1.486671e+02  -8.269771e+01
   1.511755e+02   1.147729e+01
  -4.420311e+00   1.327812e+02
  -1.439552e+02   1.730012e+02
  -1.558012e+02  -5.752393e+01
   2.786935e+01  -1.849348e+02
   2.028122e+02  -1.778474e+01
   1.405327e+02   2.660807e+02
  -5.196206e+01   3.577251e+02
  -2.429509e+02   1.940359e+02
  -3.337995e+02  -8.685891e+01
  -2.389206e+02  -2.645644e+02
  -1.161835e+02  -2.579981e+02
   1.352173e+02  -1.377789e+02
   1.451607e+02  -1.737290e+01
   2.839873e+01   4.380638e+01
  -5.679843e+01  -5.805795e+01
  -1.488392e+01  -1.037868e+02
   1.427969e+02  -7.279596e+01
   1.819417e+02   1.294066e+01
   6.497971e+01   6.212994e+01
  -8.868184e+01   1.025638e+01
  -6.526295e+01  -6.191526e+01
   1.364704e+02  -9.196428e+01
   2.739936e+02  -7.672425e+00
   2.544456e+02   1.222509e+02
   8.215579e+01   2.438069e+02
  -2.110819e+02   3.070443e+02
  -2.802708e+02   1.343759e+02
  -2.008677e+02  -7.674172e+01
   3.002276e+01  -8.757532e+01
   8.037717e+01  -5.540220e+00
   4.275210e+00   7.570250e+01
  -1.998847e+02   6.373895e+01
  -1.867737e+02  -8.870729e+01
  -7.270100e+01  -1.638088e+02
   5.236077e+01  -1.493177e+02
   1.262813e+02  -3.081151e+01
   1.116711e+02   4.917220e+01
  -1.594565e+01  -1.456130e+01
  -3.802173e+00  -8.046898e+01
   5.841175e+01  -1.379263e+02
   2.110849e+02  -2.419628e+01
   1.836104e+02   1.374465e+02
   8.196661e+00   2.455335e+02
  -1.585065e+02   1.589427e+02
  -1.594127e+02   1.238274e+00
  -3.954741e+01  -1.038810e+02
   1.134701e+02  -6.709694e+01
   6.925769e+01  -3.174947e+01
   2.814100e+01   3.383153e+01
  -3.437698e+01   4.023684e+01
  -1.355540e+01   5.954845e+00
   7.324074e+01   4.513378e+00
   5.388250e+01   8.649536e+01
   2.918837e+01   1.338553e+02
  -1.249029e+02   1.527936e+02
  -2.179654e+02   3.885023e+01
  -1.647801e+02  -1.697810e+02
  -6.290838e+01  -2.184149e+02
   9.374607e+01  -1.703452e+02
   1.343321e+02  -4.964195e+01
   8.947196e+01   4.491919e+01
   3.462409e+01   4.860384e+01
   3.004623e+01  -9.176871e+00
   8.115725e+01  -2.191319e+01
   9.998163e+01   3.475176e+01
  -5.160226e+01   7.072108e+01
  -1.207669e+02   7.817358e+01
  -7.949478e+01  -3.088437e+01
   3.445450e+01  -1.333651e+02
   1.310074e+02  -1.003577e+02
   1.854019e+02   5.921789e+01
   9.158904e+01   2.158802e+02
  -1.206756e+02   2.104379e+02
  -2.840499e+02   6.240983e+01
  -2.470610e+02  -7.929755e+01
  -8.973942e+01  -1.512128e+02
   8.001309e+01  -1.192058e+02
   6.641446e+01  -1.263148e+02
   9.658466e+01  -5.281733e+01
   6.514596e+01  -8.768293e+01
   1.020065e+02  -5.696994e+01
   1.403308e+02   5.170103e+01
   8.658005e+01   1.459315e+02
   2.597363e+01   1.972056e+02
  -9.239445e+01   1.816570e+02
  -1.479916e+02   1.058276e+01
  -1.103851e+02  -7.382171e+01
  -4.259476e+01  -1.478221e+02
   1.044597e+02  -1.001884e+02
   8.569758e+01   2.839799e+01
   1.310167e+01   6.859874e+01
  -8.261252e+00   2.330943e+01
   5.130549e+01   3.582303e+01
   4.969872e+01  -2.568861e+00
   5.184065e+01   3.796010e+01
  -4.663585e+01   7.222414e+01
  -1.551750e+02   2.715833e+01
  -1.310408e+02  -5.878152e+01
  -5.218530e+01  -1.149340e+02
   1.085625e+02  -7.642562e+01
   1.640580e+02  -4.886698e+01
   7.991533e+01   5.569940e+01
  -8.410279e+01   3.865000e+01
  -9.244098e+01  -2.705955e+01
  -2.496628e+01  -9.486114e+01
   7.828528e+01  -4.741357e+01
   1.348666e+01  -8.312352e+00
   7.990788e+01   2.832807e+01
   7.425911e+01   3.178166e+01
   5.366690e+01  -5.523172e+01
   4.711895e+01   2.232119e+00
   3.802380e+01   6.206923e+01
  -4.928587e+00   1.394530e+02
  -9.387280e+01   1.231256e+02
  -1.479134e+02   4.706860e+01
  -1.552440e+02  -9.007388e+01
  -7.503549e+00  -1.607526e+02
   8.434433e+01  -6.251698e+01
   6.401994e+01   3.949052e+01
  -5.091269e+01   5.701526e+00
  -1.446721e+02  -2.743732e+01
  -7.015140e+01  -1.200226e+02
   8.026261e+01  -1.362781e+02
   1.925305e+02  -5.636395e+01
   1.610147e+02   3.614625e+01
   4.625756e+00   1.012170e+02
  -7.363317e+01   5.896949e+01
  -5.195044e+01  -9.643515e+00
   5.359252e+01  -2.121606e+01
   8.106231e+01   3.164208e+01
   4.431707e+01   1.319720e+02
  -7.269077e+01   1.365612e+02
  -2.043602e+02   7.249412e+01
  -1.394625e+02  -1.446143e+02
   1.683146e+01  -1.695205e+02
   4.639657e+01  -1.097301e+02
   1.006424e+02   6.970559e-01
   4.130673e+01   1.288734e+02
  -1.766392e+01   1.060567e+02
  -3.052121e+01   4.212207e+01
  -1.267866e+01  -9.301921e+00
  -1.573480e+01   2.865763e+01
   2.496474e+01  -2.699594e+00
  -4.527084e+00   3.615788e+00
  -6.678530e+01  -7.669321e+01
  -5.020728e+01  -8.309625e+01
   4.208114e+01  -7.921877e+01
   9.694031e+01   5.984150e+01
   7.213912e+01   1.047006e+02
   5.586662e+01   5.317622e+01
  -9.846450e+01   9.248113e+00
  -5.997496e+01   3.417587e+01
  -7.705543e+00   1.246264e+01
   3.174069e+01  -2.244546e+01
  -1.657807e+00  -3.907063e+01
  -2.175999e+01  -6.985549e+00
   2.277916e+01   2.417989e+01
   6.050887e+01  -3.632124e+01
   9.999391e+01   5.328886e+01
   2.982863e+00   1.046763e+02
  -1.314573e+02   7.805836e+01
  -1.928128e+02   5.878429e+01
  -1.614656e+02  -3.765891e+01
  -1.237377e+01  -1.568209e+02
   8.788012e+01  -1.734231e+02
   5.746755e+01  -7.100653e+01
   8.499383e+01   2.611312e+01
   1.765486e+01   3.066870e+01
  -2.001163e+01  -6.927221e+00
   7.001731e+00   4.125981e+01
   4.179853e+01   3.567646e+01
   3.153654e+01   8.451334e+01
  -4.955058e+01   8.498025e+01
  -1.156838e+02  -3.708221e+01
  -8.751054e+01  -1.109933e+02
  -2.158753e+01  -1.128239e+02
   7.548990e+01  -4.010706e+01
   1.081320e+02   9.133273e+01
   2.605214e+01   8.674797e+01
  -2.889972e+01   7.609043e+01
  -1.068133e+02  -1.407513e+01
   9.362719e+00  -6.732548e+01
   4.263996e+01  -6.453573e+01
   4.665275e+01  -4.554021e+01
  -4.385303e+01  -3.202780e+01
  -6.367163e+01  -3.348648e+01
  -7.055191e+00  -1.173200e+01
   6.590659e+01  -8.178595e+01
   1.129218e+02  -7.583654e+01
   3.482481e+01   1.710770e+01
  -8.144427e-01   7.052876e+01
  -4.463737e+01   4.248030e+01
  -5.755783e+01  -3.456514e+00
   2.427161e+01  -4.517047e+01
   5.031246e+01  -3.017560e+01
   3.495952e+01   3.307097e+01
   4.752898e+01   2.195323e+01
  -2.328021e+01   2.170467e+01
  -4.912915e+01  -1.544197e+01
  -3.672375e+01  -1.708051e+00
   1.126245e+01   1.859805e+00
  -2.941617e+01   2.535229e+01
   1.779177e+01  -1.949125e+01
  -1.554240e+01  -5.244865e+01
   3.567165e+01  -2.402183e+01
   3.534526e+01  -1.864626e+01
   3.894978e+01   2.085599e+01
   5.511387e+01   7.885968e+01
  -4.553700e+01   7.678685e+00
  -7.992864e+01  -3.330039e+01
  -2.460392e+01  -4.555983e+01
   5.871931e+01  -4.528846e+01
   1.003377e+02  -2.639033e+00
   3.270239e+01   4.618766e+01
  -6.823269e+01   4.479626e+01
  -6.040689e+01   5.053834e+00
   1.413303e+01   5.454048e+01
   2.547331e+01   1.353782e+01
   3.261469e+01   2.561306e+01
  -4.863534e+01   3.537328e+01
  -8.235915e+01   2.486527e+01
