
 $NMID
 id='ANONYMOUS ', fmtdat='(2E16.6)'
 volume=1.0
 tramp=1.0
 $END
   3.364439e+03   1.474900e+02
   2.168612e+03   1.775182e+03
  -1.760408e+02   2.184263e+03
  -1.470356e+03   1.151071e+03
  -9.365307e+02   5.212272e+01
   1.196778e+02  -2.941142e+02
   4.169226e+02   2.063635e+02
   5.755681e+01   7.426098e+02
  -5.591903e+02   6.661662e+02
  -7.017833e+02   2.875935e+01
  -4.632631e+02  -6.043929e+02
   7.764867e+01  -6.974385e+02
   4.277862e+02  -1.814610e+02
   2.873809e+02   4.842052e+02
  -1.052849e+02   6.312537e+02
  -4.306107e+02   1.063861e+02
  -2.764774e+02  -5.445276e+02
   1.164100e+02  -6.315000e+02
   4.865328e+02  -3.073712e+02
   5.041426e+02   1.632380e+02
   1.493513e+02   4.107695e+02
  -9.883580e+01   2.523689e+02
  -1.575483e+02   7.114295e+01
   1.538396e+02   2.540120e+01
   2.705386e+02   2.405936e+02
  -6.055458e-01   3.614649e+02
  -4.317180e+02   1.729787e+02
  -6.600515e+02  -1.341182e+02
  -2.864587e+02  -3.971931e+02
   3.487783e+02  -2.685445e+02
   5.350868e+02   1.074694e+02
   2.439654e+02   3.584453e+02
  -2.701487e+02   3.930882e+02
  -4.652914e+02   1.525806e+02
  -3.574468e+02  -1.645770e+02
  -1.227927e+02  -2.869128e+02
   9.901347e+01  -2.011216e+02
   4.934414e+01   8.430030e+01
  -1.563242e+02   2.382373e+02
  -2.350366e+02  -1.723120e+02
  -3.345403e+01  -5.552735e+02
   2.788315e+02  -5.108453e+02
   4.344674e+02  -3.410924e+01
   1.310181e+02   3.759810e+02
  -1.628190e+02   2.073764e+02
  -2.254806e+02  -2.985247e+02
   1.259681e+02  -4.454872e+02
   4.430951e+02  -8.379877e+01
   4.680139e+02   3.948333e+02
   1.455467e+02   5.690843e+02
  -3.296302e+02   2.910167e+02
  -5.412755e+02  -6.170494e+01
  -3.729831e+02  -2.411032e+02
   1.105540e+02  -2.567840e+02
   3.617284e+02  -9.444452e+01
   1.826231e+02   8.173277e+01
  -2.219661e+01   7.765373e+01
  -1.089958e+02  -1.247246e+02
   6.791291e+01  -1.078844e+02
   1.756875e+02   5.823394e+01
   1.505796e+02   1.883803e+02
  -2.102405e+02   2.759311e+02
  -2.991845e+02   1.472879e+02
  -2.515095e+02  -8.713616e+01
   3.851955e+01  -3.326225e+02
   2.844635e+02  -3.666516e+02
   3.749843e+02  -1.460590e+02
   2.556921e+02   1.588704e+02
   1.984460e+01   3.534227e+02
  -7.341550e+01   3.097504e+02
  -2.457271e+01   1.457011e+02
  -1.379171e+01   6.903069e+01
  -9.590999e+01   5.237481e+01
  -2.321841e+02   9.461168e+01
  -2.528583e+02  -1.009718e+02
  -6.106172e+01  -2.908172e+02
   6.705769e+01  -2.359575e+02
   2.005749e+02  -4.002375e+00
   1.525638e+02   2.382743e+02
   3.100898e-01   2.440394e+02
  -2.340478e+02   8.815642e+01
  -3.248870e+02  -1.857506e+02
  -1.716666e+02  -3.165602e+02
   7.858065e+01  -2.534018e+02
   1.776390e+02  -1.304173e+02
   1.661539e+02  -9.791341e+01
   1.227117e+02  -7.342561e+01
   2.613090e+02  -1.802263e+01
   4.094264e+02   8.350139e+01
   2.999592e+02   2.922665e+02
  -1.462287e+01   4.788283e+02
  -3.920536e+02   4.114322e+02
  -5.102602e+02   1.951039e+02
  -3.285520e+02  -1.182584e+02
  -7.360508e+01  -2.580174e+02
   1.209981e+02  -1.737146e+02
   5.009241e+00  -1.398877e+01
  -1.174842e+02   6.047628e+01
  -1.721375e+02  -1.054498e+01
  -3.190751e+01  -1.707075e+02
   1.598012e+02  -1.266770e+02
   1.341266e+02   1.667600e+01
  -3.655145e+01   1.202979e+02
  -2.231772e+02   2.478472e+01
  -1.980291e+02  -2.398624e+02
   5.750903e+00  -4.013953e+02
   2.093016e+02  -1.538322e+02
   3.469110e+02   9.819787e+01
   2.608129e+02   2.196383e+02
   4.853259e+01   2.886702e+02
  -1.467610e+02   1.715610e+02
  -1.349688e+02  -4.683727e+00
  -5.292789e+00  -2.805264e+01
   5.172496e+01   4.917748e+01
  -3.849709e+00   9.886005e+01
  -1.024535e+02   8.237059e+01
  -1.419593e+02  -2.100886e+01
  -3.246058e+01  -5.545440e+01
   1.318611e+02   1.637922e+01
   8.029419e+01   6.291012e+01
  -1.436794e+02   7.995004e+01
  -3.058183e+02  -5.733627e+01
  -2.695021e+02  -1.563512e+02
  -3.995121e+01  -2.509188e+02
   2.330699e+02  -2.532782e+02
   2.395940e+02  -1.139559e+02
   1.343026e+02   5.353613e+01
  -4.378214e+01   8.624809e+01
  -7.659052e+01  -2.615051e+01
   5.513666e+01  -6.153699e+01
   2.207981e+02  -2.944787e+01
   1.782503e+02   1.044875e+02
   6.083447e+01   1.702414e+02
  -8.952289e+01   1.042679e+02
  -9.386363e+01   1.900604e+01
  -3.466258e+01  -2.754608e+01
   8.831012e-01   4.314627e+01
   3.460583e+01   1.105832e+02
  -1.364883e+02   1.204250e+02
  -2.215041e+02  -1.341067e+01
  -1.568550e+02  -1.422677e+02
  -1.907088e+01  -1.635204e+02
   1.631208e+02  -1.471222e+02
   1.623229e+02   1.540105e+01
   5.450083e+01   7.508289e+01
  -5.348650e+01   1.121441e+02
  -8.167267e+01   6.859882e+01
  -3.821042e+00  -7.819101e+01
   4.833288e+01  -1.658119e+01
  -3.023629e+01   1.373267e+01
  -7.792805e+01   7.865539e+00
  -1.177378e+02  -1.012521e+02
  -1.811362e+01  -2.023676e+02
   1.354108e+02  -1.528734e+02
   2.655330e+02   2.299880e+01
   1.909567e+02   1.585636e+02
   3.333461e+01   2.935818e+02
  -1.510079e+02   1.884446e+02
  -1.240517e+02   3.599284e+00
  -3.615951e+01  -6.603790e+01
  -4.592387e+01  -2.851403e+01
  -5.479749e+01   3.043885e+01
  -6.511494e+01  -3.684207e-01
  -7.227692e+01  -1.194500e+02
   1.198648e+01  -1.168064e+02
   1.457222e+02  -6.202327e+01
   1.426238e+02   5.563372e+01
  -2.804168e+01   1.384197e+02
  -1.504970e+02   1.132155e+02
  -2.030686e+02  -6.347305e+01
  -1.017721e+02  -2.149529e+02
   1.541121e+02  -2.614417e+02
   2.615759e+02  -9.096743e+01
   2.728046e+02   9.220145e+01
   1.390402e+02   1.891172e+02
  -6.605540e+01   1.672354e+02
  -1.396665e+02   7.714301e+01
  -8.625951e+01   6.503796e+01
  -7.486186e+01   5.888858e+01
  -1.304550e+02   2.547635e+01
  -1.587970e+02  -1.852034e+01
  -1.230776e+02  -1.519620e+02
  -3.516791e+01  -2.319967e+02
   1.018697e+02  -1.679939e+02
   2.004909e+02   1.590067e+01
   1.258515e+02   1.366670e+02
   6.116133e+00   1.864793e+02
  -6.139190e+01   5.211052e+01
  -5.827159e+01  -2.558083e+01
  -1.153919e+01  -4.240259e+01
   3.604713e+01  -2.320467e+01
  -2.834977e+01  -2.401103e+01
  -7.335123e+01  -3.173253e+01
  -2.314032e+00  -5.213696e+01
   5.475157e+01  -2.447264e+01
   1.531253e+02  -5.709512e+01
   1.522319e+02   5.503691e+01
   5.520583e+01   1.238204e+02
  -1.308379e+02   8.905135e+01
  -1.522811e+02   3.419298e+01
  -5.124734e+01  -4.987785e+01
   8.235666e+01  -4.644015e+01
   4.511079e+01   4.717851e+01
   2.856877e+01   1.018399e+02
  -5.918974e+01   8.998578e+01
  -5.412154e+01  -1.791768e+01
  -6.036771e+01  -3.168719e+01
  -4.288802e+01  -4.575570e+01
  -7.438088e+01  -2.357391e+01
  -6.858613e+01  -1.627037e+01
  -3.494809e+01  -1.048512e+02
   1.165932e+01  -1.485879e+02
   1.244732e+02  -1.689944e+02
   1.795016e+02  -3.748732e+01
   7.815196e+01   1.060934e+02
  -2.058530e+01   1.355994e+02
  -1.146476e+02   7.388015e+01
  -7.575817e+01  -5.441691e+01
   5.740025e+01  -2.153840e+01
   1.456121e+02   7.773354e+01
   6.666348e+01   1.351473e+02
  -8.500393e+01   1.036698e+02
  -2.233650e+02   6.106432e+01
  -1.674090e+02  -5.159999e+01
  -1.465846e+01  -5.632983e+01
   5.446863e+01  -5.338448e+01
   4.649017e+01  -1.955121e+01
  -1.634569e+01   7.584918e+00
  -7.394078e+01  -8.451340e+00
  -4.930510e+01  -1.135392e+02
   8.293282e+01  -1.550431e+02
   1.201653e+02  -5.367123e+01
   1.084558e+02   1.374264e+02
   4.095786e+01   1.965613e+02
  -7.944037e+01   1.557180e+02
  -9.519688e+01   6.219965e+00
  -6.739533e+01  -1.368706e+02
   3.455469e+00  -8.811465e+01
   3.052520e+01  -1.449717e+01
   3.650172e+01   7.329404e+00
   4.729959e+01   2.485408e+01
   1.240140e+01  -4.745914e+01
   2.360175e+01   3.009547e+01
   4.064723e+01   7.845749e+01
  -1.896707e+00   1.201798e+02
  -6.289537e+01   8.532964e+01
  -1.494131e+02  -2.429616e+01
  -8.870556e+01  -9.080207e+01
  -1.786944e+01  -7.249715e+01
   9.485647e+01  -1.687682e-01
   7.440583e+01   1.044080e+01
  -2.112853e+00   4.379741e+01
  -3.514830e+01   4.317718e+01
  -4.634573e+01  -1.358996e+01
   2.732924e+01  -3.172608e+01
   1.740864e+01   3.764507e+01
  -8.930984e+01  -2.400331e+01
  -9.446697e+01  -3.189958e+01
  -1.842240e+01  -9.385897e+01
   1.414458e+02  -1.227490e+02
   2.022841e+02  -3.800273e+01
   1.739443e+02   9.961044e+01
   5.619164e+01   1.859256e+02
  -5.786563e+01   1.568675e+02
  -1.249372e+02   8.742584e+01
  -7.932448e+01  -3.125747e+01
  -6.306352e+01  -4.963567e+01
  -1.069338e+01  -1.802610e+01
  -2.524397e+01  -1.095845e+01
  -2.861831e+01  -6.782826e+01
  -1.429410e+01  -1.169486e+02
   3.916694e+01  -1.138998e+02
   6.711478e+01   1.951524e+01
   7.506944e+01   1.115621e+02
   1.524015e+01   1.195659e+02
  -4.866331e+01   3.374453e+01
  -1.164397e+02  -6.654076e+01
  -5.233662e+01  -1.207725e+02
   1.020156e+02  -2.872628e+01
   1.216187e+02   2.849351e+01
   2.575998e+01   6.188358e+01
  -3.549175e+00   5.519040e+01
  -2.329717e+01  -2.114427e+01
   2.793805e+01   1.896023e-01
   8.296344e+01  -1.310973e+01
  -1.146914e+01   3.969073e+01
  -9.882846e+01   7.611458e+01
  -9.743412e+01   4.940959e+01
  -3.524350e+01  -1.494082e+01
   1.039285e+01  -8.244777e+01
   7.623951e+01  -8.047405e+01
   6.237409e+01  -2.219079e+01
   3.240384e+00   2.307197e+01
   1.546829e+01   4.457396e+01
  -2.884811e+01  -1.475880e+01
  -2.019013e+01  -7.042007e+01
  -1.749048e+01  -1.867607e+01
   4.476588e+01  -2.260134e+00
   6.969774e+01   2.089828e+01
   1.578068e+01  -1.166390e+01
  -1.590517e+01  -2.810023e+00
   8.203473e-02  -2.132017e+00
   1.440043e+01   6.906158e+01
  -7.078576e+00   8.407487e+01
  -3.349807e+01   5.034996e+01
  -6.730817e+00  -2.599235e+01
   1.440352e+01  -1.125068e+02
   6.533359e+01  -5.258279e-01
   7.261438e+01   3.917429e+01
  -4.475099e+00   8.205552e+01
  -8.167160e+01   3.606530e+01
  -9.827394e+01  -2.115488e+01
  -4.319789e+01  -7.975407e+01
   6.572074e+01  -2.466060e+01
   5.235100e+01  -2.505810e+01
   5.454187e+01   1.372053e+01
  -1.234956e+01   1.527472e+01
  -4.152021e+01  -1.427210e+01
   9.773301e+00  -1.322688e+01
   9.292404e+01  -1.881411e+01
