
 $NMID
 id='ANONYMOUS ', fmtdat='(2E16.6)'
 volume=1.0
 tramp=1.0
 $END
  -2.833613e+03   2.815290e+01
  -1.826631e+03  -1.505501e+03
   1.806105e+02  -1.831071e+03
   1.170981e+03  -1.153005e+03
   7.875364e+02  -1.729060e+02
  -6.250957e+01   7.924306e+01
  -3.018649e+02  -1.542914e+02
  -7.241799e-01  -5.288238e+02
   3.739544e+02  -5.343406e+02
   6.199472e+02  -1.313591e+02
   3.425827e+02   4.927432e+02
   4.238785e+00   6.506828e+02
  -3.148627e+02   2.194244e+02
  -2.805604e+02  -3.984655e+02
   6.204278e+01  -4.916323e+02
   3.668149e+02  -6.974550e+01
   3.026094e+02   4.126015e+02
  -1.245412e+02   5.876214e+02
  -3.816650e+02   2.384889e+02
  -4.141002e+02  -1.493556e+02
  -1.612897e+02  -3.385817e+02
   1.165898e+02  -2.580247e+02
   7.875485e+01  -6.368971e+01
  -1.384113e+02  -3.919903e+01
  -2.947887e+02  -1.927033e+02
  -2.811291e+00  -3.452217e+02
   4.036537e+02  -1.817007e+02
   6.655377e+02   1.285074e+02
   2.157361e+02   3.684082e+02
  -3.205418e+02   1.952810e+02
  -4.768378e+02  -1.120078e+02
  -1.603599e+02  -3.215528e+02
   2.315909e+02  -3.075437e+02
   4.061874e+02  -1.758071e+02
   2.963301e+02   9.049039e+01
   7.568219e+01   2.944808e+02
  -3.367793e+01   1.856442e+02
  -2.709098e+01  -9.093225e+01
   1.554739e+02  -2.146911e+02
   1.996508e+02   7.992075e+01
   4.249404e+01   5.022388e+02
  -2.528594e+02   4.944526e+02
  -3.149855e+02   5.085047e+01
  -1.438957e+02  -3.438329e+02
   1.413242e+02  -1.355121e+02
   1.609469e+02   2.214716e+02
  -6.782467e+01   3.416342e+02
  -4.427664e+02   9.780905e+01
  -4.361313e+02  -3.761804e+02
  -1.404389e+02  -4.406829e+02
   2.840590e+02  -2.683882e+02
   4.595526e+02   2.410864e+01
   2.972912e+02   2.218060e+02
  -5.277633e+01   2.037155e+02
  -2.596437e+02   9.176219e+01
  -2.053364e+02  -5.836835e+01
   2.786365e+01  -1.435863e+01
   3.339019e+01   7.276566e+01
  -1.389610e+02   3.956047e+01
  -1.955514e+02  -2.935121e+01
  -1.199749e+02  -1.816981e+02
   8.445034e+01  -1.691096e+02
   3.192476e+02  -1.065546e+02
   2.485168e+02   7.379041e+01
  -6.971015e+00   2.925572e+02
  -2.380165e+02   3.005712e+02
  -3.289624e+02   1.405763e+02
  -2.142256e+02  -1.254669e+02
  -8.863093e+01  -3.147132e+02
  -2.057826e+01  -3.604583e+02
   3.701318e+01  -1.752590e+02
   5.122968e+01  -9.484032e+01
   9.132951e+01  -6.549255e+01
   2.621895e+02  -8.884809e+01
   2.122308e+02   1.002405e+02
   6.857001e+01   2.420445e+02
  -1.354694e+02   1.785415e+02
  -1.928068e+02  -1.831224e+00
  -1.561729e+02  -2.596023e+02
   5.876725e+01  -2.699023e+02
   2.627299e+02  -6.486495e+01
   3.131647e+02   1.297628e+02
   1.372030e+02   2.690061e+02
  -6.302286e+01   2.742507e+02
  -1.452719e+02   1.688102e+02
  -1.163854e+02   1.035671e+02
  -1.070098e+02   7.844433e+01
  -2.560337e+02   5.146848e+01
  -3.458760e+02  -7.367990e+01
  -2.802092e+02  -2.549021e+02
   2.361281e+01  -3.821381e+02
   3.491425e+02  -3.821033e+02
   4.196104e+02  -1.608503e+02
   2.312310e+02   7.076631e+01
   5.329908e+01   2.204444e+02
  -7.706192e+01   2.135176e+02
  -3.542225e+01   7.072685e+01
   1.101232e+02  -7.043218e+01
   1.537415e+02   3.735411e+00
  -4.815718e+00   9.410190e+01
  -1.570116e+02   1.201494e+02
  -1.512513e+02  -3.923041e+01
   2.038496e+01  -1.492726e+02
   1.525879e+02  -2.321431e+01
   1.757898e+02   1.539748e+02
   3.575487e+00   3.088243e+02
  -2.170186e+02   1.926568e+02
  -3.302888e+02  -7.288761e+01
  -2.774710e+02  -2.088230e+02
  -8.653999e+01  -2.486090e+02
   1.206709e+02  -1.836828e+02
   1.715986e+02   1.837267e+01
   7.504791e+01  -1.354747e+01
  -3.432562e+01  -5.303049e+00
  -3.936984e+01  -9.644708e+01
   8.280796e+01  -8.661849e+01
   1.558361e+02   1.708118e+01
   6.862467e+01   5.424136e+01
  -6.562036e+01   1.003422e+01
  -6.732117e+01  -1.204134e+02
   1.330519e+02  -6.161135e+01
   3.184799e+02  -4.242241e+00
   2.228524e+02   1.675180e+02
   3.391179e+01   2.350919e+02
  -1.814753e+02   2.280893e+02
  -2.499210e+02   1.229634e+02
  -1.320410e+02  -3.666820e+01
   3.179932e+01  -1.102018e+02
   1.116380e+02   3.181987e+01
  -4.814843e+01   8.109461e+01
  -1.599718e+02   2.267995e+01
  -1.816270e+02  -8.559324e+01
  -8.149188e+01  -1.411494e+02
   4.603949e+01  -1.123439e+02
   7.779092e+01   2.259416e+00
   1.906773e+01   2.105432e+01
  -2.313123e+01  -4.600815e+00
  -2.718817e+01  -9.802411e+01
   7.107853e+01  -6.821096e+01
   1.806489e+02  -3.323298e+01
   1.873119e+02   1.744596e+02
  -3.842547e+01   1.605350e+02
  -1.388008e+02   1.244326e+02
  -1.585803e+02   1.166143e+01
  -1.408338e+01  -1.241892e+02
   3.954921e+01  -8.005755e+01
   8.257912e+01   1.745091e+01
  -1.293169e+01   7.065831e+01
  -3.905699e+01   3.181317e+01
   7.893637e+00  -2.327776e+01
   7.482853e+01  -2.217801e+01
   8.506449e+01   8.426185e+01
  -1.992440e+00   1.913703e+02
  -1.107658e+02   1.608231e+02
  -2.025089e+02   2.395626e+01
  -2.158122e+02  -1.218947e+02
  -1.309809e+01  -2.339259e+02
   9.620078e+01  -1.705031e+02
   8.288136e+01  -6.003121e+01
   8.259120e+01   2.254763e+01
   8.515923e+01   1.635795e+01
   3.012593e+01   9.001687e+00
   6.358695e+01  -6.241874e+00
   3.854660e+01   5.777447e+01
  -3.399022e+01   5.632889e+01
  -1.336172e+02   2.720537e+01
  -8.619239e+01  -3.353289e+01
   2.965817e+01  -9.773355e+01
   1.604432e+02  -8.713552e+01
   1.914847e+02   6.880812e+01
   7.764163e+01   1.750190e+02
  -1.468096e+02   2.142433e+02
  -2.517817e+02   8.925406e+01
  -2.019095e+02  -6.173726e+01
  -1.249526e+02  -1.543130e+02
   5.176852e+01  -1.210631e+02
   5.157588e+01  -7.581193e+01
   6.451689e+01  -3.723754e+01
   4.553653e+01  -1.552733e+02
   1.059617e+02  -6.826829e+01
   1.260846e+02   4.056702e+01
   1.021742e+02   1.271440e+02
   4.412347e+01   2.214957e+02
  -1.160561e+02   1.650954e+02
  -1.628951e+02   1.533666e+01
  -1.068343e+02  -1.383875e+02
   1.252975e+01  -1.344723e+02
   6.935896e+01  -4.365032e+01
   7.765283e+01   1.838519e+01
   3.727868e+00   6.313909e+01
  -2.397574e+01   3.281158e+01
   1.674120e+01   5.950169e+00
   1.142250e+02   3.531335e+01
   5.860428e+01   2.133765e+01
  -9.761630e+01  -3.570979e+00
  -1.943441e+02   2.060808e+00
  -1.430532e+02  -4.414883e+01
  -1.694342e+01  -9.942787e+01
   9.340231e+01  -1.581035e+01
   1.081681e+02  -9.539717e+00
   4.463303e+01   3.821048e+01
  -7.390766e+01   4.050271e+01
  -4.380467e+01  -6.658625e+01
  -4.606800e+01  -6.319152e+01
   2.580825e+01  -4.453334e+01
   7.091071e+01  -3.055191e+01
   6.304526e+01   4.200665e+01
   3.787568e+01   4.485364e+01
   3.560802e+01   5.821062e+00
   7.106084e+01   2.862078e+01
   2.659578e+01   2.252178e+01
  -4.025064e+01   1.276341e+02
  -9.608035e+01   1.487628e+02
  -1.439692e+02   1.006099e+00
  -6.753636e+01  -8.252224e+01
  -1.672220e+01  -9.670439e+01
   8.368459e+01  -5.289735e+01
   4.323130e+01   2.251976e+01
  -4.104812e+01   6.114335e+00
  -1.158767e+02  -4.987026e+01
  -1.105635e+02  -7.058802e+01
   3.562611e+01  -1.105924e+02
   1.880612e+02  -2.600304e+01
   1.579026e+02   3.343898e+01
   2.913477e+01   9.242919e+01
  -8.589234e+01   8.649860e+01
  -3.961062e+01   2.453489e+00
   4.997974e+01  -5.394484e+01
   1.090709e+02   4.519843e+01
   2.904664e+01   9.664993e+01
  -7.651360e+01   1.411794e+02
  -1.329868e+02   5.298380e+01
  -1.614940e+02  -1.026922e+02
  -5.254752e+01  -1.528032e+02
   8.141603e+01  -1.868075e+02
   1.019675e+02  -2.164185e+01
   7.326616e+01   1.239657e+02
  -3.009494e+01   1.032215e+02
  -6.377043e+00  -8.843192e+00
  -4.681795e+01  -2.930314e+01
  -2.176676e+01  -2.882030e+01
  -1.026164e+01   4.191005e+01
  -4.047564e+01  -2.783169e+01
  -7.507643e+01  -7.835025e+01
  -1.793528e+00  -8.097364e+01
   5.652618e+01  -5.143595e+01
   1.198613e+02   2.087185e+01
   1.163117e+02   3.108813e+01
   1.005061e+01   5.833813e+01
  -6.676393e+01   6.862014e+01
  -6.368072e+01   1.082596e+01
  -4.029983e+00  -1.447438e+01
   1.903787e+01  -5.450300e+00
   3.277400e+01  -2.322030e+01
  -1.860400e+01  -1.734304e+01
   6.777869e+00   2.795124e+00
   9.050163e+01  -8.918729e+00
   9.768305e+01   4.102755e+01
  -2.697149e+01   6.532769e+01
  -1.055280e+02   1.274874e+02
  -1.782551e+02   6.954783e+01
  -1.249920e+02  -3.159025e+01
  -2.202033e+01  -1.393872e+02
   7.384626e+01  -1.728977e+02
   1.106135e+02   3.979138e+00
   9.534656e+01  -2.042820e+00
   1.282741e+01   7.128418e+01
  -3.179534e+01   6.903686e+00
  -6.053317e-01   1.465076e+01
   2.185583e+01   5.784549e+01
   5.746894e+01   9.290967e+01
  -1.329130e+01   7.237415e+01
  -6.678420e+01  -4.691216e+01
  -1.021062e+02  -1.141717e+02
  -2.902349e+01  -5.454367e+01
   7.919175e+01  -4.961771e+01
   1.136872e+02   6.735786e+01
   4.737241e+01   1.223144e+02
  -6.847891e+01   6.933152e+01
  -8.106731e+01   2.292508e+01
  -4.427798e+01  -1.116380e+01
   1.529882e+01  -2.741688e+01
   2.895525e+01   9.175991e+00
  -3.556372e+00   2.256276e+00
  -5.456316e+01   1.797620e+01
  -2.545629e+01  -4.019864e+01
   1.149029e+02  -7.720525e+01
   7.083262e+01  -3.250789e+01
   6.916605e+01   5.710037e+00
  -2.185837e+00   7.678406e+01
  -3.017057e+01   1.237894e+02
  -4.565795e+01   1.798982e+01
   1.218361e+01  -2.128720e+01
   3.773043e+01  -5.282776e+01
   6.225503e+01  -1.382043e+01
   1.460227e+01   4.898816e+01
  -1.781167e+01   1.957166e+01
  -4.535231e+01   6.144939e+00
  -7.581279e+01  -1.768877e+01
  -6.864213e+01  -1.923461e+01
   1.686033e+01   1.484961e+01
  -8.642460e+00   4.854230e+01
  -1.668961e+00  -3.859007e+01
   2.521675e+01   2.392546e-01
   1.855001e+01  -2.591097e+01
  -1.005189e+00   4.439803e+01
   8.474553e+00   3.195600e+01
  -3.701052e+01   5.770946e+01
  -2.474802e+01  -3.173776e+01
   5.437589e+00  -7.090319e+01
   3.228399e+01  -1.963946e+01
   4.536703e+01   2.738663e+01
   5.500752e+01   2.865468e+01
  -4.489451e+01   1.516595e+01
  -7.212785e+01  -4.378171e+00
  -3.186859e+01   1.001701e+01
   1.739220e+01   6.062627e+00
   3.864599e+01  -2.042297e+01
  -8.045552e+00   1.800000e+01
  -8.064103e+01   3.100638e+01
