
 $NMID
 id='ANONYMOUS ', fmtdat='(2E16.6)'
 volume=1.0
 tramp=1.0
 $END
  -1.711043e+07   1.372052e+06
  -1.153029e+07  -8.940319e+06
   5.906046e+05  -1.153178e+07
   7.712505e+06  -6.034496e+06
   5.592819e+06   7.915560e+05
  -3.140416e+05   3.003490e+06
  -3.184833e+06   5.048921e+05
  -1.676081e+06  -2.833337e+06
   1.302487e+06  -3.621545e+06
   2.983145e+06  -1.345393e+06
   2.499083e+06   1.826732e+06
   4.944921e+05   2.925372e+06
  -1.294991e+06   9.053490e+05
  -1.107894e+06  -2.034555e+06
   9.417497e+05  -2.593986e+06
   2.593679e+06  -3.173939e+04
   1.867691e+06   3.089811e+06
  -7.366202e+05   3.917717e+06
  -3.000965e+06   2.128366e+06
  -3.357951e+06  -4.815467e+05
  -2.000781e+06  -2.158438e+06
  -2.719556e+05  -2.367504e+06
   4.660669e+05  -1.642685e+06
  -1.075515e+05  -1.027860e+06
  -7.937678e+05  -1.234817e+06
   1.675820e+03  -1.818417e+06
   2.152236e+06  -1.570181e+06
   3.498131e+06  -1.146717e+05
   2.378465e+06   1.397487e+06
  -1.462133e+05   1.647157e+06
  -1.538893e+06   6.890821e+05
  -8.205212e+05  -3.603991e+05
   6.759903e+05  -6.601446e+05
   1.335012e+06  -1.184525e+05
   8.975098e+05   8.991326e+05
   2.473065e+04   1.625585e+06
  -6.698442e+05   1.193015e+06
  -8.018547e+05  -2.390669e+05
  -3.057157e+05  -1.104926e+06
   2.185523e+05  -2.501062e+05
  -4.150049e+04   1.182370e+06
  -8.772342e+05   9.997776e+05
  -9.805058e+05  -8.818517e+05
   3.172719e+05  -1.996045e+06
   1.813671e+06  -6.047629e+05
   1.698622e+06   1.858596e+06
  -2.248115e+05   2.613824e+06
  -2.245303e+06   9.562876e+05
  -2.575375e+06  -1.254946e+06
  -1.011305e+06  -2.053762e+06
   1.092481e+06  -1.209786e+06
   2.048224e+06   2.086691e+05
   1.173806e+06   1.075532e+06
  -6.022451e+05   8.772525e+05
  -1.524931e+06  -6.185459e+04
  -8.042904e+05  -7.620017e+05
   4.850785e+05  -5.072292e+05
   7.237118e+05   2.743981e+05
  -2.160558e+05   4.990645e+05
  -8.916200e+05  -1.617558e+05
  -2.424503e+05  -8.889044e+05
   1.097056e+06  -8.176941e+05
   1.696093e+06   3.676657e+04
   9.546970e+05   1.095219e+06
  -5.380663e+05   1.823850e+06
  -1.802994e+06   1.763369e+06
  -2.172167e+06   6.282447e+05
  -1.531575e+06  -1.096675e+06
  -3.896821e+05  -2.162094e+06
   4.128125e+05  -1.806722e+06
   4.664746e+05  -7.286401e+05
   2.179990e+05  -2.035694e+05
   3.524529e+05  -4.454276e+05
   8.759983e+05  -5.210669e+05
   1.143898e+06   1.549289e+05
   7.175677e+05   9.651780e+05
  -1.428671e+05   9.600795e+05
  -8.036634e+05   6.192965e+04
  -7.781814e+05  -9.260428e+05
   1.838509e+03  -1.200606e+06
   1.069295e+06  -5.843274e+05
   1.596138e+06   4.768530e+05
   1.094277e+06   1.273955e+06
   2.692152e+04   1.351157e+06
  -6.450106e+05   8.854445e+05
  -6.271845e+05   4.673543e+05
  -5.925292e+05   3.963631e+05
  -1.113449e+06   3.499918e+05
  -1.721754e+06  -1.252490e+05
  -1.460953e+06  -9.739710e+05
  -1.701834e+05  -1.648743e+06
   1.222933e+06  -1.638781e+06
   1.683584e+06  -8.720558e+05
   1.049490e+06   2.240374e+05
   3.397023e+04   9.291190e+05
  -4.941912e+05   7.454633e+05
  -2.134038e+05  -4.388622e+04
   4.441055e+05  -5.307754e+05
   7.272779e+05  -1.902382e+05
   3.405512e+05   4.413255e+05
  -2.223961e+05   4.645148e+05
  -2.565565e+05  -1.344054e+05
   2.974889e+05  -4.261237e+05
   7.809571e+05   2.033034e+05
   5.835979e+05   1.206591e+06
  -2.407278e+05   1.535713e+06
  -1.128302e+06   8.322834e+05
  -1.519480e+06  -3.187475e+05
  -1.177492e+06  -1.100791e+06
  -3.029799e+05  -1.142080e+06
   5.052244e+05  -6.362964e+05
   6.605591e+05  -1.027972e+05
   2.020990e+05   7.199408e+03
  -1.667513e+05  -2.941482e+05
   1.060204e+05  -5.242043e+05
   7.024895e+05  -2.785357e+05
   8.208880e+05   2.572322e+05
   2.195725e+05   5.246266e+05
  -4.474423e+05   2.777559e+05
  -4.163212e+05  -1.579581e+05
   3.024583e+05  -3.060398e+05
   9.596355e+05  -1.243763e+04
   8.566808e+05   5.097041e+05
   3.225577e+03   8.861413e+05
  -9.131026e+05   7.911333e+05
  -1.136967e+06   1.982293e+05
  -5.217602e+05  -4.586514e+05
   3.163219e+05  -5.912910e+05
   5.793100e+05  -1.058845e+05
   8.159504e+04   4.065679e+05
  -5.884388e+05   3.271144e+05
  -7.240381e+05  -2.515379e+05
  -2.242098e+05  -6.599736e+05
   3.832378e+05  -4.722518e+05
   5.349014e+05   3.946320e+04
   1.617230e+05   2.940306e+05
  -2.957990e+05   5.097413e+04
  -3.135424e+05  -4.033440e+05
   2.125444e+05  -5.853220e+05
   8.093015e+05  -2.525733e+05
   8.459366e+05   3.871392e+05
   2.064880e+05   8.285098e+05
  -5.289959e+05   7.046344e+05
  -6.914912e+05   1.468479e+05
  -2.455478e+05  -3.317598e+05
   2.383745e+05  -3.563218e+05
   2.825060e+05  -4.382088e+04
  -1.854028e+04   1.974047e+05
  -2.346065e+05   1.450513e+05
  -1.279948e+05  -3.853576e+04
   1.472239e+05  -4.703648e+04
   2.527069e+05   2.084063e+05
  -1.618690e+04   4.816328e+05
  -5.284030e+05   4.111027e+05
  -8.603687e+05  -1.102889e+05
  -6.436894e+05  -7.549500e+05
   3.036322e+04  -1.006120e+06
   6.333835e+05  -6.531551e+05
   7.313983e+05  -1.681359e+04
   4.267869e+05   3.800037e+05
   1.616829e+05   3.406998e+05
   1.576091e+05   1.276124e+05
   2.139760e+05   9.318310e+04
   4.948177e+04   2.773723e+05
  -3.203271e+05   4.006404e+05
  -5.963470e+05   1.964640e+05
  -4.860589e+05  -2.803724e+05
   4.250921e+04  -6.481330e+05
   6.849761e+05  -5.132439e+05
   9.513822e+05   1.343797e+05
   5.418576e+05   8.249181e+05
  -3.163323e+05   9.921562e+05
  -9.874385e+05   5.142067e+05
  -1.000506e+06  -1.699198e+05
  -4.843703e+05  -5.243058e+05
   2.993686e+04  -4.440984e+05
   1.838136e+05  -2.649037e+05
   7.898782e+04  -3.035595e+05
   4.193039e+04  -4.971358e+05
   2.315784e+05  -5.141691e+05
   5.015477e+05  -1.524113e+05
   5.646302e+05   4.146326e+05
   2.685199e+05   7.660129e+05
  -2.263855e+05   6.043137e+05
  -5.317249e+05   3.842103e+04
  -3.761006e+05  -4.875819e+05
   9.480025e+04  -5.793469e+05
   4.312562e+05  -2.325378e+05
   3.462482e+05   2.088471e+05
   1.589200e+04   4.127481e+05
  -1.511166e+05   3.416300e+05
  -4.800509e+03   1.933136e+05
   1.763920e+05   1.381477e+05
   2.767985e+04   1.603578e+05
  -4.488148e+05   1.209574e+05
  -8.300879e+05  -7.545028e+04
  -6.882758e+05  -3.688088e+05
  -5.018055e+04  -5.666467e+05
   5.877973e+05  -4.965275e+05
   7.317749e+05  -1.809629e+05
   3.660827e+05   1.417589e+05
  -7.658799e+04   2.209289e+05
  -1.984734e+05   4.321777e+04
  -1.089683e+04  -1.473903e+05
   1.884404e+05  -1.092070e+05
   2.009755e+05   1.294747e+05
   9.124149e+04   2.985549e+05
   2.279520e+04   1.957102e+05
   5.807565e+04  -6.277166e+04
   1.314115e+05  -1.516458e+05
   1.245760e+05   8.581045e+04
  -4.944938e+04   4.184126e+05
  -3.422907e+05   4.536073e+05
  -5.199225e+05   8.559853e+04
  -3.370447e+05  -3.554816e+05
   1.426802e+05  -4.501862e+05
   4.878733e+05  -1.407478e+05
   3.102348e+05   2.272398e+05
  -2.656034e+05   2.894436e+05
  -6.688050e+05   1.467516e+04
  -4.734893e+05  -3.243670e+05
   1.475959e+05  -4.436275e+05
   6.144480e+05  -2.736781e+05
   5.391419e+05   2.846137e+04
   8.233037e+04   2.158579e+05
  -2.580265e+05   1.402656e+05
  -1.562594e+05  -1.026700e+05
   2.413476e+05  -2.148042e+05
   4.857967e+05   2.616651e+04
   2.787949e+05   4.806639e+05
  -2.322379e+05   7.041016e+05
  -6.047309e+05   3.809069e+05
  -5.345127e+05  -2.938671e+05
  -1.213931e+05  -7.421933e+05
   2.773098e+05  -5.672337e+05
   3.928997e+05   3.479850e+04
   2.241611e+05   4.818777e+05
  -4.662955e+04   4.201301e+05
  -2.246098e+05   5.769967e+04
  -2.178809e+05  -1.500568e+05
  -8.849121e+04  -5.970401e+04
  -1.128764e+04   4.648403e+04
  -9.779830e+04  -1.023593e+05
  -2.243254e+05  -3.825974e+05
  -1.254835e+05  -4.472892e+05
   2.625289e+05  -1.853822e+05
   6.255189e+05   1.590149e+05
   5.699947e+05   3.177428e+05
   9.564130e+04   2.810304e+05
  -3.608067e+05   1.908330e+05
  -4.102984e+05   1.047027e+05
  -1.368636e+05  -2.665363e+03
   6.153982e+04  -9.469435e+04
  -9.352046e+03  -9.675428e+04
  -1.322741e+05  -4.551938e+04
  -1.573006e+04  -5.489279e+04
   2.904094e+05  -1.035854e+05
   4.303742e+05  -1.263065e+04
   1.645908e+05   2.716569e+05
  -3.405099e+05   4.926652e+05
  -6.715617e+05   3.365953e+05
  -5.677026e+05  -1.570063e+05
  -1.370235e+05  -5.785057e+05
   2.809448e+05  -5.796485e+05
   4.209678e+05  -2.324979e+05
   2.784742e+05   9.266959e+04
   5.482630e+04   1.444644e+05
  -4.387688e+04   1.659486e+04
   2.766457e+04  -2.225249e+04
   1.417813e+05   1.400779e+05
   1.278965e+05   3.290765e+05
  -6.266268e+04   2.804870e+05
  -2.872678e+05  -4.769488e+04
  -3.149665e+05  -3.884732e+05
  -5.088124e+04  -4.205749e+05
   3.154929e+05  -1.014140e+05
   4.371432e+05   2.903039e+05
   1.568873e+05   4.409012e+05
  -2.816756e+05   2.828656e+05
  -4.550584e+05  -1.042739e+04
  -2.241260e+05  -2.288184e+05
   1.013807e+05  -2.709705e+05
   1.341763e+05  -1.575990e+05
  -1.176266e+05  -5.181887e+03
  -2.715629e+05   2.796501e+04
  -6.229966e+04  -1.207061e+05
   3.262034e+05  -3.011444e+05
   4.959509e+05  -2.638193e+05
   3.043700e+05   4.319835e+04
  -2.140696e+04   3.551944e+05
  -1.952644e+05   3.607111e+05
  -1.563360e+05   6.631232e+04
  -2.443969e+04  -2.026032e+05
   9.147915e+04  -1.768624e+05
   1.488015e+05   6.647045e+04
   1.157363e+05   2.333016e+05
  -1.507725e+04   1.651594e+05
  -1.615863e+05  -1.559256e+04
  -1.986877e+05  -9.561253e+04
  -1.027790e+05  -2.598215e+04
   1.141945e+04   5.024868e+04
   3.637993e+04  -5.830907e+03
   6.410725e+03  -1.532096e+05
   3.378126e+04  -2.119227e+05
   1.337225e+05  -7.242036e+04
   1.789877e+05   1.611783e+05
   5.543920e+04   2.646541e+05
  -1.679916e+05   1.320573e+05
  -2.713104e+05  -1.088558e+05
  -1.105361e+05  -2.362000e+05
   1.974341e+05  -1.606928e+05
   3.581320e+05   1.689686e+04
   2.024262e+05   1.454057e+05
  -1.117499e+05   1.620536e+05
  -2.545480e+05   9.665897e+04
  -9.263258e+04   1.182183e+04
   1.551229e+05  -2.440530e+04
   1.744250e+05   3.220550e+04
  -7.528640e+04   1.319602e+05
  -3.202251e+05   1.269089e+05
