
 $NMID
 id='ANONYMOUS ', fmtdat='(2E16.6)'
 volume=1.0
 tramp=1.0
 $END
   5.419478e+07   6.894628e+05
   3.223237e+07   3.385595e+07
  -7.516757e+06   3.655726e+07
  -2.668507e+07   1.389681e+07
  -1.584083e+07  -6.807787e+06
   3.227675e+06  -8.955248e+06
   9.474181e+06   1.198151e+06
   2.647184e+06   9.428166e+06
  -6.028714e+06   9.010882e+06
  -9.328335e+06   1.881284e+06
  -6.687869e+06  -6.070156e+06
  -6.853150e+05  -8.337635e+06
   3.896758e+06  -2.588432e+06
   2.491580e+06   5.335317e+06
  -3.699129e+06   6.332955e+06
  -7.586126e+06  -1.345591e+06
  -4.191356e+06  -9.889297e+06
   3.763475e+06  -1.134186e+07
   9.804322e+06  -5.574593e+06
   1.037853e+07   2.119814e+06
   6.255989e+06   7.286988e+06
   5.464712e+05   8.294097e+06
  -2.830925e+06   5.755524e+06
  -1.728576e+06   2.601518e+06
   1.095544e+06   2.181727e+06
   1.670644e+05   4.102773e+06
  -5.342461e+06   4.180359e+06
  -9.388845e+06   3.237237e+05
  -6.752640e+06  -4.102390e+06
  -1.324785e+05  -4.891502e+06
   3.679497e+06  -2.404131e+06
   2.391120e+06   7.900725e+04
  -6.754683e+05   9.506336e+05
  -2.301440e+06   4.303316e+05
  -2.125123e+06  -1.485018e+06
  -5.771708e+05  -3.860095e+06
   1.811568e+06  -3.684043e+06
   3.079647e+06   1.801339e+05
   1.558178e+06   3.522965e+06
  -7.706657e+05   1.787559e+06
  -2.672755e+05  -2.438491e+06
   2.425264e+06  -2.226679e+06
   2.344448e+06   3.099132e+06
  -2.363835e+06   5.887923e+06
  -6.654566e+06   9.186380e+05
  -4.841285e+06  -6.703983e+06
   1.914569e+06  -8.179674e+06
   7.182061e+06  -2.245603e+06
   6.694348e+06   4.379364e+06
   1.752282e+06   5.874900e+06
  -3.399364e+06   2.618150e+06
  -5.115768e+06  -1.516416e+06
  -2.350687e+06  -3.404584e+06
   2.341576e+06  -2.113103e+06
   4.369803e+06   9.261324e+05
   1.869368e+06   2.641631e+06
  -1.669927e+06   1.307356e+06
  -1.692112e+06  -1.012987e+06
   1.257993e+06  -9.041880e+05
   2.385333e+06   1.663865e+06
  -5.691807e+05   3.279120e+06
  -4.430007e+06   1.802988e+06
  -5.097768e+06  -1.323833e+06
  -2.211062e+06  -3.845450e+06
   1.819677e+06  -5.075296e+06
   4.948281e+06  -4.627614e+06
   6.039373e+06  -1.596228e+06
   4.382375e+06   3.136689e+06
   8.253518e+05   6.007002e+06
  -1.846736e+06   4.626900e+06
  -1.711048e+06   1.211132e+06
  -1.880772e+05  -1.991575e+05
  -5.259284e+04   9.654897e+05
  -1.641141e+06   1.692004e+06
  -2.765466e+06   1.451317e+05
  -1.941422e+06  -1.962318e+06
   3.801524e+04  -2.125186e+06
   1.562603e+06  -1.712769e+05
   1.632948e+06   2.086753e+06
  -4.670204e+04   2.888910e+06
  -2.737108e+06   1.565842e+06
  -4.335457e+06  -1.241034e+06
  -3.067326e+06  -3.700436e+06
   9.542639e+04  -4.089229e+06
   2.230809e+06  -2.597275e+06
   2.165284e+06  -1.084656e+06
   1.790656e+06  -6.624435e+05
   2.892961e+06  -4.475682e+05
   4.263483e+06   7.952035e+05
   3.393611e+06   2.762902e+06
   7.385735e+04   4.066919e+06
  -3.218098e+06   3.797417e+06
  -4.150409e+06   2.019159e+06
  -2.606947e+06  -4.692639e+05
  -2.208973e+05  -2.211420e+06
   1.125936e+06  -1.882186e+06
   5.531365e+05   4.935681e+04
  -1.097349e+06   1.273620e+06
  -1.883527e+06   3.651072e+05
  -8.849731e+05  -1.198610e+06
   5.328846e+05  -1.092938e+06
   4.283938e+05   3.907112e+05
  -1.049136e+06   6.919747e+05
  -1.819320e+06  -1.259997e+06
  -6.223078e+05  -3.428645e+06
   1.579960e+06  -3.364195e+06
   3.105775e+06  -1.093813e+06
   3.265287e+06   1.453922e+06
   2.226494e+06   2.767308e+06
   4.133004e+05   2.596723e+06
  -1.252315e+06   1.428806e+06
  -1.565487e+06   1.982957e+05
  -4.868736e+05  -5.295300e+04
   3.434536e+05   7.497374e+05
  -4.266060e+05   1.319147e+06
  -1.892102e+06   5.446085e+05
  -1.998823e+06  -9.054560e+05
  -3.624098e+05  -1.406579e+06
   1.169271e+06  -5.490033e+05
   8.764772e+05   4.660452e+05
  -8.489926e+05   5.069322e+05
  -2.159950e+06  -3.481514e+05
  -1.711657e+06  -1.373925e+06
   2.766492e+05  -1.953009e+06
   2.314353e+06  -1.603992e+06
   2.752559e+06  -2.273543e+05
   1.186121e+06   1.271578e+06
  -9.322507e+05   1.472236e+06
  -1.546202e+06   1.642772e+05
  -1.819417e+05  -1.072284e+06
   1.514337e+06  -7.064180e+05
   1.691563e+06   8.020357e+05
   3.086666e+05   1.644684e+06
  -1.099141e+06   9.521788e+05
  -1.243099e+06  -3.298011e+05
  -2.315797e+05  -7.801290e+05
   7.909781e+05  -4.237958e+04
   7.142824e+05   1.056092e+06
  -5.931303e+05   1.403424e+06
  -1.999415e+06   5.070715e+05
  -2.002561e+06  -1.073060e+06
  -3.481364e+05  -2.064071e+06
   1.454843e+06  -1.606954e+06
   1.716349e+06  -1.803607e+05
   4.839334e+05   8.707710e+05
  -6.671069e+05   7.863407e+05
  -6.293867e+05   6.502789e+04
   1.247451e+05  -3.557968e+05
   4.914256e+05  -1.975600e+05
   1.194262e+05   6.843227e+04
  -4.448781e+05  -8.340613e+04
  -5.030374e+05  -6.759135e+05
   2.247387e+05  -1.174484e+06
   1.385764e+06  -8.654723e+05
   2.057934e+06   4.442144e+05
   1.422209e+06   1.950762e+06
  -2.534009e+05   2.397076e+06
  -1.624609e+06   1.373724e+06
  -1.672834e+06  -1.536833e+05
  -8.337656e+05  -9.029833e+05
  -3.019440e+05  -6.500982e+05
  -4.692319e+05  -2.232029e+05
  -6.179097e+05  -3.198505e+05
  -7.868900e+04  -7.595863e+05
   8.838759e+05  -8.788739e+05
   1.441022e+06  -2.972438e+05
   1.027142e+06   7.334402e+05
  -2.733432e+05   1.441855e+06
  -1.724671e+06   1.034161e+06
  -2.220310e+06  -5.160446e+05
  -1.089450e+06  -2.101121e+06
   1.040534e+06  -2.330232e+06
   2.539085e+06  -9.811672e+05
   2.320197e+06   6.936974e+05
   9.237572e+05   1.343942e+06
  -2.218362e+05   9.328343e+05
  -3.935211e+05   4.970432e+05
  -8.672031e+04   7.445202e+05
  -1.208161e+05   1.295176e+06
  -6.846714e+05   1.268542e+06
  -1.288305e+06   2.967670e+05
  -1.310155e+06  -1.091228e+06
  -5.233269e+05  -1.886734e+06
   6.382303e+05  -1.415403e+06
   1.274540e+06   2.271779e+04
   7.849665e+05   1.286451e+06
  -4.107689e+05   1.378743e+06
  -1.161761e+06   3.822995e+05
  -7.944283e+05  -7.072765e+05
   1.407267e+05  -1.066952e+06
   5.472894e+05  -7.674440e+05
   9.250026e+04  -4.101667e+05
  -4.250841e+05  -3.384340e+05
  -5.404366e+04  -3.804724e+05
   1.143458e+06  -1.904101e+05
   2.042446e+06   3.613617e+05
   1.587944e+06   1.053966e+06
  -6.158202e+04   1.424599e+06
  -1.596021e+06   1.108300e+06
  -1.821862e+06   2.455178e+05
  -8.187204e+05  -5.066742e+05
   2.686423e+05  -5.622978e+05
   5.091678e+05  -2.421535e+04
   2.595597e+04   4.203702e+05
  -4.412477e+05   2.506345e+05
  -4.733997e+05  -3.457275e+05
  -2.452918e+05  -7.188496e+05
  -9.257665e+04  -4.758264e+05
  -1.373931e+05   8.885350e+04
  -2.781262e+05   2.816764e+05
  -2.688199e+05  -2.349973e+05
   1.519405e+05  -9.742821e+05
   9.068475e+05  -1.045598e+06
   1.358911e+06  -1.590843e+05
   8.390292e+05   9.178263e+05
  -4.267212e+05   1.129710e+06
  -1.255568e+06   3.238766e+05
  -7.210432e+05  -5.760690e+05
   7.073909e+05  -6.319460e+05
   1.571173e+06   1.222217e+05
   9.757769e+05   8.733751e+05
  -5.020417e+05   9.683139e+05
  -1.492107e+06   4.420994e+05
  -1.213516e+06  -2.136106e+05
  -1.213577e+05  -5.102981e+05
   6.494776e+05  -2.537045e+05
   3.802180e+05   2.997839e+05
  -5.827059e+05   5.155560e+05
  -1.174301e+06  -8.698897e+04
  -6.622094e+05  -1.176164e+06
   5.928978e+05  -1.688124e+06
   1.477294e+06  -8.708310e+05
   1.239343e+06   7.615608e+05
   1.824817e+05   1.778400e+06
  -7.502785e+05   1.269628e+06
  -9.141021e+05  -1.946370e+05
  -4.046576e+05  -1.189748e+06
   2.416334e+05  -9.526820e+05
   5.625713e+05  -7.144537e+04
   4.491840e+05   3.783987e+05
   1.506246e+05   1.351912e+05
   5.333754e+04  -9.088151e+04
   2.890521e+05   3.035913e+05
   5.003007e+05   9.683813e+05
   1.639005e+05   1.070450e+06
  -7.289315e+05   3.811585e+05
  -1.456691e+06  -4.780856e+05
  -1.248427e+06  -8.453116e+05
  -1.741012e+05  -6.984162e+05
   8.398738e+05  -4.087438e+05
   9.745947e+05  -1.656674e+05
   3.679853e+05   6.410365e+04
  -1.419043e+05   2.240701e+05
  -5.261011e+04   1.955146e+05
   2.458098e+05   8.702595e+04
   5.580135e+04   1.317978e+05
  -6.411138e+05   2.361084e+05
  -1.042576e+06  -1.397183e+04
  -4.511303e+05  -6.947357e+05
   8.279635e+05  -1.176140e+06
   1.707521e+06  -7.536683e+05
   1.423400e+06   4.278674e+05
   2.721753e+05   1.396640e+06
  -7.765736e+05   1.369127e+06
  -1.047564e+06   5.419731e+05
  -6.477924e+05  -2.238678e+05
  -1.394571e+05  -3.576778e+05
   5.358907e+04  -7.770051e+04
  -8.692782e+04   2.613275e+03
  -2.871129e+05  -3.733920e+05
  -2.329036e+05  -8.052087e+05
   1.776923e+05  -6.791002e+05
   6.731723e+05   1.090717e+05
   7.440141e+05   9.354553e+05
   1.348200e+05   1.029156e+06
  -7.372130e+05   2.650282e+05
  -1.034514e+06  -7.004772e+05
  -3.574854e+05  -1.086189e+06
   7.080701e+05  -6.879757e+05
   1.123224e+06   7.145865e+04
   5.389361e+05   6.258083e+05
  -2.894007e+05   6.934236e+05
  -3.964276e+05   3.691042e+05
   2.263681e+05   1.679729e+03
   6.409844e+05  -4.060225e+04
   1.518392e+05   3.108524e+05
  -8.232499e+05   6.697773e+05
  -1.271399e+06   5.175856e+05
  -7.776399e+05  -1.952350e+05
   9.660124e+04  -8.726567e+05
   5.697742e+05  -8.581648e+05
   4.447075e+05  -1.745653e+05
   6.366509e+04   4.683636e+05
  -2.350284e+05   4.441349e+05
  -3.491690e+05  -1.281247e+05
  -2.549033e+05  -5.740685e+05
   4.820950e+04  -4.425351e+05
   3.899143e+05   3.647274e+04
   4.792555e+05   2.934255e+05
   2.410843e+05   1.083598e+05
  -4.346092e+04  -1.647043e+05
  -8.203906e+04  -7.463121e+04
   3.881259e+04   3.395917e+05
  -1.185585e+04   5.694386e+05
  -3.056264e+05   2.533705e+05
  -4.824428e+05  -3.543495e+05
  -1.911918e+05  -6.419162e+05
   3.961657e+05  -3.230979e+05
   6.748423e+05   2.647348e+05
   2.632803e+05   5.625688e+05
  -5.110976e+05   3.667163e+05
  -8.906125e+05  -6.583244e+04
  -4.829955e+05  -3.752230e+05
   2.923866e+05  -4.139296e+05
   6.417223e+05  -2.462788e+05
   2.656071e+05  -2.148864e+04
  -3.217613e+05   8.553241e+04
  -3.969895e+05  -3.940917e+04
   1.478795e+05  -2.761919e+05
   7.082667e+05  -2.722724e+05
