
 $NMID
 id='ANONYMOUS ', fmtdat='(2E16.6)'
 volume=1.0
 tramp=1.0
 $END
   3.886714e+07   5.523514e+04
   2.499070e+07   2.149791e+07
  -2.595233e+06   2.584371e+07
  -1.838466e+07   1.325707e+07
  -1.314280e+07  -1.892722e+06
   7.677483e+05  -6.905384e+06
   7.589392e+06  -1.190973e+06
   3.904168e+06   6.756048e+06
  -3.368305e+06   8.677105e+06
  -7.193314e+06   3.002550e+06
  -5.515409e+06  -4.739600e+06
  -5.530601e+05  -7.043426e+06
   3.224569e+06  -1.746239e+06
   2.199241e+06   5.299266e+06
  -2.677880e+06   6.231132e+06
  -6.098740e+06  -1.817955e+05
  -3.917312e+06  -7.487700e+06
   2.302276e+06  -9.007955e+06
   7.270342e+06  -4.344329e+06
   7.498636e+06   1.831997e+06
   3.910253e+06   5.242161e+06
   8.158040e+04   5.099974e+06
  -9.944484e+05   3.403092e+06
   6.688262e+05   2.666199e+06
   1.853999e+06   3.686444e+06
  -6.694633e+05   4.656515e+06
  -5.833029e+06   3.103843e+06
  -8.457587e+06  -8.155151e+05
  -5.173939e+06  -3.951078e+06
   1.027053e+06  -3.714495e+06
   4.046738e+06  -9.541596e+05
   1.748147e+06   1.433535e+06
  -2.282669e+06   1.622735e+06
  -3.712954e+06  -2.259634e+05
  -1.954342e+06  -2.790452e+06
   6.386165e+05  -4.086089e+06
   1.950884e+06  -2.502569e+06
   1.503489e+06   9.396532e+05
   1.552681e+05   2.517096e+06
  -4.868665e+05   1.388061e+05
   6.373637e+05  -3.085233e+06
   2.421058e+06  -2.308331e+06
   2.226782e+06   2.172315e+06
  -8.146088e+05   4.583052e+06
  -3.943355e+06   1.226567e+06
  -3.485923e+06  -4.374564e+06
   8.339863e+05  -5.866412e+06
   5.307168e+06  -1.772010e+06
   5.939333e+06   3.472160e+06
   2.163438e+06   5.176434e+06
  -2.863589e+06   2.823224e+06
  -5.049018e+06  -8.079207e+05
  -2.811973e+06  -2.796629e+06
   1.461231e+06  -2.039937e+06
   3.581469e+06   3.317758e+05
   1.833964e+06   1.872353e+06
  -1.189771e+06   1.101984e+06
  -1.759337e+06  -7.922916e+05
   4.458307e+05  -1.316823e+06
   2.150629e+06   2.203643e+05
   7.868931e+05   1.941383e+06
  -2.378333e+06   1.834662e+06
  -3.935117e+06  -1.455656e+05
  -2.130822e+06  -2.624450e+06
   1.718964e+06  -4.187702e+06
   4.861403e+06  -3.742067e+06
   5.363215e+06  -8.857366e+05
   3.265696e+06   3.036534e+06
   3.621985e+05   5.268541e+06
  -1.292107e+06   4.342246e+06
  -1.213671e+06   1.908383e+06
  -7.676224e+05   6.833972e+05
  -1.327567e+06   1.009997e+06
  -2.521066e+06   8.416905e+05
  -2.792842e+06  -9.491848e+05
  -1.393191e+06  -2.773759e+06
   7.865356e+05  -2.412568e+06
   2.166018e+06   1.302905e+05
   1.731539e+06   2.634960e+06
  -3.757605e+05   3.012004e+06
  -2.803973e+06   1.071086e+06
  -3.679203e+06  -1.654478e+06
  -2.211511e+06  -3.301921e+06
   2.698881e+05  -3.107661e+06
   1.639232e+06  -1.881167e+06
   1.492591e+06  -1.018815e+06
   1.499312e+06  -9.269823e+05
   2.851782e+06  -6.703351e+05
   4.264560e+06   6.886108e+05
   3.418790e+06   2.772745e+06
   1.966653e+04   4.174609e+06
  -3.509419e+06   3.785536e+06
  -4.476785e+06   1.679939e+06
  -2.527832e+06  -9.213614e+05
   2.665076e+05  -2.344287e+06
   1.496381e+06  -1.676497e+06
   5.004510e+05   1.956886e+05
  -1.275373e+06   1.188349e+06
  -1.838584e+06   2.812422e+05
  -6.930913e+05  -1.162278e+06
   7.061866e+05  -1.098800e+06
   6.663746e+05   4.047861e+05
  -7.807572e+05   1.104541e+06
  -1.949460e+06  -4.919972e+05
  -1.380235e+06  -3.064822e+06
   7.535794e+05  -3.941523e+06
   3.001916e+06  -2.070813e+06
   3.886557e+06   1.059015e+06
   2.827635e+06   3.127271e+06
   4.997075e+05   3.034709e+06
  -1.465338e+06   1.474916e+06
  -1.702097e+06   6.352435e+04
  -5.066771e+05  -6.912718e+04
   3.446541e+05   7.794393e+05
  -3.724132e+05   1.266404e+06
  -1.784890e+06   5.244206e+05
  -1.978111e+06  -8.059659e+05
  -4.453702e+05  -1.339083e+06
   1.183498e+06  -5.946712e+05
   1.038348e+06   5.078811e+05
  -8.295920e+05   7.567383e+05
  -2.486048e+06  -1.530047e+05
  -2.118038e+06  -1.521333e+06
   1.853221e+05  -2.303276e+06
   2.519746e+06  -1.804078e+06
   2.922973e+06  -2.220513e+05
   1.194013e+06   1.260339e+06
  -9.197955e+05   1.370447e+06
  -1.435322e+06   1.186539e+05
  -8.161454e+04  -1.011511e+06
   1.550193e+06  -6.626372e+05
   1.761611e+06   7.965247e+05
   4.347373e+05   1.716835e+06
  -1.057340e+06   1.133462e+06
  -1.352885e+06  -1.895959e+05
  -3.678025e+05  -7.683468e+05
   7.347178e+05  -5.997552e+04
   6.724648e+05   1.088734e+06
  -6.976522e+05   1.406974e+06
  -2.102046e+06   4.094988e+05
  -2.017513e+06  -1.197394e+06
  -3.072187e+05  -2.128205e+06
   1.493350e+06  -1.638076e+06
   1.770438e+06  -2.114762e+05
   5.498099e+05   8.876004e+05
  -6.819823e+05   8.442207e+05
  -7.400103e+05   3.019489e+04
   9.054128e+04  -5.342995e+05
   6.705762e+05  -3.364758e+05
   3.740170e+05   1.576581e+05
  -3.644821e+05   1.452653e+05
  -6.149617e+05  -5.493371e+05
   1.294612e+05  -1.209770e+06
   1.426505e+06  -9.123416e+05
   2.139169e+06   4.921194e+05
   1.424966e+06   2.062628e+06
  -3.364924e+05   2.534019e+06
  -1.772906e+06   1.511593e+06
  -1.881661e+06  -1.267271e+05
  -1.019272e+06  -1.102322e+06
  -3.222348e+05  -9.705258e+05
  -3.212156e+05  -3.972386e+05
  -4.768257e+05  -2.661276e+05
  -5.437972e+04  -6.845325e+05
   8.983801e+05  -9.413364e+05
   1.570296e+06  -3.651950e+05
   1.186977e+06   8.476761e+05
  -2.599453e+05   1.666292e+06
  -1.870072e+06   1.144520e+06
  -2.381137e+06  -5.793002e+05
  -1.175841e+06  -2.215740e+06
   1.019097e+06  -2.422522e+06
   2.599589e+06  -1.070748e+06
   2.500847e+06   6.517480e+05
   1.136331e+06   1.453171e+06
  -1.709086e+05   1.159539e+06
  -5.696530e+05   6.539123e+05
  -3.312443e+05   7.284165e+05
  -2.533598e+05   1.201859e+06
  -7.005986e+05   1.211816e+06
  -1.283387e+06   2.497869e+05
  -1.306308e+06  -1.192283e+06
  -4.733192e+05  -2.000463e+06
   7.316086e+05  -1.462579e+06
   1.354205e+06   3.468464e+04
   8.344475e+05   1.311481e+06
  -3.612742e+05   1.437852e+06
  -1.122295e+06   5.121162e+05
  -8.248019e+05  -5.668554e+05
   2.770364e+04  -1.024105e+06
   4.283499e+05  -8.359417e+05
   4.795158e+04  -5.059166e+05
  -4.002711e+05  -4.016237e+05
  -2.306338e+04  -4.150799e+05
   1.149696e+06  -1.982331e+05
   2.055121e+06   3.917499e+05
   1.641989e+06   1.093019e+06
   8.872926e+03   1.426290e+06
  -1.577591e+06   1.096310e+06
  -1.882822e+06   2.882627e+05
  -9.018489e+05  -4.189160e+05
   2.330628e+05  -5.238434e+05
   5.052363e+05  -7.394219e+04
  -1.605829e+04   3.522285e+05
  -5.125866e+05   2.193807e+05
  -4.693542e+05  -3.776044e+05
  -1.264089e+05  -7.786131e+05
   1.740102e+04  -4.960612e+05
  -1.694608e+05   1.610196e+05
  -3.959110e+05   3.661495e+05
  -2.985601e+05  -2.484835e+05
   2.480379e+05  -1.050263e+06
   9.802319e+05  -1.050427e+06
   1.300915e+06  -6.860948e+04
   7.270991e+05   9.796860e+05
  -4.725537e+05   1.074033e+06
  -1.244685e+06   2.067883e+05
  -7.177169e+05  -6.609373e+05
   7.388622e+05  -6.679132e+05
   1.705094e+06   1.233964e+05
   1.146636e+06   9.407714e+05
  -4.658541e+05   1.107997e+06
  -1.635519e+06   5.666855e+05
  -1.380373e+06  -1.972569e+05
  -1.638760e+05  -5.748135e+05
   6.866305e+05  -2.994536e+05
   3.600950e+05   2.901618e+05
  -6.750257e+05   4.633670e+05
  -1.212017e+06  -2.126073e+05
  -5.513788e+05  -1.290970e+06
   7.964386e+05  -1.699595e+06
   1.635461e+06  -7.818703e+05
   1.268366e+06   8.917202e+05
   1.063454e+05   1.911107e+06
  -8.529472e+05   1.373318e+06
  -9.915243e+05  -1.762628e+05
  -4.566876e+05  -1.277825e+06
   2.099526e+05  -1.065735e+06
   5.784681e+05  -9.667403e+04
   5.258159e+05   4.438381e+05
   2.237716e+05   1.834888e+05
   3.489201e+04  -1.211325e+05
   1.971949e+05   2.674130e+05
   4.571395e+05   1.018476e+06
   2.193661e+05   1.170996e+06
  -6.885501e+05   4.077748e+05
  -1.541779e+06  -5.680952e+05
  -1.376494e+06  -9.572358e+05
  -1.709387e+05  -7.318069e+05
   9.791189e+05  -3.813834e+05
   1.072342e+06  -1.614384e+05
   3.325256e+05   2.943330e+04
  -1.867277e+05   2.194560e+05
   1.699904e+04   2.614989e+05
   3.417008e+05   1.670678e+05
   1.574969e+04   1.428971e+05
  -7.832625e+05   1.704656e+05
  -1.085390e+06  -9.018249e+04
  -3.104222e+05  -7.196940e+05
   1.010078e+06  -1.133867e+06
   1.766730e+06  -6.550997e+05
   1.360253e+06   5.562118e+05
   1.803250e+05   1.498764e+06
  -8.580481e+05   1.380638e+06
  -1.121838e+06   4.578335e+05
  -6.783415e+05  -3.224393e+05
  -8.946767e+04  -3.773123e+05
   1.318805e+05  -1.321100e+04
  -7.170062e+04   6.498262e+04
  -3.313235e+05  -3.872176e+05
  -2.421675e+05  -8.663005e+05
   2.377975e+05  -6.845311e+05
   7.127785e+05   2.141337e+05
   6.728134e+05   1.077054e+06
  -9.264094e+03   1.067194e+06
  -8.318912e+05   1.469203e+05
  -1.012774e+06  -8.686111e+05
  -2.621378e+05  -1.150689e+06
   7.877467e+05  -6.205164e+05
   1.133259e+06   1.543420e+05
   4.935843e+05   6.216893e+05
  -3.246753e+05   6.369716e+05
  -3.634517e+05   3.593308e+05
   3.127687e+05   5.566194e+04
   6.970448e+05   7.387066e+03
   1.185125e+05   3.164791e+05
  -9.049207e+05   6.732980e+05
  -1.308790e+06   5.477865e+05
  -7.396702e+05  -1.730586e+05
   1.508218e+05  -8.817939e+05
   5.724072e+05  -8.518248e+05
   3.908078e+05  -1.145927e+05
  -5.068838e+03   5.234659e+05
  -2.805661e+05   4.101225e+05
  -3.549973e+05  -2.252739e+05
  -2.253100e+05  -6.200023e+05
   8.476200e+04  -3.958663e+05
   4.008800e+05   9.081538e+04
   4.710127e+05   2.822285e+05
   2.539170e+05   8.279047e+04
  -8.880641e+03  -1.147915e+05
  -9.827749e+04   3.255358e+04
  -8.392980e+04   3.909625e+05
  -1.732736e+05   4.997717e+05
  -3.617582e+05   1.126868e+05
  -3.804248e+05  -4.713877e+05
  -3.630430e+04  -6.793397e+05
   4.668775e+05  -2.767173e+05
   6.404897e+05   3.581754e+05
   2.036518e+05   6.311614e+05
  -5.362219e+05   3.493519e+05
  -8.864280e+05  -1.468205e+05
  -4.650470e+05  -4.215648e+05
   3.237026e+05  -3.647206e+05
   6.603337e+05  -1.586853e+05
   2.225905e+05  -4.323466e+03
  -4.138972e+05   1.190010e+03
  -4.344179e+05  -1.498245e+05
   2.437722e+05  -3.203778e+05
   8.673343e+05  -2.262401e+05
