
 $NMID
 id='ANONYMOUS ', fmtdat='(2E16.6)'
 volume=1.0
 tramp=1.0
 $END
  -3.137753e+07   4.993686e+05
  -1.916762e+07  -1.923323e+07
   3.999548e+06  -2.142184e+07
   1.551834e+07  -8.351176e+06
   9.359649e+06   4.079849e+06
  -1.927686e+06   5.635748e+06
  -5.799579e+06  -4.228863e+05
  -1.835303e+06  -5.609931e+06
   3.421931e+06  -5.565599e+06
   5.562524e+06  -1.257670e+06
   4.061815e+06   3.656115e+06
   3.872624e+05   5.086699e+06
  -2.504341e+06   1.615097e+06
  -1.736905e+06  -3.173298e+06
   2.004774e+06  -3.806671e+06
   4.404074e+06   7.004328e+05
   2.446332e+06   5.660799e+06
  -2.189877e+06   6.433712e+06
  -5.642221e+06   3.076666e+06
  -5.928466e+06  -1.289372e+06
  -3.587067e+06  -4.210498e+06
  -3.213771e+05  -4.826273e+06
   1.717522e+06  -3.370731e+06
   1.167082e+06  -1.422722e+06
  -5.720683e+05  -1.060469e+06
  -2.439922e+05  -2.277935e+06
   2.926511e+06  -2.581021e+06
   5.495457e+06  -4.303800e+05
   4.145994e+06   2.362332e+06
   2.182954e+05   3.102889e+06
  -2.206747e+06   1.692910e+06
  -1.543643e+06   6.075275e+04
   2.904542e+05  -5.994706e+05
   1.264456e+06  -2.875878e+05
   1.125155e+06   8.863343e+05
   2.144260e+05   2.251311e+06
  -1.137990e+06   2.080593e+06
  -1.861388e+06  -2.002732e+05
  -9.810210e+05  -2.129206e+06
   4.296326e+05  -1.099201e+06
   2.299964e+05   1.367538e+06
  -1.339604e+06   1.253438e+06
  -1.414560e+06  -1.843769e+06
   1.252165e+06  -3.501253e+06
   3.856678e+06  -6.680090e+05
   2.988643e+06   3.762652e+06
  -8.794632e+05   4.732181e+06
  -4.053271e+06   1.447621e+06
  -3.913016e+06  -2.340181e+06
  -1.083287e+06  -3.324999e+06
   1.962020e+06  -1.593762e+06
   3.006933e+06   8.104540e+05
   1.369752e+06   2.076450e+06
  -1.446575e+06   1.425912e+06
  -2.679016e+06  -4.698772e+05
  -1.171762e+06  -1.670284e+06
   9.975229e+05  -9.082495e+05
   1.050396e+06   6.127312e+05
  -7.436196e+05   6.499309e+05
  -1.494335e+06  -9.434244e+05
   2.219479e+05  -2.017962e+06
   2.531822e+06  -1.151310e+06
   2.957864e+06   7.478596e+05
   1.287558e+06   2.202865e+06
  -1.009282e+06   2.838998e+06
  -2.756701e+06   2.588520e+06
  -3.392495e+06   9.381990e+05
  -2.515563e+06  -1.748893e+06
  -4.985252e+05  -3.459044e+06
   1.108371e+06  -2.680065e+06
   1.080710e+06  -6.137271e+05
   1.183101e+05   2.809024e+05
  -1.048169e+05  -4.665416e+05
   7.851239e+05  -1.052538e+06
   1.561004e+06  -2.320466e+05
   1.210110e+06   1.066996e+06
   5.443829e+04   1.282096e+06
  -9.308471e+05   1.897702e+05
  -1.033634e+06  -1.168198e+06
  -3.617455e+04  -1.703420e+06
   1.571104e+06  -9.735053e+05
   2.513817e+06   6.588904e+05
   1.775646e+06   2.108776e+06
  -5.066555e+04   2.343587e+06
  -1.274282e+06   1.462837e+06
  -1.225797e+06   5.745493e+05
  -9.882329e+05   3.573857e+05
  -1.588947e+06   2.915133e+05
  -2.367776e+06  -3.793240e+05
  -1.924457e+06  -1.505603e+06
  -1.172729e+05  -2.283695e+06
   1.722075e+06  -2.179611e+06
   2.315729e+06  -1.206813e+06
   1.535764e+06   2.205066e+05
   1.954807e+05   1.277139e+06
  -6.533654e+05   1.133346e+06
  -3.951980e+05  -1.521904e+04
   5.870670e+05  -8.017457e+05
   1.130284e+06  -2.873849e+05
   5.789458e+05   7.068789e+05
  -3.114087e+05   7.252482e+05
  -3.254935e+05  -1.710601e+05
   5.342057e+05  -4.559808e+05
   1.040905e+06   6.179504e+05
   3.969859e+05   1.910798e+06
  -8.586918e+05   1.932481e+06
  -1.732796e+06   6.436513e+05
  -1.831109e+06  -8.178491e+05
  -1.268266e+06  -1.554804e+06
  -2.643875e+05  -1.450220e+06
   6.939490e+05  -8.025746e+05
   9.030910e+05  -1.141737e+05
   2.827303e+05   4.262488e+04
  -2.367152e+05  -4.129941e+05
   1.845452e+05  -7.822576e+05
   1.075811e+06  -3.883295e+05
   1.215897e+06   4.625208e+05
   2.992624e+05   8.406751e+05
  -6.403348e+05   4.219849e+05
  -5.611787e+05  -1.805353e+05
   3.849830e+05  -2.965991e+05
   1.166856e+06   1.153255e+05
   9.845609e+05   7.002751e+05
  -9.604810e+04   1.092223e+06
  -1.266266e+06   9.530733e+05
  -1.570566e+06   1.716866e+05
  -7.155040e+05  -7.320438e+05
   5.138671e+05  -8.899868e+05
   9.175967e+05  -1.304229e+05
   1.597134e+05   6.336857e+05
  -8.466434e+05   4.666492e+05
  -1.004154e+06  -4.135626e+05
  -2.304891e+05  -9.570423e+05
   6.149413e+05  -6.090450e+05
   7.604157e+05   1.355084e+05
   2.121368e+05   4.601072e+05
  -4.073011e+05   1.079984e+05
  -4.410878e+05  -5.095970e+05
   2.501779e+05  -7.700056e+05
   1.068636e+06  -3.350744e+05
   1.137092e+06   5.474334e+05
   2.403034e+05   1.158854e+06
  -8.050733e+05   9.457415e+05
  -1.007564e+06   1.242679e+05
  -3.306803e+05  -5.253546e+05
   3.580179e+05  -5.119398e+05
   3.989049e+05  -8.587459e+04
   5.807674e+03   2.031364e+05
  -2.249258e+05   1.577039e+05
  -7.519444e+04   1.460908e+04
   1.993763e+05   6.534020e+04
   2.441686e+05   3.505527e+05
  -1.147884e+05   6.163480e+05
  -7.358049e+05   4.794270e+05
  -1.131847e+06  -2.098909e+05
  -8.132356e+05  -1.055881e+06
   1.170566e+05  -1.350486e+06
   9.093437e+05  -8.055219e+05
   9.574688e+05   7.335660e+04
   4.820618e+05   5.361065e+05
   1.611611e+05   4.060387e+05
   2.323732e+05   1.392976e+05
   3.058027e+05   1.574299e+05
   1.830165e+04   3.844882e+05
  -4.805262e+05   4.542287e+05
  -7.564255e+05   1.522250e+05
  -5.342183e+05  -3.919204e+05
   1.417363e+05  -7.757928e+05
   9.180825e+05  -5.749158e+05
   1.222107e+06   2.517952e+05
   6.512421e+05   1.136369e+06
  -5.135908e+05   1.311683e+06
  -1.388878e+06   6.035474e+05
  -1.325592e+06  -3.373864e+05
  -5.684421e+05  -7.451681e+05
   9.544033e+04  -5.478973e+05
   2.270968e+05  -2.989647e+05
   6.710073e+04  -4.152456e+05
   7.012630e+04  -7.149810e+05
   3.676575e+05  -7.105844e+05
   7.099988e+05  -1.805590e+05
   7.459289e+05   5.931982e+05
   3.223035e+05   1.050401e+06
  -3.364286e+05   8.090304e+05
  -7.188595e+05   2.208943e+04
  -4.688114e+05  -6.909698e+05
   1.909292e+05  -7.756327e+05
   6.209344e+05  -2.543969e+05
   4.458931e+05   3.471205e+05
  -4.034099e+04   5.742948e+05
  -2.571907e+05   4.400187e+05
  -3.372293e+04   2.507283e+05
   2.181780e+05   1.965140e+05
   1.528562e+04   2.060920e+05
  -6.146886e+05   1.078061e+05
  -1.103700e+06  -1.762086e+05
  -8.915815e+05  -5.491090e+05
  -1.886741e+04  -7.720886e+05
   8.415854e+05  -6.330629e+05
   1.011813e+06  -1.809585e+05
   4.793785e+05   2.401706e+05
  -1.332854e+05   2.983596e+05
  -2.719074e+05   2.594425e+04
   1.040567e+04  -2.122856e+05
   2.705510e+05  -1.226319e+05
   2.576367e+05   2.039905e+05
   1.035260e+05   4.099575e+05
   2.866969e+04   2.699241e+05
   7.804246e+04  -5.533922e+04
   1.535490e+05  -1.734479e+05
   1.285831e+05   1.096455e+05
  -9.575497e+04   5.218879e+05
  -4.722300e+05   5.664900e+05
  -6.985967e+05   8.598733e+04
  -4.357583e+05  -4.938946e+05
   2.244446e+05  -5.997370e+05
   6.743714e+05  -1.575262e+05
   3.965222e+05   3.293746e+05
  -3.897102e+05   3.585294e+05
  -8.891395e+05  -5.337683e+04
  -5.759540e+05  -4.777292e+05
   2.563403e+05  -5.584315e+05
   8.355943e+05  -2.872470e+05
   6.982130e+05   9.013707e+04
   8.608066e+04   2.898502e+05
  -3.559796e+05   1.673188e+05
  -2.123300e+05  -1.474324e+05
   3.242647e+05  -2.803861e+05
   6.503479e+05   5.298817e+04
   3.541902e+05   6.596633e+05
  -3.533645e+05   9.363801e+05
  -8.410397e+05   4.718366e+05
  -6.951951e+05  -4.381411e+05
  -1.002467e+05  -1.004112e+06
   4.172148e+05  -7.274532e+05
   5.153292e+05   8.575916e+04
   2.531369e+05   6.559500e+05
  -9.587508e+04   5.459390e+05
  -2.981043e+05   5.834951e+04
  -2.719544e+05  -2.066421e+05
  -1.103070e+05  -7.692161e+04
  -2.381708e+04   6.140058e+04
  -1.354731e+05  -1.502274e+05
  -2.792566e+05  -5.338049e+05
  -1.278818e+05  -6.091735e+05
   3.776996e+05  -2.263095e+05
   8.260587e+05   2.628675e+05
   7.274104e+05   4.695414e+05
   1.000861e+05   3.824963e+05
  -4.918178e+05   2.258561e+05
  -5.520723e+05   1.041097e+05
  -1.863657e+05  -2.230409e+04
   9.034746e+04  -1.276782e+05
   9.325006e+03  -1.244307e+05
  -1.605060e+05  -5.663017e+04
  -2.316172e+04  -6.648579e+04
   3.811642e+05  -1.218291e+05
   5.769013e+05   8.359316e+03
   2.152377e+05   3.798680e+05
  -4.855537e+05   6.448926e+05
  -9.349889e+05   4.058527e+05
  -7.606463e+05  -2.533702e+05
  -1.410501e+05  -7.832964e+05
   4.213131e+05  -7.520383e+05
   5.755754e+05  -2.846965e+05
   3.615470e+05   1.328666e+05
   6.971462e+04   1.923238e+05
  -4.940012e+04   2.661696e+04
   3.915580e+04  -1.922473e+04
   1.736018e+05   1.964402e+05
   1.484871e+05   4.458034e+05
  -9.667332e+04   3.773135e+05
  -3.817929e+05  -7.091700e+04
  -4.065438e+05  -5.371668e+05
  -4.956273e+04  -5.749572e+05
   4.298194e+05  -1.247569e+05
   5.710382e+05   4.162618e+05
   1.814864e+05   6.053982e+05
  -3.990549e+05   3.628610e+05
  -6.108832e+05  -4.621971e+04
  -2.856575e+05  -3.256736e+05
   1.538827e+05  -3.597353e+05
   1.931366e+05  -2.039700e+05
  -1.512964e+05  -1.615804e+04
  -3.612722e+05   1.661039e+04
  -7.435922e+04  -1.683500e+05
   4.602354e+05  -3.785102e+05
   6.905854e+05  -3.094460e+05
   4.117554e+05   9.037399e+04
  -5.620203e+04   4.799348e+05
  -2.976907e+05   4.697900e+05
  -2.230857e+05   7.853985e+04
  -2.054157e+04  -2.714948e+05
   1.361710e+05  -2.325505e+05
   1.947959e+05   9.490256e+04
   1.378478e+05   3.212177e+05
  -3.290162e+04   2.267288e+05
  -2.176478e+05  -2.979795e+04
  -2.615572e+05  -1.489937e+05
  -1.346263e+05  -4.824014e+04
   1.459604e+04   7.379196e+04
   4.642554e+04   6.124816e+03
   8.801495e+03  -2.037212e+05
   5.039807e+04  -2.939657e+05
   1.854712e+05  -1.005902e+05
   2.396096e+05   2.252604e+05
   6.591769e+04   3.615324e+05
  -2.325127e+05   1.675884e+05
  -3.596846e+05  -1.631930e+05
  -1.338856e+05  -3.213847e+05
   2.779559e+05  -1.997710e+05
   4.828981e+05   4.691624e+04
   2.632278e+05   2.102211e+05
  -1.635119e+05   2.157419e+05
  -3.546401e+05   1.174072e+05
  -1.328868e+05   6.192950e+03
   2.052799e+05  -3.226819e+04
   2.339567e+05   4.726747e+04
  -1.022441e+05   1.710005e+05
  -4.301943e+05   1.512151e+05
