
 $NMID
 id='ANONYMOUS ', fmtdat='(2E16.6)'
 volume=1.0
 tramp=1.0
 $END
   3.060970e+07  -6.760885e+05
   2.057658e+07   1.486131e+07
  -2.887077e+05   1.979815e+07
  -1.345646e+07   1.235089e+07
  -1.090541e+07   5.333775e+05
  -3.598083e+05  -5.523293e+06
   6.136265e+06  -2.280585e+06
   4.272791e+06   5.002578e+06
  -1.707896e+06   7.984416e+06
  -5.685843e+06   3.436066e+06
  -4.864152e+06  -3.808127e+06
  -6.905973e+05  -6.151641e+06
   2.812860e+06  -1.415794e+06
   2.271840e+06   4.925357e+06
  -1.790983e+06   5.893237e+06
  -5.053483e+06   4.578293e+05
  -3.728320e+06  -5.932492e+06
   1.367920e+06  -7.525049e+06
   5.754855e+06  -3.706264e+06
   5.995076e+06   1.538056e+06
   2.814250e+06   4.190678e+06
  -1.906873e+05   3.603867e+06
  -3.054703e+05   2.131865e+06
   1.712834e+06   2.219314e+06
   2.418962e+06   3.861654e+06
  -6.272662e+05   4.739020e+06
  -5.640786e+06   2.900467e+06
  -7.805121e+06  -8.427944e+05
  -4.484153e+06  -3.577530e+06
   1.355312e+06  -3.264883e+06
   4.098714e+06  -6.188447e+05
   1.648930e+06   1.860673e+06
  -2.616443e+06   2.110539e+06
  -4.141071e+06  -1.061482e+05
  -2.060507e+06  -3.060740e+06
   8.516385e+05  -4.112728e+06
   1.901838e+06  -2.006194e+06
   9.374411e+05   1.297258e+06
  -3.794138e+05   2.141929e+06
  -5.261875e+05  -5.169648e+05
   7.089220e+05  -3.301372e+06
   2.140681e+06  -2.339732e+06
   2.072541e+06   1.586234e+06
  -4.795160e+04   3.696920e+06
  -2.558257e+06   1.202949e+06
  -2.756670e+06  -3.168960e+06
   2.775851e+05  -4.558137e+06
   4.221692e+06  -1.583156e+06
   5.406533e+06   2.663000e+06
   2.416197e+06   4.441715e+06
  -2.319171e+06   2.848979e+06
  -4.711439e+06  -2.127745e+05
  -2.914456e+06  -2.208968e+06
   9.502049e+05  -1.895522e+06
   3.040758e+06  -2.648008e+04
   1.735170e+06   1.389336e+06
  -9.078736e+05   9.853149e+05
  -1.711874e+06  -5.647661e+05
  -9.160354e+03  -1.352460e+06
   1.801143e+06  -4.480576e+05
   1.239043e+06   1.128829e+06
  -1.334017e+06   1.655993e+06
  -3.132499e+06   4.109257e+05
  -1.985787e+06  -1.887036e+06
   1.446796e+06  -3.674060e+06
   4.434917e+06  -3.429156e+06
   4.815685e+06  -7.752360e+05
   2.794595e+06   2.766970e+06
   3.633404e+05   4.712389e+06
  -8.032688e+05   3.991606e+06
  -7.744515e+05   2.071452e+06
  -8.105594e+05   1.080006e+06
  -1.676611e+06   1.181108e+06
  -2.761043e+06   7.097012e+05
  -2.823031e+06  -1.155088e+06
  -1.352314e+06  -2.920643e+06
   8.690864e+05  -2.526389e+06
   2.330606e+06   4.831837e+04
   1.888729e+06   2.598443e+06
  -3.025609e+05   2.955079e+06
  -2.672230e+06   9.826326e+05
  -3.352313e+06  -1.593365e+06
  -1.884288e+06  -2.932132e+06
   2.646248e+05  -2.577295e+06
   1.288768e+06  -1.510911e+06
   1.090032e+06  -9.356489e+05
   1.213630e+06  -1.026635e+06
   2.605771e+06  -8.774140e+05
   4.042702e+06   3.638342e+05
   3.386903e+06   2.421033e+06
   2.461501e+05   3.982891e+06
  -3.207348e+06   3.794399e+06
  -4.293290e+06   1.738005e+06
  -2.460439e+06  -9.160132e+05
   2.946805e+05  -2.336884e+06
   1.493486e+06  -1.628298e+06
   4.878190e+05   2.233974e+05
  -1.216976e+06   1.186360e+06
  -1.720021e+06   3.332653e+05
  -6.440674e+05  -1.071487e+06
   6.797637e+05  -1.107437e+06
   7.578135e+05   3.222843e+05
  -5.193409e+05   1.227107e+06
  -1.835461e+06  -2.817642e+04
  -1.733813e+06  -2.582796e+06
   1.008216e+05  -3.896630e+06
   2.564004e+06  -2.494343e+06
   3.920329e+06   5.590092e+05
   3.114666e+06   2.867341e+06
   7.237884e+05   2.995438e+06
  -1.377661e+06   1.511704e+06
  -1.671657e+06   1.138810e+05
  -4.910917e+05  -4.353384e+04
   3.764712e+05   7.280198e+05
  -2.614467e+05   1.193527e+06
  -1.617503e+06   5.805030e+05
  -1.900770e+06  -6.128211e+05
  -5.267555e+05  -1.211202e+06
   1.086155e+06  -6.584304e+05
   1.086394e+06   4.139619e+05
  -6.943344e+05   8.607225e+05
  -2.455788e+06   1.170738e+05
  -2.261657e+06  -1.322990e+06
  -3.376540e+04  -2.310395e+06
   2.332203e+06  -1.946779e+06
   2.813847e+06  -3.898037e+05
   1.200205e+06   1.120766e+06
  -7.995828e+05   1.307018e+06
  -1.313922e+06   1.618921e+05
  -9.079928e+04  -9.416289e+05
   1.445706e+06  -7.037712e+05
   1.737846e+06   6.421304e+05
   5.664096e+05   1.614292e+06
  -9.002951e+05   1.201286e+06
  -1.322018e+06  -3.393039e+04
  -4.495987e+05  -6.901098e+05
   6.641272e+05  -1.088863e+05
   6.885188e+05   9.984195e+05
  -6.106873e+05   1.378133e+06
  -2.004992e+06   4.817742e+05
  -1.989431e+06  -1.059202e+06
  -4.018615e+05  -2.019625e+06
   1.329318e+06  -1.646635e+06
   1.679969e+06  -3.149581e+05
   5.994586e+05   8.122118e+05
  -5.969822e+05   8.659370e+05
  -7.506505e+05   7.097893e+04
   1.397181e+04  -5.791270e+05
   6.650306e+05  -4.364587e+05
   4.752415e+05   1.292981e+05
  -2.712460e+05   2.387367e+05
  -6.364479e+05  -4.158807e+05
   1.066403e+04  -1.145362e+06
   1.299292e+06  -9.616431e+05
   2.078256e+06   3.507085e+05
   1.471972e+06   1.904802e+06
  -1.932887e+05   2.470211e+06
  -1.631771e+06   1.595876e+06
  -1.861603e+06   1.816370e+04
  -1.116245e+06  -1.044829e+06
  -3.973858e+05  -1.025583e+06
  -2.806609e+05  -4.421975e+05
  -3.979738e+05  -2.144400e+05
  -6.965481e+04  -6.085568e+05
   7.896996e+05  -9.582745e+05
   1.495816e+06  -4.719843e+05
   1.236389e+06   7.565863e+05
  -1.203900e+05   1.667682e+06
  -1.737885e+06   1.241878e+06
  -2.344005e+06  -4.169406e+05
  -1.282266e+06  -2.055129e+06
   8.004512e+05  -2.375201e+06
   2.401950e+06  -1.200729e+06
   2.463016e+06   4.352992e+05
   1.252362e+06   1.327337e+06
  -4.985558e+04   1.189808e+06
  -5.547625e+05   7.308534e+05
  -3.728919e+05   7.237848e+05
  -2.355148e+05   1.121982e+06
  -6.041404e+05   1.159475e+06
  -1.197411e+06   2.885161e+05
  -1.307333e+06  -1.090159e+06
  -5.517499e+05  -1.909110e+06
   6.389359e+05  -1.449269e+06
   1.312229e+06  -4.942037e+04
   8.847641e+05   1.191609e+06
  -2.308494e+05   1.393903e+06
  -9.970927e+05   5.968798e+05
  -8.065577e+05  -4.238651e+05
  -7.563878e+04  -9.353899e+05
   2.975153e+05  -8.280649e+05
  -1.198724e+04  -5.153338e+05
  -3.934548e+05  -3.839534e+05
  -3.460732e+04  -4.052446e+05
   1.070405e+06  -2.547827e+05
   1.961606e+06   2.620314e+05
   1.634003e+06   9.440997e+05
   1.220175e+05   1.334919e+06
  -1.414006e+06   1.115817e+06
  -1.777626e+06   4.037389e+05
  -8.998447e+05  -2.969343e+05
   1.781556e+05  -4.857066e+05
   4.636500e+05  -1.186533e+05
  -2.187503e+04   3.063209e+05
  -5.043042e+05   2.270216e+05
  -4.632192e+05  -3.437979e+05
  -1.168856e+05  -7.624286e+05
   3.344843e+04  -4.876239e+05
  -1.558316e+05   1.936985e+05
  -3.905653e+05   4.150095e+05
  -3.065400e+05  -2.160797e+05
   2.058148e+05  -1.040123e+06
   8.890219e+05  -1.052358e+06
   1.200890e+06  -9.610507e+04
   6.977854e+05   9.157232e+05
  -4.072777e+05   1.017098e+06
  -1.164943e+06   2.138214e+05
  -7.189790e+05  -6.175240e+05
   6.671018e+05  -6.880040e+05
   1.667363e+06   7.056116e+03
   1.210474e+06   8.308520e+05
  -3.459576e+05   1.123271e+06
  -1.553916e+06   6.931720e+05
  -1.378531e+06  -8.254354e+04
  -2.117486e+05  -5.544775e+05
   6.400940e+05  -3.451570e+05
   3.468105e+05   2.495241e+05
  -6.520438e+05   4.619877e+05
  -1.180805e+06  -1.796063e+05
  -5.567230e+05  -1.242616e+06
   7.383815e+05  -1.669145e+06
   1.570656e+06  -8.056200e+05
   1.268741e+06   8.200094e+05
   1.887582e+05   1.855695e+06
  -7.575670e+05   1.394474e+06
  -9.734656e+05  -9.322767e+04
  -5.340239e+05  -1.207430e+06
   1.101910e+05  -1.059658e+06
   5.418090e+05  -1.374214e+05
   5.597310e+05   4.069208e+05
   2.581054e+05   1.729144e+05
   1.533194e+04  -1.274256e+05
   1.577360e+05   2.333252e+05
   4.749814e+05   9.576302e+05
   3.076152e+05   1.127176e+06
  -6.041083e+05   4.306842e+05
  -1.528086e+06  -4.766521e+05
  -1.415291e+06  -8.570103e+05
  -2.042119e+05  -6.924450e+05
   9.617061e+05  -4.160160e+05
   1.041416e+06  -2.209631e+05
   2.951578e+05  -2.817661e+03
  -1.834694e+05   2.197674e+05
   6.691683e+04   2.664206e+05
   3.801313e+05   1.616835e+05
   7.411292e+03   1.413222e+05
  -7.939767e+05   1.909357e+05
  -1.051603e+06  -5.067487e+04
  -2.747696e+05  -6.834001e+05
   9.678510e+05  -1.123858e+06
   1.658939e+06  -6.802305e+05
   1.295655e+06   5.070527e+05
   2.254369e+05   1.451727e+06
  -7.611113e+05   1.359610e+06
  -1.067928e+06   4.657773e+05
  -6.789947e+05  -3.029827e+05
  -8.666855e+04  -3.624168e+05
   1.631442e+05   8.813677e+01
  -5.071117e+04   9.067739e+04
  -3.543549e+05  -3.461705e+05
  -2.882880e+05  -8.259335e+05
   2.091958e+05  -6.662248e+05
   7.103930e+05   2.012383e+05
   6.782322e+05   1.042493e+06
  -6.146571e+03   1.035137e+06
  -8.268326e+05   1.440355e+05
  -1.009209e+06  -8.339460e+05
  -2.771752e+05  -1.104136e+06
   7.461223e+05  -6.068214e+05
   1.086363e+06   1.148887e+05
   4.796710e+05   5.581361e+05
  -2.888075e+05   5.961713e+05
  -3.070822e+05   3.517643e+05
   3.399669e+05   5.001035e+04
   6.843173e+05  -1.760134e+04
   1.153662e+05   2.962832e+05
  -8.472970e+05   6.944755e+05
  -1.212303e+06   6.069204e+05
  -6.865827e+05  -1.145473e+05
   1.140442e+05  -8.471198e+05
   4.910945e+05  -8.309879e+05
   3.430859e+05  -9.851806e+04
   5.716400e+02   5.230460e+05
  -2.633374e+05   3.910301e+05
  -3.585517e+05  -2.332230e+05
  -2.389301e+05  -5.927211e+05
   7.751190e+04  -3.602251e+05
   3.923229e+05   8.495037e+04
   4.543915e+05   2.343288e+05
   2.464193e+05   5.101649e+04
   4.880121e+03  -8.904915e+04
  -8.701838e+04   8.448081e+04
  -1.047803e+05   4.068991e+05
  -2.114720e+05   4.654450e+05
  -3.720954e+05   7.088595e+04
  -3.517687e+05  -4.824809e+05
  -9.238129e+03  -6.680639e+05
   4.582846e+05  -2.735492e+05
   6.166637e+05   3.439482e+05
   2.084362e+05   6.171033e+05
  -4.964609e+05   3.539766e+05
  -8.477593e+05  -1.227100e+05
  -4.581782e+05  -3.915337e+05
   3.019423e+05  -3.432680e+05
   6.287039e+05  -1.507531e+05
   1.920871e+05  -4.739746e+03
  -4.377780e+05  -2.421282e+03
  -4.445549e+05  -1.603996e+05
   2.481488e+05  -3.442002e+05
   8.763722e+05  -2.582387e+05
