
 $NMID
 id='ANONYMOUS ', fmtdat='(2E16.6)'
 volume=1.0
 tramp=1.0
 $END
   6.271231e+07  -8.043261e+05
   3.804465e+07   3.883603e+07
  -8.142536e+06   4.271488e+07
  -3.072877e+07   1.621591e+07
  -1.826910e+07  -8.107065e+06
   3.809117e+06  -1.041020e+07
   1.090074e+07   1.578878e+06
   2.910422e+06   1.090436e+07
  -6.995410e+06   1.015561e+07
  -1.068535e+07   2.080200e+06
  -7.747008e+06  -6.749912e+06
  -9.979084e+05  -9.381794e+06
   4.318142e+06  -3.120968e+06
   2.888118e+06   5.779918e+06
  -4.148510e+06   7.062309e+06
  -8.704061e+06  -1.519660e+06
  -4.940995e+06  -1.125782e+07
   4.119268e+06  -1.306311e+07
   1.112544e+07  -6.674026e+06
   1.204590e+07   2.054589e+06
   7.593796e+06   8.200116e+06
   1.001260e+06   9.748193e+06
  -3.286736e+06   6.951564e+06
  -2.371000e+06   2.973011e+06
   1.006584e+06   2.070554e+06
   4.187561e+05   4.326670e+06
  -5.610355e+06   4.887885e+06
  -1.041729e+07   8.229332e+05
  -7.816162e+06  -4.320505e+06
  -5.457331e+05  -5.550694e+06
   3.830177e+06  -2.998946e+06
   2.695575e+06  -2.861871e+05
  -3.963910e+05   8.315825e+05
  -2.169031e+06   5.969282e+05
  -2.335933e+06  -1.286733e+06
  -9.677258e+05  -4.107753e+06
   1.825892e+06  -4.321745e+06
   3.686299e+06  -1.024955e+05
   2.125856e+06   3.982063e+06
  -7.987980e+05   2.346225e+06
  -5.091907e+05  -2.479771e+06
   2.616170e+06  -2.464988e+06
   2.689991e+06   3.543501e+06
  -2.760068e+06   6.840662e+06
  -7.874654e+06   1.181271e+06
  -5.822807e+06  -7.697868e+06
   2.079267e+06  -9.543161e+06
   8.208887e+06  -2.778360e+06
   7.612418e+06   4.833363e+06
   1.967704e+06   6.566762e+06
  -3.795461e+06   2.905729e+06
  -5.669782e+06  -1.715513e+06
  -2.561792e+06  -3.831364e+06
   2.709380e+06  -2.407307e+06
   4.994819e+06   1.026608e+06
   2.136022e+06   3.018720e+06
  -1.897369e+06   1.525536e+06
  -1.863771e+06  -1.126394e+06
   1.555772e+06  -9.548924e+05
   2.754189e+06   2.083331e+06
  -8.026727e+05   3.950642e+06
  -5.267035e+06   2.138363e+06
  -5.910873e+06  -1.559950e+06
  -2.563957e+06  -4.431113e+06
   1.877343e+06  -5.789717e+06
   5.306640e+06  -5.358714e+06
   6.696149e+06  -2.048685e+06
   5.105947e+06   3.321252e+06
   1.153045e+06   6.698307e+06
  -2.040322e+06   5.184336e+06
  -1.987528e+06   1.227685e+06
  -1.206761e+05  -4.313847e+05
   2.379164e+05   9.925431e+05
  -1.533689e+06   2.029481e+06
  -2.968150e+06   4.495496e+05
  -2.244747e+06  -1.906441e+06
  -1.508936e+05  -2.227201e+06
   1.558039e+06  -2.556503e+05
   1.778180e+06   2.134632e+06
   7.066898e+04   3.118182e+06
  -2.927226e+06   1.870517e+06
  -4.892973e+06  -1.154883e+06
  -3.633387e+06  -4.039938e+06
  -5.606376e+04  -4.685031e+06
   2.490154e+06  -3.069504e+06
   2.494541e+06  -1.273488e+06
   2.023361e+06  -7.137461e+05
   3.176615e+06  -4.966413e+05
   4.685330e+06   8.136939e+05
   3.759799e+06   2.958120e+06
   1.643281e+05   4.422235e+06
  -3.385280e+06   4.205362e+06
  -4.415646e+06   2.348045e+06
  -2.857396e+06  -3.605621e+05
  -3.847183e+05  -2.363567e+06
   1.104037e+06  -2.108731e+06
   6.094392e+05   8.583558e+03
  -1.133449e+06   1.423625e+06
  -2.058273e+06   4.546323e+05
  -1.033735e+06  -1.293052e+06
   5.232575e+05  -1.194731e+06
   4.207875e+05   4.274255e+05
  -1.213324e+06   6.960062e+05
  -2.019166e+06  -1.521625e+06
  -5.937748e+05  -3.853968e+06
   1.873262e+06  -3.619055e+06
   3.443727e+06  -1.043982e+06
   3.480831e+06   1.643157e+06
   2.340015e+06   2.932131e+06
   4.628292e+05   2.740401e+06
  -1.298019e+06   1.567835e+06
  -1.672476e+06   2.708677e+05
  -5.285224e+05  -4.556241e+04
   3.875879e+05   8.072772e+05
  -4.522628e+05   1.464532e+06
  -2.082165e+06   6.395943e+05
  -2.211208e+06  -9.742135e+05
  -4.061847e+05  -1.549214e+06
   1.267675e+06  -6.097582e+05
   9.283945e+05   4.925844e+05
  -9.366457e+05   5.158501e+05
  -2.307294e+06  -3.991740e+05
  -1.801988e+06  -1.457397e+06
   3.023156e+05  -2.068689e+06
   2.465592e+06  -1.744841e+06
   2.968892e+06  -2.943324e+05
   1.319995e+06   1.370882e+06
  -9.900888e+05   1.650471e+06
  -1.710023e+06   2.237517e+05
  -2.433740e+05  -1.177912e+06
   1.633419e+06  -8.085356e+05
   1.849701e+06   8.500970e+05
   3.370430e+05   1.782338e+06
  -1.201446e+06   1.022991e+06
  -1.346810e+06  -3.737915e+05
  -2.369432e+05  -8.569617e+05
   8.784164e+05  -5.803799e+04
   8.083904e+05   1.134588e+06
  -6.011064e+05   1.541720e+06
  -2.152119e+06   6.088940e+05
  -2.202553e+06  -1.110124e+06
  -4.257381e+05  -2.235732e+06
   1.554069e+06  -1.776674e+06
   1.862947e+06  -2.206686e+05
   5.297282e+05   9.416444e+05
  -7.142260e+05   8.580907e+05
  -6.601673e+05   8.513539e+04
   1.468446e+05  -3.532903e+05
   5.013684e+05  -1.856462e+05
   7.126234e+04   6.523817e+04
  -5.175299e+05  -1.296273e+05
  -5.449557e+05  -7.637692e+05
   2.465038e+05  -1.286814e+06
   1.493817e+06  -9.614044e+05
   2.240679e+06   4.406008e+05
   1.587608e+06   2.083537e+06
  -2.195117e+05   2.593657e+06
  -1.724540e+06   1.496490e+06
  -1.787920e+06  -1.514811e+05
  -8.796085e+05  -9.354145e+05
  -3.246196e+05  -6.346209e+05
  -5.436118e+05  -1.899955e+05
  -7.167340e+05  -3.445112e+05
  -1.097696e+05  -8.462923e+05
   9.504059e+05  -9.650149e+05
   1.546781e+06  -3.322469e+05
   1.098469e+06   7.652674e+05
  -2.847391e+05   1.534607e+06
  -1.841237e+06   1.133763e+06
  -2.401463e+06  -5.161662e+05
  -1.207143e+06  -2.257507e+06
   1.104336e+06  -2.549932e+06
   2.750740e+06  -1.098464e+06
   2.513274e+06   7.329300e+05
   9.835271e+05   1.438076e+06
  -2.466886e+05   9.763736e+05
  -3.887664e+05   5.085057e+05
  -2.535155e+04   8.092830e+05
  -7.390267e+04   1.434673e+06
  -7.192380e+05   1.413056e+06
  -1.403298e+06   3.596853e+05
  -1.450638e+06  -1.146806e+06
  -6.142001e+05  -2.027215e+06
   6.530818e+05  -1.546056e+06
   1.376705e+06   2.062759e+03
   8.707787e+05   1.389879e+06
  -4.375119e+05   1.505451e+06
  -1.278931e+06   4.125570e+05
  -8.821154e+05  -7.922807e+05
   1.576616e+05  -1.185078e+06
   6.146177e+05  -8.399177e+05
   1.077654e+05  -4.308133e+05
  -4.748442e+05  -3.470362e+05
  -7.207828e+04  -4.065059e+05
   1.247164e+06  -2.281350e+05
   2.238598e+06   3.508846e+05
   1.743942e+06   1.117563e+06
  -5.708809e+04   1.563180e+06
  -1.729945e+06   1.246344e+06
  -1.977314e+06   2.904073e+05
  -8.904174e+05  -5.627524e+05
   2.898401e+05  -6.308497e+05
   5.600212e+05  -2.507957e+04
   4.923763e+04   4.733829e+05
  -4.604135e+05   2.870088e+05
  -5.243688e+05  -3.618080e+05
  -3.066955e+05  -7.634289e+05
  -1.344327e+05  -5.096083e+05
  -1.446754e+05   8.234802e+04
  -2.765735e+05   2.892975e+05
  -2.918945e+05  -2.509256e+05
   1.295220e+05  -1.048582e+06
   9.571671e+05  -1.157538e+06
   1.494279e+06  -2.225192e+05
   9.584794e+05   9.702561e+05
  -4.331718e+05   1.255401e+06
  -1.365750e+06   4.053075e+05
  -7.972603e+05  -5.974988e+05
   7.567162e+05  -6.956029e+05
   1.691668e+06   1.095743e+05
   1.042989e+06   9.297545e+05
  -5.454820e+05   1.039421e+06
  -1.597875e+06   4.775679e+05
  -1.295243e+06  -2.220581e+05
  -1.299263e+05  -5.435002e+05
   6.997047e+05  -2.776952e+05
   4.266165e+05   3.224734e+05
  -6.051026e+05   5.830021e+05
  -1.272982e+06  -4.646060e+04
  -7.670571e+05  -1.244105e+06
   5.714241e+05  -1.847438e+06
   1.560696e+06  -9.944045e+05
   1.358653e+06   7.817921e+05
   2.448674e+05   1.909655e+06
  -7.785114e+05   1.375840e+06
  -9.875038e+05  -2.034636e+05
  -4.495607e+05  -1.277075e+06
   2.589997e+05  -1.023041e+06
   6.121416e+05  -8.218399e+04
   4.784444e+05   3.943833e+05
   1.485027e+05   1.374379e+05
   6.213434e+04  -9.432044e+04
   3.445765e+05   3.312041e+05
   5.733670e+05   1.037296e+06
   1.823766e+05   1.148033e+06
  -8.011074e+05   4.265270e+05
  -1.580132e+06  -4.791228e+05
  -1.348382e+06  -8.819045e+05
  -2.030354e+05  -7.535808e+05
   8.787075e+05  -4.634659e+05
   1.041283e+06  -1.963654e+05
   4.136805e+05   6.960523e+04
  -1.406007e+05   2.469601e+05
  -7.253995e+04   2.029846e+05
   2.454036e+05   7.674143e+04
   7.212079e+04   1.391340e+05
  -6.622035e+05   2.792632e+05
  -1.128463e+06   1.966628e+04
  -5.378544e+05  -7.402350e+05
   8.408510e+05  -1.304646e+06
   1.837166e+06  -8.769529e+05
   1.575026e+06   4.095647e+05
   3.407117e+05   1.496464e+06
  -8.063880e+05   1.507236e+06
  -1.116123e+06   6.288919e+05
  -7.021107e+05  -2.119108e+05
  -1.698223e+05  -3.823953e+05
   3.660369e+04  -9.735398e+04
  -1.013347e+05  -9.061578e+03
  -3.105925e+05  -4.022137e+05
  -2.651179e+05  -8.635801e+05
   1.684357e+05  -7.427378e+05
   7.252635e+05   8.468653e+04
   8.419084e+05   9.746373e+05
   1.980754e+05   1.108975e+06
  -7.751839e+05   3.267434e+05
  -1.143177e+06  -7.079885e+05
  -4.306972e+05  -1.163408e+06
   7.410654e+05  -7.783630e+05
   1.225062e+06   3.869167e+04
   6.122295e+05   6.740314e+05
  -2.934075e+05   7.759127e+05
  -4.342719e+05   4.150570e+05
   2.257376e+05  -1.110188e+04
   6.860854e+05  -6.502298e+04
   1.794645e+05   3.347131e+05
  -8.701032e+05   7.442459e+05
  -1.374804e+06   5.818795e+05
  -8.645460e+05  -2.025103e+05
   7.736760e+04  -9.525820e+05
   6.067183e+05  -9.514387e+05
   4.932596e+05  -2.155302e+05
   9.182300e+04   4.959267e+05
  -2.370581e+05   4.964288e+05
  -3.790916e+05  -1.117300e+05
  -2.945800e+05  -6.118593e+05
   3.407821e+04  -4.944143e+05
   4.226097e+05   2.067585e+04
   5.324740e+05   3.144002e+05
   2.641316e+05   1.204688e+05
  -6.071509e+04  -1.893928e+05
  -9.216602e+04  -1.053589e+05
   7.465457e+04   3.539040e+05
   3.764792e+04   6.324280e+05
  -3.108081e+05   3.128032e+05
  -5.529699e+05  -3.476182e+05
  -2.551212e+05  -6.837928e+05
   4.094366e+05  -3.686603e+05
   7.475141e+05   2.542920e+05
   3.094053e+05   5.926602e+05
  -5.461408e+05   4.139182e+05
  -9.736079e+05  -3.668877e+04
  -5.378248e+05  -3.903186e+05
   3.029911e+05  -4.684437e+05
   6.897211e+05  -3.008246e+05
   2.993948e+05  -3.436743e+04
  -3.258331e+05   1.148473e+05
  -4.218639e+05  -1.208729e+04
   1.367252e+05  -2.907675e+05
   7.318112e+05  -3.148777e+05
