
 $NMID
 id='ANONYMOUS ', fmtdat='(2E16.6)'
 volume=1.0
 tramp=1.0
 $END
   5.985965e+07   1.424847e+06
   3.488382e+07   3.852464e+07
  -9.378514e+06   4.052288e+07
  -2.994503e+07   1.426304e+07
  -1.710237e+07  -8.526095e+06
   4.049778e+06  -9.799116e+06
   1.030911e+07   1.973131e+06
   2.309995e+06   1.050629e+07
  -7.070497e+06   9.344580e+06
  -1.024941e+07   1.540200e+06
  -7.135531e+06  -6.686354e+06
  -6.362537e+05  -8.941258e+06
   4.201848e+06  -2.851189e+06
   2.534486e+06   5.527027e+06
  -4.205331e+06   6.505145e+06
  -8.225344e+06  -1.795784e+06
  -4.275339e+06  -1.090605e+07
   4.420932e+06  -1.229069e+07
   1.085601e+07  -5.966565e+06
   1.143208e+07   2.369361e+06
   6.996813e+06   8.092313e+06
   6.410799e+05   9.385537e+06
  -3.425935e+06   6.573524e+06
  -2.475725e+06   2.738518e+06
   8.084582e+05   1.913753e+06
   2.740105e+05   4.043863e+06
  -5.414094e+06   4.445374e+06
  -9.866180e+06   4.730772e+05
  -7.291494e+06  -4.331013e+06
  -4.038527e+05  -5.293548e+06
   3.664757e+06  -2.768254e+06
   2.567445e+06  -2.612822e+05
  -3.172999e+05   7.149168e+05
  -1.980621e+06   5.056021e+05
  -2.155659e+06  -1.231164e+06
  -8.288960e+05  -3.890958e+06
   1.862989e+06  -4.073297e+06
   3.561990e+06  -2.098176e+04
   1.947828e+06   3.866142e+06
  -8.363553e+05   2.270893e+06
  -4.320882e+05  -2.307314e+06
   2.555427e+06  -2.218546e+06
   2.422058e+06   3.479221e+06
  -2.913517e+06   6.416232e+06
  -7.597757e+06   8.316972e+05
  -5.288270e+06  -7.562567e+06
   2.343662e+06  -9.029282e+06
   7.918440e+06  -2.352949e+06
   7.028998e+06   4.866377e+06
   1.594537e+06   6.290631e+06
  -3.703784e+06   2.592330e+06
  -5.281715e+06  -1.853956e+06
  -2.261245e+06  -3.735771e+06
   2.671499e+06  -2.186155e+06
   4.709326e+06   1.162805e+06
   1.919982e+06   2.955103e+06
  -1.855963e+06   1.385187e+06
  -1.714485e+06  -1.135351e+06
   1.537565e+06  -8.277957e+05
   2.540168e+06   2.129634e+06
  -9.538214e+05   3.766024e+06
  -5.140801e+06   1.834637e+06
  -5.580050e+06  -1.736826e+06
  -2.266386e+06  -4.330023e+06
   1.982134e+06  -5.430467e+06
   5.194728e+06  -4.896819e+06
   6.410283e+06  -1.724673e+06
   4.745609e+06   3.310446e+06
   8.739990e+05   6.384868e+06
  -2.135772e+06   4.830814e+06
  -1.953565e+06   1.056401e+06
  -8.406840e+04  -4.618655e+05
   2.509675e+05   9.228753e+05
  -1.458685e+06   1.885058e+06
  -2.792358e+06   3.732231e+05
  -2.065074e+06  -1.822464e+06
  -1.042633e+05  -2.077151e+06
   1.435662e+06  -1.989394e+05
   1.586282e+06   2.039109e+06
  -2.631273e+04   2.925929e+06
  -2.812356e+06   1.681862e+06
  -4.595063e+06  -1.236254e+06
  -3.323243e+06  -3.950847e+06
   1.010835e+05  -4.465652e+06
   2.485272e+06  -2.842690e+06
   2.434493e+06  -1.115795e+06
   1.950370e+06  -5.837861e+05
   3.010780e+06  -3.360072e+05
   4.378111e+06   9.471175e+05
   3.426581e+06   2.923099e+06
  -6.633160e+03   4.159127e+06
  -3.324377e+06   3.827770e+06
  -4.220102e+06   2.062864e+06
  -2.675756e+06  -4.153520e+05
  -3.027387e+05  -2.224605e+06
   1.091092e+06  -1.955007e+06
   5.747019e+05   1.658394e+04
  -1.103899e+06   1.300193e+06
  -1.951451e+06   3.618710e+05
  -9.386673e+05  -1.251018e+06
   5.200741e+05  -1.105192e+06
   3.643266e+05   4.131221e+05
  -1.181054e+06   5.864771e+05
  -1.837401e+06  -1.548592e+06
  -3.771929e+05  -3.672952e+06
   1.943693e+06  -3.311438e+06
   3.292017e+06  -8.028722e+05
   3.186355e+06   1.702050e+06
   2.060143e+06   2.831322e+06
   3.261927e+05   2.572483e+06
  -1.269149e+06   1.423768e+06
  -1.576514e+06   2.011377e+05
  -4.957312e+05  -6.111883e+04
   3.343656e+05   7.699603e+05
  -4.797420e+05   1.361959e+06
  -1.984498e+06   5.281238e+05
  -2.045074e+06  -9.980462e+05
  -3.247722e+05  -1.471718e+06
   1.208117e+06  -5.238030e+05
   8.415835e+05   4.922667e+05
  -9.029606e+05   4.315165e+05
  -2.136207e+06  -4.771288e+05
  -1.615182e+06  -1.432290e+06
   3.688498e+05  -1.914556e+06
   2.373102e+06  -1.537421e+06
   2.794489e+06  -1.681472e+05
   1.193256e+06   1.337138e+06
  -9.890883e+05   1.522635e+06
  -1.621760e+06   1.540787e+05
  -1.936782e+05  -1.116960e+06
   1.561097e+06  -7.029166e+05
   1.704230e+06   8.660273e+05
   2.464811e+05   1.684045e+06
  -1.167723e+06   9.093449e+05
  -1.246222e+06  -4.058629e+05
  -1.857690e+05  -8.118058e+05
   8.267190e+05  -1.921555e+04
   7.156815e+05   1.093439e+06
  -6.185919e+05   1.422987e+06
  -2.039433e+06   4.946915e+05
  -2.027637e+06  -1.119360e+06
  -3.199889e+05  -2.114335e+06
   1.524385e+06  -1.612880e+06
   1.758302e+06  -1.398084e+05
   4.628884e+05   9.019504e+05
  -6.991266e+05   7.773821e+05
  -6.153224e+05   6.002368e+04
   1.541030e+05  -3.126921e+05
   4.670310e+05  -1.441085e+05
   4.671374e+04   6.039110e+04
  -4.896793e+05  -1.564833e+05
  -4.777138e+05  -7.495921e+05
   2.880758e+05  -1.200576e+06
   1.440810e+06  -8.443487e+05
   2.086274e+06   4.973777e+05
   1.414327e+06   2.013735e+06
  -2.988364e+05   2.424621e+06
  -1.670007e+06   1.336779e+06
  -1.666126e+06  -2.104893e+05
  -7.842832e+05  -9.030649e+05
  -2.816405e+05  -5.931026e+05
  -5.125633e+05  -1.907401e+05
  -6.686158e+05  -3.556349e+05
  -7.097914e+04  -8.065910e+05
   9.330142e+05  -8.689559e+05
   1.463298e+06  -2.474315e+05
   9.952352e+05   7.591177e+05
  -3.295191e+05   1.421704e+06
  -1.769077e+06   9.890902e+05
  -2.230585e+06  -5.742816e+05
  -1.044841e+06  -2.162217e+06
   1.135800e+06  -2.350742e+06
   2.624735e+06  -9.249174e+05
   2.326634e+06   7.851190e+05
   8.601414e+05   1.382820e+06
  -2.710955e+05   8.964805e+05
  -3.751604e+05   4.552088e+05
  -4.072481e+04   7.615671e+05
  -1.157214e+05   1.352541e+06
  -7.284383e+05   1.305856e+06
  -1.333761e+06   2.884563e+05
  -1.321800e+06  -1.127419e+06
  -5.046933e+05  -1.923308e+06
   6.665079e+05  -1.427069e+06
   1.289607e+06   5.253613e+04
   7.636247e+05   1.338108e+06
  -4.706499e+05   1.395935e+06
  -1.219919e+06   3.323543e+05
  -7.972952e+05  -7.864687e+05
   1.997662e+05  -1.110580e+06
   6.160765e+05  -7.619324e+05
   1.190859e+05  -3.956384e+05
  -4.356191e+05  -3.421979e+05
  -5.372203e+04  -3.843989e+05
   1.182506e+06  -1.663422e+05
   2.092305e+06   4.146275e+05
   1.594797e+06   1.115158e+06
  -1.172449e+05   1.466645e+06
  -1.675306e+06   1.106723e+06
  -1.866832e+06   1.968605e+05
  -8.108102e+05  -5.668120e+05
   2.990990e+05  -5.844432e+05
   5.279950e+05   7.032745e+02
   2.993319e+04   4.526546e+05
  -4.413900e+05   2.559437e+05
  -4.810573e+05  -3.589452e+05
  -2.669346e+05  -7.285483e+05
  -1.136808e+05  -4.846006e+05
  -1.376916e+05   6.813768e+04
  -2.643385e+05   2.566509e+05
  -2.623306e+05  -2.480649e+05
   1.578543e+05  -9.785418e+05
   9.416174e+05  -1.051294e+06
   1.418014e+06  -1.551374e+05
   8.707773e+05   9.474100e+05
  -4.538487e+05   1.167771e+06
  -1.302498e+06   3.354005e+05
  -7.286348e+05  -5.881419e+05
   7.366322e+05  -6.243693e+05
   1.580710e+06   1.661802e+05
   9.372440e+05   9.097763e+05
  -5.540412e+05   9.496180e+05
  -1.512854e+06   3.827560e+05
  -1.200603e+06  -2.579117e+05
  -9.974003e+04  -5.122173e+05
   6.657938e+05  -2.323218e+05
   3.895371e+05   3.198866e+05
  -5.866634e+05   5.285725e+05
  -1.194392e+06  -8.496865e+04
  -6.813886e+05  -1.194182e+06
   5.963902e+05  -1.717903e+06
   1.498526e+06  -8.831146e+05
   1.248736e+06   7.797364e+05
   1.634632e+05   1.799836e+06
  -7.782287e+05   1.260233e+06
  -9.167442e+05  -2.295089e+05
  -3.718704e+05  -1.213077e+06
   2.834547e+05  -9.452287e+05
   5.775403e+05  -5.207931e+04
   4.309883e+05   3.847460e+05
   1.305783e+05   1.310738e+05
   6.249521e+04  -8.461568e+04
   3.160211e+05   3.277529e+05
   5.028440e+05   9.951289e+05
   1.261602e+05   1.080378e+06
  -7.716670e+05   3.687199e+05
  -1.464676e+06  -5.048464e+05
  -1.229116e+06  -8.734385e+05
  -1.625869e+05  -7.151587e+05
   8.371977e+05  -4.057933e+05
   9.817827e+05  -1.462654e+05
   3.881781e+05   8.384094e+04
  -1.389810e+05   2.280220e+05
  -7.901643e+04   1.840348e+05
   2.230793e+05   7.617928e+04
   6.432682e+04   1.333551e+05
  -6.265578e+05   2.424454e+05
  -1.060571e+06  -2.001205e+04
  -4.857645e+05  -7.172266e+05
   8.310718e+05  -1.199846e+06
   1.759765e+06  -7.610841e+05
   1.471379e+06   4.392574e+05
   2.696214e+05   1.416465e+06
  -8.119555e+05   1.387287e+06
  -1.071040e+06   5.540457e+05
  -6.514745e+05  -2.205928e+05
  -1.477365e+05  -3.655460e+05
   3.458147e+04  -9.454582e+04
  -9.512553e+04  -1.617537e+04
  -2.742308e+05  -3.889569e+05
  -2.163660e+05  -8.185910e+05
   1.831652e+05  -6.922669e+05
   6.776326e+05   1.009519e+05
   7.603940e+05   9.416097e+05
   1.527555e+05   1.050360e+06
  -7.378037e+05   2.857594e+05
  -1.051863e+06  -7.004959e+05
  -3.668847e+05  -1.108670e+06
   7.234903e+05  -7.086997e+05
   1.151464e+06   7.873185e+04
   5.522853e+05   6.584112e+05
  -3.047222e+05   7.219812e+05
  -4.262035e+05   3.735311e+05
   2.090168e+05  -6.032468e+03
   6.455493e+05  -3.811925e+04
   1.579332e+05   3.220353e+05
  -8.423642e+05   6.677514e+05
  -1.313057e+06   4.936164e+05
  -8.074989e+05  -2.252993e+05
   1.059391e+05  -8.934227e+05
   6.071600e+05  -8.722988e+05
   4.762531e+05  -1.864793e+05
   7.199481e+04   4.680020e+05
  -2.400663e+05   4.604876e+05
  -3.534195e+05  -1.141634e+05
  -2.559493e+05  -5.847580e+05
   4.958104e+04  -4.669534e+05
   3.968640e+05   3.235695e+04
   4.892293e+05   3.168138e+05
   2.428989e+05   1.247229e+05
  -5.109407e+04  -1.836893e+05
  -8.033017e+04  -1.084489e+05
   6.431172e+04   3.345030e+05
   1.942593e+04   6.025181e+05
  -3.031077e+05   2.911442e+05
  -5.142938e+05  -3.429542e+05
  -2.230490e+05  -6.530848e+05
   3.960237e+05  -3.346841e+05
   6.966789e+05   2.631797e+05
   2.725217e+05   5.663934e+05
  -5.285439e+05   3.697075e+05
  -9.157930e+05  -6.736861e+04
  -4.926204e+05  -3.853816e+05
   3.017629e+05  -4.322834e+05
   6.604359e+05  -2.619363e+05
   2.857881e+05  -2.139406e+04
  -3.066317e+05   1.016522e+05
  -3.957548e+05  -2.058342e+04
   1.335924e+05  -2.670292e+05
   6.920493e+05  -2.730149e+05
