
 $NMID
 id='ANONYMOUS ', fmtdat='(2E16.6)'
 volume=1.0
 tramp=1.0
 $END
   9.186504e+06  -1.834825e+06
   7.293648e+06   3.250607e+06
   1.221391e+06   6.095001e+06
  -3.529786e+06   4.756647e+06
  -3.590847e+06   8.935683e+05
  -5.046262e+05  -1.779065e+06
   1.925004e+06  -1.144030e+06
   1.728862e+06   1.403758e+06
  -1.460002e+05   2.750954e+06
  -1.677172e+06   1.448901e+06
  -1.700652e+06  -9.726137e+05
  -4.653434e+05  -1.914582e+06
   8.067035e+05  -5.329793e+05
   8.877231e+05   1.525512e+06
  -3.366051e+05   2.019230e+06
  -1.602107e+06   4.328575e+05
  -1.488073e+06  -1.678765e+06
   3.516838e+04  -2.433697e+06
   1.576690e+06  -1.427855e+06
   1.864401e+06   1.829541e+05
   1.007070e+06   1.078415e+06
   1.514571e+05   9.941182e+05
   1.579249e+05   6.500664e+05
   7.582821e+05   7.646155e+05
   8.993446e+05   1.293600e+06
  -1.175244e+05   1.567605e+06
  -1.735777e+06   1.054667e+06
  -2.486156e+06  -4.887080e+04
  -1.502777e+06  -9.572390e+05
   3.560596e+05  -1.004652e+06
   1.285910e+06  -2.428020e+05
   5.134556e+05   6.039413e+05
  -8.996807e+05   7.495766e+05
  -1.408042e+06   9.761377e+03
  -7.124266e+05  -9.974546e+05
   2.205072e+05  -1.336779e+06
   5.191186e+05  -6.473868e+05
   2.338027e+05   3.750140e+05
  -9.220078e+04   6.049877e+05
  -1.103191e+05  -2.297688e+05
   1.983920e+05  -1.102472e+06
   6.267780e+05  -8.387062e+05
   7.578632e+05   3.976176e+05
   2.372296e+05   1.200120e+06
  -6.637584e+05   5.970122e+05
  -1.021040e+06  -7.698081e+05
  -2.043252e+05  -1.416920e+06
   1.210044e+06  -7.012988e+05
   1.848597e+06   6.176500e+05
   9.828242e+05   1.352235e+06
  -6.455834e+05   1.038092e+06
  -1.571153e+06   1.232313e+05
  -1.071685e+06  -6.134018e+05
   2.005780e+05  -6.803702e+05
   9.743304e+05  -1.685299e+05
   6.392204e+05   3.562954e+05
  -2.321296e+05   3.591071e+05
  -5.900300e+05  -1.205443e+05
  -7.384965e+04  -4.956431e+05
   6.176283e+05  -2.909341e+05
   5.657463e+05   3.099572e+05
  -2.736354e+05   6.654676e+05
  -9.933928e+05   3.436748e+05
  -7.527606e+05  -4.837808e+05
   3.141734e+05  -1.203574e+06
   1.299523e+06  -1.219882e+06
   1.485134e+06  -3.970476e+05
   9.466879e+05   7.656807e+05
   2.743626e+05   1.471131e+06
  -9.308138e+04   1.336483e+06
  -1.861143e+05   7.580647e+05
  -2.944261e+05   4.039268e+05
  -5.794984e+05   3.940266e+05
  -8.943106e+05   2.425448e+05
  -9.202046e+05  -3.458809e+05
  -4.762091e+05  -9.340681e+05
   2.540446e+05  -8.412490e+05
   7.849850e+05  -2.010909e+04
   6.860298e+05   8.221980e+05
  -2.600383e+04   9.702130e+05
  -8.267533e+05   3.784692e+05
  -1.096298e+06  -4.096159e+05
  -6.798735e+05  -8.431973e+05
  -2.509319e+04  -7.913087e+05
   3.128207e+05  -5.195251e+05
   2.869161e+05  -3.632855e+05
   3.577354e+05  -4.004010e+05
   8.297186e+05  -3.850799e+05
   1.337522e+06  -1.804040e+04
   1.186624e+06   6.830992e+05
   2.025511e+05   1.297933e+06
  -9.407132e+05   1.332719e+06
  -1.351860e+06   6.764216e+05
  -8.125889e+05  -2.413835e+05
   5.208962e+04  -7.622237e+05
   4.480113e+05  -5.552742e+05
   1.585414e+05   6.352813e+04
  -3.660641e+05   4.161247e+05
  -5.464222e+05   1.616806e+05
  -2.363122e+05  -3.205621e+05
   1.965791e+05  -3.779084e+05
   2.709974e+05   9.104241e+04
  -1.315995e+05   4.510601e+05
  -6.380127e+05   8.690601e+04
  -7.055160e+05  -7.977944e+05
  -1.154479e+05  -1.340198e+06
   7.894465e+05  -9.552145e+05
   1.348189e+06   5.840667e+04
   1.129469e+06   8.790710e+05
   3.214570e+05   9.827465e+05
  -4.145999e+05   5.330019e+05
  -5.449587e+05   7.865297e+04
  -1.623234e+05  -6.718598e+01
   1.457254e+05   2.276235e+05
  -4.189298e+04   3.982362e+05
  -5.037961e+05   2.453398e+05
  -6.443699e+05  -1.329479e+05
  -2.185057e+05  -3.790700e+05
   3.367838e+05  -2.527611e+05
   3.762980e+05   1.087343e+05
  -2.074017e+05   3.185899e+05
  -8.242839e+05   1.162635e+05
  -7.987723e+05  -3.827123e+05
  -7.748248e+04  -7.767940e+05
   7.182238e+05  -7.150288e+05
   9.163853e+05  -2.116386e+05
   4.294786e+05   3.274907e+05
  -2.147452e+05   4.483115e+05
  -4.168259e+05   9.710942e+04
  -5.710035e+04  -2.980935e+05
   4.503527e+05  -2.733269e+05
   5.931655e+05   1.561952e+05
   2.414212e+05   5.184679e+05
  -2.604980e+05   4.334462e+05
  -4.450128e+05   3.487599e+04
  -1.772645e+05  -2.161455e+05
   2.115101e+05  -6.070180e+04
   2.544307e+05   3.041157e+05
  -1.603853e+05   4.667468e+05
  -6.415844e+05   2.136013e+05
  -6.808639e+05  -2.889663e+05
  -1.921861e+05  -6.492140e+05
   3.846500e+05  -5.816203e+05
   5.432818e+05  -1.567511e+05
   2.251302e+05   2.499585e+05
  -1.704534e+05   3.052341e+05
  -2.481103e+05   4.126777e+04
  -9.391475e+03  -2.011309e+05
   2.183495e+05  -1.652236e+05
   1.701553e+05   4.137567e+04
  -8.511731e+04   1.024830e+05
  -2.324322e+05  -1.124836e+05
  -3.765625e+04  -3.801832e+05
   3.973537e+05  -3.575285e+05
   6.932796e+05   5.280750e+04
   5.388525e+05   5.810083e+05
   7.073815e+03   8.179628e+05
  -4.951757e+05   5.762761e+05
  -6.203124e+05   5.954368e+04
  -4.008776e+05  -3.234622e+05
  -1.515629e+05  -3.405347e+05
  -9.114592e+04  -1.390194e+05
  -1.314365e+05  -4.855642e+04
  -4.418524e+04  -1.913590e+05
   2.300042e+05  -3.415267e+05
   4.829512e+05  -2.016075e+05
   4.327826e+05   2.192926e+05
   6.931268e+03   5.615502e+05
  -5.397125e+05   4.627598e+05
  -7.859784e+05  -6.975155e+04
  -4.862391e+05  -6.397779e+05
   1.869059e+05  -8.084260e+05
   7.530636e+05  -4.730839e+05
   8.308408e+05   6.718951e+04
   4.597850e+05   4.076263e+05
   1.619804e+04   4.049487e+05
  -1.733603e+05   2.585500e+05
  -1.110931e+05   2.382186e+05
  -4.416563e+04   3.641160e+05
  -1.585304e+05   3.949183e+05
  -3.799706e+05   1.308276e+05
  -4.586086e+05  -3.192898e+05
  -2.351864e+05  -6.104511e+05
   1.687859e+05  -4.934745e+05
   4.313319e+05  -5.501202e+04
   3.297233e+05   3.641282e+05
  -2.980470e+04   4.683770e+05
  -3.095470e+05   2.362067e+05
  -2.846629e+05  -1.058320e+05
  -6.303194e+04  -3.054388e+05
   6.652242e+04  -2.888681e+05
  -1.926543e+04  -1.751068e+05
  -1.371378e+05  -1.151225e+05
  -2.140813e+04  -1.318948e+05
   3.421477e+05  -1.182558e+05
   6.491140e+05   2.394742e+04
   5.662603e+05   2.597211e+05
   8.717204e+04   4.353554e+05
  -4.244408e+05   4.108585e+05
  -5.730652e+05   1.896668e+05
  -3.119030e+05  -6.633749e+04
   3.894290e+04  -1.638421e+05
   1.494207e+05  -5.674769e+04
   3.165760e+03   9.530006e+04
  -1.601069e+05   8.589292e+04
  -1.609937e+05  -9.892810e+04
  -5.399574e+04  -2.438852e+05
   1.970475e+03  -1.571897e+05
  -4.921070e+04   7.103034e+04
  -1.239169e+05   1.483747e+05
  -1.083154e+05  -6.237456e+04
   4.162209e+04  -3.468676e+05
   2.604112e+05  -3.702880e+05
   3.825160e+05  -6.797089e+04
   2.492608e+05   2.754628e+05
  -1.002780e+05   3.407925e+05
  -3.684794e+05   1.017660e+05
  -2.514620e+05  -1.829906e+05
   1.988452e+05  -2.472420e+05
   5.524841e+05  -4.645130e+04
   4.293244e+05   2.427126e+05
  -8.013442e+04   3.874612e+05
  -4.982016e+05   2.782043e+05
  -4.630982e+05   1.210414e+04
  -8.700956e+04  -1.796065e+05
   2.019126e+05  -1.347036e+05
   1.208212e+05   6.895241e+04
  -2.010752e+05   1.657031e+05
  -3.888834e+05  -2.869065e+04
  -2.117028e+05  -3.899434e+05
   1.987550e+05  -5.620547e+05
   4.923349e+05  -3.031134e+05
   4.377013e+05   2.351292e+05
   1.124875e+05   6.046421e+05
  -2.120772e+05   4.820043e+05
  -3.262114e+05  -8.819239e+02
  -2.131941e+05  -3.842137e+05
   4.283434e+03  -3.574914e+05
   1.745051e+05  -6.336428e+04
   1.978317e+05   1.214595e+05
   9.213103e+04   5.373702e+04
   1.091649e+03  -4.455997e+04
   5.555357e+04   6.543709e+04
   1.820219e+05   2.986131e+05
   1.362259e+05   3.662441e+05
  -1.823045e+05   1.635299e+05
  -5.160490e+05  -1.144972e+05
  -4.930348e+05  -2.454071e+05
  -8.776000e+04  -2.213677e+05
   3.073765e+05  -1.601251e+05
   3.384183e+05  -1.019418e+05
   9.580166e+04  -1.387572e+04
  -5.514348e+04   7.573618e+04
   3.170272e+04   9.132323e+04
   1.316068e+05   4.871510e+04
   4.416655e+03   4.493362e+04
  -2.584872e+05   7.892044e+04
  -3.446848e+05   1.175080e+04
  -1.032799e+05  -2.101435e+05
   2.881518e+05  -3.891689e+05
   5.194036e+05  -2.684799e+05
   4.313091e+05   1.281205e+05
   1.117318e+05   4.690895e+05
  -2.094542e+05   4.665083e+05
  -3.345786e+05   1.793886e+05
  -2.295301e+05  -8.356690e+04
  -3.661486e+04  -1.147022e+05
   5.504329e+04   1.418905e+03
  -1.528516e+04   3.535193e+04
  -1.289937e+05  -1.041452e+05
  -1.191987e+05  -2.643484e+05
   5.023375e+04  -2.224964e+05
   2.367453e+05   5.003893e+04
   2.460004e+05   3.236593e+05
   2.216600e+04   3.348645e+05
  -2.660627e+05   6.363224e+04
  -3.490196e+05  -2.481731e+05
  -1.186461e+05  -3.515875e+05
   2.257992e+05  -2.156727e+05
   3.560245e+05   7.165279e+03
   1.726295e+05   1.647379e+05
  -7.463205e+04   1.997306e+05
  -8.669908e+04   1.258031e+05
   1.153215e+05   1.177719e+04
   2.242401e+05  -2.311811e+04
   4.527360e+04   9.203900e+04
  -2.590047e+05   2.514656e+05
  -3.797868e+05   2.379883e+05
  -2.269292e+05  -1.234723e+04
   1.308855e+04  -2.789175e+05
   1.333631e+05  -2.871285e+05
   1.035172e+05  -4.221959e+04
   1.117670e+04   1.712056e+05
  -7.448294e+04   1.326499e+05
  -1.211744e+05  -7.016930e+04
  -9.389309e+04  -1.872974e+05
   1.375050e+04  -1.162030e+05
   1.294162e+05   1.845182e+04
   1.561429e+05   6.085935e+04
   8.393643e+04   7.762342e+03
  -1.411551e+03  -2.511154e+04
  -3.091561e+04   3.571880e+04
  -2.986991e+04   1.343015e+05
  -6.010082e+04   1.486475e+05
  -1.167476e+05   2.522086e+04
  -1.203056e+05  -1.486179e+05
  -1.467701e+04  -2.138738e+05
   1.429222e+05  -9.890191e+04
   2.070732e+05   9.612521e+04
   8.215175e+04   1.962955e+05
  -1.514266e+05   1.298827e+05
  -2.775859e+05  -1.682200e+04
  -1.596398e+05  -1.149041e+05
   8.727553e+04  -1.180433e+05
   1.980966e+05  -6.412731e+04
   5.955106e+04  -8.566586e+03
  -1.448872e+05   5.075972e+03
  -1.481538e+05  -4.559547e+04
   7.700500e+04  -1.191696e+05
   2.849988e+05  -1.039612e+05
