
 $NMID
 id='ANONYMOUS ', fmtdat='(2E16.6)'
 volume=1.0
 tramp=1.0
 $END
   3.265518e+07   4.949597e+05
   2.004263e+07   1.893068e+07
  -3.253771e+06   2.157238e+07
  -1.550316e+07   9.968047e+06
  -1.024742e+07  -2.421976e+06
   1.123348e+06  -5.536265e+06
   5.993057e+06  -4.192357e+05
   2.651591e+06   5.545700e+06
  -2.987106e+06   6.554467e+06
  -5.788663e+06   2.031659e+06
  -4.427494e+06  -3.869064e+06
  -4.743323e+05  -5.626767e+06
   2.627841e+06  -1.510298e+06
   1.829413e+06   4.022826e+06
  -2.142308e+06   4.738300e+06
  -4.865634e+06  -3.714257e+05
  -2.999363e+06  -6.131020e+06
   2.051546e+06  -7.256750e+06
   6.047924e+06  -3.500185e+06
   6.295440e+06   1.516983e+06
   3.404759e+06   4.491931e+06
   3.134954e+04   4.563479e+06
  -1.238512e+06   2.965181e+06
   5.478001e+04   1.832852e+06
   1.413871e+06   2.394935e+06
  -2.109969e+05   3.485856e+06
  -4.341488e+06   2.720973e+06
  -6.710782e+06  -2.924948e+05
  -4.322675e+06  -3.052803e+06
   5.541189e+05  -3.173634e+06
   3.086211e+06  -1.129806e+06
   1.584124e+06   8.194891e+05
  -1.324653e+06   1.242624e+06
  -2.571871e+06   1.238281e+05
  -1.647404e+06  -1.826108e+06
   1.554646e+05  -3.145502e+06
   1.491936e+06  -2.182279e+06
   1.535721e+06   6.418720e+05
   3.856119e+05   2.215571e+06
  -5.361367e+05   4.391628e+05
   1.972941e+05  -2.278808e+06
   1.790848e+06  -1.775681e+06
   1.691638e+06   1.814731e+06
  -9.447644e+05   3.666751e+06
  -3.516362e+06   7.600280e+05
  -2.856834e+06  -3.832451e+06
   9.007467e+05  -4.878818e+06
   4.416604e+06  -1.417076e+06
   4.669103e+06   2.765313e+06
   1.602971e+06   4.008361e+06
  -2.224897e+06   2.117426e+06
  -3.816994e+06  -6.769647e+05
  -2.044487e+06  -2.176092e+06
   1.270255e+06  -1.537793e+06
   2.856590e+06   3.666755e+05
   1.381567e+06   1.560536e+06
  -1.002113e+06   8.738294e+05
  -1.323314e+06  -6.156759e+05
   4.600435e+05  -8.735865e+05
   1.594796e+06   4.465489e+05
   2.634076e+05   1.654962e+06
  -2.197566e+06   1.295696e+06
  -3.152818e+06  -3.645220e+05
  -1.598149e+06  -2.213532e+06
   1.310303e+06  -3.381334e+06
   3.697694e+06  -3.098120e+06
   4.239302e+06  -8.675341e+05
   2.755120e+06   2.341695e+06
   4.118072e+05   4.176873e+06
  -1.043356e+06   3.339713e+06
  -9.483559e+05   1.286061e+06
  -3.898884e+05   3.796870e+05
  -7.159221e+05   8.630062e+05
  -1.767922e+06   9.226219e+05
  -2.204440e+06  -4.375356e+05
  -1.277290e+06  -1.949369e+06
   3.798967e+05  -1.839177e+06
   1.544891e+06  -4.390655e+04
   1.380042e+06   1.851150e+06
  -1.558567e+05   2.292183e+06
  -2.130476e+06   9.706709e+05
  -2.985746e+06  -1.149446e+06
  -1.885808e+06  -2.607324e+06
   1.810465e+05  -2.577505e+06
   1.381201e+06  -1.562993e+06
   1.257183e+06  -7.655159e+05
   1.162518e+06  -6.546331e+05
   2.144029e+06  -5.113753e+05
   3.238756e+06   4.670881e+05
   2.637646e+06   2.038495e+06
   1.085831e+05   3.148455e+06
  -2.534014e+06   2.956820e+06
  -3.322118e+06   1.446240e+06
  -1.983362e+06  -5.667222e+05
   4.988419e+04  -1.790385e+06
   1.045779e+06  -1.367258e+06
   4.077021e+05   1.141949e+05
  -9.160470e+05   9.571779e+05
  -1.409374e+06   2.617029e+05
  -5.859772e+05  -8.929204e+05
   4.833254e+05  -8.607731e+05
   4.692047e+05   2.762321e+05
  -5.998132e+05   7.525942e+05
  -1.411908e+06  -4.853411e+05
  -9.217327e+05  -2.325596e+06
   6.352829e+05  -2.831088e+06
   2.197761e+06  -1.415508e+06
   2.811389e+06   7.765847e+05
   2.098974e+06   2.209476e+06
   4.440108e+05   2.197149e+06
  -1.038540e+06   1.148520e+06
  -1.271705e+06   1.139111e+05
  -3.826221e+05  -3.986626e+04
   2.787384e+05   5.794574e+05
  -2.735054e+05   9.771407e+05
  -1.370270e+06   4.291238e+05
  -1.517034e+06  -5.987254e+05
  -3.427839e+05  -1.020575e+06
   8.828037e+05  -4.685904e+05
   7.704734e+05   3.454655e+05
  -5.994640e+05   5.377592e+05
  -1.807258e+06  -8.720874e+04
  -1.560950e+06  -1.057130e+06
   9.367437e+04  -1.672665e+06
   1.823773e+06  -1.386995e+06
   2.180175e+06  -2.326278e+05
   9.268085e+05   9.388978e+05
  -6.840684e+05   1.078472e+06
  -1.115430e+06   1.175757e+05
  -9.805600e+04  -7.874869e+05
   1.160934e+06  -5.439733e+05
   1.338159e+06   5.695866e+05
   3.400751e+05   1.274031e+06
  -7.803331e+05   8.412319e+05
  -1.001293e+06  -1.410013e+05
  -2.667715e+05  -5.724355e+05
   5.664767e+05  -5.549315e+04
   5.430054e+05   8.069587e+05
  -4.788257e+05   1.085951e+06
  -1.570817e+06   3.770383e+05
  -1.557438e+06  -8.444034e+05
  -2.843856e+05  -1.599054e+06
   1.094646e+06  -1.266380e+06
   1.328348e+06  -1.882232e+05
   4.218564e+05   6.587363e+05
  -4.963737e+05   6.446921e+05
  -5.433264e+05   5.157992e+04
   5.116842e+04  -3.693538e+05
   4.551431e+05  -2.531585e+05
   2.412271e+05   7.553682e+04
  -2.725868e+05   6.410033e+04
  -4.431214e+05  -4.225760e+05
   9.329199e+04  -9.042777e+05
   1.052501e+06  -7.099742e+05
   1.616826e+06   3.188427e+05
   1.124420e+06   1.514919e+06
  -1.843264e+05   1.905507e+06
  -1.279388e+06   1.159922e+06
  -1.385487e+06  -5.522973e+04
  -7.670043e+05  -7.667560e+05
  -2.768844e+05  -6.649062e+05
  -2.906915e+05  -2.697278e+05
  -3.901743e+05  -2.121731e+05
  -5.263914e+04  -5.327634e+05
   6.564844e+05  -7.158591e+05
   1.150665e+06  -2.988359e+05
   8.877376e+05   5.865563e+05
  -1.551771e+05   1.219631e+06
  -1.358767e+06   8.877160e+05
  -1.786370e+06  -3.724254e+05
  -9.223334e+05  -1.629514e+06
   7.262161e+05  -1.835796e+06
   1.933930e+06  -8.454895e+05
   1.869886e+06   4.459251e+05
   8.527290e+05   1.046458e+06
  -1.042524e+05   8.339377e+05
  -3.747766e+05   4.858642e+05
  -1.901898e+05   5.771130e+05
  -1.502145e+05   9.431827e+05
  -5.101212e+05   9.440415e+05
  -9.727483e+05   2.217742e+05
  -1.019517e+06  -8.604412e+05
  -4.127045e+05  -1.488963e+06
   5.065604e+05  -1.119326e+06
   1.012799e+06  -6.311409e+03
   6.487788e+05   9.708682e+05
  -2.536850e+05   1.082030e+06
  -8.411358e+05   3.808154e+05
  -6.206702e+05  -4.402454e+05
   2.720025e+04  -7.780532e+05
   3.282426e+05  -6.207471e+05
   3.004118e+04  -3.631492e+05
  -3.186511e+05  -2.862299e+05
  -3.273060e+04  -3.086556e+05
   8.654024e+05  -1.694782e+05
   1.563151e+06   2.525477e+05
   1.256311e+06   7.870307e+05
   1.993270e+04   1.076216e+06
  -1.179757e+06   8.613620e+05
  -1.407847e+06   2.484771e+05
  -6.700062e+05  -3.130441e+05
   1.764431e+05  -4.063600e+05
   3.789807e+05  -5.511703e+04
  -2.700603e+03   2.825985e+05
  -3.730613e+05   1.850391e+05
  -3.647987e+05  -2.723054e+05
  -1.359490e+05  -5.834927e+05
  -1.816730e+04  -3.792830e+05
  -1.145124e+05   1.125214e+05
  -2.642690e+05   2.756532e+05
  -2.248281e+05  -1.770654e+05
   1.452266e+05  -7.900581e+05
   7.077209e+05  -8.170698e+05
   1.000204e+06  -9.029926e+04
   5.941469e+05   7.234167e+05
  -3.327513e+05   8.357955e+05
  -9.484379e+05   2.010659e+05
  -5.614492e+05  -4.717503e+05
   5.397012e+05  -5.142241e+05
   1.268331e+06   5.457078e+04
   8.565913e+05   6.684938e+05
  -3.315254e+05   8.183089e+05
  -1.193454e+06   4.435986e+05
  -1.016150e+06  -1.170998e+05
  -1.304596e+05  -4.175074e+05
   5.049624e+05  -2.332881e+05
   2.819367e+05   2.161569e+05
  -4.880705e+05   3.794964e+05
  -9.228481e+05  -1.120415e+05
  -4.699531e+05  -9.528568e+05
   5.328303e+05  -1.312778e+06
   1.200361e+06  -6.488219e+05
   9.796204e+05   6.261993e+05
   1.377611e+05   1.425419e+06
  -5.953167e+05   1.042354e+06
  -7.383652e+05  -1.142089e+05
  -3.648866e+05  -9.395567e+05
   1.382664e+05  -7.877455e+05
   4.315974e+05  -8.032898e+04
   3.959898e+05   3.091085e+05
   1.621870e+05   1.210646e+05
   2.608774e+04  -8.562329e+04
   1.697946e+05   2.114543e+05
   3.765149e+05   7.565545e+05
   1.832672e+05   8.609797e+05
  -5.204619e+05   3.141286e+05
  -1.167931e+06  -3.800383e+05
  -1.042730e+06  -6.710140e+05
  -1.453775e+05  -5.449587e+05
   7.099928e+05  -3.203474e+05
   7.910464e+05  -1.486397e+05
   2.569991e+05   2.504743e+04
  -1.294504e+05   1.734371e+05
   8.088153e+03   1.809116e+05
   2.484673e+05   9.879631e+04
   2.314536e+04   1.079448e+05
  -5.669287e+05   1.647494e+05
  -8.204883e+05  -3.105454e+04
  -2.768192e+05  -5.433988e+05
   7.124770e+05  -8.968794e+05
   1.321431e+06  -5.510504e+05
   1.060552e+06   3.760364e+05
   1.876610e+05   1.118285e+06
  -6.084078e+05   1.064302e+06
  -8.321810e+05   3.880592e+05
  -5.199641e+05  -2.108343e+05
  -8.569302e+04  -2.832951e+05
   8.851118e+04  -2.956780e+04
  -5.215576e+04   3.768933e+04
  -2.505775e+05  -2.817975e+05
  -2.016474e+05  -6.396601e+05
   1.556016e+05  -5.259467e+05
   5.430179e+05   1.264060e+05
   5.520344e+05   7.811265e+05
   4.233857e+04   8.105393e+05
  -6.169525e+05   1.548676e+05
  -7.976829e+05  -6.090160e+05
  -2.416667e+05  -8.605753e+05
   5.743981e+05  -5.021535e+05
   8.644418e+05   7.972785e+04
   3.937758e+05   4.652813e+05
  -2.307535e+05   5.013678e+05
  -2.754291e+05   2.790056e+05
   2.247772e+05   2.119166e+04
   5.203160e+05  -1.965806e+04
   1.021587e+05   2.385103e+05
  -6.575829e+05   5.310030e+05
  -9.726888e+05   4.355303e+05
  -5.694679e+05  -1.242060e+05
   8.733987e+04  -6.725099e+05
   4.180363e+05  -6.571820e+05
   3.078349e+05  -1.020051e+05
   2.207387e+04   3.903731e+05
  -1.984626e+05   3.249876e+05
  -2.778131e+05  -1.454045e+05
  -1.904359e+05  -4.586571e+05
   5.288544e+04  -3.125567e+05
   3.066715e+05   5.047596e+04
   3.629614e+05   2.078915e+05
   1.898617e+05   6.222524e+04
  -1.242819e+04  -9.839335e+04
  -6.424815e+04   7.063903e+03
  -2.995029e+04   2.955001e+05
  -9.574478e+04   4.049476e+05
  -2.700011e+05   1.221245e+05
  -3.233706e+05  -3.342250e+05
  -7.160713e+04  -5.163512e+05
   3.380190e+05  -2.312624e+05
   5.039497e+05   2.439568e+05
   1.813488e+05   4.649574e+05
  -3.960732e+05   2.792822e+05
  -6.799768e+05  -7.983356e+04
  -3.663211e+05  -3.031698e+05
   2.356639e+05  -2.935897e+05
   4.993347e+05  -1.500917e+05
   1.778431e+05  -7.833369e+03
  -3.013298e+05   3.026271e+04
  -3.316568e+05  -8.233986e+04
   1.579057e+05  -2.447814e+05
   6.256601e+05  -2.057829e+05
