
 $NMID
 id='ANONYMOUS ', fmtdat='(2E16.6)'
 volume=1.0
 tramp=1.0
 $END
   2.121284e+07   3.249322e+06
   9.257139e+06   1.772299e+07
  -7.885303e+06   1.466993e+07
  -1.269501e+07   8.762416e+05
  -4.524913e+06  -7.237359e+06
   3.770786e+06  -4.101016e+06
   3.938649e+06   2.438739e+06
  -7.459456e+05   4.499435e+06
  -3.973835e+06   2.096740e+06
  -3.935000e+06  -1.147107e+06
  -1.900793e+06  -3.172967e+06
   7.317599e+05  -3.165183e+06
   2.174469e+06  -9.780374e+05
   9.208330e+05   1.408229e+06
  -1.694858e+06   1.114474e+06
  -2.320293e+06  -1.710005e+06
   4.781892e+04  -3.731333e+06
   2.911006e+06  -2.885628e+06
   3.994742e+06  -4.596879e+05
   3.498790e+06   1.731943e+06
   2.098646e+06   3.373424e+06
  -3.127175e+05   4.056603e+06
  -2.775668e+06   2.678155e+06
  -3.035328e+06  -1.116905e+05
  -8.592736e+05  -1.462663e+06
   7.769324e+05  -1.141839e+05
  -3.266194e+05   1.504603e+06
  -2.435723e+06   7.776532e+05
  -2.626128e+06  -1.431875e+06
  -8.635867e+05  -2.567457e+06
   7.711577e+05  -2.079385e+06
   1.375978e+06  -1.176372e+06
   1.446048e+06  -3.526455e+05
   1.024267e+06   4.966148e+05
   4.309991e+04   6.325166e+05
  -3.550127e+05  -4.217203e+05
   7.548680e+05  -1.171771e+06
   1.965565e+06  -1.966824e+04
   1.286620e+06   1.800623e+06
  -4.795653e+05   1.789387e+06
  -7.866109e+05   2.913809e+05
   3.844565e+05   7.962149e+04
   2.969890e+05   1.648269e+06
  -1.928060e+06   2.071141e+06
  -3.437792e+06  -3.570952e+05
  -1.808900e+06  -3.141833e+06
   1.313304e+06  -3.051435e+06
   2.602890e+06  -5.018526e+05
   1.361888e+06   1.515321e+06
  -4.552609e+05   1.435342e+06
  -1.233170e+06   1.039830e+05
  -8.187583e+05  -1.162334e+06
   3.949374e+05  -1.584395e+06
   1.644667e+06  -7.244876e+05
   1.693852e+06   9.254297e+05
   2.694211e+05   1.683693e+06
  -9.238484e+05   6.467791e+05
  -2.937832e+05  -6.124049e+05
   1.061873e+06  -4.000850e+04
   7.494464e+05   1.690196e+06
  -1.266953e+06   1.976811e+06
  -2.516835e+06   1.502817e+05
  -1.646452e+06  -1.647095e+06
  -4.801236e+04  -1.760640e+06
   6.943360e+05  -1.029644e+06
   9.057532e+05  -6.866335e+05
   1.303994e+06  -3.046080e+05
   1.227963e+06   7.672381e+05
  -2.146439e+04   1.535044e+06
  -1.331201e+06   7.310988e+05
  -1.053309e+06  -8.740709e+05
   4.947725e+05  -1.309521e+06
   1.412414e+06  -1.590205e+05
   8.217264e+05   1.057868e+06
  -3.034296e+05   1.124382e+06
  -8.144871e+05   3.938370e+05
  -6.209154e+05  -2.280054e+05
  -1.660027e+05  -3.735841e+05
   2.075232e+05  -8.358797e+04
   1.537295e+05   4.197039e+05
  -4.763366e+05   5.726838e+05
  -1.088523e+06  -8.627430e+04
  -8.143406e+05  -1.080376e+06
   2.471241e+05  -1.351367e+06
   1.020029e+06  -6.541649e+05
   9.000224e+05   1.470907e+05
   4.295836e+05   3.703030e+05
   2.612270e+05   2.968531e+05
   2.674265e+05   3.710784e+05
   9.985913e+04   4.511545e+05
  -1.176456e+05   3.213312e+05
  -1.846679e+05   2.175326e+05
  -2.818534e+05   2.925027e+05
  -4.879793e+05   1.946187e+05
  -4.211051e+05  -2.363150e+05
   5.744442e+04  -4.584945e+05
   3.468873e+05  -7.781970e+04
  -1.421809e+04   3.510533e+05
  -4.932077e+05   1.470772e+05
  -3.657017e+05  -3.537078e+05
   8.074260e+04  -3.732025e+05
   6.906158e+04  -4.724489e+04
  -2.588422e+05  -1.642649e+05
  -3.761399e+04  -6.898855e+05
   7.671710e+05  -6.783917e+05
   1.118657e+06   1.750075e+05
   4.805792e+05   9.378251e+05
  -3.639239e+05   8.056861e+05
  -5.244348e+05   1.897873e+05
  -1.960039e+05  -1.002685e+05
  -4.873172e+04  -2.676250e+04
  -1.208023e+05  -2.050190e+04
  -4.743285e+04  -8.051899e+04
   9.170172e+04   6.860280e+04
  -6.210816e+04   2.702851e+05
  -3.881016e+05   1.291762e+05
  -4.140440e+05  -2.561267e+05
  -9.856898e+04  -4.091828e+05
   1.394382e+05  -2.444568e+05
   1.308853e+05  -1.248981e+05
   1.208154e+05  -1.825994e+05
   2.173249e+05  -1.603831e+05
   2.287052e+05   2.827159e+04
   1.211622e+05   1.343443e+05
   1.194325e+05   8.091156e+04
   2.246101e+05   1.210651e+05
   1.238612e+05   3.144684e+05
  -2.310256e+05   3.273829e+05
  -4.150895e+05   4.579777e+03
  -1.617115e+05  -2.813505e+05
   1.910123e+05  -1.665284e+05
   1.958816e+05   1.530009e+05
  -7.902682e+04   2.441020e+05
  -2.517116e+05   5.250365e+04
  -1.964808e+05  -1.442722e+05
  -6.903870e+04  -2.003917e+05
   4.298232e+04  -1.768736e+05
   1.456132e+05  -9.688652e+04
   1.504724e+05   4.155739e+04
  -2.293865e+03   1.022345e+05
  -1.242525e+05  -2.919960e+04
   1.423204e+02  -1.864663e+05
   2.393154e+05  -1.162053e+05
   2.720575e+05   1.225058e+05
   6.946739e+04   2.435451e+05
  -1.002526e+05   1.756189e+05
  -1.225825e+05   1.060561e+05
  -1.474790e+05   9.610121e+04
  -2.226857e+05  -5.449446e+03
  -1.727398e+05  -2.096799e+05
   5.060092e+04  -2.839946e+05
   2.170839e+05  -1.234726e+05
   1.694711e+05   6.533550e+04
   5.195160e+04   1.003520e+05
   2.182666e+04   7.684369e+04
  -4.063079e+03   1.130899e+05
  -1.146940e+05   1.042235e+05
  -1.648685e+05  -4.569619e+04
  -2.354778e+04  -1.709519e+05
   1.385427e+05  -9.114386e+04
   9.592465e+04   6.178741e+04
  -4.778837e+04   5.216015e+04
  -3.181763e+04  -5.407855e+04
   1.087656e+05  -8.554882e+03
   9.782426e+04   1.694474e+05
  -1.069256e+05   1.998236e+05
  -2.340377e+05   1.489235e+03
  -1.356250e+05  -1.794551e+05
   1.152796e+04  -1.685771e+05
   4.118385e+04  -9.217415e+04
   4.558983e+04  -9.003542e+04
   1.339285e+05  -7.174671e+04
   1.907193e+05   6.297298e+04
   8.237246e+04   1.810926e+05
  -7.489019e+04   1.144765e+05
  -7.946107e+04  -4.459610e+04
   3.715624e+04  -7.069322e+04
   7.365475e+04   5.673418e+04
  -2.586851e+04   1.497260e+05
  -1.224792e+05   1.009048e+05
  -1.177167e+05  -1.144959e+04
  -5.543926e+04  -8.878683e+04
   5.782393e+03  -1.126784e+05
   5.790946e+04  -7.887268e+04
   7.021101e+04   1.405468e+04
  -3.566287e+01   9.185200e+04
  -9.753300e+04   5.718153e+04
  -1.009132e+05  -5.803624e+04
   2.229713e+03  -1.141057e+05
   8.889546e+04  -6.308897e+04
   8.145273e+04  -5.773738e+03
   4.014990e+04  -1.574519e+04
   3.642935e+04  -3.190329e+04
   4.891796e+04   1.632565e+04
   3.923087e+04   8.886157e+04
   2.482055e+04   1.135618e+05
   1.337708e+04   9.350307e+04
  -3.560964e+04   6.133967e+04
  -1.133779e+05   8.871609e+03
  -1.242742e+05  -5.909746e+04
  -3.136546e+04  -7.699369e+04
   5.154054e+04  -1.363258e+04
   1.647423e+04   4.816064e+04
  -6.881312e+04   2.031719e+04
  -6.714836e+04  -5.543949e+04
   1.385368e+04  -7.834953e+04
   5.117849e+04  -4.662296e+04
   1.500640e+04  -3.544707e+04
   4.483317e+01  -5.101158e+04
   4.824574e+04  -2.800389e+04
   8.309960e+04   3.655583e+04
   5.197528e+04   6.826863e+04
   7.428731e+03   4.542732e+04
  -2.981235e+03   2.889077e+04
  -1.533768e+04   3.786390e+04
  -5.374632e+04   1.247719e+04
  -5.737345e+04  -5.505500e+04
   1.379065e+04  -6.711028e+04
   8.061927e+04   2.718308e+04
   4.737787e+04   1.223206e+05
  -5.190190e+04   9.368023e+04
  -1.028797e+05  -2.392975e+04
  -6.911977e+04  -9.476141e+04
  -1.134558e+04  -7.114349e+04
   2.292904e+04  -2.122630e+04
   3.673915e+04   1.751575e+03
   2.700526e+04   1.007887e+04
  -1.380498e+04   8.241089e+03
  -3.929185e+04  -2.574178e+04
   1.246125e+04  -6.751621e+04
   1.045831e+05  -4.676936e+04
   1.165909e+05   4.391229e+04
   1.000153e+04   1.132444e+05
  -1.018551e+05   8.656340e+04
  -1.009799e+05   1.145395e+03
  -1.502750e+04  -5.447998e+04
   4.216009e+04  -4.916903e+04
   2.870153e+04  -1.591047e+04
  -7.242511e+02   9.580052e+03
  -4.761340e+01   1.371918e+04
   1.461240e+04  -1.299292e+03
   1.501570e+04  -1.092423e+04
   2.529751e+03   1.676917e+04
  -1.317768e+04   6.604819e+04
  -3.297251e+04   6.762780e+04
  -4.976245e+04  -1.026292e+04
  -4.251787e+04  -9.747791e+04
  -4.833893e+03  -1.010519e+05
   3.948391e+04  -2.593217e+04
   5.915457e+04   3.981455e+04
   4.246645e+04   4.573707e+04
   2.827350e+03   2.334010e+04
  -2.944718e+04   1.260812e+04
  -2.850474e+04   8.579360e+03
  -3.542139e+03  -3.987706e+03
   4.227611e+03  -1.744041e+04
  -2.110672e+04  -2.570093e+04
  -3.324373e+04  -3.751112e+04
   1.662185e+04  -4.284619e+04
   9.348178e+04  -9.812699e+03
   1.050722e+05   5.683812e+04
   2.398093e+04   9.549654e+04
  -6.892958e+04   6.278800e+04
  -8.771926e+04  -3.520360e+03
  -4.250213e+04  -3.544772e+04
  -2.548999e+03  -2.148113e+04
   2.522701e+03  -1.394024e+03
  -2.747703e+03   1.436645e+03
   8.040608e+02  -4.820315e+03
   5.956740e+03  -1.639261e+04
   1.039730e+04  -3.319925e+04
   2.117197e+04  -2.987603e+04
   2.544802e+04   1.719307e+04
  -3.281984e+02   7.068039e+04
  -4.284418e+04   5.798388e+04
  -5.236253e+04  -2.500432e+04
  -7.920577e+03  -8.863110e+04
   4.827004e+04  -6.079086e+04
   6.152652e+04   1.885258e+04
   2.741512e+04   5.765453e+04
  -1.419894e+04   3.163193e+04
  -2.851186e+04  -1.513709e+03
  -1.184730e+04   4.507546e+03
   1.424791e+04   3.097122e+04
   1.776457e+04   3.766811e+04
  -1.838581e+04   1.664000e+04
  -6.785651e+04  -1.367031e+04
  -7.479308e+04  -3.772036e+04
  -1.839206e+04  -4.674569e+04
   5.071190e+04  -3.317229e+04
   6.434693e+04  -1.475329e+03
   1.777345e+04   2.477954e+04
  -3.028391e+04   2.278817e+04
  -3.322715e+04  -4.692308e+03
  -2.647947e+03  -3.178797e+04
   2.298200e+04  -3.413570e+04
   2.625245e+04  -9.018259e+03
   1.601549e+04   2.280623e+04
   6.112355e+03   3.403296e+04
   3.410113e+03   1.767377e+04
   5.083755e+03  -2.532945e+03
  -9.069185e+02   4.912952e+02
  -2.155177e+04   1.918996e+04
  -4.072504e+04   1.784858e+04
  -3.146832e+04  -1.632709e+04
   6.321693e+03  -4.768689e+04
   3.772919e+04  -3.456350e+04
   3.345262e+04   1.454054e+04
   3.075039e+03   4.789512e+04
  -2.394933e+04   3.114472e+04
  -3.308936e+04  -1.646018e+04
  -2.487691e+04  -4.822253e+04
   3.725194e+02  -3.860632e+04
   3.299475e+04  -2.069349e+03
   4.329632e+04   2.577917e+04
   1.286784e+04   2.091019e+04
  -2.736998e+04  -8.059295e+03
  -2.481949e+04  -2.777413e+04
   2.248287e+04  -1.386723e+04
   5.367085e+04   2.221177e+04
