
 $NMID
 id='ANONYMOUS ', fmtdat='(2E16.6)'
 volume=1.0
 tramp=1.0
 $END
  -3.488171e+07  -2.977788e+05
  -2.233988e+07  -1.847335e+07
   1.869238e+06  -2.264254e+07
   1.592603e+07  -1.253630e+07
   1.180290e+07   7.176585e+05
  -2.900647e+05   6.110057e+06
  -6.777068e+06   1.703165e+06
  -4.022424e+06  -5.821996e+06
   2.510964e+06  -8.276794e+06
   6.397622e+06  -3.174488e+06
   5.168308e+06   4.345695e+06
   5.766369e+05   6.650179e+06
  -3.093129e+06   1.551386e+06
  -2.291161e+06  -5.182670e+06
   2.208197e+06  -6.084541e+06
   5.542203e+06  -1.082346e+05
   3.765168e+06   6.725278e+06
  -1.900084e+06   8.229740e+06
  -6.567319e+06   3.939780e+06
  -6.757126e+06  -1.812622e+06
  -3.275726e+06  -4.843178e+06
   2.196750e+05  -4.379962e+06
   7.586563e+05  -2.653726e+06
  -1.252096e+06  -2.296565e+06
  -2.295035e+06  -3.750564e+06
   5.827219e+05  -4.806900e+06
   5.839681e+06  -3.105912e+06
   8.284698e+06   8.403118e+05
   4.880012e+06   3.870697e+06
  -1.275478e+06   3.604397e+06
  -4.218874e+06   8.330821e+05
  -1.812441e+06  -1.711592e+06
   2.435912e+06  -2.014092e+06
   4.017964e+06   5.536740e+04
   2.115676e+06   2.953807e+06
  -7.278411e+05   4.205689e+06
  -1.996913e+06   2.272902e+06
  -1.260656e+06  -1.231422e+06
   1.764300e+05  -2.431064e+06
   6.112962e+05   2.197671e+05
  -6.211391e+05   3.291240e+06
  -2.272754e+06   2.365278e+06
  -2.123602e+06  -1.881545e+06
   4.661475e+05  -4.083444e+06
   3.229661e+06  -1.096664e+06
   3.037698e+06   3.843598e+06
  -6.373566e+05   5.186958e+06
  -4.805951e+06   1.624137e+06
  -5.697983e+06  -3.081063e+06
  -2.317139e+06  -4.802702e+06
   2.579673e+06  -2.853472e+06
   4.889626e+06   4.749319e+05
   2.867440e+06   2.472683e+06
  -1.214709e+06   1.940519e+06
  -3.306474e+06  -1.784641e+05
  -1.757797e+06  -1.636715e+06
   1.069660e+06  -1.032526e+06
   1.743615e+06   6.713714e+05
  -1.867137e+05   1.307779e+06
  -1.909071e+06   1.245209e+05
  -9.642042e+05  -1.457104e+06
   1.839873e+06  -1.659108e+06
   3.480630e+06  -1.053165e+05
   2.021225e+06   2.249438e+06
  -1.608966e+06   3.959237e+06
  -4.701173e+06   3.640138e+06
  -5.157797e+06   8.355991e+05
  -3.062704e+06  -2.964708e+06
  -3.558608e+05  -5.049731e+06
   1.037400e+06  -4.170636e+06
   9.366839e+05  -1.982521e+06
   7.308359e+05  -9.330988e+05
   1.506838e+06  -1.199660e+06
   2.718390e+06  -8.599548e+05
   2.915261e+06   1.042891e+06
   1.455975e+06   2.907713e+06
  -8.096157e+05   2.552533e+06
  -2.301404e+06  -3.980124e+04
  -1.885198e+06  -2.631692e+06
   3.165629e+05  -3.038602e+06
   2.788723e+06  -1.057590e+06
   3.579288e+06   1.653530e+06
   2.057246e+06   3.173022e+06
  -3.066747e+05   2.866677e+06
  -1.495342e+06   1.677473e+06
  -1.285545e+06   9.546178e+05
  -1.337608e+06   9.839519e+05
  -2.731821e+06   8.090535e+05
  -4.189193e+06  -4.873571e+05
  -3.457942e+06  -2.585479e+06
  -1.785954e+05  -4.120181e+06
   3.356071e+06  -3.874854e+06
   4.433337e+06  -1.779823e+06
   2.553121e+06   9.182276e+05
  -2.607121e+05   2.398358e+06
  -1.515511e+06   1.698596e+06
  -5.118153e+05  -2.180191e+05
   1.258449e+06  -1.222520e+06
   1.804119e+06  -3.190855e+05
   6.795625e+05   1.138152e+06
  -6.998729e+05   1.131220e+06
  -7.318265e+05  -3.514889e+05
   6.208643e+05  -1.177467e+06
   1.874846e+06   2.261343e+05
   1.586014e+06   2.786964e+06
  -3.541644e+05   3.917233e+06
  -2.728693e+06   2.333784e+06
  -3.926247e+06  -7.395532e+05
  -3.050248e+06  -2.965784e+06
  -6.716197e+05  -3.036225e+06
   1.419120e+06  -1.531330e+06
   1.709994e+06  -1.087509e+05
   5.038078e+05   5.262703e+04
  -3.741096e+05  -7.599659e+05
   3.120987e+05  -1.244595e+06
   1.716540e+06  -5.674982e+05
   1.962141e+06   7.034044e+05
   4.978941e+05   1.284744e+06
  -1.144209e+06   6.485215e+05
  -1.088383e+06  -4.487738e+05
   7.436071e+05  -8.317363e+05
   2.488096e+06  -3.189027e+04
   2.239999e+06   1.391484e+06
  -3.187999e+04   2.329425e+06
  -2.422370e+06   1.930791e+06
  -2.895162e+06   3.432717e+05
  -1.216959e+06  -1.193286e+06
   8.649582e+05  -1.358004e+06
   1.390284e+06  -1.440886e+05
   9.039733e+04   9.942751e+05
  -1.512090e+06   7.063158e+05
  -1.775424e+06  -7.082676e+05
  -5.245571e+05  -1.673664e+06
   9.709852e+05  -1.188117e+06
   1.348568e+06   9.574487e+04
   4.207639e+05   7.306990e+05
  -7.077943e+05   9.438872e+04
  -7.046450e+05  -1.048640e+06
   6.435117e+05  -1.421356e+06
   2.074644e+06  -4.782949e+05
   2.041502e+06   1.119015e+06
   3.806434e+05   2.093816e+06
  -1.409535e+06   1.673004e+06
  -1.738783e+06   2.815079e+05
  -5.878113e+05  -8.539586e+05
   6.387628e+05  -8.730408e+05
   7.598149e+05  -6.175787e+04
  -3.440218e+04   5.680629e+05
  -6.657235e+05   4.134033e+05
  -4.422079e+05  -1.259384e+05
   3.010502e+05  -1.979730e+05
   6.299289e+05   4.685960e+05
  -5.299461e+04   1.181689e+06
  -1.360975e+06   9.625765e+05
  -2.135112e+06  -3.985067e+05
  -1.487701e+06  -1.987377e+06
   2.372807e+05  -2.532864e+06
   1.698447e+06  -1.592923e+06
   1.889647e+06   2.661871e+04
   1.097777e+06   1.066545e+06
   3.866853e+05   1.006485e+06
   3.129098e+05   4.291454e+05
   4.383005e+05   2.416135e+05
   6.601097e+04   6.478698e+05
  -8.350608e+05   9.662107e+05
  -1.535959e+06   4.475297e+05
  -1.236989e+06  -7.857320e+05
   1.605467e+05  -1.683551e+06
   1.800676e+06  -1.232249e+06
   2.393393e+06   4.691422e+05
   1.270388e+06   2.139289e+06
  -8.875875e+05   2.431522e+06
  -2.508742e+06   1.176468e+06
  -2.511177e+06  -5.146136e+05
  -1.227745e+06  -1.383298e+06
   8.789373e+04  -1.188077e+06
   5.554802e+05  -7.152563e+05
   3.528982e+05  -7.472716e+05
   2.422080e+05  -1.179037e+06
   6.496578e+05  -1.202235e+06
   1.251010e+06  -2.830094e+05
   1.334973e+06   1.140164e+06
   5.416657e+05   1.971864e+06
  -6.764939e+05   1.481743e+06
  -1.348243e+06   2.478211e+04
  -8.831336e+05  -1.252261e+06
   2.803729e+05  -1.430765e+06
   1.057088e+06  -5.716658e+05
   8.227724e+05   4.865553e+05
   3.527952e+04   9.823232e+05
  -3.517555e+05   8.401289e+05
  -8.433746e+03   5.156710e+05
   4.055212e+05   3.931838e+05
   3.435522e+04   4.138714e+05
  -1.115430e+06   2.408505e+05
  -2.029488e+06  -3.067908e+05
  -1.666288e+06  -1.007762e+06
  -8.347033e+04  -1.390058e+06
   1.496981e+06  -1.131615e+06
   1.842865e+06  -3.715773e+05
   9.113880e+05   3.467132e+05
  -2.024495e+05   5.087785e+05
  -4.849347e+05   1.033570e+05
   1.968945e+04  -3.306945e+05
   5.125725e+05  -2.306969e+05
   4.738520e+05   3.597396e+05
   1.296034e+05   7.806171e+05
  -2.257897e+04   5.007772e+05
   1.590583e+05  -1.831078e+05
   3.906082e+05  -4.058115e+05
   3.091046e+05   2.272449e+05
  -2.146246e+05   1.060168e+06
  -9.302401e+05   1.074457e+06
  -1.261801e+06   9.466270e+04
  -7.290073e+05  -9.524301e+05
   4.345315e+05  -1.059546e+06
   1.215933e+06  -2.220936e+05
   7.337510e+05   6.386899e+05
  -7.008112e+05   6.925546e+05
  -1.703315e+06  -4.299846e+04
  -1.203838e+06  -8.750498e+05
   3.908592e+05  -1.130304e+06
   1.599319e+06  -6.605810e+05
   1.395739e+06   1.191115e+05
   1.989870e+05   5.673401e+05
  -6.652036e+05   3.350971e+05
  -3.594462e+05  -2.689818e+05
   6.679871e+05  -4.767726e+05
   1.214620e+06   1.858638e+05
   5.742862e+05   1.278241e+06
  -7.602356e+05   1.714260e+06
  -1.614806e+06   8.206741e+05
  -1.293151e+06  -8.516258e+05
  -1.716329e+05  -1.903004e+06
   7.956066e+05  -1.410057e+06
   9.933019e+05   1.216396e+05
   5.179940e+05   1.247726e+06
  -1.443320e+05   1.075684e+06
  -5.630386e+05   1.262979e+05
  -5.567864e+05  -4.216659e+05
  -2.490229e+05  -1.759502e+05
  -2.282133e+04   1.256793e+05
  -1.784395e+05  -2.526924e+05
  -4.815871e+05  -9.942945e+05
  -2.829920e+05  -1.157024e+06
   6.454234e+05  -4.292719e+05
   1.558673e+06   5.094983e+05
   1.424427e+06   8.977880e+05
   1.981344e+05   7.164850e+05
  -9.783123e+05   4.164008e+05
  -1.066042e+06   2.077249e+05
  -3.143079e+05  -1.008911e+04
   1.859862e+05  -2.247280e+05
  -4.892096e+04  -2.646510e+05
  -3.712823e+05  -1.600334e+05
  -1.336076e+04  -1.446427e+05
   7.987474e+05  -1.944081e+05
   1.082105e+06   5.931522e+04
   3.001719e+05   7.094669e+05
  -9.909887e+05   1.154270e+06
  -1.724518e+06   6.915646e+05
  -1.347224e+06  -5.266801e+05
  -2.219569e+05  -1.490661e+06
   8.022337e+05  -1.393496e+06
   1.103139e+06  -4.786653e+05
   6.922088e+05   3.087184e+05
   9.290530e+04   3.741179e+05
  -1.526987e+05   9.438702e+03
   5.825854e+04  -8.034219e+04
   3.516811e+05   3.646451e+05
   2.796547e+05   8.518314e+05
  -2.192618e+05   6.863100e+05
  -7.249643e+05  -2.027097e+05
  -6.961507e+05  -1.067557e+06
  -1.196005e+03  -1.066095e+06
   8.412803e+05  -1.557852e+05
   1.033732e+06   8.524454e+05
   2.839516e+05   1.138490e+06
  -7.705908e+05   6.280565e+05
  -1.123411e+06  -1.249201e+05
  -4.963061e+05  -5.904625e+05
   3.046812e+05  -6.250404e+05
   3.335145e+05  -3.615302e+05
  -3.333106e+05  -4.855441e+04
  -6.991044e+05   1.357626e+04
  -1.205710e+05  -3.086390e+05
   8.778653e+05  -7.020679e+05
   1.264679e+06  -5.982209e+05
   7.188511e+05   1.377822e+05
  -1.252146e+05   8.751393e+05
  -5.270415e+05   8.541469e+05
  -3.690987e+05   1.081807e+05
  -3.442247e+03  -5.311605e+05
   2.718793e+05  -4.073708e+05
   3.654153e+05   2.295385e+05
   2.415050e+05   6.108905e+05
  -8.004887e+04   3.819697e+05
  -4.029823e+05  -8.535151e+04
  -4.688626e+05  -2.553287e+05
  -2.523976e+05  -6.360359e+04
   7.278690e+02   1.025768e+05
   8.975199e+04  -6.342005e+04
   9.233921e+04  -4.086867e+05
   1.952500e+05  -4.920734e+05
   3.750150e+05  -9.454447e+04
   3.753934e+05   4.832896e+05
   2.748632e+04   6.849363e+05
  -4.666180e+05   2.835769e+05
  -6.397095e+05  -3.504085e+05
  -2.154518e+05  -6.306111e+05
   5.177626e+05  -3.607427e+05
   8.782869e+05   1.283823e+05
   4.710413e+05   4.066082e+05
  -3.140112e+05   3.601660e+05
  -6.516157e+05   1.612978e+05
  -2.082893e+05   4.790401e+03
   4.348957e+05  -4.849484e+03
   4.495733e+05   1.534962e+05
  -2.456044e+05   3.422473e+05
  -8.823213e+05   2.578313e+05
