
 $NMID
 id='ANONYMOUS ', fmtdat='(2E16.6)'
 volume=1.0
 tramp=1.0
 $END
   6.054010e+07   9.121292e+05
   3.549365e+07   3.857505e+07
  -9.152410e+06   4.093392e+07
  -3.001109e+07   1.463900e+07
  -1.721875e+07  -8.400071e+06
   4.013461e+06  -9.864729e+06
   1.036145e+07   1.891216e+06
   2.414505e+06   1.052822e+07
  -6.989745e+06   9.465058e+06
  -1.028166e+07   1.656735e+06
  -7.276014e+06  -6.672782e+06
  -7.520900e+05  -9.023686e+06
   4.230524e+06  -2.920780e+06
   2.665906e+06   5.561574e+06
  -4.128847e+06   6.618428e+06
  -8.298677e+06  -1.714985e+06
  -4.437849e+06  -1.094494e+07
   4.312126e+06  -1.244203e+07
   1.089267e+07  -6.139489e+06
   1.158354e+07   2.284065e+06
   7.144672e+06   8.137558e+06
   6.939639e+05   9.492750e+06
  -3.437089e+06   6.624279e+06
  -2.438164e+06   2.697070e+06
   9.373396e+05   1.876618e+06
   3.922459e+05   4.126346e+06
  -5.436471e+06   4.635577e+06
  -1.002413e+07   6.354745e+05
  -7.449004e+06  -4.311414e+06
  -4.471005e+05  -5.400566e+06
   3.728842e+06  -2.884160e+06
   2.656706e+06  -2.787546e+05
  -2.762082e+05   8.075694e+05
  -2.021044e+06   6.214962e+05
  -2.262041e+06  -1.198157e+06
  -9.295736e+05  -3.960871e+06
   1.847722e+06  -4.155624e+06
   3.628029e+06  -1.921106e+04
   1.997053e+06   3.935027e+06
  -8.781145e+05   2.300982e+06
  -5.174867e+05  -2.367216e+06
   2.529645e+06  -2.297666e+06
   2.472479e+06   3.474113e+06
  -2.878819e+06   6.478383e+06
  -7.655191e+06   8.710501e+05
  -5.399014e+06  -7.607246e+06
   2.289557e+06  -9.136569e+06
   7.983746e+06  -2.460543e+06
   7.171715e+06   4.809480e+06
   1.712343e+06   6.307786e+06
  -3.683666e+06   2.669969e+06
  -5.344635e+06  -1.770683e+06
  -2.325982e+06  -3.706111e+06
   2.669888e+06  -2.216055e+06
   4.757752e+06   1.123938e+06
   1.955703e+06   2.952549e+06
  -1.865393e+06   1.412847e+06
  -1.742871e+06  -1.112797e+06
   1.525933e+06  -8.282407e+05
   2.544276e+06   2.118596e+06
  -9.571197e+05   3.769199e+06
  -5.162973e+06   1.866459e+06
  -5.620711e+06  -1.694521e+06
  -2.324155e+06  -4.332731e+06
   1.924720e+06  -5.526106e+06
   5.181482e+06  -5.058131e+06
   6.474214e+06  -1.850986e+06
   4.863139e+06   3.296097e+06
   9.826263e+05   6.454739e+06
  -2.071032e+06   4.896006e+06
  -1.913967e+06   1.078468e+06
  -4.262527e+04  -4.389480e+05
   2.814035e+05   9.945633e+05
  -1.477787e+06   1.985736e+06
  -2.872500e+06   4.391480e+05
  -2.165406e+06  -1.827933e+06
  -1.588400e+05  -2.134332e+06
   1.464487e+06  -2.565926e+05
   1.671410e+06   2.027257e+06
   3.774321e+04   2.974601e+06
  -2.832765e+06   1.761156e+06
  -4.690488e+06  -1.183813e+06
  -3.423398e+06  -3.961930e+06
   5.312248e+04  -4.522503e+06
   2.482766e+06  -2.897854e+06
   2.436706e+06  -1.148625e+06
   1.944828e+06  -6.194306e+05
   3.026488e+06  -4.046342e+05
   4.442529e+06   8.603850e+05
   3.528055e+06   2.878499e+06
   8.833336e+04   4.208528e+06
  -3.278447e+06   3.957385e+06
  -4.237896e+06   2.191611e+06
  -2.735181e+06  -3.691460e+05
  -3.583795e+05  -2.267175e+06
   1.073268e+06  -2.014182e+06
   5.879881e+05   1.185771e+04
  -1.096105e+06   1.347021e+06
  -1.972016e+06   4.009543e+05
  -9.713556e+05  -1.257142e+06
   5.077025e+05  -1.134251e+06
   3.798072e+05   4.039857e+05
  -1.166151e+06   6.081132e+05
  -1.859488e+06  -1.521203e+06
  -4.435691e+05  -3.670528e+06
   1.868787e+06  -3.349726e+06
   3.264809e+06  -8.768875e+05
   3.236420e+06   1.621692e+06
   2.158198e+06   2.788016e+06
   4.058658e+05   2.588902e+06
  -1.248682e+06   1.476162e+06
  -1.594179e+06   2.424513e+05
  -5.019379e+05  -5.052331e+04
   3.560991e+05   7.731933e+05
  -4.604504e+05   1.386956e+06
  -1.999307e+06   5.703535e+05
  -2.085232e+06  -9.709393e+05
  -3.530426e+05  -1.481520e+06
   1.214067e+06  -5.562855e+05
   8.671746e+05   4.762393e+05
  -8.925249e+05   4.599414e+05
  -2.164046e+06  -4.183288e+05
  -1.673243e+06  -1.394586e+06
   3.149787e+05  -1.940992e+06
   2.357660e+06  -1.615579e+06
   2.821757e+06  -2.366743e+05
   1.232460e+06   1.327381e+06
  -9.747540e+05   1.559359e+06
  -1.639204e+06   1.825149e+05
  -2.149299e+05  -1.132209e+06
   1.568016e+06  -7.455079e+05
   1.741949e+06   8.381453e+05
   2.862978e+05   1.693193e+06
  -1.156136e+06   9.414360e+05
  -1.263761e+06  -3.822231e+05
  -2.026687e+05  -8.147205e+05
   8.394569e+05  -3.654654e+04
   7.532652e+05   1.093872e+06
  -5.929846e+05   1.460999e+06
  -2.057202e+06   5.520224e+05
  -2.081636e+06  -1.086872e+06
  -3.719697e+05  -2.133416e+06
   1.506060e+06  -1.664587e+06
   1.772733e+06  -1.790307e+05
   4.852281e+05   9.014226e+05
  -6.911244e+05   8.016693e+05
  -6.245138e+05   7.602125e+04
   1.413423e+05  -3.221043e+05
   4.651945e+05  -1.667146e+05
   5.552886e+04   4.892333e+04
  -4.867420e+05  -1.481958e+05
  -4.948957e+05  -7.395898e+05
   2.607604e+05  -1.215536e+06
   1.434678e+06  -8.887503e+05
   2.122961e+06   4.519811e+05
   1.480011e+06   2.004261e+06
  -2.431203e+05   2.460892e+06
  -1.653429e+06   1.393272e+06
  -1.686737e+06  -1.679887e+05
  -8.189113e+05  -8.869813e+05
  -3.096652e+05  -5.908017e+05
  -5.294901e+05  -1.860806e+05
  -6.824949e+05  -3.488601e+05
  -8.860034e+04  -8.130963e+05
   9.183004e+05  -8.998679e+05
   1.468826e+06  -2.910386e+05
   1.028395e+06   7.350672e+05
  -2.895332e+05   1.443281e+06
  -1.760134e+06   1.047344e+06
  -2.270907e+06  -5.227555e+05
  -1.110105e+06  -2.159995e+06
   1.092595e+06  -2.402554e+06
   2.630521e+06  -9.960233e+05
   2.368213e+06   7.359374e+05
   9.039575e+05   1.371317e+06
  -2.456291e+05   9.104518e+05
  -3.627585e+05   4.753900e+05
  -2.467192e+04   7.803679e+05
  -9.081810e+04   1.374966e+06
  -7.100197e+05   1.336816e+06
  -1.344143e+06   3.209806e+05
  -1.365556e+06  -1.110895e+06
  -5.573571e+05  -1.935813e+06
   6.409410e+05  -1.461565e+06
   1.306422e+06   2.173813e+04
   8.033435e+05   1.334692e+06
  -4.427394e+05   1.420425e+06
  -1.221797e+06   3.619597e+05
  -8.190788e+05  -7.762015e+05
   1.784710e+05  -1.123596e+06
   6.036389e+05  -7.805379e+05
   1.087189e+05  -4.010529e+05
  -4.501568e+05  -3.359219e+05
  -6.483907e+04  -3.876120e+05
   1.190729e+06  -1.957326e+05
   2.125859e+06   3.701580e+05
   1.639618e+06   1.089484e+06
  -8.514992e+04   1.484324e+06
  -1.669813e+06   1.156895e+06
  -1.882178e+06   2.426444e+05
  -8.298318e+05  -5.527163e+05
   2.902710e+05  -5.964916e+05
   5.319292e+05  -1.131817e+04
   3.863566e+04   4.572165e+05
  -4.403622e+05   2.701666e+05
  -4.946526e+05  -3.516878e+05
  -2.882394e+05  -7.333547e+05
  -1.264419e+05  -4.906184e+05
  -1.345569e+05   7.311038e+04
  -2.583319e+05   2.703940e+05
  -2.725024e+05  -2.422163e+05
   1.328754e+05  -9.957292e+05
   9.269055e+05  -1.088261e+06
   1.433475e+06  -1.890590e+05
   9.047984e+05   9.410786e+05
  -4.334858e+05   1.192844e+06
  -1.312503e+06   3.688667e+05
  -7.524226e+05  -5.777268e+05
   7.290885e+05  -6.485679e+05
   1.601118e+06   1.278207e+05
   9.700168e+05   8.924516e+05
  -5.336794e+05   9.709254e+05
  -1.516352e+06   4.258845e+05
  -1.219145e+06  -2.279623e+05
  -1.144927e+05  -5.142831e+05
   6.669325e+05  -2.511985e+05
   4.013439e+05   3.156593e+05
  -5.828409e+05   5.512749e+05
  -1.213897e+06  -5.733468e+04
  -7.198952e+05  -1.195324e+06
   5.633974e+05  -1.756472e+06
   1.497246e+06  -9.314846e+05
   1.283673e+06   7.588403e+05
   2.101786e+05   1.817677e+06
  -7.547013e+05   1.294692e+06
  -9.315270e+05  -2.086197e+05
  -4.066160e+05  -1.216451e+06
   2.615266e+05  -9.617703e+05
   5.823254e+05  -6.686693e+04
   4.468813e+05   3.769064e+05
   1.366554e+05   1.277157e+05
   6.060462e+04  -8.625501e+04
   3.262493e+05   3.269474e+05
   5.325966e+05   9.961602e+05
   1.547722e+05   1.088069e+06
  -7.712649e+05   3.892373e+05
  -1.494839e+06  -4.745869e+05
  -1.265714e+06  -8.511620e+05
  -1.819286e+05  -7.191753e+05
   8.375651e+05  -4.333486e+05
   9.892707e+05  -1.732545e+05
   3.933689e+05   7.675456e+04
  -1.356288e+05   2.347552e+05
  -7.390923e+04   1.854789e+05
   2.299320e+05   6.890916e+04
   6.897315e+04   1.346785e+05
  -6.296585e+05   2.639388e+05
  -1.075239e+06   5.478511e+03
  -5.085249e+05  -7.180800e+05
   8.139890e+05  -1.237368e+06
   1.764583e+06  -8.115517e+05
   1.501292e+06   4.119417e+05
   3.081481e+05   1.428325e+06
  -7.884063e+05   1.423786e+06
  -1.072478e+06   5.874268e+05
  -6.669540e+05  -2.069216e+05
  -1.587522e+05  -3.678359e+05
   3.455716e+04  -9.886683e+04
  -9.475261e+04  -1.457134e+04
  -2.867958e+05  -3.857294e+05
  -2.394597e+05  -8.228147e+05
   1.693957e+05  -7.062584e+05
   6.908676e+05   8.543090e+04
   7.945559e+05   9.369250e+05
   1.794626e+05   1.062672e+06
  -7.427843e+05   3.084079e+05
  -1.084190e+06  -6.847198e+05
  -3.982393e+05  -1.115065e+06
   7.169356e+05  -7.354549e+05
   1.168407e+06   5.262272e+04
   5.737962e+05   6.542745e+05
  -2.928651e+05   7.383650e+05
  -4.228778e+05   3.869427e+05
   2.122701e+05  -1.329251e+04
   6.530048e+05  -5.516136e+04
   1.673028e+05   3.227532e+05
  -8.362627e+05   6.967231e+05
  -1.315505e+06   5.302053e+05
  -8.209753e+05  -2.103694e+05
   8.643774e+04  -9.072165e+05
   5.940145e+05  -8.959454e+05
   4.788220e+05  -1.981120e+05
   8.511300e+04   4.732720e+05
  -2.329100e+05   4.723734e+05
  -3.625377e+05  -1.070006e+05
  -2.735319e+05  -5.860962e+05
   4.063303e+04  -4.742934e+05
   4.035114e+05   2.332838e+04
   5.016078e+05   3.094080e+05
   2.476669e+05   1.201803e+05
  -5.458173e+04  -1.856139e+05
  -8.076286e+04  -1.074523e+05
   7.416680e+04   3.400972e+05
   3.162873e+04   6.131885e+05
  -3.035735e+05   3.028797e+05
  -5.310739e+05  -3.376677e+05
  -2.416599e+05  -6.593578e+05
   3.938710e+05  -3.494826e+05
   7.130440e+05   2.508512e+05
   2.906034e+05   5.679565e+05
  -5.262985e+05   3.867412e+05
  -9.297756e+05  -4.707071e+04
  -5.082434e+05  -3.788396e+05
   2.966088e+05  -4.448935e+05
   6.641840e+05  -2.804299e+05
   2.888094e+05  -2.691731e+04
  -3.101539e+05   1.122911e+05
  -4.036209e+05  -1.082857e+04
   1.278337e+05  -2.757082e+05
   6.947158e+05  -2.962299e+05
