
 $NMID
 id='ANONYMOUS ', fmtdat='(2E16.6)'
 volume=1.0
 tramp=1.0
 $END
  -3.992976e+07  -1.939745e+06
  -2.364789e+07  -2.337422e+07
   4.542467e+06  -2.585232e+07
   1.886219e+07  -1.194421e+07
   1.231349e+07   2.714650e+06
  -1.318556e+06   6.606107e+06
  -7.210042e+06   6.817832e+05
  -3.320874e+06  -6.638401e+06
   3.493802e+06  -8.117809e+06
   7.035099e+06  -2.563122e+06
   5.423159e+06   4.898626e+06
   4.896236e+05   7.076048e+06
  -3.374253e+06   1.779424e+06
  -2.339796e+06  -5.181918e+06
   2.599230e+06  -5.979048e+06
   5.938469e+06   4.542438e+05
   3.602333e+06   7.575257e+06
  -2.647977e+06   8.876245e+06
  -7.548940e+06   4.106190e+06
  -7.695116e+06  -2.174699e+06
  -3.887808e+06  -5.733250e+06
   3.256541e+05  -5.505325e+06
   1.590189e+06  -3.324782e+06
  -3.866280e+05  -2.103749e+06
  -2.084221e+06  -3.168013e+06
   2.904763e+05  -4.631801e+06
   5.726797e+06  -3.442095e+06
   8.621340e+06   5.678820e+05
   5.359182e+06   4.039263e+06
  -9.592180e+05   4.058947e+06
  -4.156999e+06   1.333306e+06
  -2.105296e+06  -1.278130e+06
   1.820875e+06  -1.859315e+06
   3.545077e+06  -2.435779e+05
   2.239632e+06   2.514640e+06
  -3.109777e+05   4.194003e+06
  -2.044490e+06   2.674790e+06
  -1.858467e+06  -1.078442e+06
  -2.281566e+05  -2.865545e+06
   8.236935e+05  -3.318712e+05
  -2.816171e+05   3.102111e+06
  -2.275912e+06   2.300000e+06
  -2.071224e+06  -2.215843e+06
   1.129953e+06  -4.388021e+06
   4.136429e+06  -7.540552e+05
   3.280867e+06   4.749396e+06
  -1.227315e+06   5.864804e+06
  -5.472465e+06   1.594449e+06
  -5.822316e+06  -3.480206e+06
  -2.063424e+06  -5.001689e+06
   2.753376e+06  -2.703071e+06
   4.821681e+06   7.609878e+05
   2.631094e+06   2.657224e+06
  -1.521405e+06   1.883897e+06
  -3.511034e+06  -4.603230e+05
  -1.698588e+06  -1.905182e+06
   1.243868e+06  -1.054918e+06
   1.688979e+06   7.480336e+05
  -4.407178e+05   1.093183e+06
  -1.870818e+06  -4.068146e+05
  -3.794612e+05  -1.815084e+06
   2.551213e+06  -1.467523e+06
   3.778779e+06   4.217880e+05
   1.926894e+06   2.685221e+06
  -1.738881e+06   4.224048e+06
  -4.804772e+06   3.878474e+06
  -5.422842e+06   9.815151e+05
  -3.400396e+06  -3.090970e+06
  -4.201478e+05  -5.313863e+06
   1.278812e+06  -4.198432e+06
   1.074255e+06  -1.688875e+06
   4.764165e+05  -6.576770e+05
   1.064561e+06  -1.251221e+06
   2.459801e+06  -1.184766e+06
   2.951190e+06   6.778598e+05
   1.671334e+06   2.652334e+06
  -5.379031e+05   2.479805e+06
  -2.091397e+06   9.410892e+04
  -1.855806e+06  -2.425052e+06
   2.122576e+05  -2.994261e+06
   2.788820e+06  -1.206224e+06
   3.801201e+06   1.575625e+06
   2.287936e+06   3.373517e+06
  -3.408248e+05   3.203820e+06
  -1.763065e+06   1.861754e+06
  -1.529914e+06   9.103187e+05
  -1.421886e+06   8.499324e+05
  -2.717893e+06   6.952943e+05
  -4.146822e+06  -5.622252e+05
  -3.402386e+06  -2.595141e+06
  -1.666704e+05  -4.058212e+06
   3.267321e+06  -3.841175e+06
   4.329261e+06  -1.871101e+06
   2.587964e+06   7.785950e+05
  -9.795317e+04   2.366711e+06
  -1.401923e+06   1.775817e+06
  -5.347293e+05  -1.681550e+05
   1.200193e+06  -1.244410e+06
   1.811914e+06  -3.312180e+05
   7.314013e+05   1.158744e+06
  -6.367177e+05   1.129074e+06
  -6.376564e+05  -3.274653e+05
   6.864247e+05  -9.951917e+05
   1.751149e+06   5.008306e+05
   1.256274e+06   2.851622e+06
  -6.308949e+05   3.622955e+06
  -2.693881e+06   1.943381e+06
  -3.648290e+06  -8.623031e+05
  -2.821472e+06  -2.802542e+06
  -6.421640e+05  -2.861767e+06
   1.346366e+06  -1.508669e+06
   1.662666e+06  -1.519270e+05
   4.954319e+05   4.892626e+04
  -3.658573e+05  -7.452903e+05
   3.421111e+05  -1.244474e+06
   1.744654e+06  -5.476853e+05
   1.939685e+06   7.472983e+05
   4.517623e+05   1.291758e+06
  -1.126927e+06   6.171538e+05
  -1.017844e+06  -4.248645e+05
   7.345506e+05  -7.243230e+05
   2.339074e+06   3.855657e+04
   2.077386e+06   1.319921e+06
  -5.911938e+04   2.181268e+06
  -2.334783e+06   1.839874e+06
  -2.818288e+06   3.311307e+05
  -1.196083e+06  -1.196894e+06
   8.798313e+05  -1.375579e+06
   1.422525e+06  -1.413521e+05
   1.131367e+05   1.013756e+06
  -1.495314e+06   7.055791e+05
  -1.730327e+06  -7.132604e+05
  -4.693421e+05  -1.629213e+06
   9.716424e+05  -1.104612e+06
   1.286418e+06   1.443089e+05
   3.637475e+05   7.179516e+05
  -7.172239e+05   7.359323e+04
  -7.018299e+05  -1.038434e+06
   6.176501e+05  -1.408047e+06
   2.034947e+06  -4.943799e+05
   2.019370e+06   1.085707e+06
   3.781933e+05   2.062225e+06
  -1.397471e+06   1.641019e+06
  -1.707607e+06   2.601348e+05
  -5.567604e+05  -8.387975e+05
   6.284375e+05  -8.410527e+05
   7.157743e+05  -7.788329e+04
  -3.825232e+04   4.937479e+05
  -5.892595e+05   3.657313e+05
  -3.520543e+05  -7.847111e+04
   3.136657e+05  -1.043311e+05
   5.713450e+05   5.103990e+05
  -9.729740e+04   1.154137e+06
  -1.344585e+06   9.282144e+05
  -2.091326e+06  -3.945525e+05
  -1.465412e+06  -1.948886e+06
   2.191970e+05  -2.472048e+06
   1.637881e+06  -1.530392e+06
   1.801743e+06   3.603694e+04
   1.033531e+06   9.848700e+05
   3.954314e+05   8.902403e+05
   3.735699e+05   3.816669e+05
   4.777297e+05   2.768178e+05
   5.984098e+04   6.749969e+05
  -8.319309e+05   9.313054e+05
  -1.481860e+06   4.133143e+05
  -1.174060e+06  -7.432343e+05
   1.650155e+05  -1.591770e+06
   1.742587e+06  -1.177387e+06
   2.320785e+06   4.557309e+05
   1.218375e+06   2.088887e+06
  -9.052778e+05   2.369946e+06
  -2.473045e+06   1.116784e+06
  -2.421080e+06  -5.341897e+05
  -1.140465e+06  -1.328294e+06
   9.736544e+04  -1.094510e+06
   4.834866e+05  -6.645371e+05
   2.730274e+05  -7.651562e+05
   2.128809e+05  -1.212890e+06
   6.556801e+05  -1.209119e+06
   1.250549e+06  -2.850148e+05
   1.324223e+06   1.109761e+06
   5.458384e+05   1.926986e+06
  -6.487453e+05   1.455631e+06
  -1.310896e+06   2.256232e+04
  -8.485787e+05  -1.238572e+06
   3.048149e+05  -1.392377e+06
   1.057442e+06  -5.075457e+05
   7.886058e+05   5.385493e+05
  -1.885359e+04   9.807345e+05
  -3.936245e+05   7.952442e+05
  -2.014586e+04   4.740695e+05
   4.136859e+05   3.756192e+05
   4.349871e+04   4.030572e+05
  -1.108368e+06   2.250862e+05
  -2.010974e+06  -3.150333e+05
  -1.628202e+06  -9.994536e+05
  -4.332111e+04  -1.373065e+06
   1.505434e+06  -1.110147e+06
   1.807672e+06  -3.410972e+05
   8.636703e+05   3.764080e+05
  -2.226472e+05   5.136190e+05
  -4.798408e+05   7.949579e+04
   1.445295e+04  -3.576240e+05
   4.900216e+05  -2.428293e+05
   4.723751e+05   3.515028e+05
   1.687592e+05   7.675532e+05
   1.354473e+04   5.004581e+05
   1.426473e+05  -1.577006e+05
   3.431635e+05  -3.788281e+05
   2.944179e+05   2.234861e+05
  -1.851565e+05   1.033503e+06
  -9.101166e+05   1.061069e+06
  -1.283178e+06   1.054764e+05
  -7.587990e+05  -9.428493e+05
   4.322778e+05  -1.071549e+06
   1.225404e+06  -2.480568e+05
   7.316880e+05   6.125471e+05
  -6.889489e+05   6.712766e+05
  -1.644730e+06  -4.726089e+04
  -1.132741e+06  -8.422664e+05
   4.000662e+05  -1.066323e+06
   1.533263e+06  -6.087991e+05
   1.324292e+06   1.232139e+05
   1.827055e+05   5.386008e+05
  -6.460912e+05   3.129937e+05
  -3.597288e+05  -2.758146e+05
   6.405678e+05  -4.930689e+05
   1.202372e+06   1.494317e+05
   6.069807e+05   1.245214e+06
  -6.995890e+05   1.710122e+06
  -1.564985e+06   8.453291e+05
  -1.278166e+06  -8.103577e+05
  -1.905510e+05  -1.852539e+06
   7.587653e+05  -1.365428e+06
   9.560362e+05   1.305613e+05
   4.909301e+05   1.208411e+06
  -1.553457e+05   1.022978e+06
  -5.522086e+05   1.113714e+05
  -5.271314e+05  -3.940822e+05
  -2.237810e+05  -1.528336e+05
  -2.732398e+04   1.121809e+05
  -2.033826e+05  -2.745513e+05
  -4.879586e+05  -9.786428e+05
  -2.592299e+05  -1.110597e+06
   6.570371e+05  -4.061110e+05
   1.521271e+06   4.820325e+05
   1.370754e+06   8.545414e+05
   1.933959e+05   7.024584e+05
  -9.295502e+05   4.266789e+05
  -1.026768e+06   2.059634e+05
  -3.213700e+05  -2.929208e+04
   1.713099e+05  -2.274600e+05
  -2.766493e+04  -2.335189e+05
  -3.403921e+05  -1.254235e+05
  -2.640842e+04  -1.436933e+05
   7.514221e+05  -2.214227e+05
   1.065994e+06   3.938107e+04
   3.428381e+05   7.126672e+05
  -9.357673e+05   1.168659e+06
  -1.708659e+06   7.093595e+05
  -1.367595e+06  -4.981267e+05
  -2.471376e+05  -1.455768e+06
   7.819440e+05  -1.379171e+06
   1.082732e+06  -5.002545e+05
   6.825729e+05   2.763399e+05
   1.074661e+05   3.703204e+05
  -1.303252e+05   3.808781e+04
   5.808148e+04  -5.545143e+04
   3.307682e+05   3.566989e+05
   2.710417e+05   8.259575e+05
  -2.029884e+05   6.827050e+05
  -7.135319e+05  -1.678490e+05
  -7.189942e+05  -1.023913e+06
  -4.499535e+04  -1.059215e+06
   8.149790e+05  -1.971956e+05
   1.041941e+06   7.998818e+05
   3.101427e+05   1.120286e+06
  -7.505001e+05   6.473597e+05
  -1.118963e+06  -1.058642e+05
  -5.019303e+05  -5.977638e+05
   3.026132e+05  -6.406978e+05
   3.476177e+05  -3.552252e+05
  -3.055200e+05  -2.394041e+04
  -6.794577e+05   2.840139e+04
  -1.288355e+05  -3.092746e+05
   8.499227e+05  -6.947210e+05
   1.246036e+06  -5.736092e+05
   7.238222e+05   1.560774e+05
  -1.133798e+05   8.699271e+05
  -5.322588e+05   8.452387e+05
  -3.929627e+05   1.194365e+05
  -2.764405e+04  -5.149059e+05
   2.617078e+05  -4.183178e+05
   3.681187e+05   1.968347e+05
   2.483644e+05   5.959519e+05
  -7.523705e+04   3.987266e+05
  -4.007538e+05  -6.860380e+04
  -4.647492e+05  -2.632899e+05
  -2.429888e+05  -7.367818e+04
   6.906526e+03   1.229732e+05
   7.342673e+04  -2.555195e+04
   4.732850e+04  -3.987487e+05
   1.486226e+05  -5.273922e+05
   3.674396e+05  -1.455620e+05
   4.155952e+05   4.524625e+05
   7.875244e+04   6.826469e+05
  -4.460037e+05   3.001334e+05
  -6.530677e+05  -3.251699e+05
  -2.350933e+05  -6.102002e+05
   5.109664e+05  -3.613149e+05
   8.803627e+05   1.086065e+05
   4.744010e+05   3.941263e+05
  -3.093378e+05   3.749197e+05
  -6.508402e+05   1.863621e+05
  -2.240505e+05   4.535455e+03
   4.073110e+05  -3.934645e+04
   4.424259e+05   1.140660e+05
  -2.089442e+05   3.309677e+05
  -8.269035e+05   2.788306e+05
