
 $NMID
 id='ANONYMOUS ', fmtdat='(2E16.6)'
 volume=1.0
 tramp=1.0
 $END
   1.215617e+07  -6.887367e+05
   8.669854e+06   5.191410e+06
   5.909876e+05   7.806322e+06
  -5.082013e+06   5.629746e+06
  -4.638165e+06   8.492204e+05
  -4.686748e+05  -2.280298e+06
   2.558035e+06  -1.332469e+06
   2.105246e+06   1.944023e+06
  -4.263062e+05   3.582645e+06
  -2.312613e+06   1.716599e+06
  -2.100485e+06  -1.531155e+06
  -3.492816e+05  -2.625772e+06
   1.181934e+06  -5.731930e+05
   1.031697e+06   2.192963e+06
  -6.507723e+05   2.658653e+06
  -2.117812e+06   3.745814e+05
  -1.704939e+06  -2.384009e+06
   3.917051e+05  -3.153893e+06
   2.285578e+06  -1.592441e+06
   2.405463e+06   6.011726e+05
   1.061395e+06   1.636561e+06
  -9.160497e+04   1.285314e+06
   8.119033e+04   7.228064e+05
   1.036435e+06   9.998992e+05
   1.190414e+06   1.874995e+06
  -3.327261e+05   2.188677e+06
  -2.557946e+06   1.235475e+06
  -3.413704e+06  -4.303239e+05
  -1.881331e+06  -1.550723e+06
   6.994165e+05  -1.352978e+06
   1.871322e+06  -1.595467e+05
   6.844035e+05   9.617947e+05
  -1.329686e+06   1.033067e+06
  -2.006077e+06  -8.946680e+04
  -9.251517e+05  -1.494803e+06
   4.798255e+05  -1.872687e+06
   8.487644e+05  -7.914235e+05
   2.635013e+05   6.492608e+05
  -2.955314e+05   8.553488e+05
  -2.035715e+05  -3.986070e+05
   3.892334e+05  -1.552764e+06
   9.428050e+05  -1.076888e+06
   9.360912e+05   5.999358e+05
   1.760361e+05   1.533923e+06
  -8.589328e+05   6.065008e+05
  -1.135041e+06  -1.152651e+06
  -3.675273e+04  -1.814874e+06
   1.686444e+06  -7.056112e+05
   2.377266e+06   1.054362e+06
   1.167998e+06   1.905665e+06
  -9.651557e+05   1.323261e+06
  -2.116103e+06   1.618755e+04
  -1.377690e+06  -9.094406e+05
   3.217014e+05  -8.571663e+05
   1.288415e+06  -1.013688e+05
   7.906443e+05   5.319916e+05
  -3.502255e+05   4.319526e+05
  -7.823609e+05  -2.182195e+05
  -9.698619e+04  -6.557161e+05
   7.891451e+05  -3.671155e+05
   7.139878e+05   3.655650e+05
  -3.723817e+05   7.685320e+05
  -1.288506e+06   3.379030e+05
  -9.046126e+05  -7.042483e+05
   6.058575e+05  -1.569480e+06
   1.951587e+06  -1.483459e+06
   2.083323e+06  -3.156891e+05
   1.161515e+06   1.205284e+06
   1.555267e+05   2.035599e+06
  -2.707486e+05   1.772773e+06
  -2.833445e+05   1.010881e+06
  -4.196204e+05   5.797540e+05
  -8.759526e+05   5.426767e+05
  -1.322236e+06   2.493117e+05
  -1.276091e+06  -6.098540e+05
  -5.708913e+05  -1.384117e+06
   4.498399e+05  -1.169793e+06
   1.110254e+06   3.693570e+04
   8.781300e+05   1.210799e+06
  -1.472787e+05   1.342456e+06
  -1.198203e+06   4.112876e+05
  -1.448968e+06  -7.294566e+05
  -7.823632e+05  -1.257082e+06
   1.123067e+05  -1.056733e+06
   5.018466e+05  -6.166553e+05
   4.113470e+05  -4.248554e+05
   5.074947e+05  -4.999064e+05
   1.160236e+06  -4.390390e+05
   1.819777e+06   1.193070e+05
   1.543851e+06   1.061479e+06
   1.368485e+05   1.798776e+06
  -1.440585e+06   1.728466e+06
  -1.947782e+06   7.786926e+05
  -1.103168e+06  -4.389043e+05
   1.649750e+05  -1.064564e+06
   6.964558e+05  -7.207490e+05
   2.156113e+05   1.118919e+05
  -5.557122e+05   5.338841e+05
  -7.660950e+05   1.552479e+05
  -2.785496e+05  -4.722918e+05
   3.154579e+05  -5.037487e+05
   3.689637e+05   1.413104e+05
  -1.971519e+05   6.008373e+05
  -8.426643e+05   8.261160e+04
  -8.811413e+05  -1.112006e+06
  -6.971360e+04  -1.816272e+06
   1.125709e+06  -1.244219e+06
   1.832568e+06   1.814136e+05
   1.483591e+06   1.303968e+06
   3.563871e+05   1.386330e+06
  -6.293268e+05   6.939931e+05
  -7.640201e+05   4.961258e+04
  -2.229914e+05  -1.760784e+04
   1.753791e+05   3.273347e+05
  -1.017120e+05   5.336839e+05
  -7.112675e+05   2.727782e+05
  -8.582307e+05  -2.496961e+05
  -2.559550e+05  -5.342394e+05
   4.848522e+05  -3.103508e+05
   5.092200e+05   1.820354e+05
  -3.033775e+05   4.190752e+05
  -1.137385e+06   9.210426e+04
  -1.069086e+06  -5.931137e+05
  -4.210704e+04  -1.075074e+06
   1.054645e+06  -9.138536e+05
   1.279318e+06  -1.964709e+05
   5.493758e+05   4.932367e+05
  -3.472640e+05   5.835920e+05
  -5.778305e+05   7.903491e+04
  -3.844636e+04  -4.160724e+05
   6.477620e+05  -3.236190e+05
   7.939206e+05   2.743147e+05
   2.805670e+05   7.294779e+05
  -3.917190e+05   5.667681e+05
  -6.072047e+05   9.621509e+03
  -2.224861e+05  -3.064914e+05
   2.917609e+05  -5.731736e+04
   3.135546e+05   4.456858e+05
  -2.734524e+05   6.241321e+05
  -9.069467e+05   2.224672e+05
  -9.035813e+05  -4.726376e+05
  -1.924640e+05  -9.108768e+05
   5.883748e+05  -7.538959e+05
   7.585712e+05  -1.578734e+05
   2.829775e+05   3.628414e+05
  -2.633345e+05   4.005378e+05
  -3.487937e+05   3.393777e+04
  -1.805637e+03  -2.795807e+05
   3.144626e+05  -2.158205e+05
   2.411569e+05   6.436739e+04
  -1.120070e+05   1.338382e+05
  -3.013350e+05  -1.685378e+05
  -1.448805e+04  -5.184194e+05
   5.800910e+05  -4.472432e+05
   9.447137e+05   1.458984e+05
   6.765646e+05   8.554389e+05
  -7.628986e+04   1.125418e+06
  -7.366959e+05   7.440426e+05
  -8.584313e+05   2.486841e+04
  -5.282886e+05  -4.826065e+05
  -1.870331e+05  -4.916070e+05
  -1.129112e+05  -2.139464e+05
  -1.656770e+05  -8.645148e+04
  -3.390905e+04  -2.643166e+05
   3.485919e+05  -4.429731e+05
   6.815115e+05  -2.306046e+05
   5.773840e+05   3.423496e+05
  -4.015305e+04   7.734806e+05
  -7.860872e+05   5.828483e+05
  -1.072882e+06  -1.755259e+05
  -6.015505e+05  -9.252528e+05
   3.382035e+05  -1.083601e+06
   1.076186e+06  -5.683597e+05
   1.129592e+06   1.720029e+05
   5.954921e+05   5.989354e+05
  -8.483719e+03   5.592983e+05
  -2.627588e+05   3.485346e+05
  -1.874746e+05   3.251802e+05
  -1.102868e+05   4.953955e+05
  -2.634105e+05   5.197534e+05
  -5.348463e+05   1.344532e+05
  -5.953255e+05  -4.897801e+05
  -2.576262e+05  -8.650188e+05
   2.853692e+05  -6.609316e+05
   5.976294e+05  -3.134640e+04
   4.124717e+05   5.309791e+05
  -8.732008e+04   6.346928e+05
  -4.395599e+05   2.904243e+05
  -3.698152e+05  -1.689369e+05
  -5.397765e+04  -4.156164e+05
   1.144797e+05  -3.824574e+05
  -1.378205e+04  -2.419523e+05
  -1.766894e+05  -1.758198e+05
  -1.526031e+04  -1.851109e+05
   4.792783e+05  -1.239268e+05
   8.842428e+05   1.048569e+05
   7.472955e+05   4.150545e+05
   7.348452e+04   5.992530e+05
  -6.238950e+05   5.117558e+05
  -8.020845e+05   2.002052e+05
  -4.161600e+05  -1.170946e+05
   7.199987e+04  -2.156800e+05
   2.070971e+05  -6.241945e+04
  -1.159197e+04   1.300903e+05
  -2.322067e+05   1.021029e+05
  -2.101347e+05  -1.541364e+05
  -4.547998e+04  -3.471815e+05
   2.300437e+04  -2.208443e+05
  -7.219807e+04   9.572218e+04
  -1.849482e+05   1.980199e+05
  -1.423883e+05  -9.585118e+04
   9.457340e+04  -4.761306e+05
   3.982597e+05  -4.800079e+05
   5.315922e+05  -4.382952e+04
   3.085218e+05   4.114006e+05
  -1.790867e+05   4.538680e+05
  -5.195366e+05   9.303867e+04
  -3.270619e+05  -2.805889e+05
   2.976278e+05  -3.180943e+05
   7.632923e+05  -9.472639e+03
   5.683504e+05   3.715015e+05
  -1.431624e+05   5.224657e+05
  -7.083657e+05   3.365594e+05
  -6.378418e+05  -2.496686e+04
  -1.038552e+05  -2.544969e+05
   2.889649e+05  -1.650660e+05
   1.558245e+05   1.080265e+05
  -2.986079e+05   2.067673e+05
  -5.351640e+05  -8.461939e+04
  -2.476847e+05  -5.652269e+05
   3.399488e+05  -7.557765e+05
   7.153837e+05  -3.641443e+05
   5.788830e+05   3.721593e+05
   9.092860e+04   8.457599e+05
  -3.405106e+05   6.430488e+05
  -4.464124e+05  -3.234811e+04
  -2.548812e+05  -5.476745e+05
   3.794304e+04  -4.892371e+05
   2.440191e+05  -6.889026e+04
   2.626469e+05   1.856130e+05
   1.250156e+05   8.117274e+04
   4.075529e+03  -6.075637e+04
   6.310764e+04   9.900983e+04
   2.162890e+05   4.313757e+05
   1.528208e+05   5.149936e+05
  -2.636149e+05   2.015557e+05
  -6.988914e+05  -2.117849e+05
  -6.558245e+05  -3.861549e+05
  -9.684196e+04  -3.128568e+05
   4.433748e+05  -1.908959e+05
   4.764239e+05  -1.067440e+05
   1.288969e+05  -7.653166e+03
  -8.546260e+04   9.946102e+04
   3.929146e+04   1.266426e+05
   1.819156e+05   7.863664e+04
   1.658622e+02   6.429137e+04
  -3.699136e+05   8.434423e+04
  -4.768818e+05  -2.253892e+04
  -1.137032e+05  -3.064915e+05
   4.448648e+05  -5.070618e+05
   7.452844e+05  -3.081524e+05
   5.784506e+05   2.305581e+05
   1.026263e+05   6.605956e+05
  -3.394638e+05   6.176050e+05
  -4.832235e+05   2.084656e+05
  -3.101343e+05  -1.412385e+05
  -3.645238e+04  -1.638230e+05
   8.129641e+04   6.129074e+03
  -2.075339e+04   4.797032e+04
  -1.667080e+05  -1.542862e+05
  -1.369807e+05  -3.752307e+05
   9.494965e+04  -3.012330e+05
   3.243937e+05   9.605818e+04
   3.047037e+05   4.775033e+05
  -1.003447e+04   4.682334e+05
  -3.797072e+05   5.815684e+04
  -4.567499e+05  -3.843033e+05
  -1.228566e+05  -4.999961e+05
   3.382904e+05  -2.708792e+05
   4.894036e+05   5.165179e+04
   2.151719e+05   2.459418e+05
  -1.281952e+05   2.638063e+05
  -1.313513e+05   1.597259e+05
   1.620863e+05   2.609311e+04
   3.129210e+05  -7.999225e+03
   5.059517e+04   1.325037e+05
  -3.836855e+05   3.187616e+05
  -5.437236e+05   2.856063e+05
  -3.053413e+05  -4.317574e+04
   5.018023e+04  -3.820726e+05
   2.139742e+05  -3.765527e+05
   1.470587e+05  -4.090681e+04
  -3.229931e+03   2.404309e+05
  -1.197571e+05   1.738050e+05
  -1.629624e+05  -1.123444e+05
  -1.086981e+05  -2.690141e+05
   3.551023e+04  -1.571453e+05
   1.777619e+05   4.086970e+04
   2.051978e+05   1.002496e+05
   1.126321e+05   1.821083e+04
   4.872609e+03  -3.441985e+04
  -4.081106e+04   5.014825e+04
  -5.729965e+04   1.884123e+05
  -1.081793e+05   2.022536e+05
  -1.717435e+05   1.932682e+04
  -1.501965e+05  -2.258352e+05
   7.344130e+03  -3.030485e+05
   2.109255e+05  -1.211643e+05
   2.754764e+05   1.592811e+05
   9.182123e+04   2.824645e+05
  -2.226483e+05   1.610275e+05
  -3.807976e+05  -5.685174e+04
  -2.067819e+05  -1.769745e+05
   1.358732e+05  -1.511556e+05
   2.826224e+05  -6.329241e+04
   8.148064e+04  -2.088050e+03
  -2.061101e+05  -7.151215e+03
  -2.043771e+05  -8.056670e+04
   1.192644e+05  -1.608457e+05
   4.084150e+05  -1.172411e+05
