
 $NMID
 id='ANONYMOUS ', fmtdat='(2E16.6)'
 volume=1.0
 tramp=1.0
 $END
  -1.556376e+07   3.167268e+05
  -1.090873e+07  -6.623993e+06
  -6.895071e+05  -9.816349e+06
   6.514055e+06  -7.324808e+06
   6.043104e+06  -1.326508e+06
   7.102817e+05   2.931351e+06
  -3.332739e+06   1.894213e+06
  -2.861448e+06  -2.481793e+06
   4.747210e+05  -4.802703e+06
   3.021931e+06  -2.324794e+06
   2.732187e+06   2.081904e+06
   3.820663e+05   3.523484e+06
  -1.613040e+06   6.906199e+05
  -1.356665e+06  -3.025810e+06
   8.707283e+05  -3.590410e+06
   2.768663e+06  -5.087430e+05
   2.195421e+06   3.138003e+06
  -5.704631e+05   4.101590e+06
  -3.023812e+06   1.969336e+06
  -3.072366e+06  -9.393753e+05
  -1.197115e+06  -2.190008e+06
   2.765955e+05  -1.551978e+06
  -1.520289e+05  -7.776539e+05
  -1.558809e+06  -1.323815e+06
  -1.682542e+06  -2.666559e+06
   5.381538e+05  -3.046148e+06
   3.583658e+06  -1.581588e+06
   4.630579e+06   7.554428e+05
   2.437307e+06   2.191976e+06
  -1.090139e+06   1.796310e+06
  -2.629402e+06   1.017952e+05
  -9.157496e+05  -1.436391e+06
   1.927714e+06  -1.480255e+06
   2.857532e+06   1.666064e+05
   1.260055e+06   2.161891e+06
  -7.746801e+05   2.607179e+06
  -1.225440e+06   9.889089e+05
  -2.654152e+05  -9.939521e+05
   5.439376e+05  -1.138063e+06
   2.979431e+05   6.697741e+05
  -6.058099e+05   2.185834e+06
  -1.308145e+06   1.458216e+06
  -1.236268e+06  -7.802039e+05
  -2.831220e+05  -1.968438e+06
   9.901589e+05  -7.582946e+05
   1.371979e+06   1.473534e+06
   2.661940e+04   2.289875e+06
  -2.201840e+06   8.465683e+05
  -3.151581e+06  -1.444509e+06
  -1.568589e+06  -2.568269e+06
   1.303304e+06  -1.792145e+06
   2.871310e+06  -2.894396e+04
   1.883135e+06   1.220086e+06
  -3.984282e+05   1.143237e+06
  -1.697003e+06   1.349101e+05
  -1.051355e+06  -6.948123e+05
   4.594003e+05  -5.608404e+05
   1.067032e+06   2.968700e+05
   1.891829e+05   9.078665e+05
  -1.031890e+06   5.813939e+05
  -1.028930e+06  -3.845685e+05
   3.803823e+05  -9.888013e+05
   1.655648e+06  -4.839689e+05
   1.182310e+06   8.997239e+05
  -8.804458e+05   2.068212e+06
  -2.719431e+06   1.923036e+06
  -2.828843e+06   3.199448e+05
  -1.483898e+06  -1.697404e+06
  -1.185203e+05  -2.751119e+06
   3.776922e+05  -2.385691e+06
   3.576316e+05  -1.410135e+06
   6.030195e+05  -8.580547e+05
   1.293809e+06  -7.605926e+05
   1.894152e+06  -2.812590e+05
   1.764583e+06   9.312292e+05
   7.409180e+05   1.974327e+06
  -6.791913e+05   1.633940e+06
  -1.568391e+06  -7.286527e+04
  -1.202216e+06  -1.707020e+06
   2.453008e+05  -1.852354e+06
   1.665835e+06  -5.084051e+05
   1.934548e+06   1.073527e+06
   9.742863e+05   1.733079e+06
  -2.161520e+05   1.380902e+06
  -6.798639e+05   7.657512e+05
  -5.273463e+05   5.468493e+05
  -6.758970e+05   6.819980e+05
  -1.584386e+06   5.910717e+05
  -2.480870e+06  -1.919965e+05
  -2.090829e+06  -1.481835e+06
  -1.514096e+05  -2.470333e+06
   2.023132e+06  -2.341402e+06
   2.710786e+06  -1.012348e+06
   1.508754e+06   6.544378e+05
  -2.749646e+05   1.475914e+06
  -9.985734e+05   9.704509e+05
  -2.954817e+05  -1.674373e+05
   7.835963e+05  -7.199205e+05
   1.050901e+06  -1.928323e+05
   3.596132e+05   6.544144e+05
  -4.521749e+05   6.913425e+05
  -5.202363e+05  -1.918955e+05
   2.482996e+05  -8.392147e+05
   1.139104e+06  -1.557407e+05
   1.224772e+06   1.489654e+06
   1.339273e+05   2.501274e+06
  -1.527881e+06   1.743511e+06
  -2.533471e+06  -2.401742e+05
  -2.054716e+06  -1.820681e+06
  -4.784387e+05  -1.930200e+06
   8.881419e+05  -9.453227e+05
   1.059954e+06  -4.715913e+04
   3.069095e+05   2.946446e+04
  -2.351322e+05  -4.522959e+05
   1.456632e+05  -7.226389e+05
   9.703935e+05  -3.562476e+05
   1.165903e+06   3.500355e+05
   3.463161e+05   7.285255e+05
  -6.666547e+05   4.209582e+05
  -7.056859e+05  -2.540167e+05
   4.118356e+05  -5.823330e+05
   1.571327e+06  -1.272051e+05
   1.481714e+06   8.288653e+05
   5.372764e+04   1.491444e+06
  -1.467565e+06   1.248726e+06
  -1.765434e+06   2.485071e+05
  -7.429379e+05  -6.845441e+05
   4.878026e+05  -7.850255e+05
   7.862195e+05  -9.152854e+04
   3.734714e+04   5.684586e+05
  -8.949882e+05   4.290688e+05
  -1.085587e+06  -3.871214e+05
  -3.816640e+05  -1.004585e+06
   5.377568e+05  -7.803676e+05
   8.349253e+05  -1.609433e+04
   3.097674e+05   4.180772e+05
  -3.931928e+05   7.369368e+04
  -4.173119e+05  -6.163488e+05
   3.919403e+05  -8.491937e+05
   1.252410e+06  -2.821865e+05
   1.229932e+06   6.714465e+05
   2.446245e+05   1.254461e+06
  -8.208824e+05   1.023041e+06
  -1.044284e+06   2.053119e+05
  -3.868385e+05  -5.012986e+05
   3.660314e+05  -5.484790e+05
   4.868829e+05  -4.226321e+04
   6.658829e+03   3.925444e+05
  -4.405044e+05   3.041079e+05
  -3.481444e+05  -8.992855e+04
   1.423416e+05  -1.927903e+05
   4.109303e+05   2.243688e+05
   1.632072e+04   7.073381e+05
  -8.028218e+05   6.030736e+05
  -1.294494e+06  -2.192885e+05
  -9.106531e+05  -1.190093e+06
   1.285830e+05  -1.549037e+06
   1.028359e+06  -1.017079e+06
   1.188380e+06  -2.497270e+04
   7.321293e+05   6.798394e+05
   2.569824e+05   6.991516e+05
   1.441805e+05   3.123779e+05
   2.117415e+05   1.221916e+05
   3.546168e+04   3.568462e+05
  -4.852218e+05   6.018395e+05
  -9.423653e+05   3.084324e+05
  -7.953579e+05  -4.834416e+05
   6.356827e+04  -1.070855e+06
   1.092457e+06  -7.916545e+05
   1.475135e+06   2.612143e+05
   8.131910e+05   1.281149e+06
  -4.786075e+05   1.479366e+06
  -1.482954e+06   7.637674e+05
  -1.552134e+06  -2.484395e+05
  -8.211883e+05  -8.314848e+05
   1.163629e+04  -7.790761e+05
   3.739489e+05  -4.880000e+05
   2.811999e+05  -4.471829e+05
   1.733969e+05  -6.722656e+05
   3.733365e+05  -7.014317e+05
   7.345815e+05  -1.694976e+05
   8.065953e+05   6.885046e+05
   3.349014e+05   1.196851e+06
  -4.081560e+05   9.039523e+05
  -8.232570e+05   3.306653e+04
  -5.574593e+05  -7.335031e+05
   1.261938e+05  -8.680677e+05
   5.988674e+05  -3.964745e+05
   4.992319e+05   2.265492e+05
   7.246481e+04   5.616901e+05
  -1.525404e+05   5.212171e+05
   2.066253e+04   3.367527e+05
   2.376245e+05   2.497692e+05
   1.532859e+04   2.568097e+05
  -6.573273e+05   1.597866e+05
  -1.207012e+06  -1.634508e+05
  -1.017430e+06  -5.829331e+05
  -9.407280e+04  -8.172346e+05
   8.610499e+05  -6.848091e+05
   1.102840e+06  -2.629603e+05
   5.696073e+05   1.585385e+05
  -1.013921e+05   2.888768e+05
  -2.821019e+05   8.451444e+04
   2.465440e+04  -1.738892e+05
   3.265194e+05  -1.346059e+05
   2.847358e+05   2.179032e+05
   4.759220e+04   4.841673e+05
  -4.373196e+04   3.066817e+05
   1.007200e+05  -1.355469e+05
   2.623484e+05  -2.767353e+05
   1.941482e+05   1.338029e+05
  -1.443668e+05   6.567009e+05
  -5.587910e+05   6.493854e+05
  -7.246529e+05   3.965604e+04
  -4.059823e+05  -5.765919e+05
   2.593193e+05  -6.131237e+05
   7.146140e+05  -1.067130e+05
   4.435576e+05   3.967991e+05
  -4.144225e+05   4.322026e+05
  -1.053226e+06   1.575729e+03
  -7.839570e+05  -5.185377e+05
   1.989249e+05  -7.200817e+05
   9.811442e+05  -4.595548e+05
   8.827786e+05   4.010884e+04
   1.421934e+05   3.531693e+05
  -3.991024e+05   2.245815e+05
  -2.087518e+05  -1.502951e+05
   4.206721e+05  -2.753413e+05
   7.362170e+05   1.347227e+05
   3.221280e+05   7.896277e+05
  -4.951762e+05   1.033286e+06
  -1.000089e+06   4.812975e+05
  -7.899049e+05  -5.294370e+05
  -1.054562e+05  -1.170102e+06
   4.826597e+05  -8.828760e+05
   6.142530e+05   4.919306e+04
   3.439514e+05   7.579693e+05
  -5.511246e+04   6.747623e+05
  -3.346254e+05   9.159155e+04
  -3.630570e+05  -2.610228e+05
  -1.765667e+05  -1.143593e+05
  -4.290893e+03   8.474692e+04
  -7.562970e+04  -1.367926e+05
  -2.850648e+05  -5.988767e+05
  -2.063199e+05  -7.123479e+05
   3.599168e+05  -2.705952e+05
   9.600240e+05   3.075410e+05
   9.017001e+05   5.450222e+05
   1.266014e+05   4.319110e+05
  -6.214061e+05   2.543148e+05
  -6.605662e+05   1.390962e+05
  -1.720817e+05   9.193841e+03
   1.224681e+05  -1.354832e+05
  -5.875514e+04  -1.765834e+05
  -2.569772e+05  -1.138561e+05
   3.932345e+03  -8.980532e+04
   5.202358e+05  -1.073734e+05
   6.566419e+05   4.491574e+04
   1.387717e+05   4.277572e+05
  -6.336597e+05   6.865157e+05
  -1.032180e+06   3.998758e+05
  -7.847219e+05  -3.391541e+05
  -1.229021e+05  -9.154650e+05
   4.822021e+05  -8.399582e+05
   6.727466e+05  -2.705887e+05
   4.262766e+05   2.057706e+05
   4.315159e+04   2.275292e+05
  -1.192714e+05  -1.238644e+04
   2.586454e+04  -6.940454e+04
   2.283788e+05   2.134785e+05
   1.823922e+05   5.194281e+05
  -1.400943e+05   4.119404e+05
  -4.477571e+05  -1.444393e+05
  -4.058830e+05  -6.717998e+05
   3.315961e+04  -6.473745e+05
   5.314206e+05  -6.580910e+04
   6.201935e+05   5.481851e+05
   1.522549e+05   6.937891e+05
  -4.762169e+05   3.603969e+05
  -6.708413e+05  -8.678628e+04
  -2.849008e+05  -3.413804e+05
   1.851744e+05  -3.541774e+05
   1.801210e+05  -2.134154e+05
  -2.296915e+05  -4.025526e+04
  -4.335389e+05   2.612605e+03
  -6.385389e+04  -1.836309e+05
   5.367582e+05  -4.306262e+05
   7.501236e+05  -3.826126e+05
   4.122650e+05   6.483827e+04
  -8.028794e+04   5.234020e+05
  -3.003441e+05   5.093579e+05
  -1.995340e+05   4.606891e+04
   1.285031e+04  -3.350991e+05
   1.719661e+05  -2.337462e+05
   2.241665e+05   1.642890e+05
   1.421833e+05   3.742503e+05
  -5.630494e+04   2.114508e+05
  -2.447331e+05  -6.332962e+04
  -2.771068e+05  -1.404814e+05
  -1.535271e+05  -2.472280e+04
  -1.188382e+04   4.414481e+04
   5.417251e+04  -7.672471e+04
   8.994840e+04  -2.645954e+05
   1.671681e+05  -2.742844e+05
   2.444761e+05  -1.376065e+04
   1.966177e+05   3.244312e+05
  -2.719738e+04   4.222138e+05
  -2.977789e+05   1.599500e+05
  -3.734658e+05  -2.318130e+05
  -1.172726e+05  -3.951089e+05
   3.099062e+05  -2.147713e+05
   5.213210e+05   9.200089e+04
   2.789717e+05   2.501788e+05
  -1.928522e+05   2.008789e+05
  -3.918801e+05   7.442357e+04
  -1.086041e+05  -1.768960e+03
   2.916127e+05   1.721915e+04
   2.844518e+05   1.215291e+05
  -1.720700e+05   2.241999e+05
  -5.743349e+05   1.538863e+05
