
 $NMID
 id='ANONYMOUS ', fmtdat='(2E16.6)'
 volume=1.0
 tramp=1.0
 $END
  -1.455413e+07  -1.049767e+06
  -8.414509e+06  -8.931629e+06
   2.011401e+06  -9.499642e+06
   7.118590e+06  -4.036375e+06
   4.458693e+06   1.317417e+06
  -6.364022e+05   2.416062e+06
  -2.649225e+06   4.478438e+04
  -1.038912e+06  -2.508473e+06
   1.463737e+06  -2.829108e+06
   2.606264e+06  -7.652584e+05
   1.883408e+06   1.826187e+06
   8.714946e+04   2.520483e+06
  -1.212234e+06   6.154689e+05
  -7.388186e+05  -1.831439e+06
   1.047588e+06  -2.057221e+06
   2.147607e+06   2.797934e+05
   1.187747e+06   2.796406e+06
  -1.086280e+06   3.178298e+06
  -2.782217e+06   1.411876e+06
  -2.776639e+06  -8.354808e+05
  -1.407189e+06  -2.101120e+06
   1.153934e+05  -2.044798e+06
   6.425334e+05  -1.276388e+06
   1.304856e+04  -7.858167e+05
  -6.032897e+05  -1.082171e+06
   1.520914e+05  -1.559770e+06
   2.000303e+06  -1.137668e+06
   3.001469e+06   2.692100e+05
   1.868440e+06   1.464129e+06
  -3.213382e+05   1.420961e+06
  -1.415659e+06   4.517865e+05
  -7.093646e+05  -4.020414e+05
   6.028546e+05  -5.491385e+05
   1.155486e+06  -2.581148e+04
   7.170418e+05   8.461154e+05
  -1.248344e+05   1.415148e+06
  -7.224308e+05   9.475838e+05
  -6.846133e+05  -3.355485e+05
  -1.180575e+05  -1.014886e+06
   2.697171e+05  -1.838244e+05
  -1.215924e+05   1.023022e+06
  -8.309505e+05   7.569110e+05
  -7.071203e+05  -8.438131e+05
   5.103222e+05  -1.596951e+06
   1.580824e+06  -2.349396e+05
   1.170530e+06   1.783385e+06
  -5.268200e+05   2.145315e+06
  -2.003895e+06   5.226643e+05
  -2.016674e+06  -1.332650e+06
  -6.279393e+05  -1.812258e+06
   1.029831e+06  -8.938298e+05
   1.678756e+06   3.762550e+05
   8.610584e+05   1.003543e+06
  -5.973801e+05   6.497095e+05
  -1.259197e+06  -2.290187e+05
  -5.759538e+05  -7.233334e+05
   4.664817e+05  -3.643183e+05
   5.750772e+05   2.989583e+05
  -2.170377e+05   3.692660e+05
  -6.832422e+05  -2.342768e+05
  -6.638238e+04  -7.260718e+05
   1.006161e+06  -5.079805e+05
   1.383842e+06   2.397393e+05
   6.536908e+05   1.019647e+06
  -6.606809e+05   1.481611e+06
  -1.719174e+06   1.309907e+06
  -1.916228e+06   2.974031e+05
  -1.183166e+06  -1.111338e+06
  -9.446467e+04  -1.876531e+06
   5.333274e+05  -1.461507e+06
   4.387036e+05  -5.475529e+05
   1.686780e+05  -1.682905e+05
   3.333336e+05  -3.877339e+05
   8.155757e+05  -3.901678e+05
   9.885265e+05   2.352434e+05
   5.436203e+05   8.993148e+05
  -1.994636e+05   8.220503e+05
  -6.925349e+05  -1.317868e+03
  -5.869741e+05  -8.491787e+05
   1.110461e+05  -1.022803e+06
   9.744902e+05  -3.935088e+05
   1.315053e+06   5.775086e+05
   7.863886e+05   1.210006e+06
  -1.428809e+05   1.148859e+06
  -6.558292e+05   6.631403e+05
  -5.767150e+05   3.081397e+05
  -5.274259e+05   2.652198e+05
  -9.622531e+05   1.860443e+05
  -1.432893e+06  -2.701995e+05
  -1.136558e+06  -9.584977e+05
   1.023494e+04  -1.405697e+06
   1.185498e+06  -1.273125e+06
   1.512218e+06  -5.858618e+05
   8.792477e+05   2.908402e+05
  -5.394868e+04   8.032601e+05
  -4.944111e+05   5.946746e+05
  -1.816057e+05  -5.907562e+04
   4.273170e+05  -4.115949e+05
   6.342358e+05  -8.936164e+04
   2.439499e+05   4.116812e+05
  -2.314084e+05   3.768111e+05
  -2.037164e+05  -1.286921e+05
   2.763501e+05  -3.197786e+05
   6.093441e+05   2.424141e+05
   3.604722e+05   1.044241e+06
  -3.304600e+05   1.237707e+06
  -9.934675e+05   5.861783e+05
  -1.231973e+06  -3.920120e+05
  -8.972677e+05  -1.016251e+06
  -1.616556e+05  -9.858997e+05
   4.839011e+05  -4.947800e+05
   5.705825e+05  -2.849092e+04
   1.699767e+05   2.479539e+04
  -1.135669e+05  -2.634458e+05
   1.412440e+05  -4.295371e+05
   6.191793e+05  -1.637170e+05
   6.633374e+05   2.960652e+05
   1.323968e+05   4.602604e+05
  -4.015773e+05   1.921621e+05
  -3.370627e+05  -1.662897e+05
   2.740061e+05  -2.274911e+05
   8.005568e+05   6.928605e+04
   6.768182e+05   4.952221e+05
  -6.909459e+04   7.418843e+05
  -8.362491e+05   5.857560e+05
  -9.758781e+05   6.435341e+04
  -3.949962e+05  -4.360054e+05
   3.267692e+05  -4.675547e+05
   5.000941e+05  -2.974175e+04
   2.804885e+04   3.541967e+05
  -5.282214e+05   2.208211e+05
  -5.853032e+05  -2.783849e+05
  -1.281044e+05  -5.724481e+05
   3.613553e+05  -3.592524e+05
   4.414988e+05   8.055238e+04
   1.077180e+05   2.582961e+05
  -2.531944e+05   1.314146e+04
  -2.269688e+05  -3.703994e+05
   2.339319e+05  -4.760697e+05
   7.083187e+05  -1.394601e+05
   6.795220e+05   4.056738e+05
   9.711335e+04   7.184754e+05
  -5.115163e+05   5.439410e+05
  -5.951102e+05   5.925302e+04
  -1.756567e+05  -3.006794e+05
   2.326272e+05  -2.779870e+05
   2.434219e+05  -1.423995e+04
  -2.743670e+04   1.628325e+05
  -2.054699e+05   1.063181e+05
  -1.068663e+05  -3.468048e+04
   1.197158e+05  -2.189151e+04
   1.874784e+05   1.954854e+05
  -5.856987e+04   3.998342e+05
  -4.819243e+05   2.966986e+05
  -7.149177e+05  -1.718619e+05
  -4.735929e+05  -6.964057e+05
   1.166121e+05  -8.465932e+05
   5.902596e+05  -4.943089e+05
   6.157697e+05   4.829822e+04
   3.296594e+05   3.536397e+05
   1.150154e+05   3.009874e+05
   1.269111e+05   1.275937e+05
   1.692140e+05   1.040243e+05
   1.220669e+04   2.388598e+05
  -3.054443e+05   3.065315e+05
  -5.174158e+05   1.127342e+05
  -3.856763e+05  -2.761325e+05
   8.951944e+04  -5.400599e+05
   6.208190e+05  -3.713692e+05
   7.895587e+05   1.978972e+05
   3.812870e+05   7.424432e+05
  -3.574709e+05   8.037458e+05
  -8.766519e+05   3.405091e+05
  -8.239557e+05  -2.320345e+05
  -3.612444e+05  -4.795936e+05
   5.936424e+04  -3.686653e+05
   1.739583e+05  -2.115589e+05
   9.572382e+04  -2.568914e+05
   8.608878e+04  -4.193586e+05
   2.461243e+05  -4.112256e+05
   4.383613e+05  -8.021923e+04
   4.392466e+05   4.028521e+05
   1.570557e+05   6.719417e+05
  -2.463661e+05   4.903272e+05
  -4.514961e+05  -1.543358e+04
  -2.708205e+05  -4.443175e+05
   1.329800e+05  -4.765682e+05
   3.803609e+05  -1.529226e+05
   2.661881e+05   2.077941e+05
  -2.772258e+04   3.446822e+05
  -1.573269e+05   2.686131e+05
  -1.905567e+04   1.605378e+05
   1.374080e+05   1.339446e+05
   9.163650e+03   1.385692e+05
  -3.887769e+05   5.901383e+04
  -6.921175e+05  -1.422747e+05
  -5.452296e+05  -3.739590e+05
   1.175761e+04  -4.789538e+05
   5.423622e+05  -3.610093e+05
   6.314469e+05  -8.460036e+04
   2.912753e+05   1.512490e+05
  -8.697671e+04   1.772527e+05
  -1.692561e+05   1.719037e+04
   7.528634e+03  -1.265577e+05
   1.701743e+05  -7.634579e+04
   1.578093e+05   1.283671e+05
   5.036063e+04   2.642178e+05
   1.237363e+03   1.708684e+05
   5.216730e+04  -4.830212e+04
   1.217356e+05  -1.192800e+05
   9.690090e+04   8.280624e+04
  -7.873403e+04   3.505077e+05
  -3.308672e+05   3.515078e+05
  -4.487137e+05   2.035172e+04
  -2.518625e+05  -3.352192e+05
   1.650054e+05  -3.667499e+05
   4.281219e+05  -7.140377e+04
   2.423398e+05   2.209322e+05
  -2.498216e+05   2.192174e+05
  -5.640303e+05  -4.674985e+04
  -3.696600e+05  -3.118670e+05
   1.615201e+05  -3.576591e+05
   5.384413e+05  -1.766724e+05
   4.501576e+05   6.934533e+04
   5.099072e+04   1.878843e+05
  -2.287962e+05   9.476139e+04
  -1.213784e+05  -1.019897e+05
   2.253662e+05  -1.610872e+05
   4.107725e+05   6.693174e+04
   1.928835e+05   4.350072e+05
  -2.621900e+05   5.776042e+05
  -5.483919e+05   2.684386e+05
  -4.263298e+05  -2.972616e+05
  -3.602143e+04  -6.387502e+05
   2.836935e+05  -4.544062e+05
   3.264974e+05   6.397696e+04
   1.457709e+05   4.248403e+05
  -7.515261e+04   3.478042e+05
  -1.934794e+05   2.771755e+04
  -1.713572e+05  -1.441825e+05
  -7.054640e+04  -5.597360e+04
  -1.285958e+04   3.737398e+04
  -7.120266e+04  -9.878588e+04
  -1.540411e+05  -3.448766e+05
  -6.653524e+04  -3.862902e+05
   2.376030e+05  -1.294290e+05
   5.143333e+05   1.904284e+05
   4.532289e+05   3.170780e+05
   5.480778e+04   2.456343e+05
  -3.227566e+05   1.311211e+05
  -3.553011e+05   5.245129e+04
  -1.135954e+05  -1.661567e+04
   6.101985e+04  -7.544418e+04
  -9.835308e+02  -7.974367e+04
  -1.098288e+05  -4.736444e+04
  -8.432135e+03  -4.907887e+04
   2.565453e+05  -6.459593e+04
   3.660281e+05   2.887166e+04
   1.134395e+05   2.493718e+05
  -3.350534e+05   3.885959e+05
  -6.007009e+05   2.211799e+05
  -4.672440e+05  -1.886215e+05
  -6.372407e+04  -5.030856e+05
   2.912500e+05  -4.637251e+05
   3.793453e+05  -1.580964e+05
   2.289901e+05   1.033782e+05
   3.307918e+04   1.285441e+05
  -4.082166e+04   1.263186e+04
   2.311035e+04  -1.551725e+04
   1.064047e+05   1.297357e+05
   7.844955e+04   2.886932e+05
  -7.925747e+04   2.322105e+05
  -2.409638e+05  -6.605626e+04
  -2.330825e+05  -3.594789e+05
  -4.033788e+03  -3.639592e+05
   2.794303e+05  -5.864379e+04
   3.461611e+05   2.867834e+05
   9.220729e+04   3.893698e+05
  -2.664312e+05   2.139423e+05
  -3.848148e+05  -5.185796e+04
  -1.665407e+05  -2.155044e+05
   1.131759e+05  -2.195327e+05
   1.282347e+05  -1.185969e+05
  -1.004295e+05  -1.249108e+04
  -2.328443e+05  -3.788877e+02
  -4.106559e+04  -1.086995e+05
   3.030569e+05  -2.251637e+05
   4.413151e+05  -1.759436e+05
   2.511126e+05   6.680207e+04
  -5.161009e+04   2.987514e+05
  -1.989495e+05   2.848847e+05
  -1.400196e+05   3.886696e+04
  -3.198570e+03  -1.752801e+05
   9.509005e+04  -1.416847e+05
   1.223608e+05   6.993506e+04
   7.674679e+04   2.083933e+05
  -3.016475e+04   1.388220e+05
  -1.364351e+05  -2.815397e+04
  -1.576114e+05  -9.971206e+04
  -8.304444e+04  -3.121179e+04
   2.993407e+03   4.461333e+04
   2.725387e+04  -2.034813e+03
   1.816109e+04  -1.327617e+05
   5.122354e+04  -1.809374e+05
   1.245584e+05  -5.017805e+04
   1.394347e+05   1.564280e+05
   2.270115e+04   2.335833e+05
  -1.556276e+05   9.761175e+04
  -2.212284e+05  -1.187443e+05
  -7.292117e+04  -2.114212e+05
   1.820574e+05  -1.172312e+05
   3.026047e+05   4.857053e+04
   1.580945e+05   1.423101e+05
  -1.112864e+05   1.268016e+05
  -2.265834e+05   5.767443e+04
  -7.968653e+04  -4.959547e+02
   1.359320e+05  -9.091835e+03
   1.477155e+05   4.240155e+04
  -7.433180e+04   1.073454e+05
  -2.832161e+05   8.198725e+04
