
 $NMID
 id='ANONYMOUS ', fmtdat='(2E16.6)'
 volume=1.0
 tramp=1.0
 $END
  -4.581067e+07  -7.253316e+02
  -2.799652e+07  -2.740752e+07
   5.200140e+06  -3.073242e+07
   2.207427e+07  -1.296585e+07
   1.387765e+07   4.617634e+06
  -2.157251e+06   7.690883e+06
  -8.190318e+06  -2.549217e+05
  -2.948977e+06  -7.867399e+06
   4.630550e+06  -8.330233e+06
   7.963480e+06  -2.208372e+06
   5.947602e+06   5.175783e+06
   7.067424e+05   7.382331e+06
  -3.422381e+06   2.202659e+06
  -2.349054e+06  -4.942778e+06
   3.009728e+06  -5.921122e+06
   6.597699e+06   8.010282e+05
   3.925713e+06   8.410611e+06
  -2.928880e+06   9.871435e+06
  -8.302365e+06   4.904564e+06
  -8.818287e+06  -1.808089e+06
  -5.163229e+06  -6.141394e+06
  -3.910041e+05  -6.754197e+06
   2.056442e+06  -4.613622e+06
   8.078465e+05  -2.376891e+06
  -1.373674e+06  -2.451559e+06
  -4.590696e+03  -4.041091e+06
   5.107587e+06  -3.702769e+06
   8.528298e+06  -9.765113e+04
   5.895261e+06   3.721579e+06
  -1.941498e+05   4.257229e+06
  -3.575003e+06   1.887060e+06
  -2.098404e+06  -4.798248e+05
   1.087000e+06  -1.186895e+06
   2.614363e+06  -3.055300e+05
   2.016282e+06   1.763279e+06
   2.405976e+05   3.719246e+06
  -1.716136e+06   3.110572e+06
  -2.419082e+06  -4.182924e+05
  -1.041857e+06  -3.008665e+06
   6.674187e+05  -1.155799e+06
   4.475178e+04   2.516659e+06
  -2.214447e+06   2.155110e+06
  -2.176525e+06  -2.563888e+06
   1.657284e+06  -5.074442e+06
   5.333829e+06  -9.742186e+05
   4.136221e+06   5.491614e+06
  -1.379099e+06   6.908574e+06
  -6.095172e+06   2.016906e+06
  -6.069670e+06  -3.699983e+06
  -1.857631e+06  -5.215330e+06
   2.946780e+06  -2.558455e+06
   4.761093e+06   1.092282e+06
   2.383049e+06   2.925180e+06
  -1.876129e+06   1.964474e+06
  -3.832410e+06  -6.246377e+05
  -1.755953e+06  -2.194777e+06
   1.394464e+06  -1.173227e+06
   1.614760e+06   8.415258e+05
  -8.851597e+05   9.678816e+05
  -2.128510e+06  -1.062934e+06
   9.567873e+04  -2.599064e+06
   3.455834e+06  -1.697347e+06
   4.372753e+06   8.135839e+05
   2.065352e+06   3.167126e+06
  -1.603007e+06   4.493273e+06
  -4.538389e+06   4.140260e+06
  -5.427087e+06   1.361461e+06
  -3.802455e+06  -2.858279e+06
  -7.148107e+05  -5.384222e+06
   1.471194e+06  -4.246566e+06
   1.388505e+06  -1.360840e+06
   3.219593e+05  -1.168003e+05
   4.248852e+05  -9.724874e+05
   1.810686e+06  -1.388806e+06
   2.638774e+06   1.479036e+05
   1.719778e+06   2.073637e+06
  -2.145437e+05   2.112470e+06
  -1.661984e+06   1.251175e+05
  -1.626032e+06  -2.085567e+06
   8.237215e+04  -2.755432e+06
   2.569473e+06  -1.367415e+06
   3.888631e+06   1.229894e+06
   2.654202e+06   3.307271e+06
  -1.043881e+05   3.521014e+06
  -1.876357e+06   2.219581e+06
  -1.791081e+06   1.005901e+06
  -1.554966e+06   7.256314e+05
  -2.669782e+06   5.468786e+05
  -3.994206e+06  -6.201423e+05
  -3.235461e+06  -2.512506e+06
  -1.415095e+05  -3.834361e+06
   3.019091e+06  -3.623802e+06
   3.953722e+06  -1.880064e+06
   2.441875e+06   5.308678e+05
   1.050753e+05   2.126108e+06
  -1.140566e+06   1.734185e+06
  -5.098629e+05  -8.393567e+04
   1.059120e+06  -1.195545e+06
   1.744257e+06  -3.523154e+05
   7.907167e+05   1.100355e+06
  -5.314696e+05   1.043967e+06
  -4.865401e+05  -3.499204e+05
   8.624700e+05  -7.883844e+05
   1.733842e+06   8.898996e+05
   8.754510e+05   3.042021e+06
  -1.121139e+06   3.321623e+06
  -2.803027e+06   1.389221e+06
  -3.257903e+06  -1.139739e+06
  -2.341752e+06  -2.626683e+06
  -4.863665e+05  -2.551431e+06
   1.205466e+06  -1.384078e+06
   1.507824e+06  -1.804273e+05
   4.628825e+05   4.421898e+04
  -3.390128e+05  -7.028994e+05
   3.558585e+05  -1.223569e+06
   1.724620e+06  -5.381916e+05
   1.877542e+06   7.744450e+05
   3.922786e+05   1.283973e+06
  -1.084349e+06   5.548332e+05
  -8.837996e+05  -4.221898e+05
   7.632877e+05  -5.700753e+05
   2.118504e+06   2.026804e+05
   1.762762e+06   1.275422e+06
  -1.728161e+05   1.936786e+06
  -2.184691e+06   1.619206e+06
  -2.621479e+06   2.751263e+05
  -1.136878e+06  -1.160704e+06
   8.417967e+05  -1.363276e+06
   1.409676e+06  -1.661229e+05
   1.586482e+05   9.846130e+05
  -1.414005e+06   6.803475e+05
  -1.620030e+06  -7.095181e+05
  -3.658368e+05  -1.548671e+06
   9.869196e+05  -9.690597e+05
   1.198502e+06   2.331297e+05
   2.765276e+05   7.158090e+05
  -7.194556e+05   6.144067e+04
  -6.789846e+05  -9.822636e+05
   5.557881e+05  -1.329147e+06
   1.892989e+06  -4.900910e+05
   1.903487e+06   9.986922e+05
   3.583381e+05   1.943358e+06
  -1.337101e+06   1.543385e+06
  -1.616568e+06   2.157080e+05
  -4.923842e+05  -8.075424e+05
   6.096202e+05  -7.690178e+05
   6.247284e+05  -6.821014e+04
  -8.867913e+04   3.906132e+05
  -5.045501e+05   2.480343e+05
  -1.979456e+05  -7.711806e+04
   3.802958e+05   1.909652e+02
   5.126739e+05   5.750470e+05
  -1.535904e+05   1.107519e+06
  -1.286302e+06   8.535078e+05
  -1.958782e+06  -3.831821e+05
  -1.374780e+06  -1.827365e+06
   2.074012e+05  -2.291344e+06
   1.530462e+06  -1.367114e+06
   1.630884e+06   9.166449e+04
   8.644109e+05   8.820422e+05
   3.150334e+05   7.021472e+05
   4.028310e+05   2.602716e+05
   5.360146e+05   2.743508e+05
   7.783091e+04   6.838707e+05
  -8.086081e+05   8.583807e+05
  -1.376099e+06   3.343292e+05
  -1.028835e+06  -6.920831e+05
   2.111410e+05  -1.421706e+06
   1.629410e+06  -1.042697e+06
   2.137628e+06   4.483386e+05
   1.094220e+06   1.971971e+06
  -9.117716e+05   2.226789e+06
  -2.366385e+06   1.000901e+06
  -2.237595e+06  -5.783953e+05
  -9.634300e+05  -1.261895e+06
   1.617021e+05  -9.460178e+05
   4.064549e+05  -5.299042e+05
   1.440580e+05  -7.025463e+05
   1.322434e+05  -1.188260e+06
   6.207053e+05  -1.181788e+06
   1.197598e+06  -2.889459e+05
   1.249695e+06   1.024172e+06
   5.173438e+05   1.789751e+06
  -5.942355e+05   1.354648e+06
  -1.217059e+06   5.362736e+03
  -7.772078e+05  -1.190813e+06
   3.363494e+05  -1.313129e+06
   1.058835e+06  -4.213587e+05
   7.604291e+05   5.975164e+05
  -7.464537e+04   9.807716e+05
  -4.538361e+05   7.451706e+05
  -5.955467e+04   4.139723e+05
   3.982748e+05   3.283816e+05
   4.967794e+04   3.661633e+05
  -1.065059e+06   2.042367e+05
  -1.919583e+06  -3.037100e+05
  -1.523924e+06  -9.608890e+05
   4.467623e+03  -1.329216e+06
   1.461557e+06  -1.064055e+06
   1.714230e+06  -2.838675e+05
   7.984288e+05   4.243185e+05
  -2.292683e+05   5.167455e+05
  -4.714400e+05   4.898549e+04
  -1.619527e+04  -3.715557e+05
   4.312791e+05  -2.356263e+05
   4.490082e+05   3.236639e+05
   2.079345e+05   6.902516e+05
   6.174257e+04   4.535562e+05
   1.335451e+05  -1.100787e+05
   2.875646e+05  -3.009951e+05
   2.655138e+05   2.161073e+05
  -1.489938e+05   9.404874e+05
  -8.474159e+05   9.997407e+05
  -1.249979e+06   1.458925e+05
  -7.691425e+05  -8.636108e+05
   3.916325e+05  -1.047613e+06
   1.166758e+06  -2.904339e+05
   6.876058e+05   5.503281e+05
  -6.560357e+05   6.175783e+05
  -1.512645e+06  -7.631126e+04
  -9.869089e+05  -8.096144e+05
   4.311515e+05  -9.577962e+05
   1.424803e+06  -4.899637e+05
   1.190488e+06   1.617206e+05
   1.404200e+05   4.929299e+05
  -6.112297e+05   2.670146e+05
  -3.546973e+05  -2.695455e+05
   5.649662e+05  -4.808205e+05
   1.115727e+06   9.526062e+04
   6.121460e+05   1.125907e+06
  -5.834412e+05   1.600855e+06
  -1.415959e+06   8.218068e+05
  -1.187828e+06  -7.260893e+05
  -1.883897e+05  -1.702659e+06
   7.027850e+05  -1.238788e+06
   8.816970e+05   1.533819e+05
   4.233032e+05   1.128482e+06
  -1.904086e+05   9.297646e+05
  -5.276531e+05   8.753840e+04
  -4.548817e+05  -3.616235e+05
  -1.692875e+05  -1.355453e+05
  -4.078569e+04   9.504462e+04
  -2.451606e+05  -2.694533e+05
  -4.757010e+05  -9.117088e+05
  -1.976506e+05  -1.026391e+06
   6.584940e+05  -3.781831e+05
   1.401394e+06   4.414467e+05
   1.229337e+06   7.939409e+05
   1.774937e+05   6.592321e+05
  -8.217227e+05   3.960505e+05
  -9.381821e+05   1.777941e+05
  -3.319447e+05  -4.240467e+04
   1.426120e+05  -2.126180e+05
   1.995733e+04  -2.020560e+05
  -2.656090e+05  -9.776406e+04
  -4.254303e+04  -1.269282e+05
   6.421293e+05  -2.186160e+05
   9.906970e+05   1.385827e+04
   3.913898e+05   6.530392e+05
  -8.089982e+05   1.109446e+06
  -1.601683e+06   7.101029e+05
  -1.322781e+06  -4.137535e+05
  -2.579154e+05  -1.335022e+06
   7.220338e+05  -1.301575e+06
   9.939558e+05  -5.039412e+05
   6.234370e+05   2.257898e+05
   1.225265e+05   3.392986e+05
  -7.628804e+04   5.610105e+04
   7.355681e+04  -2.378491e+04
   2.908075e+05   3.451235e+05
   2.400938e+05   7.662374e+05
  -1.707088e+05   6.422062e+05
  -6.480721e+05  -1.198343e+05
  -6.973366e+05  -9.065251e+05
  -1.024990e+05  -9.764505e+05
   7.183446e+05  -2.286763e+05
   9.805453e+05   6.876272e+05
   3.283623e+05   1.031423e+06
  -6.751797e+05   6.386214e+05
  -1.056793e+06  -6.946618e+04
  -5.015182e+05  -5.733573e+05
   2.691989e+05  -6.366539e+05
   3.519738e+05  -3.485674e+05
  -2.415319e+05  -1.086469e+04
  -6.176135e+05   3.814220e+04
  -1.376855e+05  -2.901971e+05
   7.808576e+05  -6.471551e+05
   1.187049e+06  -5.212845e+05
   7.169493e+05   1.603846e+05
  -8.906755e+04   8.220318e+05
  -5.150794e+05   8.112273e+05
  -3.965263e+05   1.506425e+05
  -4.926269e+04  -4.566012e+05
   2.262327e+05  -4.104114e+05
   3.345449e+05   1.435137e+05
   2.423499e+05   5.466905e+05
  -4.947872e+04   4.005773e+05
  -3.706350e+05  -4.299885e+04
  -4.505177e+05  -2.606305e+05
  -2.304404e+05  -8.733462e+04
   3.082102e+04   1.381307e+05
   7.899194e+04   3.259881e+04
  -5.778791e+03  -3.379637e+05
   5.425726e+04  -5.160489e+05
   3.040460e+05  -1.997427e+05
   4.296862e+05   3.628375e+05
   1.433773e+05   6.138118e+05
  -3.878750e+05   2.978595e+05
  -6.283159e+05  -2.646364e+05
  -2.411611e+05  -5.443119e+05
   4.782801e+05  -3.485152e+05
   8.348700e+05   6.911118e+04
   4.549532e+05   3.559168e+05
  -2.764809e+05   3.780149e+05
  -6.036877e+05   2.158341e+05
  -2.343449e+05   1.822112e+04
   3.320011e+05  -6.320202e+04
   3.882454e+05   6.267267e+04
  -1.614760e+05   2.793176e+05
  -7.089939e+05   2.607927e+05
