
 $NMID
 id='ANONYMOUS ', fmtdat='(2E16.6)'
 volume=1.0
 tramp=1.0
 $END
   5.366931e+06  -3.858988e+05
   4.043127e+06   1.283787e+06
   1.027476e+06   2.999754e+06
  -1.614454e+06   3.359599e+06
  -2.193712e+06   1.501714e+06
  -7.262225e+05  -9.050696e+05
   1.082988e+06  -1.253195e+06
   1.485691e+06   6.005557e+05
   3.526982e+05   2.081547e+06
  -9.513639e+05   1.290559e+06
  -1.167326e+06  -6.807935e+05
  -3.084600e+05  -1.430940e+06
   6.285657e+05  -2.572468e+05
   7.220098e+05   1.345335e+06
  -1.041974e+05   1.665047e+06
  -1.038780e+06   4.742145e+05
  -1.083461e+06  -1.065886e+06
  -6.935053e+04  -1.629476e+06
   1.034570e+06  -8.723505e+05
   1.134043e+06   3.255648e+05
   3.202835e+05   7.926059e+05
  -2.241194e+05   3.569174e+05
   2.676453e+05  -2.007994e+04
   1.142737e+06   4.541107e+05
   1.115331e+06   1.345329e+06
  -1.809198e+05   1.584414e+06
  -1.727367e+06   8.127737e+05
  -2.143193e+06  -3.084134e+05
  -1.027819e+06  -9.407704e+05
   6.324540e+05  -7.635724e+05
   1.329012e+06   2.069529e+04
   4.621556e+05   8.398863e+05
  -1.013669e+06   9.487058e+05
  -1.566493e+06   5.538865e+04
  -7.620204e+05  -1.104487e+06
   3.378235e+05  -1.337079e+06
   5.647382e+05  -3.972508e+05
  -3.127884e+03   5.948526e+05
  -4.212114e+05   4.816231e+05
  -2.118931e+05  -5.255277e+05
   2.574409e+05  -1.187475e+06
   5.353294e+05  -7.784511e+05
   5.634261e+05   1.766089e+05
   3.684409e+05   6.723402e+05
  -7.223542e+04   3.241739e+05
  -4.420511e+05  -3.981800e+05
  -1.534843e+05  -7.492947e+05
   7.897239e+05  -3.718954e+05
   1.433613e+06   4.444843e+05
   9.008466e+05   1.026054e+06
  -4.365752e+05   9.089480e+05
  -1.305187e+06   2.534100e+05
  -9.836414e+05  -3.523539e+05
   5.346208e+03  -4.796109e+05
   6.443410e+05  -1.893155e+05
   4.795181e+05   1.499402e+05
  -1.311865e+05   2.192867e+05
  -5.052889e+05  -4.549682e+04
  -2.574018e+05  -4.141808e+05
   3.472444e+05  -4.976440e+05
   6.018036e+05  -1.156615e+05
   1.285934e+05   3.940057e+05
  -5.568109e+05   4.227290e+05
  -5.491654e+05  -2.076143e+05
   3.190947e+05  -9.241510e+05
   1.203190e+06  -9.640427e+05
   1.269477e+06  -1.996546e+05
   6.563513e+05   7.518987e+05
   1.251238e+05   1.213387e+06
   2.583834e+04   1.082693e+06
   2.132175e+04   7.621435e+05
  -2.645277e+05   5.980845e+05
  -7.408934e+05   5.070297e+05
  -1.046322e+06   1.626944e+05
  -9.399759e+05  -4.945812e+05
  -4.127764e+05  -1.021694e+06
   3.217785e+05  -8.656351e+05
   8.269399e+05  -2.608820e+04
   6.835790e+05   8.066182e+05
  -5.616269e+04   9.090860e+05
  -7.847637e+05   2.647951e+05
  -9.051576e+05  -4.794244e+05
  -4.357024e+05  -7.457263e+05
   8.148993e+04  -5.480862e+05
   2.295581e+05  -2.931053e+05
   1.364945e+05  -2.626294e+05
   2.379536e+05  -3.872493e+05
   7.110247e+05  -3.932658e+05
   1.191105e+06  -5.708891e+04
   1.080698e+06   5.889210e+05
   2.015833e+05   1.180802e+06
  -8.738800e+05   1.234055e+06
  -1.283790e+06   5.988740e+05
  -7.511013e+05  -2.892480e+05
   1.108843e+05  -7.472533e+05
   4.684849e+05  -4.945072e+05
   1.355451e+05   8.686860e+04
  -3.621546e+05   3.705451e+05
  -4.759054e+05   1.250224e+05
  -1.696493e+05  -2.895197e+05
   1.966993e+05  -3.427520e+05
   2.749829e+05   6.442657e+04
  -3.233308e+04   4.432731e+05
  -5.183337e+05   2.226776e+05
  -7.388942e+05  -5.667961e+05
  -3.251666e+05  -1.211408e+06
   5.765115e+05  -1.026244e+06
   1.276530e+06  -1.057668e+05
   1.164455e+06   7.647677e+05
   3.618461e+05   9.397405e+05
  -3.914400e+05   5.143346e+05
  -5.177161e+05   7.200987e+04
  -1.483050e+05   4.597831e+03
   1.323451e+05   2.072358e+05
  -3.277646e+04   3.380866e+05
  -4.280607e+05   2.053085e+05
  -5.535901e+05  -9.745944e+04
  -1.967982e+05  -3.091155e+05
   2.983987e+05  -2.265911e+05
   3.622781e+05   9.407408e+04
  -1.651863e+05   3.311688e+05
  -7.805620e+05   1.765856e+05
  -8.047599e+05  -3.215993e+05
  -1.273681e+05  -7.461294e+05
   6.477278e+05  -7.027755e+05
   8.411770e+05  -2.189214e+05
   3.842692e+05   2.783482e+05
  -1.915714e+05   3.781326e+05
  -3.491469e+05   7.175883e+04
  -2.599612e+04  -2.607551e+05
   4.085331e+05  -2.406220e+05
   5.382849e+05   1.247850e+05
   2.471848e+05   4.547195e+05
  -2.006146e+05   4.098157e+05
  -3.946283e+05   6.711737e+04
  -1.730724e+05  -1.729904e+05
   1.839130e+05  -4.542974e+04
   2.266768e+05   2.886886e+05
  -1.616986e+05   4.361532e+05
  -6.044014e+05   1.929729e+05
  -6.291951e+05  -2.704543e+05
  -1.796354e+05  -5.916900e+05
   3.364678e+05  -5.318901e+05
   4.823173e+05  -1.590026e+05
   2.104064e+05   2.108172e+05
  -1.464177e+05   2.781434e+05
  -2.374061e+05   3.870090e+04
  -2.428596e+04  -2.082894e+05
   2.177189e+05  -1.876516e+05
   2.050607e+05   3.258805e+04
  -4.566229e+04   1.292885e+05
  -2.242686e+05  -6.630636e+04
  -6.170034e+04  -3.428597e+05
   3.554381e+05  -3.429575e+05
   6.439127e+05   3.657516e+04
   5.052986e+05   5.316582e+05
   2.055912e+04   7.621988e+05
  -4.426918e+05   5.594148e+05
  -5.839615e+05   8.976688e+04
  -4.136543e+05  -2.924147e+05
  -1.772156e+05  -3.474315e+05
  -7.999176e+04  -1.628292e+05
  -9.619916e+04  -4.651794e+04
  -3.781452e+04  -1.650792e+05
   1.955143e+05  -3.291107e+05
   4.502360e+05  -2.189338e+05
   4.369759e+05   1.922906e+05
   4.189932e+04   5.443497e+05
  -4.934009e+05   4.611332e+05
  -7.423391e+05  -4.446219e+04
  -4.706245e+05  -5.793309e+05
   1.461079e+05  -7.422325e+05
   6.706999e+05  -4.549649e+05
   7.692496e+05   2.451312e+04
   4.601577e+05   3.549282e+05
   4.906952e+04   3.927978e+05
  -1.638952e+05   2.754256e+05
  -1.341458e+05   2.356141e+05
  -6.150361e+04   3.247251e+05
  -1.427470e+05   3.492879e+05
  -3.424317e+05   1.158026e+05
  -4.253305e+05  -2.952845e+05
  -2.228718e+05  -5.662678e+05
   1.542914e+05  -4.603763e+05
   3.994092e+05  -5.959683e+04
   3.108609e+05   3.226774e+05
  -7.424087e+03   4.256930e+05
  -2.578882e+05   2.319491e+05
  -2.503827e+05  -6.840187e+04
  -7.384188e+04  -2.583354e+05
   3.352387e+04  -2.603440e+05
  -3.474041e+04  -1.657160e+05
  -1.298977e+05  -1.112961e+05
  -2.264752e+04  -1.269688e+05
   3.074934e+05  -1.163603e+05
   5.929647e+05   1.283018e+04
   5.263818e+05   2.266583e+05
   9.326505e+04   3.862993e+05
  -3.759860e+05   3.734176e+05
  -5.169445e+05   1.901079e+05
  -2.846229e+05  -3.617408e+04
   3.058462e+04  -1.405311e+05
   1.293076e+05  -6.094910e+04
  -4.120258e+03   8.031196e+04
  -1.523578e+05   8.406268e+04
  -1.495528e+05  -8.874969e+04
  -4.428135e+04  -2.362652e+05
   1.152338e+04  -1.533034e+05
  -4.105966e+04   7.918019e+04
  -1.202820e+05   1.588201e+05
  -1.085506e+05  -5.549410e+04
   3.610794e+04  -3.365503e+05
   2.410694e+05  -3.489042e+05
   3.483776e+05  -5.109963e+04
   2.218357e+05   2.636526e+05
  -9.594297e+04   3.073393e+05
  -3.400067e+05   8.312135e+04
  -2.376223e+05  -1.713236e+05
   1.750937e+05  -2.345098e+05
   5.151724e+05  -6.457670e+04
   4.212608e+05   2.049035e+05
  -4.733707e+04   3.672647e+05
  -4.529520e+05   2.895465e+05
  -4.389637e+05   3.538569e+04
  -9.261176e+04  -1.655069e+05
   1.812857e+05  -1.330470e+05
   1.060055e+05   6.206954e+04
  -1.966698e+05   1.540463e+05
  -3.677470e+05  -3.348937e+04
  -1.929708e+05  -3.731947e+05
   1.946673e+05  -5.293714e+05
   4.661063e+05  -2.845490e+05
   4.138683e+05   2.177135e+05
   1.145604e+05   5.667770e+05
  -1.869345e+05   4.612192e+05
  -3.034556e+05   1.381190e+04
  -2.133224e+05  -3.510457e+05
  -1.446932e+04  -3.354197e+05
   1.579579e+05  -6.433270e+04
   1.961726e+05   1.092611e+05
   9.680212e+04   4.776282e+04
  -4.897344e+03  -4.192293e+04
   3.663766e+04   6.190343e+04
   1.676426e+05   2.766390e+05
   1.438592e+05   3.358621e+05
  -1.546907e+05   1.502860e+05
  -4.859537e+05  -9.851885e+04
  -4.751665e+05  -2.162236e+05
  -8.621100e+04  -2.033096e+05
   2.942314e+05  -1.588476e+05
   3.167744e+05  -1.058425e+05
   7.937312e+04  -1.577740e+04
  -5.403919e+04   7.187544e+04
   4.521241e+04   8.399802e+04
   1.391424e+05   4.455592e+04
   6.055730e+02   4.661795e+04
  -2.562160e+05   7.983526e+04
  -3.235477e+05   9.983131e+03
  -8.153648e+04  -2.033729e+05
   2.799368e+05  -3.663519e+05
   4.803613e+05  -2.442616e+05
   3.952430e+05   1.291660e+05
   1.066869e+05   4.425728e+05
  -1.907501e+05   4.344822e+05
  -3.167745e+05   1.641339e+05
  -2.217600e+05  -8.211647e+04
  -3.024147e+04  -1.107446e+05
   6.535159e+04   1.626123e+03
  -6.276570e+03   3.880998e+04
  -1.251384e+05  -9.054085e+04
  -1.176752e+05  -2.444398e+05
   4.972960e+04  -2.073132e+05
   2.286069e+05   5.200835e+04
   2.300579e+05   3.122767e+05
   1.068756e+04   3.185660e+05
  -2.605852e+05   5.506484e+04
  -3.308118e+05  -2.406478e+05
  -1.071547e+05  -3.316006e+05
   2.158309e+05  -1.975529e+05
   3.307009e+05   9.743669e+03
   1.532835e+05   1.500889e+05
  -7.380109e+04   1.785995e+05
  -7.408152e+04   1.110045e+05
   1.192125e+05   7.277264e+03
   2.136267e+05  -2.393316e+04
   3.927496e+04   8.592544e+04
  -2.395405e+05   2.389034e+05
  -3.413545e+05   2.282583e+05
  -1.987888e+05  -7.616847e+03
   1.291680e+04  -2.577323e+05
   1.164212e+05  -2.613858e+05
   9.139444e+04  -2.849229e+04
   9.521292e+03   1.669818e+05
  -7.333744e+04   1.212015e+05
  -1.196848e+05  -7.245637e+04
  -8.845163e+04  -1.758523e+05
   1.871467e+04  -1.027370e+05
   1.230431e+05   2.025509e+04
   1.401035e+05   5.169223e+04
   7.545652e+04   1.222848e+03
   6.785671e+03  -1.964575e+04
  -2.039562e+04   4.717874e+04
  -3.546108e+04   1.383131e+05
  -7.713030e+04   1.402239e+05
  -1.233954e+05   1.237694e+04
  -1.085811e+05  -1.548310e+05
  -1.376349e+03  -2.105106e+05
   1.399875e+05  -9.230659e+04
   1.927651e+05   9.753191e+04
   7.627290e+04   1.896534e+05
  -1.393812e+05   1.202428e+05
  -2.577126e+05  -2.074228e+04
  -1.479134e+05  -1.083815e+05
   8.483494e+04  -1.046200e+05
   1.872476e+05  -5.206803e+04
   4.955339e+04  -3.411251e+03
  -1.489740e+05   3.906529e+03
  -1.479694e+05  -4.914290e+04
   7.580527e+04  -1.220302e+05
   2.789177e+05  -1.061576e+05
