
 $NMID
 id='ANONYMOUS ', fmtdat='(2E16.6)'
 volume=1.0
 tramp=1.0
 $END
  -3.969373e+03   1.202653e+02
  -2.345556e+03  -2.297128e+03
   3.126022e+02  -2.701658e+03
   1.743103e+03  -1.106317e+03
   8.041786e+02   2.619835e+02
  -3.149348e+02   4.093373e+02
  -6.059731e+02  -4.041159e+02
   1.185093e+02  -9.221221e+02
   6.602024e+02  -6.240419e+02
   7.302544e+02   4.675867e+01
   5.996319e+02   6.151984e+02
  -1.920243e+02   9.464201e+02
  -5.813135e+02   1.453636e+02
  -3.173049e+02  -4.686769e+02
   3.859979e+02  -7.174344e+02
   4.062993e+02   1.714462e+01
   2.764738e+02   7.105200e+02
  -2.104843e+02   6.676931e+02
  -3.779990e+02   2.633718e+02
  -4.961030e+02  -3.626658e+02
  -7.590379e+01  -4.023478e+02
   1.749883e+02  -3.131664e+02
   3.331012e+02  -1.879629e+02
  -8.706220e+01  -8.917994e+01
  -5.027075e+02  -1.015545e+02
  -9.848578e+01  -2.835397e+02
   5.458508e+02  -3.030351e+02
   7.264483e+02   1.901117e+02
   3.430561e+02   4.232847e+02
  -4.119227e+02   3.844481e+02
  -5.625410e+02  -6.295238e+01
  -2.331429e+02  -4.544023e+02
   3.762825e+02  -3.816687e+02
   5.099006e+02  -1.490742e+02
   4.310689e+02   1.923814e+02
   1.364868e+02   4.964750e+02
  -1.052431e+02   2.147783e+02
  -7.556007e+01  -1.463918e+02
   1.824390e+02  -3.745992e+02
   3.072063e+02   2.399466e+01
   1.382132e+02   6.690603e+02
  -2.763049e+02   6.276708e+02
  -4.315117e+02   5.038114e+01
  -1.550325e+02  -4.268092e+02
   2.366107e+02  -1.750033e+02
   2.461232e+02   2.977151e+02
  -1.168447e+02   4.800097e+02
  -4.905250e+02   1.001507e+02
  -5.564220e+02  -3.383851e+02
  -1.593319e+02  -5.181602e+02
   3.027799e+02  -2.370650e+02
   5.657592e+02   9.753385e+01
   3.623929e+02   3.497165e+02
  -9.163121e+01   2.903771e+02
  -4.134699e+02   6.135135e+01
  -2.851476e+02  -1.134950e+02
   4.072890e+01  -4.826161e+01
   1.304699e+02   1.187636e+02
  -1.062709e+02   1.985224e+02
  -3.177633e+02  -2.341551e+01
  -1.945822e+02  -2.312459e+02
   1.563438e+02  -2.524217e+02
   2.978973e+02  -1.248014e+02
   2.050244e+02   6.118470e+01
  -7.282571e+01   3.033645e+02
  -2.507048e+02   3.480468e+02
  -3.316650e+02   1.827553e+02
  -2.529073e+02  -1.573233e+02
  -1.019574e+02  -4.515604e+02
   5.649829e+01  -3.282445e+02
   9.545145e+01  -1.007035e+02
   6.468743e+01  -6.688936e+01
   7.679189e+01  -9.501694e+01
   2.211701e+02  -1.068444e+02
   2.861300e+02   1.069314e+02
   1.091954e+02   2.887210e+02
  -6.496875e+01   2.392672e+02
  -2.015548e+02  -1.704671e+01
  -1.281378e+02  -2.267068e+02
   2.203795e+01  -2.248082e+02
   2.244900e+02  -1.106603e+02
   3.392552e+02   2.190108e+02
   2.095745e+02   3.084926e+02
  -9.039078e+01   3.020344e+02
  -1.991416e+02   1.638151e+02
  -1.593713e+02   5.564861e+01
  -1.419675e+02   5.296165e+01
  -2.905090e+02   4.295156e+01
  -4.402238e+02  -4.953732e+01
  -3.171573e+02  -3.383137e+02
   5.475821e+01  -4.450314e+02
   4.048824e+02  -3.950266e+02
   5.068504e+02  -1.965987e+02
   3.548688e+02   1.330070e+02
   6.546278e+01   2.660493e+02
  -9.839249e+01   2.332335e+02
  -2.519758e+01   2.089907e+01
   1.105921e+02  -1.755585e+01
   1.864061e+02   1.015411e+02
   1.831000e+01   2.016713e+02
  -1.864102e+02   1.457034e+02
  -1.900425e+02  -1.159307e+02
   1.667611e+01  -1.684929e+02
   2.195239e+02   5.923613e+01
   1.730774e+02   2.520923e+02
  -5.638478e+01   3.470759e+02
  -2.644572e+02   1.610829e+02
  -3.391518e+02  -7.402372e+01
  -3.167558e+02  -2.451201e+02
  -5.457361e+01  -2.526672e+02
   1.334010e+02  -1.652077e+02
   1.440164e+02  -1.434825e+01
   1.047477e+01   6.085198e+01
  -8.499927e+01  -8.889700e+01
  -2.768331e+00  -1.714786e+02
   1.898549e+02  -1.535149e+02
   1.581475e+02   7.883870e+00
   4.340146e+01   1.148367e+02
  -6.830328e+01   2.024363e+01
  -2.783530e+01  -9.154747e+01
   1.696353e+02  -5.783884e+01
   3.321128e+02   3.104546e+01
   2.532626e+02   1.478271e+02
   5.650149e+01   2.786571e+02
  -1.410108e+02   2.355159e+02
  -2.819007e+02   1.272472e+02
  -1.387642e+02  -3.398623e+01
   1.412234e+01  -8.422170e+01
   9.414857e+01   5.811229e+01
  -3.526091e+01   1.111430e+02
  -1.832856e+02   7.185526e+01
  -2.086176e+02  -9.633688e+01
  -2.084326e+01  -1.879340e+02
   1.141857e+02  -1.499023e+02
   1.341549e+02  -2.573285e+01
   2.179509e+01   3.121619e+01
  -4.254224e+01  -3.176536e+01
  -3.117956e+01  -8.788986e+01
   8.954721e+01  -1.285528e+02
   1.816430e+02  -2.150236e+01
   1.876506e+02   1.273426e+02
   8.280021e+00   2.029901e+02
  -1.603063e+02   1.561999e+02
  -2.277659e+02  -8.196285e+00
  -4.528539e+01  -1.452397e+02
   8.427844e+01  -1.167501e+02
   1.137085e+02  -3.584636e+00
   3.299174e+01   1.534077e+01
  -8.491340e+00  -1.969179e+01
   6.044674e+01  -4.625288e+01
   1.025052e+02   6.522188e+00
   1.325298e+02   8.765401e+01
   1.723986e+01   1.897105e+02
  -1.170380e+02   1.618001e+02
  -2.164735e+02   3.753060e+00
  -2.167718e+02  -1.506998e+02
  -6.728502e+01  -1.980564e+02
   9.908111e+01  -1.641849e+02
   9.087186e+01  -4.365886e+01
   9.588718e+01   5.858804e+01
   3.406969e+01   2.555051e+01
   5.550519e+01  -7.763752e+00
   9.594035e+01  -4.412583e+01
   8.755789e+01   2.492539e+01
  -4.257947e+01   1.013641e+02
  -9.858624e+01   7.130931e+01
  -5.535919e+01  -7.755798e+01
   2.626428e+01  -1.157912e+02
   1.711456e+02  -9.983852e+01
   1.953036e+02   5.621664e+01
   1.025929e+02   2.316371e+02
  -1.051612e+02   2.028577e+02
  -2.545312e+02   7.097414e+01
  -2.371816e+02  -5.966245e+01
  -8.162838e+01  -1.637706e+02
   3.323776e+01  -1.095265e+02
   9.922746e+01  -1.460165e+01
   1.341418e+02  -5.899619e+01
   9.639943e+01  -1.339213e+02
   7.223531e+01  -6.068188e+01
   8.895483e+01   7.045098e+01
   1.384960e+02   1.759571e+02
   3.586067e+01   2.212982e+02
  -1.167514e+02   1.468194e+02
  -1.534861e+02  -5.685235e+00
  -1.302970e+02  -9.027055e+01
  -1.538298e+01  -1.454978e+02
   5.297540e+01  -9.821236e+01
   6.234293e+01   3.403062e+01
  -1.240043e+01   2.677172e+01
   2.258866e+01  -7.349578e+00
   6.625305e+01   2.508355e+01
   9.146245e+01   4.810851e+01
   3.562311e+01   3.521424e+01
  -9.279352e+01   2.378227e+01
  -1.833693e+02  -1.438160e+00
  -1.624630e+02  -1.229934e+02
   6.086080e+00  -1.521694e+02
   1.257678e+02  -8.059724e+01
   1.693767e+02  -3.211906e+01
   7.893931e+01   6.200789e+01
  -4.245859e+01   3.267645e+01
  -7.153955e+01  -5.119047e+01
  -1.665620e+01  -5.923132e+01
   6.566544e+01  -4.771104e+01
   5.974494e+01   7.415098e+00
   5.074966e+01   3.751082e+01
   1.581183e+01   5.286576e+01
   5.255846e+01  -1.418379e+01
   9.553844e+01   1.387340e+01
   1.579597e+01   7.320934e+01
  -6.576461e+01   1.390930e+02
  -1.426163e+02   1.388294e+02
  -1.631867e+02   1.923146e+01
  -1.414497e+02  -1.091179e+02
  -9.783723e+00  -1.427356e+02
   9.688444e+01  -3.842107e+01
   4.717459e+01   3.077287e+01
  -4.938632e+01   5.466073e+01
  -1.172118e+02  -6.428612e+01
  -8.105019e+01  -1.143914e+02
   6.868661e+01  -9.649286e+01
   1.741418e+02  -4.745794e+01
   1.083935e+02   7.792125e+00
   4.176607e+01   7.650901e+01
  -9.374092e+01   7.213978e+01
  -7.069212e+01   2.206054e+00
   7.165045e+01  -5.882958e+01
   6.374236e+01   4.043016e+01
   3.458258e+01   1.286673e+02
  -4.676097e+01   1.710712e+02
  -1.734422e+02   8.057045e+01
  -1.226796e+02  -8.161051e+01
  -4.832743e+01  -2.058324e+02
   6.410407e+01  -9.746682e+01
   8.477332e+01   4.481019e+01
   9.739060e+01   8.829498e+01
  -2.083247e+00   8.338146e+01
  -3.494379e+01   2.747055e+01
  -3.998659e+01   4.068949e-01
  -3.873339e+01   3.464423e+01
  -3.952424e+01   5.243179e+01
  -1.902410e+01  -6.187527e+00
  -6.061704e+01  -7.998243e+01
  -2.490166e+01  -1.284948e+02
   8.356786e+01  -4.846177e+01
   1.415696e+02   5.529397e+01
   1.480480e+02   6.420141e+01
   4.702617e+01   3.179055e+01
  -7.710928e+01   2.201952e+01
  -7.994675e+01   4.981914e+00
  -9.255082e-01  -9.830907e+00
   2.862921e+01   4.065520e+01
   9.451060e+00  -2.995752e+01
  -1.486175e+01  -2.037333e+01
   2.632679e+01  -3.569520e+01
   9.455316e+01   4.073762e+00
   9.996898e+01  -7.937784e+00
   1.500063e+01   8.579865e+01
  -1.143151e+02   1.248551e+02
  -1.598844e+02   7.832005e+01
  -1.348664e+02  -5.807761e+01
  -3.527052e+01  -1.313436e+02
   1.145997e+02  -2.017331e+02
   1.155332e+02  -6.291205e+01
   3.266510e+01  -1.565651e+01
  -8.613871e+00  -6.383861e+00
   1.175146e+01   2.352049e+01
   2.915943e+01   3.172444e+01
   3.316465e+01   3.918820e+01
   2.277417e+01   1.308025e+02
  -4.806565e+01   8.499366e+01
  -9.919456e+01  -6.348141e+01
  -7.759528e+01  -1.169445e+02
   3.649348e+01  -1.420423e+02
   1.153225e+02  -4.029875e+01
   1.516922e+02   6.891661e+01
   7.901334e+01   1.092998e+02
  -8.721491e+01   4.558623e+01
  -8.317861e+01  -4.519615e+01
  -2.082320e+01  -6.801635e+01
   1.596896e+01  -6.018639e+01
   3.986499e+00  -1.548152e+01
  -5.308269e+01   4.182376e+01
  -6.594726e+01  -2.808848e+00
  -8.202091e+00  -2.645809e+01
   5.475605e+01  -7.144546e+01
   8.949049e+01  -2.784264e+01
   7.128888e+01   3.931181e+01
  -2.957611e+01   1.155963e+02
  -1.175102e+02   5.517528e+01
  -3.767773e+01   3.332630e+00
  -1.632440e+01  -1.005814e+02
   2.999288e+01  -4.285584e+01
   7.080794e+01  -1.986580e+01
   6.966259e+01   6.246993e+01
   5.539196e+00   3.128329e+01
  -1.600615e+01  -3.247693e+00
  -4.563262e+01  -2.228218e+01
  -1.353365e+01  -4.037087e+00
   1.453759e+01   1.265426e+01
  -6.574208e+00   3.838977e+01
  -1.268381e+01  -3.328420e+01
  -3.510181e-01  -2.533163e+01
   6.353029e+01  -9.342221e+00
   3.451295e+01  -4.319969e+01
   3.569632e+01   5.892545e+01
  -1.641289e+01   5.293610e+01
  -3.254641e+01  -5.310763e+01
   7.800659e+00  -6.443098e+01
   5.933661e+01  -2.492370e+01
   9.825151e+01   1.873535e+01
   6.321467e+01   3.452888e+01
  -1.588942e+01   3.641774e+01
  -4.708784e+01   2.448126e+01
  -5.768473e+01  -3.197955e+00
   6.982965e+01   2.056340e+00
   4.582181e+01   3.362688e+01
   2.641334e+01   3.191468e+01
  -5.224884e+01  -2.792884e+01
