
 $NMID
 id='ANONYMOUS ', fmtdat='(2E16.6)'
 volume=1.0
 tramp=1.0
 $END
   3.608728e+03  -1.036140e+02
   2.273171e+03   2.173200e+03
  -3.983448e+02   2.386176e+03
  -1.590508e+03   9.784226e+02
  -9.590976e+02  -3.323883e+02
   2.985865e+02  -4.096301e+02
   6.841039e+02   3.107364e+02
  -4.921332e+00   8.387995e+02
  -6.890802e+02   7.378938e+02
  -9.520185e+02  -8.033353e-01
  -4.659613e+02  -7.758191e+02
   1.410336e+02  -6.866043e+02
   4.333649e+02   3.973652e+01
   4.183746e+02   6.391986e+02
  -9.730549e+01   7.434555e+02
  -5.012013e+02   8.841295e+01
  -2.179778e+02  -5.408683e+02
   5.027812e+02  -5.644238e+02
   5.691057e+02  -8.844064e+01
   5.476272e+02   3.459138e+02
  -5.176547e+01   2.941271e+02
  -7.220682e+01   6.329839e+01
  -2.299122e+02   3.388257e+01
   2.034130e+02   7.717090e+01
   2.982401e+02   1.406471e+02
  -1.218470e+02   3.644685e+02
  -5.321202e+02   2.585990e+02
  -7.514201e+02  -2.328083e+02
  -3.980492e+02  -5.697855e+02
   3.645094e+02  -4.192959e+02
   5.960362e+02   5.994689e+01
   2.506400e+02   4.910915e+02
  -2.338789e+02   4.343044e+02
  -5.014521e+02   1.652841e+02
  -3.784758e+02  -2.254019e+02
  -1.488644e+02  -3.773033e+02
   1.020638e+02  -1.952563e+02
   1.236298e+02   1.509137e+02
  -1.678257e+02   2.999879e+02
  -3.639323e+02  -1.851767e+01
  -1.183715e+02  -5.527654e+02
   3.136001e+02  -5.211121e+02
   5.821896e+02   6.316447e+01
   1.653326e+02   4.419094e+02
  -2.350442e+02   1.831440e+02
  -2.776251e+02  -3.168899e+02
   1.454944e+02  -4.504984e+02
   5.375951e+02  -7.026228e+01
   5.779342e+02   4.103389e+02
   2.212600e+02   5.514923e+02
  -3.543768e+02   3.385590e+02
  -6.238678e+02  -6.679829e+01
  -4.440481e+02  -3.192048e+02
   7.972083e+01  -2.891333e+02
   3.800031e+02  -4.989277e+01
   2.412529e+02   7.307079e+01
  -7.195132e+01   4.388574e+00
  -1.190478e+02  -1.053019e+02
   1.249373e+02  -1.113355e+02
   2.799158e+02   5.728025e+01
   1.491223e+02   2.151692e+02
  -1.713707e+02   2.687954e+02
  -3.253828e+02   1.274382e+02
  -2.885863e+02  -9.120431e+01
  -1.957938e+01  -2.736831e+02
   2.180596e+02  -3.557018e+02
   3.393784e+02  -1.986456e+02
   2.693091e+02   9.693240e+01
   1.373383e+02   3.293868e+02
  -4.083265e+01   3.562056e+02
  -6.013064e+01   1.794480e+02
  -1.910289e+01   9.165248e+01
  -8.504375e+01   8.995330e+01
  -2.473774e+02   6.623396e+01
  -2.517065e+02  -1.356870e+02
  -9.249179e+01  -2.563650e+02
   1.012300e+02  -1.940384e+02
   2.553465e+02   3.647445e+01
   2.112534e+02   2.558770e+02
  -2.001704e+01   3.100601e+02
  -2.751132e+02   1.191756e+02
  -3.373434e+02  -2.066627e+02
  -1.623858e+02  -3.543610e+02
   1.285507e+02  -3.022344e+02
   1.728977e+02  -1.071941e+02
   1.656996e+02  -4.581196e+01
   1.074246e+02  -4.234944e+01
   2.121397e+02  -3.561385e+01
   3.768951e+02   1.717457e+01
   3.548960e+02   2.473954e+02
   5.662107e+00   4.293090e+02
  -3.393387e+02   4.130145e+02
  -4.822490e+02   2.242954e+02
  -3.665168e+02  -1.245554e+02
  -5.294367e+01  -2.804996e+02
   1.526257e+02  -2.618671e+02
   1.070166e+02  -3.293542e+01
  -9.464316e+01   1.181214e+02
  -1.539778e+02   2.823447e+00
  -4.747907e+01  -1.703242e+02
   1.568942e+02  -1.205837e+02
   1.604655e+02   5.858607e+01
   7.229583e+00   1.391406e+02
  -1.327404e+02   1.602387e+01
  -1.760155e+02  -2.514152e+02
  -4.386514e+01  -3.446707e+02
   2.134644e+02  -2.245922e+02
   3.565663e+02   6.760338e+01
   2.998314e+02   2.486435e+02
   1.191353e+02   2.469773e+02
  -9.755444e+01   1.435598e+02
  -1.665816e+02  -2.354824e+01
  -5.221793e+01  -4.320140e+01
   6.416898e+01   4.076235e+01
   7.122114e+00   1.021560e+02
  -9.775873e+01   7.620745e+01
  -1.327683e+02  -3.933376e+01
   6.808434e-01  -7.128831e+01
   1.035495e+02   5.382514e+01
   1.095858e+01   8.644511e+01
  -1.519242e+02   9.395612e+01
  -2.812920e+02   3.586994e-01
  -2.603186e+02  -1.601716e+02
  -5.218190e+01  -2.942744e+02
   2.295860e+02  -2.397978e+02
   2.652478e+02  -1.083881e+02
   1.790418e+02   2.634912e+01
  -5.315224e+00   8.734251e+01
  -8.351413e+01   2.054824e+00
   5.450886e+01  -4.702721e+01
   2.082669e+02  -3.644445e+01
   2.053811e+02   9.061932e+01
   4.577552e+01   2.156589e+02
  -1.105220e+02   1.834761e+02
  -1.695472e+02   3.185380e+01
  -8.495101e+01  -7.474563e+00
   4.027810e+01   4.695419e+00
  -1.816548e+00   7.106612e+01
  -9.222377e+01   1.125578e+02
  -1.752936e+02   9.829402e+00
  -2.176544e+02  -9.117448e+01
  -1.280617e+01  -2.053585e+02
   1.200664e+02  -1.178831e+02
   1.561912e+02  -6.692470e+01
   5.856696e+01   8.666788e+01
  -3.763123e+01   8.414867e+01
  -6.943955e+01   2.869378e+01
   5.578481e+00  -6.025496e-01
   5.353053e+01  -3.679979e+01
  -4.704361e+01  -2.432600e+00
  -1.054537e+02   1.028373e+01
  -1.284212e+02  -4.836435e+01
  -8.775391e+00  -1.947916e+02
   1.697139e+02  -1.271303e+02
   2.407504e+02  -3.371662e+01
   1.868492e+02   1.196969e+02
   6.074343e+01   2.583771e+02
  -1.186515e+02   1.898632e+02
  -1.191556e+02   6.668534e+01
  -1.077933e+02  -6.947566e+01
  -8.054347e+01  -4.380615e+01
  -5.719877e+01  -2.788510e+00
  -5.828645e+01   3.696597e+01
   1.209222e+01   5.151002e+00
   4.309233e+01  -6.525072e+01
   9.357005e+01  -6.190988e+01
   5.366505e+01   2.082725e+01
  -2.646954e+01   9.298647e+01
  -1.621378e+02   5.732628e+01
  -2.068650e+02  -7.234657e+01
  -8.601809e+01  -2.320995e+02
   1.446139e+02  -2.234451e+02
   3.109091e+02  -7.017480e+01
   2.953949e+02   6.629135e+01
   1.257650e+02   1.469682e+02
  -7.876060e+01   1.690460e+02
  -1.161077e+02   9.050009e+01
  -9.428273e+01   1.006429e+02
  -4.373521e+01   1.045433e+02
  -7.886165e+01   5.681705e+01
  -9.157308e+01  -1.313906e+01
  -1.095487e+02  -1.570609e+02
   2.280840e+00  -1.936178e+02
   1.234548e+02  -1.798184e+02
   1.558106e+02  -1.811471e+01
   9.125665e+01   1.140495e+02
   1.785280e+01   1.549293e+02
  -1.021004e+02   1.159680e+02
  -4.486167e+01   3.604369e+01
   1.708810e+01  -4.486415e+01
   1.646248e+01  -7.287020e+01
  -5.340396e+01  -4.527422e+01
  -1.011279e+02   1.314767e+01
  -1.036177e+02  -4.713840e+01
   2.551884e-02  -4.360531e+01
   1.864025e+02  -1.870856e+01
   1.438198e+02   1.468695e+01
   1.792941e+01   8.903632e+01
  -1.274816e+02   4.252214e+01
  -1.252641e+02  -8.455872e+00
  -2.193609e+01  -9.659786e+01
   1.022716e+02  -3.334725e+01
   1.163386e+02   4.522007e+01
   5.335867e+01   8.420047e+01
  -1.880899e+01   1.163431e+02
  -8.890651e+01   4.511224e+01
  -9.381768e+01  -4.736044e+01
  -4.707848e+01  -3.282309e+01
  -4.068614e+01  -2.770619e+01
  -6.954190e+01   1.732639e+01
  -3.790982e+01  -4.418765e+01
   1.337973e+01  -1.516648e+02
   1.250577e+02  -1.137180e+02
   1.687482e+02  -1.016297e+01
   1.292969e+02   9.397424e+01
  -3.841242e+01   1.143317e+02
  -1.079511e+02   6.287966e+01
  -7.169482e+01  -6.672313e+01
   2.917027e+01  -3.781100e+01
   1.924840e+02   4.206938e+01
   1.044531e+02   1.071482e+02
  -3.646606e+01   1.456419e+02
  -1.653606e+02   5.535369e+01
  -1.837110e+02  -2.820240e+01
  -9.367083e+01  -1.123445e+02
   5.766366e+01  -5.830252e+01
   1.166989e+01  -1.105415e+01
  -2.256764e+01   3.964809e+01
  -4.043780e+01  -7.536914e+01
  -5.461582e+00  -1.167499e+02
   9.271871e+01  -1.649643e+02
   1.447379e+02  -7.594810e+01
   1.138732e+02   1.341669e+02
   4.925312e+01   2.324582e+02
  -9.866263e+01   1.678760e+02
  -1.369793e+02  -9.566318e+00
  -5.924944e+01  -1.294878e+02
   3.398956e+01  -1.310673e+02
   5.963341e+01  -2.398526e+01
   5.768147e+01  -2.067880e+01
   2.170799e+01  -3.208782e+01
  -8.838401e+00  -4.029918e+01
   5.789004e+01   5.303671e+01
   5.265842e+01   1.056734e+02
   9.818728e+01   1.206070e+02
  -4.156661e+01   2.552973e+01
  -1.579909e+02  -1.027480e+02
  -1.287652e+02  -9.123750e+01
  -5.945719e+01  -8.894926e+01
   8.058745e+01  -2.603847e+01
   8.141966e+01   1.845588e+01
   2.943899e+01   6.512036e+01
  -6.291985e+01   6.450784e-01
  -3.809967e+01   5.950413e+01
   2.318984e+01  -2.398929e+01
  -5.955600e+01  -1.775373e+01
  -1.227928e+02  -3.369593e+01
  -8.301274e+01  -2.859624e+01
   1.927155e+01  -4.566148e+01
   1.733244e+02  -1.200811e+02
   2.021306e+02  -9.588212e+01
   1.548135e+02   4.651716e+01
   3.460961e+01   1.676107e+02
  -8.487934e+01   1.317686e+02
  -8.252755e+01   1.289954e+02
  -2.966684e+01  -3.150959e+01
  -4.510889e+01  -1.775396e+01
  -3.010301e+01  -7.728014e+00
  -1.774069e+01   5.737934e+00
  -1.039447e+01  -5.041120e+01
  -3.840338e+01  -8.648749e+01
   1.680228e+01  -8.509349e+01
   4.453961e+01   1.326924e+01
   4.955021e+01   7.917628e+01
  -4.672166e-01   1.029003e+02
  -6.870458e+01   2.650374e+01
  -1.003598e+02  -8.436578e+01
  -4.366130e+01  -8.884957e+01
   7.765964e+01  -8.914437e+01
   8.706976e+01   1.813018e+00
   3.314342e+01   3.559552e+01
  -5.935394e+01   4.211407e+01
  -5.630964e+01   3.574335e+01
   1.464269e+01   8.855092e+00
   5.923427e+01   7.536465e+00
   2.726081e+01  -6.383099e+00
  -6.139391e+01   8.767587e+01
  -1.505193e+02   4.478699e+01
  -4.788686e+01  -3.380933e+01
   1.659628e+01  -6.147196e+01
   3.206028e+01  -7.436079e+01
   2.964900e+01   9.588082e+00
  -7.842729e+00   6.305929e+01
   2.069634e+00   4.711987e+01
  -3.754841e+01  -1.544547e+01
   2.132638e+01  -6.657265e+01
  -1.903922e+01  -3.581331e+01
  -1.019241e+01   4.386814e+01
   1.217387e+01   3.690455e+01
   2.441085e+01   1.478836e+01
  -1.966890e+01   1.620650e+01
   2.416591e+01   2.844374e+01
   1.736607e+01   3.972569e+01
  -2.837933e+01   6.191489e+01
  -5.246257e+01  -1.034330e+01
  -5.466807e+01  -6.222136e+00
  -1.225392e+01  -5.639643e+01
   4.096968e+01  -6.629203e+00
   4.099063e+01   8.065686e+01
   5.166514e+01   3.427091e+01
  -3.633405e+01   4.295201e+01
  -6.528368e+01  -2.173273e+00
  -3.460709e+01  -5.471291e+01
   1.171937e+00  -5.062954e+01
   6.627608e+01  -4.393774e+01
   1.327023e+01   3.791166e+01
  -2.187154e+01  -2.293409e+00
  -2.939992e+01  -6.693156e+00
   3.239165e+01  -3.752983e+01
   8.859953e+01  -3.661957e+01
