
 $NMID
 id='ANONYMOUS ', fmtdat='(2E16.6)'
 volume=1.0
 tramp=1.0
 $END
  -3.861354e+03  -3.127961e+01
  -2.281861e+03  -2.327658e+03
   2.804133e+02  -2.320902e+03
   1.748314e+03  -1.212220e+03
   9.028885e+02   1.068631e+02
  -3.274237e+02   3.472189e+02
  -6.372334e+02  -3.708927e+02
   1.503218e+02  -8.858334e+02
   7.024379e+02  -7.229651e+02
   8.955755e+02   3.379624e+00
   5.201580e+02   7.153466e+02
  -2.357558e+02   7.421988e+02
  -2.011995e+02   2.528036e+02
  -3.612082e+02  -5.950505e+02
   1.676759e+02  -6.705495e+02
   4.360449e+02  -1.156879e+02
   3.214542e+02   6.561510e+02
  -2.462151e+02   7.744478e+02
  -4.955144e+02   7.724442e+01
  -4.543859e+02  -4.072586e+02
  -2.569084e+01  -4.528231e+02
   1.332974e+02   4.503327e+00
   1.065740e+02  -4.602520e+01
  -1.672667e+02   1.279690e+02
  -2.947785e+02  -2.630078e+02
  -1.951867e+02  -3.865306e+02
   4.650328e+02  -1.684573e+02
   6.674134e+02   1.058453e+02
   4.372056e+02   4.947588e+02
  -3.390169e+02   3.629002e+02
  -6.737335e+02  -2.144163e+01
  -2.694822e+02  -2.903207e+02
   3.062493e+02  -5.235072e+02
   5.177030e+02  -2.092249e+02
   3.809320e+02   1.931053e+02
   5.060096e+01   3.554984e+02
  -1.838222e+02   2.286982e+02
  -3.386870e+01  -2.725765e+02
   1.958978e+02  -3.074919e+02
   3.886159e+02   1.472976e+02
   9.887621e+01   6.025584e+02
  -3.111334e+02   5.754592e+02
  -5.052758e+02  -1.154894e+02
  -1.800212e+02  -4.825695e+02
   2.260411e+02  -2.369892e+02
   2.643304e+02   3.437489e+02
  -1.022993e+02   4.789616e+02
  -4.670919e+02   1.151930e+02
  -5.138565e+02  -4.134027e+02
  -1.397304e+02  -5.785275e+02
   3.217978e+02  -3.009880e+02
   5.793300e+02   5.297692e+01
   3.346010e+02   3.293259e+02
  -1.074098e+02   2.675937e+02
  -3.186734e+02   7.233084e+01
  -1.984165e+02  -9.098841e+01
   7.667538e+01  -5.259067e+01
   9.484764e+01   8.411141e+01
  -1.262640e+02   1.183392e+02
  -3.369107e+02  -5.048020e+01
  -1.182774e+02  -2.542335e+02
   2.046088e+02  -2.012004e+02
   3.673874e+02  -7.323530e+01
   2.084519e+02   1.446742e+02
  -1.087485e+02   2.682615e+02
  -3.040797e+02   2.675591e+02
  -3.511296e+02   1.582592e+02
  -2.575577e+02  -1.755391e+02
  -6.620247e+01  -4.432137e+02
   1.069081e+02  -3.614481e+02
   9.683317e+01  -1.601617e+02
   8.508224e+01  -4.280807e+01
   1.213290e+02  -8.312391e+01
   2.127922e+02  -8.500852e+01
   2.591327e+02   1.172543e+02
   1.082238e+02   2.559072e+02
  -8.484829e+01   1.912240e+02
  -2.050919e+02  -2.788480e+01
  -1.799558e+02  -2.482964e+02
   4.452902e+01  -2.516602e+02
   2.830342e+02  -7.490991e+01
   3.584373e+02   1.689938e+02
   1.628309e+02   3.161494e+02
  -1.183143e+02   2.797117e+02
  -2.507371e+02   1.299013e+02
  -1.606962e+02   1.159910e+01
  -1.099558e+02   5.567096e+01
  -2.352311e+02   4.567333e+01
  -3.724697e+02  -1.207439e+02
  -3.392219e+02  -3.518102e+02
   7.217488e+01  -4.587078e+02
   4.047855e+02  -3.603981e+02
   5.080415e+02  -1.323544e+02
   3.404889e+02   1.505983e+02
   6.175935e+01   2.624301e+02
  -7.250619e+01   2.608856e+02
  -9.195339e+01   4.979683e+01
   7.627931e+01  -8.838316e+01
   1.502506e+02  -1.514173e+01
   1.761474e+01   1.482668e+02
  -1.016734e+02   1.782801e+02
  -1.462993e+02  -3.320277e+01
   6.453350e+01  -1.805283e+02
   1.733459e+02  -6.409402e+01
   1.392763e+02   1.870745e+02
  -2.742017e+01   3.580636e+02
  -2.252661e+02   2.202202e+02
  -3.314291e+02  -5.716225e+01
  -3.000147e+02  -2.755900e+02
  -9.589976e+01  -2.988906e+02
   1.184682e+02  -1.733880e+02
   2.087796e+02   1.801208e+00
   6.376661e+01   3.641925e+01
  -2.038670e+01  -4.401765e+01
  -1.026192e+00  -7.384146e+01
   9.964903e+01  -6.164394e+01
   1.667200e+02   4.580929e+01
   5.049394e+01   5.175676e+01
  -7.299807e+01   9.767122e+00
  -3.808191e+01  -1.065364e+02
   1.468401e+02  -9.369050e+01
   2.750482e+02   1.649610e+01
   2.700852e+02   1.609966e+02
   5.636704e+01   3.065825e+02
  -1.951629e+02   2.356083e+02
  -2.596094e+02   1.518732e+02
  -1.581401e+02  -4.490857e+01
   1.153126e+01  -6.212043e+01
   3.313726e+01   3.881387e+01
  -8.081648e+01   8.391881e+01
  -2.179015e+02   4.653331e+01
  -1.859757e+02  -1.266796e+02
  -4.511523e+01  -1.878082e+02
   6.572525e+01  -1.597848e+02
   1.430836e+02  -4.843580e+01
   4.177223e+01   6.255218e+01
  -6.025913e+01  -2.693455e+01
  -2.447456e+01  -5.741238e+01
   5.147792e+01  -1.115018e+02
   2.095785e+02  -9.930777e+01
   2.235582e+02   1.201297e+02
   4.604160e+01   2.217694e+02
  -1.210267e+02   1.591668e+02
  -2.070956e+02   3.456307e+01
  -9.248185e+01  -1.122819e+02
   5.260480e+01  -1.134598e+02
   7.524694e+01  -5.314400e+00
   1.626010e+01  -2.941639e+00
  -4.126195e+01   3.648915e+01
  -1.128723e+01   6.395946e-01
   1.878770e+01   3.317755e+00
   9.456233e+01   1.095817e+02
   1.384055e+01   1.728937e+02
  -1.390705e+02   1.712296e+02
  -2.413439e+02   1.998422e+01
  -2.187249e+02  -1.625424e+02
  -3.610170e+01  -2.390830e+02
   1.038119e+02  -1.321622e+02
   1.193744e+02  -4.516263e+01
   6.505253e+01   8.128281e+01
   1.028371e+01   5.287312e+01
   4.826096e+01  -3.400386e+01
   1.042588e+02  -1.248988e+01
   9.078800e+01   5.021241e+01
  -1.486125e+01   1.168478e+02
  -9.344507e+01   7.738836e+01
  -1.498322e+02  -4.733089e+01
   2.173427e+01  -1.233229e+02
   1.346584e+02  -9.563045e+01
   2.323983e+02   4.922971e+01
   7.754657e+01   1.968033e+02
  -1.467142e+02   1.962370e+02
  -2.567892e+02   7.077488e+01
  -2.405267e+02  -8.795470e+01
  -8.826674e+01  -1.447843e+02
   5.266031e+01  -1.187847e+02
   1.251898e+02  -9.258931e+01
   6.596522e+01  -2.519276e+01
   3.245912e+01  -5.648548e+01
   4.938329e+01  -5.426900e+01
   1.159786e+02   1.124362e+01
   1.211501e+02   1.151948e+02
   1.080489e+01   2.332719e+02
  -1.355286e+02   1.749116e+02
  -1.831546e+02  -1.464220e+01
  -1.243557e+02  -1.168275e+02
   1.297277e+01  -1.759828e+02
   7.909771e+01  -4.561075e+01
   2.994809e+01   2.719464e+01
  -3.514143e+01   5.656926e+01
  -5.837753e+01   2.421215e+01
  -6.251576e+00  -1.888632e+01
   5.370272e+01   1.413869e+01
   4.958196e+01   1.677463e+01
  -4.370908e+01   2.147600e+01
  -1.363908e+02   5.027315e+00
  -1.309063e+02  -4.590930e+01
  -2.291727e+01  -8.785150e+01
   1.055352e+02  -6.571290e+01
   1.776327e+02   1.041550e+01
   7.596726e+01   5.055708e+01
  -1.060008e+01   1.830542e+01
  -8.826698e+01  -2.090848e+01
  -3.635653e+01  -4.463361e+01
   5.965258e+01  -3.590879e+01
   5.368286e+01  -9.280032e+00
   6.788137e+01   4.924458e+01
   4.674148e+01   6.485955e+01
   2.513902e+01  -9.860029e+00
   1.018826e+01  -1.090767e+01
  -2.069259e+00   8.592982e+01
  -4.113302e+01   1.327984e+02
  -1.456498e+02   1.066476e+02
  -1.914708e+02   5.552873e+00
  -1.554765e+02  -1.407740e+02
   2.576055e+00  -1.296337e+02
   6.233456e+01  -8.714435e+01
   6.156859e+01   4.896601e+01
  -5.429000e+01   3.795117e+01
  -1.160460e+02  -8.092578e+00
  -6.069042e+01  -1.000936e+02
   6.319162e+01  -7.980126e+01
   1.848363e+02  -7.107118e+01
   1.425898e+02   2.036279e+01
   3.171013e+01   9.406684e+01
  -6.285627e+01   4.281574e+01
  -6.839833e+01  -4.226552e+01
   6.828479e+01  -2.915954e+01
   1.254546e+02  -1.090753e+01
   6.973609e+01   1.353804e+02
  -8.370412e+01   1.367713e+02
  -1.421007e+02   8.778174e+01
  -1.154003e+02  -8.055699e+01
  -1.856234e+01  -1.982601e+02
   1.300180e+02  -1.318380e+02
   1.118917e+02  -7.106301e+00
   8.035670e+01   1.016208e+02
  -1.458448e+01   1.148627e+02
  -3.215862e+01   1.858491e+01
  -5.378001e+01  -5.999578e+01
  -4.794664e+01  -5.260570e+01
  -3.373960e+01   1.822220e+01
  -2.075205e+00  -1.176485e+01
  -6.143426e+01  -7.029382e+01
  -1.676299e+00  -1.031597e+02
   5.491555e+01  -5.801285e+01
   1.258744e+02  -4.888672e+00
   1.363352e+02   9.593273e+01
   3.145832e+01   6.379023e+01
  -3.169835e+01   4.381300e+01
  -1.249275e+02   1.843068e+00
  -3.350482e+01  -1.110524e+01
   2.149020e+01  -1.086532e+01
  -2.116828e+01  -4.295573e+01
   1.891455e+01  -1.755261e+01
  -4.415741e-01  -1.134006e+01
   8.148169e+01  -2.076540e+01
   1.128596e+02   8.991434e+00
   2.012954e+01   7.862337e+01
  -6.726771e+01   9.385402e+01
  -1.586027e+02   7.430781e+01
  -1.655290e+02  -2.468365e+01
  -4.119912e+01  -1.210874e+02
   3.746810e+01  -1.453440e+02
   1.167146e+02  -7.092227e+01
   1.019936e+02   2.733269e+01
   7.311359e+01   3.907989e+01
   2.057945e+01   2.912673e+01
   3.485502e+01  -1.065097e+01
  -1.774641e+00   7.589708e+01
   1.215345e+01   7.844887e+01
  -3.228832e+01   4.127380e+01
  -9.711009e+01  -4.496698e+01
  -3.042428e+01  -9.570480e+01
  -2.615881e+01  -8.236487e+01
   4.755957e+01  -7.251641e+00
   1.078322e+02   7.874345e+01
   3.384776e+00   1.238591e+02
  -6.077579e+01   2.841226e+01
  -1.285238e+02   9.780504e+00
  -2.194070e+01  -6.075338e+01
   3.080541e+01  -3.741215e+01
   2.666707e+01   3.063701e+00
  -4.682740e+01   4.393527e+00
  -5.046155e+01  -9.170344e+00
  -1.786392e+01  -7.428553e+01
   1.013745e+02  -7.378213e+01
   1.055995e+02  -1.576669e+01
   8.718691e+01   5.769556e+01
  -5.476979e+00   1.059871e+02
  -7.779421e+01   5.617849e+01
  -4.453761e+01  -3.443135e+00
  -1.341109e+00  -4.815994e+01
  -9.189774e+00  -4.575526e+01
   5.614991e+01   8.765386e+00
   3.132034e+01   4.619506e+01
   8.223117e+00   4.684506e+01
  -2.725443e+01   7.843663e+00
  -3.662352e+01  -1.162289e+01
  -4.521590e+01   1.854214e+01
  -2.908914e+01   1.295212e+01
   5.557465e+01  -1.898741e+01
   2.324171e+01  -4.914283e+01
   3.558738e+01  -6.046188e+01
   3.578957e+01   1.478654e+01
   5.325490e+01   4.801077e+01
   2.643017e-01   6.839181e+01
  -8.432044e+01   5.458192e+01
  -8.246520e+01  -3.306463e+01
  -7.468002e+00  -6.804420e+01
   3.561320e+01  -6.532338e+01
   7.549036e+01   3.563554e+01
   5.578522e+01   5.959389e+01
  -4.537618e+01   7.838279e+01
  -2.919939e+01   4.679930e+01
  -3.276869e+01  -2.858371e+01
   5.664150e+01   1.481514e+01
   3.949684e+01   1.959133e+01
  -1.323136e+01   6.506980e+00
  -6.131848e+01   3.730247e+01
