
 $NMID
 id='ANONYMOUS ', fmtdat='(2E16.6)'
 volume=1.0
 tramp=1.0
 $END
   3.253252e+03   2.493778e+01
   2.135226e+03   1.986761e+03
  -2.052609e+02   2.299663e+03
  -1.427579e+03   1.076225e+03
  -7.514711e+02  -3.189564e+01
   1.643539e+02  -3.350635e+02
   5.110998e+02   3.108108e+02
  -5.449969e+01   7.718428e+02
  -4.213552e+02   6.691157e+02
  -6.950966e+02   4.288908e+01
  -4.111995e+02  -5.090341e+02
   7.634400e+01  -7.706592e+02
   4.358936e+02  -3.331869e-02
   4.299478e+02   4.710691e+02
  -2.062882e+02   5.550332e+02
  -5.243935e+02   5.300175e+01
  -1.980271e+02  -5.424476e+02
   5.388014e+00  -5.358788e+02
   6.301282e+02  -3.515269e+02
   4.650067e+02   1.818634e+02
   1.091094e+02   5.297520e+02
  -3.381036e+01   2.402678e+02
  -1.917801e+02   1.393176e+02
   8.870127e+01  -1.971902e+00
   8.405341e+01   2.863037e+02
   1.307877e+02   2.450331e+02
  -4.680962e+02   1.237098e+02
  -5.583085e+02  -1.796440e+02
  -2.288695e+02  -3.345146e+02
   2.636649e+02  -2.173953e+02
   5.337608e+02   9.951875e+01
   2.782539e+02   3.336112e+02
  -2.748830e+02   5.416418e+02
  -5.292872e+02   1.680839e+02
  -4.213161e+02  -2.833445e+02
  -8.743817e+01  -4.750392e+02
   1.140196e+02  -2.542859e+02
   5.830151e+01   1.405937e+02
  -1.063400e+02   2.799437e+02
  -2.909406e+02  -1.421988e+02
  -1.025067e+02  -5.120021e+02
   2.805792e+02  -5.192224e+02
   4.696677e+02  -1.385577e+01
   1.977458e+02   3.548471e+02
  -1.714304e+02   2.421194e+02
  -2.360917e+02  -1.847393e+02
   3.833452e+01  -4.431840e+02
   4.629113e+02  -1.514198e+02
   5.759261e+02   3.323682e+02
   2.148191e+02   5.838217e+02
  -2.836036e+02   3.526418e+02
  -5.868022e+02  -8.396471e+01
  -3.462527e+02  -2.957227e+02
   5.860889e+01  -2.771231e+02
   3.623502e+02  -7.360376e+01
   2.422175e+02   8.327236e+01
  -2.364760e+01   9.316561e+01
  -8.987461e+01  -5.951146e+01
   8.490486e+01  -9.111241e+01
   3.035819e+02   2.207806e+01
   1.561333e+02   2.094574e+02
  -1.319591e+02   2.735252e+02
  -3.777275e+02   1.649297e+02
  -2.647626e+02  -7.115857e+01
   2.523242e+01  -3.104941e+02
   2.505765e+02  -3.622318e+02
   2.994094e+02  -1.571025e+02
   2.268180e+02   1.727885e+02
   5.968173e+01   3.487150e+02
  -3.858952e+01   2.852620e+02
  -2.832550e+01   1.163781e+02
  -5.464391e+01   6.759078e+01
  -1.204027e+02   1.170668e+02
  -2.698556e+02   9.473335e+01
  -2.643466e+02  -6.155403e+01
  -1.350221e+02  -2.282861e+02
   8.266590e+01  -2.514475e+02
   2.038653e+02  -5.538998e+01
   1.906270e+02   2.020273e+02
  -2.525847e-01   2.521357e+02
  -2.325187e+02   7.855267e+01
  -2.936335e+02  -1.266510e+02
  -1.391012e+02  -2.545693e+02
   1.100461e+02  -2.016843e+02
   1.791935e+02  -1.011046e+02
   1.603279e+02  -6.574642e+01
   1.296839e+02  -7.011518e+01
   2.568755e+02  -3.355669e+01
   3.945393e+02   1.601495e+02
   3.119013e+02   2.849202e+02
  -1.008663e+01   4.276278e+02
  -3.944685e+02   4.003677e+02
  -4.437548e+02   1.903368e+02
  -2.841324e+02  -7.368387e+01
  -2.745073e+01  -2.973558e+02
   9.435442e+01  -2.587197e+02
   5.228188e+01  -4.145513e+01
  -9.195333e+01   7.256419e+01
  -1.524262e+02  -1.221033e+01
  -3.945132e+00  -1.753520e+02
   1.408036e+02  -1.272665e+02
   1.431404e+02   3.221724e+01
  -2.965528e+01   1.228435e+02
  -1.671863e+02  -1.042867e+01
  -1.337288e+02  -2.504934e+02
   2.661322e+01  -3.350333e+02
   2.057566e+02  -1.876023e+02
   3.464963e+02   4.267915e+01
   3.091183e+02   2.479389e+02
   1.165748e+02   2.370223e+02
  -1.402705e+02   1.497715e+02
  -1.516950e+02   2.021547e+01
   4.751661e-01   6.235723e+00
   1.311647e+02   7.032545e+01
   5.419339e+01   1.222781e+02
  -8.872902e+01   1.174937e+02
  -2.170171e+02   1.140712e+01
  -5.585137e+01  -7.771767e+00
   7.413330e+01   2.021471e+01
   4.284832e+01   8.041229e+01
  -1.606229e+02   7.079440e+01
  -3.105406e+02  -2.494678e+01
  -2.975654e+02  -1.500529e+02
  -3.816336e+01  -2.541710e+02
   1.980200e+02  -2.438778e+02
   2.701682e+02  -1.175052e+02
   1.700016e+02   1.054912e+01
   2.271535e+01   8.903578e+01
  -7.055702e+01  -1.465004e+01
   3.173302e+01  -2.458181e+01
   1.912648e+02  -2.937262e+01
   2.077783e+02   6.832219e+01
   9.887666e+01   1.709756e+02
  -5.265652e+01   1.363739e+02
  -1.212491e+02   1.634981e+01
  -9.962252e+01  -1.884604e+01
  -2.357685e+00   2.230503e+01
   4.846911e+01   8.370614e+01
  -1.094155e+02   1.049171e+02
  -2.205740e+02   2.124008e+01
  -1.773839e+02  -1.078819e+02
  -1.357594e+01  -1.989575e+02
   1.316017e+02  -1.381311e+02
   1.396538e+02  -1.021094e+00
   6.007327e+01   9.469907e+01
  -6.453389e+01   6.942833e+01
  -7.946279e+00   2.530186e+01
   2.395103e+00  -6.373908e+00
   7.133291e+01   1.449491e+01
  -3.410131e+01  -1.617657e+01
  -1.522673e+02  -2.986609e+00
  -1.414530e+02  -1.004404e+02
  -4.758483e+01  -1.899908e+02
   1.300010e+02  -1.551760e+02
   2.409382e+02  -4.976734e+01
   2.225500e+02   1.485137e+02
   5.306734e+01   2.580573e+02
  -9.570262e+01   1.958340e+02
  -1.785647e+02   5.389313e+01
  -5.885670e+01  -9.554656e+01
   9.934977e-02  -2.106188e+01
  -9.389877e+01   2.335731e+00
  -8.348048e+01   1.284025e+01
  -4.866500e+01  -8.056350e+01
   1.916636e+01  -1.738173e+02
   7.850721e+01  -1.206068e+02
   1.425746e+02   4.879356e+01
   1.500372e+01   1.462164e+02
  -1.478994e+02   7.945395e+01
  -2.063861e+02  -4.308950e+01
  -8.270344e+01  -2.173095e+02
   8.138498e+01  -2.470790e+02
   2.678085e+02  -1.359300e+02
   2.636335e+02   8.021727e+01
   1.283217e+02   1.786887e+02
  -3.007703e+01   1.363119e+02
  -1.267271e+02   8.940633e+01
  -8.040377e+01   1.238601e+02
  -5.114746e+01   9.947324e+01
  -1.162924e+02   5.423650e+01
  -1.513478e+02   6.863729e+00
  -1.361546e+02  -1.257459e+02
  -6.742005e+00  -2.052071e+02
   4.159489e+01  -1.885972e+02
   1.870002e+02  -6.079352e+01
   1.192680e+02   9.945415e+01
   3.277155e+00   1.407839e+02
  -9.096120e+01   7.240234e+01
  -1.810353e+01   3.636005e+00
   2.572392e+00  -5.933078e+01
   4.127089e+01  -1.264338e+01
  -5.243895e+01  -1.490262e+01
  -9.392564e+01   2.759171e+01
  -7.061032e+01  -2.888372e+01
   7.158299e+01  -3.855805e+01
   1.773402e+02  -1.098709e-01
   1.308049e+02   7.179961e+01
   1.643699e+01   1.040701e+02
  -9.698452e+01   6.989471e+01
  -9.569357e+01  -1.630255e+01
  -3.098123e+01  -8.560755e-01
   5.552746e+01  -1.194264e+01
   7.580079e+01   4.720408e+01
  -8.595892e+00   8.225736e+01
  -5.713058e+01   5.493503e+01
  -6.785925e+01  -4.123938e+01
  -4.579839e+01  -5.632878e+01
  -3.259868e+01  -6.346068e+01
  -3.864641e+01   1.108145e-01
  -9.110136e+01   1.275513e+01
  -5.373753e+01  -4.453523e+01
   3.942062e+01  -1.644699e+02
   1.023256e+02  -1.817455e+02
   1.887419e+02  -5.049913e+01
   1.495087e+02   1.019030e+02
   2.431305e+01   1.437562e+02
  -8.403356e+01   6.667150e+01
  -5.442213e+01  -3.470953e+01
   6.289438e+01  -5.284125e+01
   1.420158e+02   1.508186e+01
   6.142738e+01   1.077494e+02
  -5.433484e+01   1.260978e+02
  -2.197531e+02   5.096614e+01
  -1.529204e+02  -8.402727e+00
  -3.761260e+01  -7.599080e+01
   1.212326e+01  -1.361561e+01
   4.208236e+01  -2.366379e+01
  -6.391552e+01   2.041337e+01
  -1.128587e+02  -3.767966e+01
  -3.695017e+01  -8.712580e+01
   9.178252e+01  -1.615334e+02
   1.850616e+02  -6.328905e+01
   1.208955e+02   7.712995e+01
   4.841051e+01   1.760933e+02
  -9.961706e+01   1.670199e+02
  -1.230612e+02   1.942913e+01
  -6.070254e+01  -1.381370e+02
   3.177415e+01  -1.134310e+02
   6.594925e+01  -3.997819e+01
   7.808121e+01   4.754809e+01
   2.952681e+01   2.903178e+01
   3.840281e+01   3.728718e+01
   2.352473e+01   3.186003e+01
   3.744094e+01   7.618169e+01
   1.547295e+01   9.992299e+01
  -3.755036e+01   2.245859e+01
  -1.137892e+02  -5.739726e+01
  -6.977371e+01  -7.600508e+01
   1.721257e+01  -5.809237e+01
   8.125193e+01  -5.989974e+01
   5.960817e+01   8.254818e-03
   7.667069e+01   4.316068e+01
  -5.982676e+00   4.180973e+01
  -3.985420e+01  -1.030923e+01
   9.284061e+00   5.586779e+01
   8.631904e+00   1.082832e+01
  -1.036699e+02  -2.314545e+01
  -1.301672e+02  -3.189658e+01
  -4.551614e+00  -6.571882e+01
   1.190881e+02  -7.322396e+01
   1.573820e+02  -7.228628e+01
   1.799707e+02   3.115692e+01
   3.713045e+01   1.531927e+02
  -5.479470e+01   1.500084e+02
  -1.413386e+02   7.643137e+01
  -7.906046e+01  -4.999792e+00
  -4.471857e+01  -3.326649e+01
   1.534489e+01   5.381516e-01
   2.291238e+01  -2.782989e+01
  -5.416840e+01  -6.113497e+01
  -3.717862e+00  -1.000814e+02
   1.110981e+01  -5.808461e+01
   1.087979e+02  -1.241472e+01
   1.187903e+02   1.057345e+02
  -2.975983e-01   1.180850e+02
  -8.275170e+01   6.454214e+01
  -7.043447e+01  -8.772371e+01
  -5.986310e+01  -1.086938e+02
   7.216443e+01  -6.450892e+01
   1.172095e+02   5.057113e+00
   6.302105e+01   3.415978e+01
   4.824328e+00   8.021235e+01
  -2.836491e+01   3.101445e+01
  -8.600429e-01   2.699229e+01
   2.162279e+01  -4.111711e+01
   6.303643e+00   2.224388e+01
  -8.279113e+01   5.117843e+01
  -1.149271e+02   4.664271e+01
  -4.337067e+01   1.784266e+01
   3.203043e+01  -8.617765e+01
   4.482682e+01  -7.913172e+01
   2.729571e+01   1.814906e+01
   4.700912e+01   5.155231e+01
  -4.435956e+01   3.127853e+01
  -4.282844e+01   3.652653e+01
  -2.059572e+01  -8.437472e+00
   9.421304e+00  -4.744872e+01
  -2.125368e+01   1.262847e+01
   3.586697e+01   5.739240e+01
   3.199810e+01  -3.685817e+00
   1.487788e+01  -2.823106e+01
  -1.646113e+01  -7.055713e+00
   3.289636e+01   5.218557e+01
  -6.416866e+01   6.759138e+01
  -5.429112e+01   6.313828e+00
   4.379317e+00  -5.614698e+01
  -3.862400e+00  -7.003887e+01
   4.228485e+01  -3.041582e+01
   6.734053e+01   5.829989e+01
  -1.342431e+01   9.827149e+01
  -6.626275e+01   1.075792e+02
  -7.856885e+01   3.954142e+01
  -3.330236e+01  -5.198530e+00
   3.672786e+00  -4.099018e+01
   7.315217e+01  -1.823123e+01
   3.657001e+01  -4.625805e+00
  -5.700332e+01  -4.441576e+00
  -3.314824e+01  -1.358958e+01
   2.657366e+01  -2.831809e+01
   3.744413e+01  -3.082089e+01
