
 $NMID
 id='ANONYMOUS ', fmtdat='(2E16.6)'
 volume=1.0
 tramp=1.0
 $END
  -3.581978e+03  -5.887851e+00
  -2.150100e+03  -2.136907e+03
   2.605454e+02  -2.361027e+03
   1.599680e+03  -1.005404e+03
   9.476241e+02   2.406321e+02
  -1.730668e+02   2.607504e+02
  -5.371576e+02  -4.111468e+02
   1.574947e+02  -8.597813e+02
   6.957717e+02  -6.418295e+02
   7.914198e+02   1.323973e+02
   4.439607e+02   5.885790e+02
  -1.080783e+02   7.355024e+02
  -4.597725e+02   1.366087e+02
  -3.385675e+02  -6.388597e+02
   2.286051e+02  -5.111487e+02
   3.041346e+02   2.181724e+01
   5.542762e+01   5.522884e+02
  -9.527753e+01   5.629030e+02
  -5.265900e+02   3.901581e+02
  -3.965372e+02  -3.024457e+02
  -7.386949e+01  -2.961142e+02
   2.742011e+02  -3.248967e+02
   1.841883e+02   4.255072e+00
  -3.234744e+02  -9.904322e+01
  -2.409154e+02  -1.757216e+02
  -1.382365e+02  -4.585016e+02
   3.504044e+02  -1.175025e+02
   7.659435e+02   2.928811e+01
   3.276540e+02   4.197311e+02
  -2.269431e+02   4.476671e+02
  -5.043683e+02  -1.051450e+00
  -2.240283e+02  -4.089233e+02
   2.698797e+02  -4.457556e+02
   5.995684e+02  -1.999170e+02
   4.957252e+02   1.356899e+02
   9.204270e+01   3.972187e+02
  -1.296563e+02   2.619250e+02
  -1.108233e+02  -2.729668e+02
   1.498059e+02  -2.782089e+02
   4.230346e+02   1.183067e+02
   9.836407e+01   6.339455e+02
  -2.593981e+02   5.683555e+02
  -4.604482e+02  -2.093732e+01
  -1.687203e+02  -5.018412e+02
   2.501333e+02  -2.331517e+02
   2.897001e+02   2.688055e+02
  -7.550321e+01   4.511888e+02
  -5.253046e+02   1.116078e+02
  -5.423197e+02  -3.837217e+02
  -1.099212e+02  -5.289276e+02
   4.438026e+02  -2.963663e+02
   5.978907e+02   9.579481e+01
   3.513337e+02   3.048383e+02
  -1.241673e+02   3.047129e+02
  -3.451448e+02   7.637349e+01
  -1.895972e+02  -1.087270e+02
   6.034032e+01  -1.323068e+01
   8.730019e+01   1.677939e+02
  -1.369141e+02   1.642276e+02
  -2.741451e+02  -1.319697e+02
  -1.168795e+02  -3.086132e+02
   2.090368e+02  -2.869394e+02
   3.492939e+02  -7.886392e+01
   2.577816e+02   1.520866e+02
  -1.487636e+01   3.348068e+02
  -2.734309e+02   3.612874e+02
  -3.717119e+02   1.459971e+02
  -2.592658e+02  -1.726847e+02
  -6.037012e+01  -3.936211e+02
   6.335881e+01  -2.754799e+02
   3.969984e+01  -1.238626e+02
  -1.576294e+01  -6.607502e+01
   1.067291e+02  -1.077045e+02
   2.746840e+02  -5.858814e+01
   2.668071e+02   1.085807e+02
   9.581506e+01   2.266829e+02
  -9.227036e+01   2.158166e+02
  -2.143048e+02  -2.842460e+01
  -1.699800e+02  -2.370076e+02
  -3.161277e-01  -2.881442e+02
   2.587689e+02  -8.455872e+01
   3.358488e+02   2.139173e+02
   1.747143e+02   3.460927e+02
  -6.374113e+01   2.821666e+02
  -2.076746e+02   1.264542e+02
  -1.598629e+02   2.782137e+00
  -2.139389e+02   5.905489e+01
  -3.182384e+02   5.559549e+01
  -3.885950e+02  -9.527964e+01
  -3.121807e+02  -3.017189e+02
   4.370589e+01  -4.339822e+02
   3.185338e+02  -4.450027e+02
   4.749060e+02  -2.331359e+02
   3.146477e+02   5.315704e+01
   6.247966e+01   2.370128e+02
  -7.791707e+01   2.095057e+02
  -1.338480e+01   3.887859e+01
   1.061789e+02  -6.772005e+01
   1.188265e+02   9.720137e+01
   4.149961e+01   1.652995e+02
  -1.356068e+02   9.170982e+01
  -1.632457e+02  -1.152175e+02
  -1.745150e+00  -1.921090e+02
   1.595040e+02  -2.042472e+01
   1.666390e+02   2.498576e+02
   1.902032e+01   3.789241e+02
  -2.143511e+02   2.076674e+02
  -3.469635e+02  -8.100764e+01
  -2.805447e+02  -2.956951e+02
  -1.063804e+02  -2.966501e+02
   1.079531e+02  -1.556443e+02
   1.356852e+02   9.011108e+00
   1.378730e+01   2.355108e+01
  -7.399178e+00  -5.712186e+01
   1.305140e+01  -1.431833e+02
   1.269194e+02  -1.097664e+02
   1.418546e+02   3.615092e+01
   2.823783e+01   7.533489e+01
  -6.470379e+01  -1.089988e+01
  -7.752555e+01  -7.761958e+01
   1.700876e+02  -8.745595e+01
   3.054910e+02   4.092389e+01
   2.681740e+02   1.705194e+02
   3.005812e+01   2.488178e+02
  -2.192621e+02   2.525520e+02
  -3.012042e+02   8.516178e+01
  -2.109685e+02  -1.039540e+02
   1.767041e+01  -1.329990e+02
   6.975459e+01  -1.473410e+01
  -3.525270e+01   6.865595e+01
  -1.222947e+02   4.256900e+01
  -1.779436e+02  -1.075813e+02
  -3.805597e+01  -1.883775e+02
   1.116946e+02  -1.402049e+02
   1.340293e+02  -2.305102e+01
   6.779072e+01   7.109812e+01
  -5.127105e+01   1.264897e+01
  -4.003711e+01  -9.467186e+01
   7.241873e+01  -6.440449e+01
   1.676881e+02  -2.125895e+01
   1.841788e+02   9.449502e+01
  -9.018223e+00   1.971722e+02
  -1.143092e+02   1.828253e+02
  -1.511143e+02   3.982582e+01
  -4.432890e+01  -1.000589e+02
   1.672281e+01  -9.192930e+01
   4.195163e+01  -4.792242e+01
  -8.691163e+00   3.584762e+01
  -4.133339e+01   1.277454e+01
   2.044453e+01  -1.126624e+01
   7.904952e+01  -3.044633e+01
   1.112597e+02   4.139771e+01
   4.981847e+00   1.795542e+02
  -1.436882e+02   1.592937e+02
  -1.930749e+02   2.157165e+01
  -1.921991e+02  -1.398676e+02
  -5.530636e+01  -2.400090e+02
   1.066020e+02  -1.359381e+02
   1.121381e+02  -2.542959e+01
   5.031722e+01   7.957381e+01
   2.785970e+01  -1.436699e-01
   7.359165e+01  -5.531012e+01
   1.038346e+02  -1.294835e+00
   4.027829e+01   5.696712e+01
  -5.385841e+00   1.264300e+02
  -1.046755e+02   9.688622e+01
  -7.769218e+01  -5.845263e+01
  -3.376178e-02  -1.390805e+02
   1.351798e+02  -7.201716e+01
   2.315158e+02   6.006809e+01
   9.474957e+01   1.997564e+02
  -1.166853e+02   2.255414e+02
  -2.731580e+02   9.075661e+01
  -2.468194e+02  -7.828452e+01
  -1.432341e+02  -1.763301e+02
   5.931115e+01  -1.814620e+02
   9.906410e+01  -1.096881e+02
   9.399640e+01  -4.529272e+01
   1.119664e+02  -7.829882e+01
   9.916027e+01  -1.028131e+02
   1.049473e+02   3.414272e+01
   1.225656e+02   1.593645e+02
   3.891284e+01   2.298105e+02
  -1.003522e+02   1.750428e+02
  -1.138522e+02  -2.678125e+01
  -1.157215e+02  -1.624632e+02
  -2.349797e+01  -1.377255e+02
   7.577027e+01  -6.876041e+00
   8.721983e+01   2.632966e+01
   3.174632e+01   7.573946e+01
  -3.390361e+01   7.135711e+01
   9.088455e-01  -1.583263e+01
   3.790191e+01  -2.554443e+01
   5.267979e+01   3.188543e+01
  -8.860190e+01  -1.972472e+01
  -1.487639e+02  -9.410816e+00
  -1.226851e+02  -5.029103e+01
   9.025249e+00  -1.019166e+02
   1.892386e+02  -6.396659e+01
   1.181804e+02   1.522439e+01
   3.717807e+01   1.795474e+01
  -6.904713e+01   3.112270e+01
  -5.166649e+01  -3.533921e+01
  -7.909701e+00  -4.057448e+01
   6.535827e+01  -4.938491e+01
   4.144521e+01  -1.136905e+01
   7.733650e+01   3.925678e+01
   5.967024e+00   7.445300e+01
   5.088136e+01  -1.034904e+01
   5.840394e+01  -5.057658e+01
   2.187117e+01   8.929136e+01
  -1.865854e+01   1.469807e+02
  -1.431579e+02   1.643354e+02
  -1.388051e+02   5.880577e+01
  -1.167066e+02  -7.623738e+01
  -5.151267e+01  -1.089189e+02
   7.024286e+01  -2.869311e+01
   3.868792e+01  -2.028896e+01
  -8.238485e+01   1.476500e+01
  -1.148440e+02  -9.098967e+01
  -6.159463e+01  -1.158451e+02
   9.078572e+01  -7.016676e+01
   1.860858e+02  -1.739806e+01
   1.555989e+02   3.076361e+01
   1.556876e+01   8.753028e+01
  -7.402165e+01   6.070684e+01
  -3.101778e+01   2.570955e+01
   1.394155e-01  -3.655322e+01
   7.391899e+01   6.564173e+01
   4.208533e+01   1.254111e+02
  -9.929002e+01   1.092415e+02
  -1.404700e+02   1.003459e+02
  -1.023174e+02  -1.281576e+02
  -2.704224e+01  -2.140114e+02
   6.149947e+01  -1.242013e+02
   1.195317e+02   5.496079e-02
   6.097773e+01   1.389262e+02
   6.609172e+01   1.348189e+02
   2.738465e-01   2.895779e+01
  -5.446291e+01  -2.646236e+01
  -4.101787e+01  -1.390606e+01
   2.078155e+01   2.063043e+01
  -4.190937e+01   5.121367e+00
  -3.961519e+01  -7.529827e+01
  -1.583067e+01  -9.492118e+01
   8.540113e+01  -1.339682e+01
   1.097447e+02   6.103931e+01
   1.339434e+02   6.726528e+01
   1.537886e+01   9.653933e+00
  -5.729976e+01   3.841205e+01
  -6.746892e+01  -7.240769e+00
  -1.025074e+01   1.858417e+00
   4.399774e+01   7.559126e+00
   2.074401e+01  -4.819725e+00
  -3.171436e+01   4.074136e+00
   7.465461e+00   2.722314e+00
   8.602907e+01   1.641941e+00
   1.023212e+02   3.602622e+01
   1.627192e+01   1.212474e+02
  -1.446735e+02   1.275043e+02
  -1.835560e+02   5.144439e+01
  -1.536552e+02  -5.584344e+01
  -3.877911e+01  -1.609597e+02
   5.657024e+01  -1.419023e+02
   1.258264e+02  -8.426595e+01
   7.197982e+01   7.909948e-01
   1.770837e+01   1.873870e+01
   7.832890e+00   2.882422e+01
   1.519105e+00   4.281729e+01
  -1.893741e+01   5.708986e+01
   1.413592e+01   1.259482e+02
  -3.957293e+01   7.427433e+01
  -9.578624e+01  -1.734535e+01
  -8.982509e+01  -7.776049e+01
  -4.942163e+01  -1.164072e+02
   3.001776e+01  -4.401399e+01
   7.522043e+01   3.013892e+01
   2.809570e+01   8.102578e+01
  -3.760106e+01   1.823865e+01
  -8.810650e+01  -5.560681e+01
   2.434838e+01  -4.028853e+01
   1.905323e+01  -8.085091e+01
   4.947308e+01  -5.407879e+00
  -3.813644e+01  -3.965497e+00
  -4.238214e+01   7.571834e+00
  -6.288948e+00  -2.994104e+01
   6.094100e+01  -3.479027e+01
   7.919891e+01  -2.735659e+01
   5.875882e+01   2.913940e+01
   8.717078e+00   7.204409e+01
  -2.519868e+01   1.055416e+02
  -2.339282e+01   3.059938e+01
  -5.248809e+01  -4.821000e+01
   2.448939e+01  -2.098317e+01
   1.923811e+01   3.359574e+01
   1.917673e+01   5.727971e+01
   9.801501e+00   4.699205e+01
   2.256032e+01  -4.793429e+00
  -4.900053e+01  -4.665113e+01
  -6.212270e+01  -5.823651e+01
   1.583917e+01   4.053672e+01
  -5.932128e-01  -8.306151e+00
  -1.806506e+01  -9.923667e+00
   3.882346e+01  -4.517656e+01
   3.862701e+01  -1.712725e+01
   7.580816e+01   8.026912e+01
  -4.128173e+00   2.736212e+01
  -3.952879e+01  -2.906395e+01
  -5.514776e+01  -5.851746e+01
  -3.048416e+01  -6.632145e+01
   7.880779e+01  -6.112787e+01
   1.100234e+02   6.985976e+00
   6.651331e+01   6.278674e+01
   7.374672e-01   6.733680e+01
  -8.747761e+01   3.119029e+01
  -6.734217e+01  -7.382793e+00
   3.777450e+01   2.412806e+00
  -5.592979e+00  -2.536888e+01
  -2.149085e+01   1.793252e+01
  -6.871215e+01   2.143254e+01
