
 $NMID
 id='ANONYMOUS ', fmtdat='(2E16.6)'
 volume=1.0
 tramp=1.0
 $END
  -4.046493e+03   3.540403e+01
  -2.677466e+03  -2.346268e+03
   6.429052e+02  -2.803192e+03
   1.906762e+03  -9.124599e+02
   8.352731e+02   4.528772e+02
  -5.665994e+02   4.539839e+02
  -6.382268e+02  -3.906758e+02
   6.314612e+01  -1.022431e+03
   6.640771e+02  -7.743844e+02
   8.491670e+02   1.017637e+01
   4.453612e+02   6.828938e+02
  -1.293335e+02   7.671878e+02
  -5.109973e+02  -2.574990e+01
  -3.176250e+02  -5.427169e+02
   1.534968e+02  -6.390965e+02
   6.605207e+02  -3.843490e+02
   2.566059e+02   5.998765e+02
  -4.023808e+02   5.826843e+02
  -5.326676e+02   1.455409e+02
  -4.448269e+02  -2.814257e+02
  -7.825092e+00  -5.121216e+02
   2.364788e+02  -9.306112e+01
  -2.918255e+01   2.898976e+01
  -1.895148e+02  -9.630727e+01
  -3.238907e+02  -4.856162e+01
  -6.870071e+01  -5.220346e+02
   4.116174e+02  -4.187016e+02
   8.668177e+02   2.005972e+02
   3.768478e+02   4.516457e+02
  -3.209271e+02   3.759667e+02
  -8.411635e+02  -1.970313e+02
  -5.225552e+02  -4.798284e+02
   2.199726e+02  -5.363507e+02
   4.315061e+02  -7.676647e+01
   4.276008e+02   2.301340e+02
   9.181592e+01   5.176132e+02
  -1.743660e+02   2.487177e+02
  -2.276412e+02  -1.891190e+02
   1.309376e+02  -3.302485e+02
   3.901538e+02  -1.007681e+02
   2.250034e+02   6.640266e+02
  -3.345950e+02   6.907665e+02
  -5.102310e+02  -1.501481e+01
  -2.102321e+02  -4.915479e+02
   2.635105e+02  -3.497186e+02
   3.785020e+02   3.190101e+02
  -5.168020e+01   5.761078e+02
  -5.435884e+02   1.526065e+02
  -5.925402e+02  -3.889862e+02
  -1.707613e+02  -5.888464e+02
   3.754581e+02  -3.968229e+02
   6.513953e+02   7.487202e+01
   3.954570e+02   3.498377e+02
  -1.263016e+02   3.201738e+02
  -4.063993e+02   3.627308e+01
  -2.162318e+02  -1.732312e+02
   1.140101e+02  -8.964552e+01
   1.282134e+02   1.604481e+02
  -1.367504e+02   1.676665e+02
  -2.683211e+02  -4.078499e+01
  -7.099373e+01  -2.671475e+02
   1.631028e+02  -2.439242e+02
   3.264103e+02  -8.164799e+01
   2.121102e+02   1.023837e+02
  -4.448886e+01   2.157824e+02
  -2.584101e+02   3.526915e+02
  -3.485082e+02   2.226795e+02
  -2.461081e+02  -1.478265e+02
   1.525954e+01  -4.309377e+02
   1.141244e+02  -3.520794e+02
   8.674961e+01  -7.570995e+01
  -3.865861e+01   6.442113e+01
   3.648460e+01  -9.688060e+01
   2.371686e+02  -1.084842e+02
   2.704734e+02   4.101991e+01
   7.825925e+01   2.628773e+02
  -1.085833e+02   2.342728e+02
  -2.131276e+02  -2.625991e+01
  -1.850614e+02  -2.612402e+02
   5.469190e+01  -3.247543e+02
   2.896448e+02  -1.310553e+02
   3.853450e+02   1.954429e+02
   2.180752e+02   4.032663e+02
  -9.975644e+01   3.521392e+02
  -2.582082e+02   1.785594e+02
  -1.964236e+02   3.652338e+01
  -1.065039e+02   4.900112e+01
  -2.391187e+02   5.181181e+01
  -4.188332e+02  -5.307145e+01
  -3.956449e+02  -2.670033e+02
  -6.598285e+00  -4.672901e+02
   4.158679e+02  -4.469100e+02
   5.115668e+02  -1.867618e+02
   3.646997e+02   1.063023e+02
   8.357935e+00   3.099868e+02
  -1.662997e+02   2.673681e+02
  -9.390115e+01   2.856640e+01
   1.285428e+02  -9.813651e+01
   2.219315e+02   3.560478e+01
   6.060364e+01   1.763594e+02
  -1.430415e+02   1.586237e+02
  -1.560337e+02  -7.104537e+01
  -5.572253e+00  -2.076881e+02
   1.826879e+02  -5.401594e+01
   2.097944e+02   2.404031e+02
   7.863657e+00   4.067388e+02
  -2.192223e+02   2.535695e+02
  -3.683881e+02  -7.282401e+01
  -3.246961e+02  -2.759642e+02
  -7.023235e+01  -2.569902e+02
   1.809346e+02  -1.422831e+02
   1.707670e+02   2.967218e+00
   2.916124e+01   4.629369e+01
  -1.190045e+02  -4.480732e+01
  -5.015811e+01  -1.529487e+02
   1.263244e+02  -1.527665e+02
   2.096251e+02   2.508115e+01
   6.556723e+01   6.910499e+01
  -9.017822e+01   6.102779e+00
  -7.596426e+01  -3.116226e+01
   1.083667e+02  -5.868653e+01
   3.008634e+02   6.789119e+00
   2.774520e+02   1.096423e+02
   5.907042e+01   2.395301e+02
  -1.964479e+02   2.386613e+02
  -2.870027e+02   1.086128e+02
  -1.655294e+02  -2.345504e+01
   1.071906e+01  -3.947187e+01
   6.895574e+01   4.035886e+01
  -7.570214e+01   1.079963e+02
  -2.057018e+02   6.177861e+00
  -2.502014e+02  -1.323297e+02
  -1.001720e+02  -2.713261e+02
   1.113346e+02  -2.414140e+02
   1.650651e+02  -5.411570e+01
   7.305174e+01   5.955067e+01
  -2.784172e+00   5.975066e+01
  -8.385430e+00  -5.157857e+01
   2.942410e+01  -1.023311e+02
   1.565246e+02  -4.504150e+01
   1.494841e+02   1.151985e+02
   2.745047e+01   1.990300e+02
  -1.551963e+02   1.302729e+02
  -1.593914e+02   2.488300e+01
  -5.481073e+01  -1.072892e+02
   5.497261e+01  -1.085629e+02
   4.876783e+01  -2.306531e+01
   3.113667e+01   2.031040e+01
   4.518290e+01  -3.708715e+01
  -1.225367e+01  -3.437656e+01
   2.732254e+01   5.311618e+01
   8.118629e+01   1.112765e+02
   4.286397e+01   1.756948e+02
  -1.113646e+02   1.113181e+02
  -2.682344e+02  -6.323609e+00
  -2.265622e+02  -1.428301e+02
  -4.725541e+01  -2.106409e+02
   1.098635e+02  -1.949658e+02
   1.479134e+02  -1.891857e+01
   7.109637e+01   5.243590e+01
   3.008142e+01   1.974594e+01
   8.634789e+01   2.367060e+01
   5.242723e+01   4.208991e+01
   1.729433e+01   6.050549e+01
  -5.357816e+01   2.644711e+01
  -1.125151e+02   1.889006e+01
  -4.843250e+01  -2.138916e+01
   3.025197e+00  -1.021038e+02
   1.633324e+02  -1.161296e+02
   2.073969e+02   1.840194e+01
   1.155319e+02   1.835438e+02
  -7.741840e+01   2.623705e+02
  -2.815698e+02   1.364636e+02
  -2.643135e+02  -7.121994e+01
  -1.056066e+02  -1.546294e+02
   8.997123e+00  -1.658718e+02
   8.863022e+01  -8.096680e+01
   8.476959e+01  -8.255283e+01
   7.795460e+01  -8.749210e+01
   1.514208e+02  -9.149581e+01
   1.600487e+02   4.104624e+01
   1.112293e+02   1.720321e+02
   3.682137e+01   2.014533e+02
  -7.929860e+01   1.569511e+02
  -1.954565e+02   1.282400e+01
  -1.795738e+02  -1.220044e+02
   6.355938e-01  -1.587275e+02
   1.281211e+02  -9.066804e+01
   9.353677e+01  -1.200994e+01
   2.309997e+01   6.529906e+01
   2.982926e+00   5.163063e+01
   2.482312e+01   2.286248e+01
   3.435604e+01   5.359327e+01
   1.339839e+01   6.118304e+01
  -8.092342e+01   6.710575e+01
  -1.289977e+02  -1.048800e+01
  -1.353162e+02  -7.161210e+01
  -1.125266e+01  -9.944633e+01
   1.507122e+02  -6.212282e+01
   1.233944e+02   3.720745e+01
   5.961099e+01   1.078151e+02
  -4.683854e+01   7.994266e+01
  -1.037211e+02   4.876840e+00
  -3.876095e+01  -7.575813e+01
   2.538378e+01  -5.856087e+01
   3.076933e+01  -1.092164e+01
   5.965142e+00   5.491854e+00
   5.423716e+01  -3.936284e+00
   7.378757e+01   1.072189e+01
   7.954270e+01   1.193421e+01
   1.006242e+02   7.357937e+01
  -1.151446e+01   1.623136e+02
  -9.729550e+01   1.659743e+02
  -1.730884e+02   1.577691e+01
  -1.516441e+02  -8.984048e+01
  -4.186299e+01  -6.907919e+01
   5.390480e+01  -3.048497e+01
   4.791537e+01   2.325263e+01
  -5.539435e+01  -2.334333e+01
  -1.545007e+02  -5.092750e+01
  -7.599560e+01  -7.602048e+01
   1.133539e+02  -1.285507e+02
   1.708928e+02  -5.643392e+01
   1.225539e+02   3.641284e+01
   3.195073e+01   9.799225e+01
  -4.963619e+01   7.627140e+01
  -5.639387e+01   1.552179e+01
  -1.743027e+00  -4.987061e+01
   1.043905e+02   2.889850e+01
   4.523412e+01   1.340184e+02
  -1.001103e+02   1.668542e+02
  -1.618773e+02   9.181005e+01
  -1.346210e+02  -1.121439e+02
  -2.372074e+01  -2.327297e+02
   7.289354e+01  -1.225682e+02
   1.314660e+02   1.362311e+01
   8.874023e+01   7.754557e+01
  -3.148852e+01   9.015714e+01
  -2.696865e+01   4.549084e+01
  -5.434809e+01   2.574732e-01
  -1.735992e+01  -4.927422e+00
   2.890850e+01   1.511448e+01
  -4.091898e+01  -3.731471e+01
  -5.528244e+01  -7.361907e+01
  -3.664392e+01  -8.315222e+01
   2.883411e+01  -1.078760e+01
   1.689267e+02   8.098732e+01
   1.254464e+02   6.793502e+01
  -1.811636e+01   8.595118e+01
  -6.669675e+01   4.053981e+00
  -9.515039e+01   3.206602e+01
  -1.081460e+01  -3.152341e+01
   7.558317e+00  -5.650926e+01
  -2.601186e+01   1.448220e+01
  -6.539496e+00   1.634782e+01
   2.271321e+01   2.727852e+01
   1.078591e+02  -7.170964e+00
   5.388992e+01   2.945068e+01
  -7.324863e-01   9.815155e+01
  -1.205558e+02   8.824787e+01
  -1.800573e+02   2.566558e+01
  -1.425839e+02  -9.287615e+01
  -4.228000e+01  -1.613814e+02
   4.875464e+01  -1.278870e+02
   1.484915e+02  -6.917260e+01
   9.668778e+01  -4.798654e+00
   2.294012e+01   4.032896e+01
   2.844130e+01   8.544670e+00
  -1.647197e+01   2.966253e+01
   6.470816e+01   1.109408e+02
   2.665475e+01   8.783969e+01
  -5.996216e+01   4.196697e+01
  -8.113674e+01  -2.273906e+01
  -1.041944e+02  -5.042064e+01
   1.741071e+01  -9.875655e+01
   8.140419e+01   2.554948e+00
   1.009385e+02   5.216125e+01
   1.798102e+01   1.243280e+02
  -8.158965e+01   7.388185e+01
  -9.011933e+01  -1.147402e+01
  -1.969277e+01  -6.770329e+01
   2.516079e+01  -1.007567e+02
   1.054555e+01  -7.553657e+01
  -4.297633e+01  -1.607062e+01
  -6.517632e+01   4.094839e+01
   5.101841e+00  -7.542042e+01
   8.219592e+01  -1.046704e+02
   1.293821e+02  -4.522646e+01
   5.854835e+01   4.282046e+01
  -1.718702e+00   9.979411e+01
  -1.115969e+01   3.437629e+01
  -5.532178e+01   7.922833e-01
   1.086985e+00  -4.420759e+01
   1.051028e+01  -1.550409e+01
   2.495240e+01  -2.159351e+00
   4.145879e+01   8.333734e+01
  -4.765821e+01   3.674957e+01
  -2.177249e+01  -3.172592e+01
  -8.266266e+00  -1.776938e+01
  -2.970587e+01   2.217579e+01
   1.093073e+01   3.564357e+01
  -1.967010e+01  -2.769535e+01
  -2.007486e+01  -5.217617e+01
  -1.750290e+01  -6.768049e+01
   2.563549e+01   1.412638e+00
   2.983841e+01   6.360755e+01
   1.694122e+01   6.777772e+01
  -5.733535e+01   3.135691e+00
  -4.395833e+01  -6.118610e+01
   1.464799e+01  -4.463287e+01
   5.952140e+01  -3.331151e+01
   1.361273e+02   3.469704e+01
   3.911656e+01   1.161798e+01
  -6.482026e+01   2.210066e+01
  -4.855882e+01   2.905531e+01
  -2.780148e+01  -2.304256e+01
   1.412530e+01   2.470822e+01
   1.773903e+01   2.983307e+01
   2.908131e+01   4.359739e+01
  -5.370504e+01   1.172297e+01
