
 $NMID
 id='ANONYMOUS ', fmtdat='(2E16.6)'
 volume=1.0
 tramp=1.0
 $END
   3.780212e+03   9.881018e+00
   2.132531e+03   2.057448e+03
  -6.629470e+02   2.375113e+03
  -1.856203e+03   7.348556e+02
  -7.416789e+02  -6.523756e+02
   4.678887e+02  -6.007118e+02
   8.387809e+02   4.491487e+02
   4.762829e+01   7.224999e+02
  -6.938947e+02   6.541016e+02
  -9.051138e+02  -1.645713e+01
  -4.378541e+02  -7.199424e+02
   2.848445e+02  -7.961331e+02
   5.071804e+02  -1.099981e+02
   3.764642e+02   6.083271e+02
  -1.741616e+02   5.963064e+02
  -4.814012e+02  -1.132174e+02
  -3.711962e+02  -7.198635e+02
   4.103837e+02  -3.790139e+02
   3.592342e+02  -1.540292e+02
   4.640601e+02   3.417671e+02
   8.509228e+00   5.122460e+02
  -8.848394e+01   2.318121e+02
  -2.236062e+02  -1.579526e+01
   2.235971e+01   6.919195e+01
   3.670335e+02   1.880695e+02
   2.290020e+02   3.246099e+02
  -3.102501e+02   3.928539e+02
  -8.037779e+02  -1.006901e+02
  -4.394572e+02  -5.090762e+02
   2.433950e+02  -4.912002e+02
   6.516153e+02   6.317210e+01
   2.142600e+02   4.453324e+02
  -2.304917e+02   4.216621e+02
  -4.652381e+02   2.265588e+02
  -3.927795e+02  -8.839637e+01
  -1.239405e+02  -4.039554e+02
   1.402800e+02  -2.308716e+02
   2.318565e+02   1.762275e+02
  -1.612351e+02   3.978106e+02
  -3.849928e+02  -3.673289e+01
  -2.792001e+02  -6.324014e+02
   2.702724e+02  -6.591384e+02
   5.911336e+02  -6.999442e+01
   2.035346e+02   4.139934e+02
  -2.709592e+02   2.722455e+02
  -3.446975e+02  -2.499002e+02
   8.977708e+01  -4.746900e+02
   5.300785e+02  -1.202713e+02
   4.890157e+02   3.139522e+02
   1.357469e+02   5.055878e+02
  -3.425960e+02   2.461052e+02
  -4.809993e+02  -6.691261e+01
  -2.919701e+02  -3.565783e+02
   1.370912e+02  -3.406504e+02
   3.710259e+02   1.034611e+01
   2.101982e+02   1.906834e+02
  -8.905486e+01   1.311016e+02
  -1.049403e+02  -1.747019e+02
   1.176181e+02  -2.458747e+02
   3.072940e+02   6.662967e+01
   1.104966e+02   2.227713e+02
  -1.281371e+02   2.255681e+02
  -1.974544e+02   4.306669e+01
  -1.512325e+02  -3.365123e+01
   2.078015e+01  -1.085734e+02
   1.568885e+02  -2.187973e+02
   2.068249e+02  -1.566795e+02
   2.365677e+02   7.827138e+01
   4.908711e+01   3.701120e+02
  -1.496596e+02   3.352940e+02
  -1.346429e+02   2.208697e+01
   3.013803e+00  -1.553843e+01
  -2.208529e-01   9.550049e+01
  -1.732942e+02   1.313640e+02
  -2.299820e+02  -3.132472e+01
  -1.553670e+02  -2.149412e+02
   3.096197e+01  -1.941177e+02
   1.760357e+02   1.465699e+01
   1.111453e+02   2.149766e+02
  -3.046113e+01   2.469085e+02
  -2.279381e+02   8.417140e+01
  -2.852979e+02  -1.382842e+02
  -1.703445e+02  -3.004467e+02
   7.928030e+01  -2.918916e+02
   2.048006e+02  -6.826973e+01
   1.594173e+02   6.457357e+00
   9.203585e+01  -5.949418e-01
   1.587190e+02  -2.934192e+01
   2.901869e+02   4.497624e+01
   2.095914e+02   2.438867e+02
  -2.309680e+01   3.675369e+02
  -3.266581e+02   3.561668e+02
  -4.279854e+02   1.722284e+02
  -2.982064e+02  -1.190671e+02
  -6.703594e+00  -2.546302e+02
   1.133990e+02  -1.938858e+02
   5.403294e+01  -4.326972e+01
  -4.162675e+01   7.220684e+01
  -1.529013e+02   2.612603e+00
  -5.879649e+01  -1.541268e+02
   1.551279e+02  -1.405040e+02
   1.303773e+02   8.014807e+01
  -2.170578e+01   1.415897e+02
  -1.920639e+02  -9.116119e+00
  -1.661018e+02  -2.561709e+02
   3.651359e+01  -3.089429e+02
   2.033113e+02  -1.620000e+02
   3.216996e+02   9.002179e+01
   2.251280e+02   2.583208e+02
   7.745293e+01   2.116520e+02
  -1.249737e+02   1.512075e+02
  -2.153482e+02  -2.925770e+01
  -7.301654e+01  -7.389930e+01
   7.264898e+01   1.783588e+01
   6.679451e+01   1.024806e+02
  -1.094547e+02   1.035073e+02
  -1.622778e+02  -3.373526e+01
  -4.409874e+01  -7.597568e+01
   9.292662e+01  -4.085095e+01
   2.853441e+01   4.473024e+01
  -1.257851e+02   1.469345e+02
  -2.387561e+02   4.272405e+01
  -2.291096e+02  -7.664354e+01
  -6.270742e+01  -2.391645e+02
   1.230350e+02  -2.302919e+02
   2.036728e+02  -1.557173e+02
   1.251458e+02   3.180406e+00
  -1.543972e+00   9.573218e+01
  -6.028149e+01   1.659559e+01
   7.118138e+00  -8.684981e+01
   1.888486e+02  -2.897614e+01
   1.819618e+02   4.833498e+01
   4.251942e+01   1.739028e+02
  -3.385392e+01   8.207302e+01
  -1.350495e+02   2.728771e+01
  -4.563449e+01  -1.774182e+01
   4.012694e+01  -7.949289e+00
   4.211624e+01   7.235525e+01
  -7.264956e+00   6.241737e+01
  -1.626203e+02   7.447656e+01
  -1.508239e+02  -6.560727e+01
  -8.400596e+01  -1.741807e+02
   6.161354e+01  -1.974654e+02
   1.489210e+02  -8.069170e+00
   3.835723e+01   1.185976e+02
  -5.565788e+01   1.235860e+02
  -1.009867e+02   3.798727e+01
  -1.363584e+01  -4.993602e+01
   2.854839e+01  -7.715619e+01
  -4.210684e+01  -1.282537e+01
  -3.138145e+01  -4.305390e+01
  -4.901106e+01  -5.061191e+01
   1.496765e+01  -1.447161e+02
   1.133962e+02  -1.224186e+02
   1.794831e+02  -6.259128e+00
   1.956003e+02   9.081023e+01
   6.120678e+01   2.116329e+02
  -3.697430e+01   1.118845e+02
  -8.923996e+01  -1.862550e+01
  -7.210309e+01  -1.014229e+01
   1.822694e-01  -2.127052e+01
  -3.262930e+01   1.489749e+01
  -4.305829e+01   6.111111e+01
  -1.690017e+01  -2.121992e+01
   6.547404e+01  -6.012599e+01
   7.888693e+01  -5.481043e+01
   7.271731e+01   1.124130e+00
  -3.425189e+01   9.031889e+01
  -1.098393e+02   6.978012e+01
  -1.410851e+02  -7.910930e-01
  -7.106310e+01  -1.371118e+02
   9.454797e+01  -1.746001e+02
   2.413806e+02  -9.452124e+01
   2.053593e+02   5.385473e+01
   1.234780e+02   1.693086e+02
  -5.024702e+01   1.235700e+02
  -1.033575e+02   6.172505e+01
  -7.917656e+01   4.867201e+01
  -2.916520e+01   9.453009e+01
  -1.719017e+01   1.427983e+01
  -6.066598e+01  -2.183031e+01
  -6.463232e+01  -1.419827e+02
  -1.708376e+01  -1.416337e+02
   6.897664e+01  -1.554430e+02
   1.291755e+02  -1.150905e+01
   1.047839e+02   9.716624e+01
   3.413148e+01   1.468410e+02
  -7.761937e+01   5.112194e+01
  -7.285515e+00   2.561612e+01
   8.477827e+00  -4.913518e+01
   1.596957e+01  -5.163986e+01
  -4.475201e+01  -1.217795e+01
  -8.109172e+01  -4.047846e+01
  -2.500944e+01  -1.215742e+01
   5.987869e+01  -2.156279e+00
   1.509582e+02  -3.302170e+00
   1.041592e+02   2.988625e+01
  -2.474307e+01   5.890422e+01
  -9.160903e+01   7.739703e+01
  -1.311057e+02   1.817177e+01
  -1.121221e+02  -1.468569e+01
   7.097272e+01  -2.942734e+01
   5.700212e+01  -1.783449e+01
   1.414039e+01   4.562998e+01
  -7.083078e+01   4.947612e+01
  -4.944801e+01   6.710819e+00
  -4.071739e+01  -9.954884e+01
  -2.501711e+01  -2.868072e+01
  -3.122683e+01   3.114115e+00
  -9.402046e+01   2.693494e+01
  -2.581698e+01  -6.270184e+01
   2.567506e+01  -1.147968e+02
   1.538201e+02  -1.247434e+02
   1.111770e+02  -1.947988e+01
   5.358194e+01   6.704258e+01
   4.910518e+00   1.451607e+02
  -8.978656e+01   9.610798e+01
  -4.494802e+01   2.615003e+01
   3.929027e+01  -1.165605e+01
   7.025116e+01   1.624655e+01
   5.046078e+01   4.470300e+01
  -3.590882e+01   8.967556e+01
  -1.451531e+02   5.950816e+01
  -1.537089e+02   1.090043e+01
  -4.215362e+01  -4.658633e+01
   8.273106e+01  -5.237271e+01
   3.182144e+01   4.403956e+00
  -2.435488e+01   6.415962e+01
  -1.121571e+02  -3.408267e+01
  -4.946561e+01  -8.672839e+01
   6.058592e+01  -1.419660e+02
   1.398258e+02  -8.010636e+01
   9.562909e+01   7.142002e+01
  -1.150344e+01   1.333600e+02
  -5.639855e+01   1.105798e+02
  -9.235942e+01  -2.358485e+01
  -4.349869e+01  -1.185444e+02
   9.106398e-01  -9.712161e+01
   3.257106e+01  -2.352543e+01
   7.805589e+01   3.492557e+01
   2.984232e+01   1.844847e+01
   2.854962e+01  -3.263408e+01
   5.849082e+01   5.086585e+00
   8.934937e+01   7.400830e+01
   6.336155e+01   7.190491e+01
  -5.869032e+01   4.214414e+01
  -9.486760e+01   1.980986e+01
  -9.732453e+01  -8.606917e+01
  -1.620503e+01  -8.714211e+00
   6.836791e+01  -4.847516e+01
   7.071479e+01  -5.118544e+01
  -1.011805e+01  -3.761237e-01
  -6.586218e+01  -4.902817e+00
   6.680726e-01   1.722909e+01
   7.249301e+00  -3.441542e+01
  -1.479769e+01  -4.126072e+01
  -6.630048e+01   2.803727e+00
  -7.354994e+01  -2.146285e+01
   8.322278e+00  -5.037267e+01
   6.588354e+01  -1.087257e+02
   1.251729e+02  -9.340650e+01
   1.263789e+02   5.629909e+01
   1.667537e+01   1.447995e+02
  -3.896898e+00   1.537296e+02
  -6.732786e+01   6.892078e+01
  -6.099478e+01  -1.805659e+00
  -1.468605e+01   2.584089e+00
  -1.304304e-01   3.244413e+01
  -4.229572e+01  -5.498461e+00
  -1.941934e+01  -2.063834e+01
  -2.588662e+01  -6.444970e+01
   4.795643e+01  -9.709285e+01
   9.059225e+01  -6.021576e+00
   9.370168e+01   5.920553e+01
  -1.873482e+01   9.946480e+01
  -7.339845e+01   5.786868e+01
  -6.928368e+01  -2.461624e+01
  -3.667587e+01  -5.875677e+01
   4.522084e+01  -7.361602e+01
   6.892717e+01  -2.048777e+01
   6.677459e+01   6.051753e+01
   2.372611e+01   5.431482e+01
  -5.369455e+01   9.636269e+00
  -9.331325e+00   8.681780e+00
   2.614217e+01   7.493711e+00
   1.506775e+01   2.063985e+01
  -5.110112e+01   3.533670e+01
  -9.849978e+01   5.638608e+01
  -4.920396e+01  -2.693670e+01
   2.473453e+01  -3.882832e+01
   4.662484e+01  -3.372053e+01
   3.232488e+01   1.660293e+01
  -2.363384e+01   7.928111e+01
  -4.023518e+01   4.146561e+00
  -4.418071e+01   4.543267e+01
  -3.417720e+01  -4.486733e+01
   2.371170e+01  -2.061149e+01
   1.537099e+01   1.908162e+01
   2.146050e+01  -6.780270e+00
  -3.355818e+01   6.355228e+00
  -3.981097e+00  -3.117768e+01
   5.855403e+00  -3.713861e+00
   2.599545e+01   2.375672e+01
  -1.620711e+01   6.829065e+01
  -3.025925e+01  -2.676304e+01
  -4.403917e+01  -1.664815e+01
   1.892889e+01  -7.087392e+01
   5.544139e+01  -2.126246e+01
   8.256399e+01   1.813905e+01
   1.719131e+01   4.447701e+01
  -6.076001e+01   4.515549e+01
  -4.314417e+01  -1.640119e+00
  -4.509372e+01  -4.876705e+01
   3.030910e+01  -3.907151e+01
   2.241890e+01  -6.167853e+01
  -2.002627e+01  -3.602733e+01
  -4.133578e+01   3.819242e+01
  -5.450671e+01  -2.643186e+01
   1.006981e+00  -4.038336e+01
   6.260167e+01  -2.959130e+01
