
 $NMID
 id='ANONYMOUS ', fmtdat='(2E16.6)'
 volume=1.0
 tramp=1.0
 $END
  -4.057202e+03   9.821703e+01
  -2.267708e+03  -2.258744e+03
   6.940594e+02  -2.592330e+03
   2.092753e+03  -6.210052e+02
   9.148614e+02   6.008296e+02
  -7.776894e+02   5.253569e+02
  -8.530068e+02  -3.435004e+02
  -8.464214e+01  -1.010798e+03
   8.647249e+02  -7.565144e+02
   9.339199e+02   1.179087e+02
   2.818371e+02   7.587384e+02
  -6.231633e+01   8.673343e+02
  -6.278158e+02   1.456756e+02
  -2.936739e+02  -8.589301e+02
   2.410537e+02  -7.824363e+02
   6.403278e+02   1.451284e+02
   1.344387e+02   5.582657e+02
  -2.646529e+02   5.011733e+02
  -3.310503e+02   5.123428e+01
  -4.558691e+02  -4.727505e+02
   5.264597e+01  -2.961747e+02
   3.108847e+02  -2.389969e+02
   1.105706e+02  -9.434295e+01
  -1.600552e+02  -6.368539e+01
  -2.583334e+02  -6.615825e+01
  -2.085632e+02  -3.037796e+02
   4.235490e+02  -3.420412e+02
   7.213166e+02   5.032567e+01
   3.094447e+02   5.048738e+02
  -4.155553e+02   4.779574e+02
  -6.324274e+02  -6.153218e+01
  -2.705296e+02  -4.125860e+02
   2.915904e+02  -5.242208e+02
   5.536057e+02  -1.772658e+02
   3.398500e+02   1.723420e+02
  -2.484295e+01   4.211712e+02
  -2.363595e+02   2.510608e+02
  -1.276965e+02  -2.531007e+02
   1.702476e+02  -3.662085e+02
   5.045139e+02   4.767376e+01
   2.290563e+02   6.825333e+02
  -3.286865e+02   6.686772e+02
  -5.510248e+02   8.716206e+00
  -2.548353e+02  -5.457985e+02
   1.957442e+02  -2.868209e+02
   3.855761e+02   2.320597e+02
  -6.753047e+01   4.940730e+02
  -5.290019e+02   1.469234e+02
  -5.445483e+02  -3.916902e+02
  -1.103472e+02  -5.458239e+02
   4.027860e+02  -3.633306e+02
   5.889438e+02   7.426263e+01
   3.386197e+02   3.136961e+02
  -1.479648e+02   3.744646e+02
  -3.722844e+02   4.948538e+01
  -2.123317e+02  -1.764088e+02
   4.392556e+01  -9.690762e+01
   7.795235e+01   1.598775e+02
  -1.643339e+02   1.552665e+02
  -2.751003e+02  -1.196012e+02
  -1.146541e+02  -2.982632e+02
   1.281879e+02  -1.970065e+02
   2.762877e+02  -3.743470e+01
   1.356526e+02   7.014318e+01
  -1.995298e+01   1.305093e+02
  -1.862429e+02   2.430419e+02
  -2.903757e+02   1.487431e+02
  -2.395318e+02  -1.272079e+02
  -5.556730e+01  -3.969934e+02
   1.314558e+02  -3.232537e+02
   9.101713e+01  -8.681872e+01
  -6.438897e+00   6.155702e+01
   8.045072e-01  -7.699836e+01
   1.563287e+02  -1.299084e+02
   2.908909e+02   1.003267e+01
   1.578190e+02   2.566707e+02
  -5.690286e+01   2.324055e+02
  -1.979759e+02  -2.537033e+00
  -1.934979e+02  -2.753349e+02
   3.710013e+00  -2.526381e+02
   2.270672e+02  -7.037850e+01
   3.490202e+02   1.327853e+02
   1.822978e+02   2.604154e+02
  -1.036152e+02   2.748950e+02
  -1.747187e+02   1.116841e+02
  -1.088912e+02   5.002110e+01
  -9.296920e+01   3.701906e+01
  -2.385288e+02   8.599761e+01
  -3.475494e+02  -4.291915e+01
  -2.846440e+02  -2.000813e+02
   1.713578e+01  -4.184810e+02
   2.874583e+02  -4.053439e+02
   4.034842e+02  -1.879563e+02
   2.694949e+02   1.191247e+02
   5.140185e+01   2.817051e+02
  -1.237362e+02   2.264878e+02
  -1.025820e+02   1.992377e+01
   1.045751e+02  -5.858399e+01
   1.719024e+02   1.751809e+01
   5.972425e+01   1.838500e+02
  -1.815613e+02   1.020598e+02
  -2.014346e+02  -4.704238e+01
  -2.420399e+00  -1.769789e+02
   1.566281e+02  -5.167108e+01
   1.772309e+02   1.699701e+02
  -1.251858e+01   2.975279e+02
  -1.805058e+02   1.559897e+02
  -2.642490e+02  -2.071977e+01
  -2.193321e+02  -2.200874e+02
  -1.262191e+02  -2.417828e+02
   7.803879e+01  -1.711326e+02
   1.890430e+02  -1.643246e+01
   6.143643e+01   1.265380e+01
  -4.263630e+01  -3.144523e+01
  -7.977654e+01  -9.309285e+01
   6.466441e+01  -1.129395e+02
   1.827261e+02  -3.528500e+01
   1.144849e+02   5.193475e+01
  -1.682637e+01   3.042922e+01
  -4.417600e+01  -2.831330e+01
   7.204582e+01  -8.954334e+01
   2.059603e+02  -6.616052e+01
   2.570006e+02   8.301657e+01
   1.196492e+02   2.204347e+02
  -6.550903e+01   2.553719e+02
  -2.268005e+02   1.320949e+02
  -1.789682e+02   8.747860e+00
  -1.901511e+01  -8.526052e+01
   8.279497e+01   1.182219e+01
  -2.994867e+01   1.084192e+02
  -1.853505e+02   1.065457e+02
  -2.124777e+02  -1.052559e+02
  -1.106908e+02  -1.815509e+02
   5.351324e+01  -1.925367e+02
   1.180113e+02  -5.769913e+01
   2.355515e+01   3.031916e+01
  -3.846832e+01   8.172924e+00
  -5.556535e+01  -8.751459e+01
   4.146410e+01  -1.197734e+02
   1.544861e+02  -5.731925e+01
   1.655209e+02   1.029694e+02
   2.782545e+01   1.673616e+02
  -1.330773e+02   1.050884e+02
  -1.903110e+02  -5.385785e+01
  -6.547109e+01  -1.051828e+02
   1.029356e+02  -1.010472e+02
   9.108907e+01  -1.190417e+01
   2.724678e+01   5.135698e+01
  -5.286996e+01   4.548774e+01
  -1.379244e+01  -6.735388e+00
   4.614177e+01  -1.259526e+01
   1.027793e+02   6.408293e+01
   3.107782e+01   1.293015e+02
  -9.048039e+01   1.298032e+02
  -2.063909e+02   2.367454e+01
  -1.479851e+02  -1.277847e+02
  -4.412004e+01  -2.277177e+02
   9.300177e+01  -1.390680e+02
   1.067880e+02  -3.944931e+01
   6.630140e+01   2.684357e+01
   3.192682e+01   1.854979e+01
   6.312566e+01   5.463678e+00
   7.120410e+01  -1.814990e+01
   4.382039e+01   8.251014e+01
  -1.872226e+01   9.796496e+01
  -1.027194e+02   7.588756e+01
  -9.862891e+01   5.334751e+00
  -1.563621e+01  -7.991892e+01
   1.094332e+02  -7.100022e+01
   1.656024e+02   5.288547e+01
   1.101155e+02   1.531632e+02
  -5.955983e+01   1.997292e+02
  -2.148684e+02   8.016952e+01
  -2.507435e+02  -6.081631e+01
  -1.084211e+02  -1.379754e+02
   3.574674e+01  -1.732148e+02
   9.320079e+01  -8.574843e+01
   5.860750e+01  -3.762644e+01
   7.610548e+01  -7.206005e+01
   6.274059e+01  -4.903716e+01
   1.059105e+02  -1.128054e+01
   6.869490e+01   1.323632e+02
   2.939778e+01   1.618988e+02
  -1.065264e+02   1.594545e+02
  -8.621836e+01   6.632325e+00
  -8.900281e+01  -6.829362e+01
  -4.726061e+01  -1.325259e+02
   1.876686e+01  -6.674228e+01
   1.478429e+01   9.195683e+00
  -4.670680e+00  -4.708958e+00
  -3.699413e+01   3.851962e-01
   1.317427e+01  -2.582811e+00
   3.861571e+01   3.280532e+01
   8.516980e+00   2.472887e+01
  -7.158965e+01   7.097517e+01
  -1.171969e+02   2.121367e+01
  -1.082879e+02  -7.552134e+01
  -1.423069e+01  -1.312206e+02
   8.769513e+01  -6.293364e+01
   1.008643e+02  -3.806541e+01
   6.466731e+01   4.170091e+01
  -3.137584e+01   2.395310e+01
  -2.008177e+01   1.018656e+00
   2.468771e+00  -6.881152e+01
   4.947529e+01  -1.125067e+01
   4.493404e+01  -9.404594e+00
  -1.292168e+01   3.391457e+01
   4.600382e+01   5.392514e+01
   4.328028e+01  -9.361542e+00
   2.470875e+01  -7.678283e+00
   3.516497e+01   7.663773e+01
  -2.419967e+01   1.266321e+02
  -1.085652e+02   1.049487e+02
  -1.492271e+02   4.573649e+01
  -1.230892e+02  -9.900901e+01
  -3.156246e+01  -8.931201e+01
   6.156082e+01  -2.790426e+01
   7.804663e+01   1.562998e+01
  -1.642925e+01  -1.086080e+01
  -6.499304e+01  -3.063181e+01
  -6.912992e+01  -9.289942e+01
   8.098649e+01  -1.001408e+02
   1.395714e+02  -4.083227e+01
   1.725490e+02   2.675180e+01
   5.000042e+01   1.027815e+02
  -3.097380e+01   7.126812e+01
  -6.176396e+01   7.646295e+00
   2.968440e+01  -6.576137e+01
   4.936439e+01  -4.237434e+01
   3.840900e+01   9.349527e+01
  -1.014787e+02   1.562105e+02
  -1.214951e+02   6.226854e+01
  -6.751588e+01  -8.021458e+01
   1.673750e+01  -1.546274e+02
   8.228352e+01  -1.268685e+02
   6.734820e+01  -3.862755e+01
   6.815494e+00   7.862670e+01
   2.020462e+01   9.313485e+01
   1.298964e+00   1.322695e+01
  -6.602125e+01  -4.171270e+01
  -1.183172e+01  -2.454907e+01
   6.631656e+00  -1.239800e+01
  -1.609878e+01   5.712787e+00
  -6.256731e+01  -4.408060e+01
  -2.105932e+01  -9.970516e+01
   3.584417e+01  -1.896434e+01
   1.279961e+02  -8.804390e+00
   7.882097e+01   6.074310e+01
   4.000376e+01   2.795851e+01
  -7.204985e+01   1.397583e+01
  -4.831043e+01   1.806975e+01
  -2.953247e+01   1.172390e+01
   2.609171e+01  -3.022621e+01
  -1.218870e+01  -1.002160e+01
  -4.021750e+01   4.296840e+00
  -1.119360e+01   1.383871e+01
   2.692814e+01  -2.989185e+01
   5.919363e+01  -6.381847e+00
  -2.434952e+01   5.321277e+01
  -1.091595e+02   1.394073e+02
  -1.465723e+02   4.854938e+01
  -1.251357e+02  -4.152870e+01
  -1.586810e+01  -1.476314e+02
   7.927848e+01  -1.157669e+02
   4.872131e+01  -2.429731e+01
   7.865177e+01   3.144724e+01
   1.083155e+01   4.665298e+01
   1.562903e+01   7.221977e-01
  -1.015298e+00   4.154458e+00
   2.162149e+01   1.391540e+01
  -1.341653e-03   9.667892e+01
  -2.995840e+01   6.725646e+01
  -9.675306e+01  -3.474812e+01
  -1.030442e+02  -1.244234e+02
  -9.741493e+00  -9.335978e+01
   8.198833e+01  -2.849829e+01
   1.017171e+02   6.719884e+01
   1.741673e+00   8.801291e+01
  -3.763940e+01   3.408637e+01
  -6.795251e+01  -5.263898e+01
  -1.654938e+01  -1.693178e+01
   4.903332e+01  -2.087127e+01
   2.752907e+01  -3.368927e+01
   3.822719e+00   9.446380e+00
  -5.920278e+01   2.118749e+01
   6.982747e+00  -3.850499e+01
   5.385414e+01  -3.794723e+01
   1.062634e+02  -6.168243e+00
   5.815769e+01   3.419848e+00
  -3.423370e+01   7.988948e+01
  -3.429123e+01   6.420494e+01
  -4.978010e-01   4.098578e+00
  -5.533641e+01  -3.412079e+01
   1.006722e+01  -1.874553e+01
   2.947696e+01   1.096861e+00
  -1.109364e+01   3.191144e+01
   9.104507e+00   8.388128e+00
   1.522111e+01   1.840273e+00
  -3.318171e+01   1.298103e+00
  -3.118521e+01  -2.496741e+01
  -5.089716e+00   2.036446e+01
   4.339523e+01  -4.567441e+01
   2.193627e+01  -6.021319e+01
   3.497867e+01  -2.258088e+01
   3.402304e+00   7.223202e+00
   2.215224e+01   3.702881e+01
  -1.269416e+01   3.831500e+01
  -5.152829e+01   3.185024e+01
  -2.630473e+01  -2.026099e+01
   2.268999e+00  -5.458380e+01
   6.672264e+01  -3.255420e+01
   5.816100e+01   3.207372e+01
   2.056446e+01   4.074968e+01
  -2.365645e+01   3.084289e+01
  -5.743837e+01  -2.494661e+00
  -3.875974e+01   1.212347e+01
   4.678631e+01  -1.085215e+01
   2.045712e+01   1.159166e+01
  -2.661932e+01  -1.752764e+01
  -4.894994e+01  -1.373835e+01
