
 $NMID
 id='ANONYMOUS ', fmtdat='(2E16.6)'
 volume=1.0
 tramp=1.0
 $END
   4.137867e+03  -1.008694e+02
   2.515967e+03   2.296727e+03
  -5.869454e+02   2.664233e+03
  -2.040254e+03   8.559355e+02
  -8.336988e+02  -5.366584e+02
   4.774524e+02  -4.424572e+02
   6.840583e+02   3.354892e+02
  -4.056635e+01   8.958670e+02
  -8.394962e+02   7.136534e+02
  -8.018159e+02  -5.144263e+01
  -4.248140e+02  -7.024863e+02
   3.340098e+02  -7.033793e+02
   7.030583e+02  -3.407976e+02
   4.491117e+02   8.089552e+02
  -2.929242e+02   6.798080e+02
  -4.793654e+02  -1.475041e+02
  -3.104900e+02  -7.849066e+02
   2.103659e+02  -6.061734e+02
   3.800599e+02  -1.578757e+02
   2.380694e+02   4.214381e+02
   1.248420e+02   3.921422e+02
  -1.011267e+02   3.396898e+02
  -1.107888e+02   3.350744e+01
   1.188782e+02   8.773607e+01
   3.362042e+02   1.178493e+02
   2.263026e+02   3.231263e+02
  -5.508541e+02   3.318978e+02
  -8.114548e+02  -1.499285e+02
  -4.479916e+02  -5.138444e+02
   4.426627e+02  -4.077804e+02
   7.619313e+02  -1.510157e+01
   4.280241e+02   4.311409e+02
  -1.874723e+02   5.029964e+02
  -5.578487e+02   2.316257e+02
  -3.884014e+02  -2.717198e+02
  -9.508115e+01  -5.168741e+02
   2.193671e+02  -2.931815e+02
   1.477556e+02   2.262786e+02
  -1.412863e+02   3.678880e+02
  -4.289924e+02  -5.996172e+01
  -1.985324e+02  -7.088595e+02
   3.645114e+02  -6.321758e+02
   6.128399e+02  -1.501401e+01
   2.664682e+02   5.083917e+02
  -2.862472e+02   2.849579e+02
  -3.885910e+02  -2.733804e+02
   5.658275e+01  -4.987896e+02
   5.087094e+02  -1.469827e+02
   5.787353e+02   3.460777e+02
   1.718985e+02   5.467298e+02
  -4.059975e+02   3.135469e+02
  -6.026001e+02  -8.018322e+01
  -3.294969e+02  -3.854065e+02
   1.524084e+02  -3.623399e+02
   4.529142e+02  -7.443430e+01
   2.486556e+02   1.424402e+02
  -7.131351e+01   8.190264e+01
  -1.265481e+02  -1.556708e+02
   1.596790e+02  -1.637075e+02
   3.471817e+02   8.238232e+01
   2.004492e+02   3.025215e+02
  -1.689851e+02   3.112566e+02
  -3.631616e+02   1.011711e+02
  -2.758801e+02  -1.108387e+02
   2.282030e+01  -2.936437e+02
   3.083193e+02  -3.790411e+02
   4.167128e+02  -1.926990e+02
   2.729218e+02   1.659921e+02
   6.301418e+01   4.138581e+02
  -1.106298e+02   4.041980e+02
  -9.721257e+01   1.664228e+02
  -3.394068e+01   5.077413e+01
  -8.311735e+01   1.468496e+02
  -2.301347e+02   8.494636e+01
  -3.106475e+02  -1.367887e+02
  -1.209740e+02  -3.203773e+02
   1.291454e+02  -2.664196e+02
   2.761778e+02   3.464744e+01
   2.077001e+02   2.942958e+02
  -2.128514e+01   3.236273e+02
  -3.012499e+02   1.180277e+02
  -3.509055e+02  -1.721854e+02
  -1.750295e+02  -3.251998e+02
   6.521416e+01  -2.535969e+02
   1.849108e+02  -1.054088e+02
   1.561723e+02   4.507144e+01
   1.077657e+02  -4.204192e+01
   2.693676e+02  -4.529967e+01
   4.422316e+02   4.818925e+01
   3.035395e+02   2.813661e+02
  -3.933570e+01   4.573621e+02
  -4.082922e+02   4.347503e+02
  -4.867151e+02   2.125626e+02
  -3.186492e+02  -6.628978e+01
  -9.680045e+01  -2.794289e+02
   1.084939e+02  -2.376122e+02
   2.395732e+01  -3.160403e+01
  -1.307712e+02   3.209328e+01
  -1.994833e+02  -1.034767e+02
  -4.526458e+01  -2.294617e+02
   1.629844e+02  -1.751281e+02
   1.833132e+02   7.543063e+01
  -3.018409e+00   2.239092e+02
  -2.062817e+02   4.434999e+01
  -2.136620e+02  -2.632296e+02
   1.824270e+00  -3.881382e+02
   1.934963e+02  -2.537281e+02
   3.178749e+02   2.403485e+01
   2.273946e+02   2.494889e+02
   8.495684e+01   2.762191e+02
  -1.056984e+02   1.201468e+02
  -1.498080e+02  -2.750469e+01
  -8.474955e+00  -1.263294e+01
   6.753338e+01   9.881616e+01
   4.702341e+01   1.871489e+02
  -1.134110e+02   1.114652e+02
  -1.890012e+02  -3.780220e+01
  -5.272740e+01  -8.906007e+01
   6.283998e+01  -2.926560e+00
   4.734691e+01   7.336770e+01
  -1.647759e+02   9.339182e+01
  -3.356846e+02  -7.530050e+00
  -3.286809e+02  -1.894957e+02
  -4.807068e+01  -3.183508e+02
   2.237221e+02  -2.846890e+02
   3.679208e+02  -1.060953e+02
   2.060401e+02   7.151072e+01
  -4.235877e+01   5.024794e+01
  -1.135222e+02  -3.391728e+01
   9.660517e+00  -1.215833e+02
   2.469938e+02  -7.829360e+01
   2.435305e+02   9.378081e+01
   1.125524e+02   2.473846e+02
  -9.566573e+01   2.049040e+02
  -1.444748e+02   3.399814e+01
  -8.639124e+01  -7.769445e+01
  -1.605556e+01  -6.055582e+01
   1.014135e+02   9.810713e+01
  -4.740405e+01   1.174734e+02
  -2.124236e+02   6.480242e+01
  -1.724437e+02  -1.206142e+02
  -1.607450e+00  -2.485821e+02
   1.652809e+02  -1.537542e+02
   1.838224e+02  -1.615115e+00
   2.870377e+01   1.074182e+02
  -1.106287e+02   1.194627e+02
  -9.770795e+01  -4.000142e+00
  -2.773054e+01  -9.520307e-01
   1.742027e+01   5.204806e+00
  -4.306411e+00   5.083726e+00
  -5.603744e+01   5.673933e+00
  -1.288361e+02  -8.942304e+01
  -5.189904e+00  -1.876832e+02
   1.703053e+02  -2.062006e+02
   3.212751e+02  -1.744356e+01
   2.157355e+02   1.280355e+02
   5.301311e+01   2.143592e+02
  -1.167700e+02   1.833343e+02
  -1.584910e+02   4.086031e+01
  -4.221484e+01  -6.298493e+01
   1.567439e+01  -1.492151e+01
  -3.687169e+01   4.030585e+01
  -1.666871e+02   1.100523e+01
  -7.691938e+01  -6.765163e+01
   1.894312e+01  -7.671438e+01
   1.186548e+02  -8.344822e+01
   1.061288e+02   9.128381e+00
   7.291526e+00   1.222152e+02
  -1.543495e+02   9.672416e+01
  -2.355520e+02  -2.168373e+01
  -8.585165e+01  -2.220732e+02
   1.450176e+02  -2.480982e+02
   2.728068e+02  -1.005345e+02
   2.427024e+02   8.942686e+01
   1.195230e+02   1.715836e+02
  -4.797391e+01   1.248741e+02
  -4.735530e+01   6.088426e+01
  -1.351349e+02   7.332397e+01
  -7.547032e+01   9.640852e+01
  -1.036616e+02   6.214735e+01
  -1.284498e+02  -2.693311e+01
  -9.122714e+01  -1.739069e+02
   2.807976e+01  -2.318351e+02
   1.686006e+02  -1.386672e+02
   1.734979e+02   2.657120e+01
   1.243491e+02   1.148864e+02
   2.120181e+01   1.747254e+02
  -7.680923e+01   9.716525e+01
  -1.083970e+02   4.376143e+00
   2.665122e+01  -3.118753e+01
   2.655174e+00  -2.004694e+01
  -5.968180e+00  -6.581168e+00
  -1.189965e+02  -7.276389e+01
  -2.138739e+01  -6.924856e+01
   7.991045e+01  -5.893487e+00
   1.494043e+02  -3.850311e+01
   2.253455e+02   2.648854e+01
  -3.299698e+00   7.138601e+01
  -1.486432e+02   6.881492e+01
  -1.850525e+02   1.450749e+01
  -4.657582e+01  -6.927545e+01
   6.023918e+01  -1.590961e+01
   6.164751e+01   3.010602e+01
   2.935773e+01   1.110314e+02
  -4.763551e+01   1.039905e+02
  -8.315559e+01  -1.162028e+01
  -3.662735e+01  -1.003248e+01
  -5.289660e+01  -3.082504e+01
  -5.661041e+01   5.425953e+01
  -8.430018e+01  -2.499265e+01
  -3.706911e+01  -7.615884e+01
   1.655829e+01  -1.905440e+02
   1.072668e+02  -1.572420e+02
   2.086444e+02  -5.410697e+01
   1.214996e+02   9.822782e+01
   1.605699e+00   1.003913e+02
  -8.441981e+01   9.203404e+01
  -6.364309e+01   1.254650e+01
   6.739235e+01  -3.574362e+01
   1.589967e+02   3.585140e+01
   8.993771e+01   5.896993e+01
  -1.027266e+02   1.376824e+02
  -1.783257e+02   5.669140e+01
  -1.555409e+02  -2.548276e+01
  -8.419776e+01  -1.094728e+02
   4.237529e+01  -9.901836e+01
   8.545846e+01   1.484882e+01
  -1.188869e+01  -3.669834e+00
  -9.700761e+01  -4.032161e+01
   2.337298e-01  -1.452214e+02
   8.663712e+01  -1.272126e+02
   1.691631e+02  -4.668490e+01
   1.176471e+02   1.372884e+02
   2.799569e+01   2.051909e+02
  -6.565907e+01   1.617156e+02
  -9.354984e+01  -2.983762e+01
  -6.451883e+01  -8.494606e+01
   3.649275e+01  -7.792738e+01
   3.398960e+01  -1.325183e+01
   8.231346e+01   3.344478e+01
   6.984226e+01   8.006377e+00
  -5.200766e+00  -1.981308e+01
   9.020800e-01   1.346977e+01
   6.975573e+01   8.633253e+01
   3.869899e+01   1.286394e+02
  -1.084218e+01   7.522922e+01
  -1.380535e+02  -2.998960e+01
  -1.298719e+02  -4.511013e+01
  -3.028414e+01  -7.765028e+01
   9.761018e+01  -6.743955e+01
   1.074691e+02  -2.278616e+01
   3.866055e+01  -5.550612e+00
  -6.192486e+00   6.583031e+00
   1.649591e+01   5.318204e+01
   1.121198e+01  -7.908800e+00
  -7.814630e+00   1.253632e+01
  -5.092495e+01   3.164497e+01
  -7.824039e+01  -3.409315e+01
  -1.481433e+01  -8.078698e+01
   1.324453e+02  -1.046868e+02
   2.046107e+02  -4.072025e+01
   1.020709e+02   8.529728e+01
   3.582460e+01   1.240473e+02
  -1.028812e+02   1.679501e+02
  -1.321925e+02   4.445081e+01
  -1.019707e+02  -3.341011e+01
  -3.025903e+01  -4.579028e+01
   1.689457e+01   1.732492e+01
  -5.702220e+01  -2.650433e+01
  -2.429414e+01  -2.183935e+01
  -1.815985e+01  -7.280225e+01
   4.628017e+01  -7.856287e+01
   9.510109e+01  -6.364951e-01
   6.517549e+01   1.156631e+02
   5.966161e+00   9.024653e+01
  -8.064444e+01   4.894742e+01
  -1.119252e+02  -9.364592e+01
  -3.997916e+01  -7.768873e+01
   6.205356e+01  -6.741070e+01
   9.114351e+01   2.937603e+01
   2.861891e+01   2.758426e+01
  -2.561887e+01   8.010239e+01
  -1.652196e+01   5.520995e+01
   3.983394e+01  -7.261463e-01
   3.583699e+01  -3.802922e+01
  -2.990970e+01   3.001231e+00
  -1.094070e+02   2.917470e+01
  -1.038644e+02   2.291780e+01
  -8.283990e+01  -3.839794e+01
   7.462659e-01  -9.488108e+01
   2.693302e+01  -4.315905e+01
   8.226363e+00  -8.283628e+00
   1.935397e+01   5.623389e+01
  -4.155877e+01   6.464284e+01
  -4.247716e+01  -3.500990e+01
   1.529363e+01  -6.330016e+01
   1.836544e+01   6.963108e+00
   4.516009e+01  -4.042277e+00
   1.079909e+01   4.497418e+01
  -6.939979e+00   3.418071e+00
   1.361509e+01  -4.803041e+01
   5.285362e+00  -8.783226e+00
  -8.822442e-01   4.439998e+01
  -1.704596e+01   3.932253e+01
  -6.995990e+01   3.782217e+01
  -4.557832e+01  -1.353853e+01
   2.537423e+01  -8.301292e+01
   6.659517e+01  -2.037460e+01
   9.440554e+01   4.800538e+01
   4.358020e+01   9.524354e+01
  -6.419737e+01   7.317998e+01
  -1.097947e+02   3.014541e+00
  -7.114208e+01  -8.195895e+01
   5.944659e+01  -1.457182e+01
   8.921930e+01  -2.157802e+01
   1.475872e+01   4.041525e+01
  -2.024450e+01   5.832129e+00
  -4.447442e+01  -3.057885e+01
   2.810763e+01  -4.769479e+01
   9.706193e+01  -3.863994e+01
