
 $NMID
 id='ANONYMOUS ', fmtdat='(2E16.6)'
 volume=1.0
 tramp=1.0
 $END
  -4.548712e+03   6.138140e+01
  -2.670494e+03  -2.442799e+03
   8.720952e+02  -2.916330e+03
   2.022910e+03  -8.196820e+02
   9.033163e+02   6.344803e+02
  -6.842654e+02   5.972170e+02
  -9.930431e+02  -4.633476e+02
  -2.105131e+02  -9.397019e+02
   7.729367e+02  -7.893728e+02
   1.021005e+03   1.220454e+02
   4.125957e+02   7.926868e+02
  -2.250309e+02   8.463265e+02
  -5.785934e+02   2.011125e+01
  -4.082467e+02  -6.466134e+02
   2.122579e+02  -8.871873e+02
   4.808976e+02  -4.985492e+01
   1.620652e+02   5.488053e+02
  -1.470227e+02   6.563333e+02
  -4.346982e+02   6.169990e+00
  -5.686646e+02  -3.204286e+02
  -1.055038e+02  -3.807063e+02
   4.519184e+02  -3.256735e+02
   3.664008e+02   3.757168e+01
   1.959433e+01  -6.308414e+01
  -3.479618e+02  -1.743850e+02
  -2.757884e+02  -3.685153e+02
   4.490419e+02  -5.972004e+02
   8.557619e+02   1.252774e+02
   5.207288e+02   4.812389e+02
  -4.635542e+02   5.476767e+02
  -7.970656e+02  -8.805244e+01
  -4.169087e+02  -5.856400e+02
   3.179665e+02  -5.304188e+02
   6.965078e+02  -1.484050e+02
   3.536932e+02   2.490768e+02
   5.905323e+00   5.560365e+02
  -2.545090e+02   2.744353e+02
  -1.479258e+02  -1.074822e+02
   2.830743e+02  -4.867559e+02
   5.064764e+02  -1.196930e+00
   2.383442e+02   7.566626e+02
  -3.924922e+02   7.294424e+02
  -6.330222e+02   1.146645e+01
  -3.000571e+02  -6.110121e+02
   3.040532e+02  -3.687417e+02
   4.274988e+02   3.342454e+02
  -5.872810e+01   6.178746e+02
  -6.051324e+02   1.757277e+02
  -6.626072e+02  -4.445902e+02
  -1.607066e+02  -6.129864e+02
   4.080345e+02  -3.352561e+02
   6.713918e+02   1.239146e+02
   3.742559e+02   3.967345e+02
  -1.706484e+02   3.284366e+02
  -4.446036e+02   9.319381e+00
  -2.260873e+02  -2.299304e+02
   1.582920e+02  -1.167945e+02
   1.502422e+02   1.599750e+02
  -1.421050e+02   2.053440e+02
  -3.013932e+02  -8.984698e+01
  -5.901945e+01  -3.134450e+02
   2.626128e+02  -2.637866e+02
   3.345753e+02  -2.206290e+01
   1.979297e+02   1.705645e+02
  -5.612722e+01   2.886387e+02
  -2.386422e+02   3.429141e+02
  -3.712092e+02   1.906945e+02
  -3.061757e+02  -1.453607e+02
  -9.773558e+01  -4.053312e+02
   6.085391e+01  -3.615145e+02
   1.298703e+02  -1.304034e+02
   5.981025e+01  -3.663342e+01
   8.169529e+01  -1.079732e+02
   2.085879e+02  -1.571644e+02
   2.531835e+02   7.225599e+01
   1.548137e+02   2.903874e+02
  -3.896334e+01   2.815497e+02
  -1.862569e+02   7.068839e+01
  -2.116527e+02  -2.195252e+02
  -2.933055e+01  -2.851016e+02
   2.411194e+02  -1.332113e+02
   3.794046e+02   1.753913e+02
   2.059382e+02   3.571752e+02
  -1.600987e+02   3.060409e+02
  -2.553057e+02   1.204142e+02
  -1.259741e+02  -4.141668e+01
  -3.850667e+01   6.207153e+01
  -2.008303e+02   5.865839e+01
  -3.892085e+02  -6.011715e+01
  -3.680883e+02  -3.490616e+02
  -4.621915e+01  -4.274194e+02
   3.989436e+02  -3.776071e+02
   4.514113e+02  -1.881662e+02
   3.239464e+02   1.151673e+02
   2.305139e+01   2.356940e+02
  -1.779129e+02   2.456168e+02
  -5.418110e+01  -2.506077e+01
   1.701598e+02  -1.304994e+02
   2.407421e+02  -9.314837e-02
   5.538224e+01   2.368641e+02
  -1.608894e+02   2.031341e+02
  -1.650583e+02  -3.595333e+01
   5.795934e+01  -2.028239e+02
   1.875318e+02  -7.437404e+01
   1.797661e+02   2.324270e+02
   5.571611e+00   3.594634e+02
  -1.889493e+02   2.536028e+02
  -3.400377e+02   1.322323e+00
  -3.051608e+02  -2.432365e+02
  -1.389614e+02  -2.554021e+02
   1.378429e+02  -1.820711e+02
   2.033646e+02  -8.133744e+00
   4.652736e+01   1.009677e+02
  -1.539857e+02  -4.330065e+01
  -8.116474e+01  -1.160571e+02
   1.660402e+02  -1.367249e+02
   2.203891e+02  -2.175158e+01
   6.870192e+01   5.124495e+01
  -1.036571e+02   3.413915e+01
  -3.854611e+01  -3.124400e+01
   1.270399e+02  -7.264235e+01
   2.849360e+02  -1.564347e+01
   2.234880e+02   1.175378e+02
   6.316129e+00   2.775624e+02
  -2.240411e+02   2.354135e+02
  -2.919792e+02   1.011674e+02
  -8.386545e+01  -9.914902e+01
   1.284908e+01  -7.344657e+01
   1.322411e+02   2.619265e+01
  -6.250944e+01   1.474150e+02
  -2.080875e+02   7.880254e+01
  -1.861027e+02  -8.126606e+01
  -1.044482e+02  -2.174438e+02
   7.041900e+01  -1.920909e+02
   1.123544e+02  -5.614064e+01
   8.866497e+01   5.451526e+00
   1.884509e+01   2.038341e+01
  -1.007748e+00  -8.057971e+01
   6.023147e+01  -1.185609e+02
   1.902549e+02  -5.298245e+01
   1.972127e+02   1.325259e+02
   1.599950e+01   2.754120e+02
  -1.690025e+02   1.728416e+02
  -2.306576e+02  -1.272767e+01
  -9.160030e+01  -1.132681e+02
   1.155076e+02  -7.611101e+01
   1.070136e+02  -2.287142e+01
   2.885196e+00   4.416889e+01
  -2.925308e+01   2.903017e+01
   1.403056e+01  -7.169227e+00
   4.771443e+01   5.176353e+01
   8.389606e+01   8.094102e+01
   3.913774e+01   1.629553e+02
  -1.161277e+02   1.452437e+02
  -2.717031e+02  -1.351514e+01
  -2.209266e+02  -1.699603e+02
  -4.514915e+01  -2.393816e+02
   1.626622e+02  -1.538181e+02
   1.295403e+02   8.526879e+00
   2.302927e+01   1.014971e+02
  -2.018173e+01   7.252230e+01
   4.324384e+01  -3.825800e+01
   7.920384e+01  -2.714649e+01
   5.347261e+01   4.453777e+01
  -3.421161e+01   9.877011e+01
  -9.219793e+01   6.297349e+01
  -7.360860e+01  -1.527973e+01
   9.776614e+00  -8.839505e+01
   1.055901e+02  -1.216952e+02
   2.150016e+02   1.515416e+01
   8.419010e+01   1.987274e+02
  -1.170905e+02   2.401146e+02
  -2.840871e+02   1.089568e+02
  -2.659645e+02  -1.186538e+02
  -1.023636e+02  -2.016424e+02
   5.076184e+01  -1.636845e+02
   8.388603e+01  -8.410932e+01
   7.598095e+01  -4.174252e+01
   5.202248e+01  -1.278856e+02
   1.117939e+02  -9.055038e+01
   9.718802e+01  -2.959086e+00
   1.534164e+02   1.358245e+02
   5.248633e+01   2.149419e+02
  -5.644584e+01   1.648392e+02
  -1.948548e+02   1.018880e+02
  -1.600682e+02  -1.094582e+02
  -1.985546e+01  -1.702432e+02
   5.803889e+01  -1.022587e+02
   4.435831e+01  -1.034113e+01
  -1.672911e+01   2.320020e+01
  -1.921725e+01   1.577377e+01
   5.466932e+01   5.741260e+00
   6.309117e+01   2.193858e+01
   5.626900e+01   2.118313e+01
  -5.240908e+01   2.229735e+01
  -1.286229e+02  -1.632585e+00
  -1.395999e+02  -5.859315e+01
  -2.970009e+01  -5.409665e+01
   1.074683e+02  -9.274629e+01
   1.250526e+02  -2.177161e+01
   4.188936e+01   8.360575e+01
  -6.030132e+01   5.267440e+01
  -1.054984e+02  -5.004799e+01
   1.937211e+01  -8.858582e+01
   5.668439e+01  -4.944383e+01
   4.503606e+01   4.554550e+01
   2.190421e+01   4.563955e+01
   8.192271e+01   1.361519e+01
   6.999858e+01  -1.830709e+01
   6.927579e+01   2.531794e+01
   4.975013e+01   6.534993e+01
  -4.296204e+01   1.198289e+02
  -1.350776e+02   1.572670e+02
  -1.755683e+02   5.622276e+01
  -1.392839e+02  -7.963135e+01
   6.180365e+00  -1.328148e+02
   8.940799e+01  -6.779805e+01
   1.117055e+02   5.948159e+01
  -6.861385e+01   3.300845e+01
  -1.684335e+02  -4.519274e+01
  -9.697459e+01  -1.098223e+02
   9.970904e+01  -8.745076e+01
   2.186183e+02  -5.531875e+01
   1.622946e+02   6.952688e+01
   5.110132e+01   6.788557e+01
  -2.273743e+01   1.277328e+02
  -5.509363e+01  -2.553278e+01
   5.460340e+01  -1.989345e+01
   6.129793e+01   4.375377e+01
   7.511383e+01   1.214474e+02
  -2.817429e+01   1.724347e+02
  -1.542504e+02   7.027240e+01
  -1.113004e+02  -5.498261e+01
  -4.911653e+01  -1.731073e+02
   6.424355e+01  -1.382793e+02
   6.582066e+01   4.768328e+00
   7.610509e+01   2.746680e+01
   1.908838e+01   1.142748e+02
   1.716417e+01   2.216678e+01
   5.414940e+00  -2.172045e+01
  -2.907938e+01  -9.054561e+00
  -1.153560e+01   1.948036e+01
  -2.528333e+01   1.245207e+01
  -3.750145e+01  -9.355077e+01
   8.723204e+00  -9.280418e+01
   2.985108e+01  -1.666446e+01
   1.524794e+02   9.579805e+01
   1.070450e+02   6.400850e+01
   5.273609e+00   2.139659e+01
  -1.237112e+02   4.234872e+01
  -1.301356e+02   9.296879e+00
  -1.189102e+01   2.543862e+00
   3.429589e+01   5.011729e+00
   8.338332e+00  -1.322324e+01
  -1.189814e+01  -2.965127e+01
   4.598991e+00  -6.177908e+01
   8.536805e+01  -1.848993e+00
   1.056401e+02   4.252152e+00
   1.752188e+01   7.117636e+01
  -1.102758e+02   1.067426e+02
  -2.071190e+02   4.679974e+01
  -1.510748e+02  -4.354436e+01
  -3.377198e+01  -1.771416e+02
   3.529727e+01  -1.496845e+02
   1.160113e+02  -7.799560e+01
   6.786333e+01   4.812124e+00
   3.422952e+01   3.598952e+01
  -2.440153e+01  -1.012064e+01
   2.538324e+01   9.529962e+00
   2.945979e+01   8.271277e+01
  -1.797826e+01   4.501392e+01
  -2.054479e+01   4.341631e+01
  -1.108517e+02  -1.501247e+01
  -7.377459e+01  -1.073403e+02
  -3.143569e+01  -1.271343e+02
   5.785035e+01  -4.829722e+01
   1.105462e+02   7.862627e+01
   4.050871e+01   6.070496e+01
  -6.585381e+01   7.174865e+01
  -1.117602e+02   1.407088e+01
  -5.978532e+01  -4.397370e+01
   1.931412e+01  -4.229746e+01
  -5.162093e-01   9.889966e+00
  -5.520304e+01  -8.220028e+00
  -5.742261e+01  -2.283337e+01
   4.587570e+01  -2.599953e+01
   1.162529e+02  -8.025941e+01
   9.650140e+01  -1.109918e+02
   7.191515e+01   2.056284e+01
  -3.967303e+01   7.527977e+01
  -5.371649e+01   9.826528e+01
  -6.467868e+01   3.195150e+01
  -1.671618e+01  -4.881021e+01
   1.550612e+01  -6.573328e+01
   2.429858e+01   9.759568e+00
   8.983130e+00   4.115565e+01
  -4.433379e+01   6.025061e+01
   1.709003e+01  -3.368569e+01
  -1.256017e+01  -2.764639e+01
  -7.656947e+01  -1.387612e+01
   4.208944e+01   3.724541e+01
   1.566287e+01   1.170638e+01
  -5.222442e+00  -1.521466e+01
   4.086930e+01  -5.643451e+01
   2.127629e+01  -3.707605e+00
   4.045254e+01   7.190721e+01
  -4.010540e+01   9.899750e+01
  -9.450117e+00   4.450856e+01
  -8.762627e+01  -6.347740e+01
  -4.942854e+01  -6.794576e+01
   4.123211e+00  -3.501971e+01
   9.872713e+01   1.537375e+00
   4.517352e+01   1.016920e+01
  -5.062619e+01   8.367498e+00
  -6.756608e+01  -2.146018e+00
   1.991046e+01   1.982771e+01
   1.769277e+01  -7.973195e+00
   3.293939e+01   2.626134e+01
  -6.736940e+01   5.285056e+01
  -8.319936e+01   5.279170e+01
