
 $NMID
 id='ANONYMOUS ', fmtdat='(2E16.6)'
 volume=1.0
 tramp=1.0
 $END
   2.491813e+03  -1.229757e+02
   1.235190e+03   1.307299e+03
  -5.198257e+02   1.452197e+03
  -1.376480e+03   5.055500e+02
  -5.879784e+02  -4.296300e+02
   3.793807e+02  -4.288255e+02
   5.269481e+02   2.489070e+02
   6.386214e+01   5.555516e+02
  -2.963536e+02   5.063049e+02
  -5.191226e+02  -5.717088e+01
  -3.843603e+02  -4.497757e+02
   3.100411e+02  -4.473902e+02
   9.638854e+01  -1.867041e+02
   2.391790e+02   3.663983e+02
  -3.125572e+02   4.805484e+02
  -2.459108e+02   1.095714e+02
  -1.927214e+02  -4.114670e+02
  -2.359528e+01  -1.599604e+02
   3.015939e+02  -6.594921e+01
   3.731860e+02   1.195805e+02
  -1.745002e+02   3.713716e+02
  -9.811286e+01   4.983089e+01
  -4.810687e+01  -7.037869e+01
   8.488607e+01  -9.895821e+01
   2.865594e+02   2.028874e+02
   1.963787e+02   2.388615e+02
  -1.930233e+02   3.128146e+02
  -4.041274e+02  -9.533608e+01
  -2.069853e+02  -2.976058e+02
   2.060698e+02  -3.100302e+02
   3.956701e+02  -4.766591e+01
   1.656070e+02   2.809572e+02
  -1.256623e+02   3.043987e+02
  -2.675412e+02   2.055417e+02
  -1.786052e+02  -3.676958e+01
  -5.290092e+01  -2.230242e+02
   9.382338e+01  -1.410970e+02
   1.190319e+02   1.026843e+01
  -3.733002e+01   2.508136e+02
  -2.407808e+02  -4.313718e+01
  -1.939749e+02  -3.343204e+02
   2.119441e+02  -3.602029e+02
   4.267377e+02   3.926449e+00
   1.515119e+02   2.714499e+02
  -1.068655e+02   2.157470e+02
  -1.901024e+02  -9.408264e+01
   1.755645e+01  -3.028901e+02
   2.563461e+02  -5.205160e+01
   2.670199e+02   2.103112e+02
   3.220242e+01   3.211005e+02
  -1.909825e+02   1.717337e+02
  -3.264497e+02   4.503477e+00
  -1.780472e+02  -1.957811e+02
   7.954565e+01  -1.945664e+02
   2.393893e+02  -3.580365e+01
   1.197919e+02   1.058224e+02
  -8.895541e+01   1.089779e+02
  -1.061888e+02  -5.993365e+01
   8.578988e+01  -1.449233e+02
   1.870285e+02   2.183094e+01
   7.327527e+01   1.717700e+02
  -9.351558e+01   1.813566e+02
  -1.686273e+02   4.303789e+01
  -4.706775e+01  -6.349760e+01
  -1.996894e+01  -1.052353e+02
   8.431781e+01  -2.072521e+02
   1.318070e+02  -1.404715e+02
   1.926352e+02   3.029894e+01
   7.578798e+01   2.466630e+02
  -5.937990e+01   1.748293e+02
  -9.033801e+01   5.353058e+00
   9.121106e+00  -3.834727e+01
   1.817952e+01   8.996947e+00
  -6.476942e+01   5.280384e+01
  -1.323659e+02  -6.915920e+00
  -7.927091e+01  -1.580278e+02
   3.294256e+01  -1.577026e+02
   1.076981e+02  -2.033802e+01
   9.727019e+01   1.294197e+02
  -3.107986e+01   1.686832e+02
  -1.273093e+02   1.167685e+02
  -2.358345e+02  -5.702351e+01
  -1.361549e+02  -2.288064e+02
   4.249738e+01  -1.712028e+02
   1.443571e+02  -6.592039e+01
   9.192904e+01   1.158373e+01
   6.332348e+01  -6.020785e+01
   8.967379e+01  -6.778300e+00
   2.239316e+02   1.271899e+01
   1.581110e+02   1.434298e+02
   1.741777e+01   1.985011e+02
  -1.437910e+02   1.779026e+02
  -2.150939e+02   9.911929e+01
  -1.465646e+02   1.029907e+01
  -3.289099e+01  -1.126471e+02
   6.378913e+01  -1.350572e+02
   1.237896e+01  -1.823847e+01
  -2.677445e+01   3.361017e+01
  -1.167522e+02  -3.619964e+01
   2.403059e+01  -8.396151e+01
   9.226106e+01  -6.922385e+01
   6.561004e+01   5.782914e+01
  -1.656819e+01   8.379979e+01
  -1.080998e+02  -5.300187e+01
  -6.281988e+01  -1.037786e+02
   3.055681e+01  -1.246462e+02
   1.324344e+02  -9.853842e+01
   1.662130e+02   1.177031e+01
   1.470655e+02   1.112292e+02
   7.868094e+01   1.245523e+02
  -1.585267e+01   1.125966e+02
  -1.105294e+02   1.834518e+01
  -4.324516e+01  -1.795875e+01
   1.071122e+01  -7.381381e+00
   3.937728e+01   5.799979e+01
  -5.553310e+01   9.206955e+01
  -8.407712e+01   1.093259e+01
  -4.528842e+01  -1.535968e+01
   2.962629e+01  -4.317304e+01
   3.909902e+01   2.203925e+01
  -9.126059e+01   7.561905e+01
  -1.922918e+02   3.141727e+01
  -1.460475e+02  -1.002461e+02
  -6.233931e+01  -1.478690e+02
   8.628869e+01  -1.323975e+02
   1.539807e+02  -1.090837e+02
   9.069138e+01   2.803388e+01
  -5.991958e+00   4.409986e+01
  -4.546782e+01   1.192382e+00
  -7.943499e+00  -4.543908e+01
   9.616152e+01  -1.231620e+01
   8.568719e+01   5.418666e+01
   3.212153e+01   9.348036e+01
  -2.405425e+01   1.939469e+01
  -6.905743e+01   2.997626e+00
  -2.860417e+01   1.609083e+00
  -1.766992e+01   2.951380e+01
   1.675125e+01   4.264798e+01
  -6.170579e+01   4.680769e+01
  -1.094559e+02   2.011085e+01
  -5.609436e+01  -4.145223e+01
  -4.925168e+00  -6.552481e+01
   1.014961e+02  -6.303771e+01
   7.604258e+01  -1.599030e+01
   1.973380e+01   7.440647e+01
  -6.437331e+01   5.392329e+01
  -2.640419e+01   5.258701e+00
  -2.225464e+01  -1.117994e+01
  -9.119192e+00  -5.458911e+00
   2.073328e+01  -5.696962e+00
  -2.021415e+01  -1.822203e+01
  -5.464822e+01  -1.142298e+01
   3.267085e+00  -9.614297e+01
   7.806947e+01  -1.090182e+02
   1.170859e+02   1.135706e+00
   1.076697e+02   6.641004e+01
   1.616738e+01   8.428598e+01
  -4.068534e+01   7.113496e+01
  -3.695651e+01  -1.128165e+01
  -1.007586e+01  -2.606340e+01
  -1.002754e+01  -1.289403e+01
   3.056847e+00   3.187338e+01
  -5.140115e+01   2.000774e+01
   3.137634e+00  -2.445417e+01
   1.818345e+01  -2.928670e+01
   7.020281e+01  -3.810676e+01
   2.788662e+01   4.273733e+01
   9.861512e-01   8.850470e+01
  -1.261055e+02   9.540484e+01
  -1.169196e+02  -7.424086e+01
  -9.515663e+01  -1.171566e+02
   7.495228e+01  -1.333911e+02
   1.448298e+02  -4.536581e+01
   1.340741e+02   4.344165e+01
   4.581272e+01   6.309099e+01
  -4.958714e+01   7.148915e+01
  -6.539490e+01   5.231195e+00
  -4.679744e+01   1.740959e+01
  -3.267981e+01   1.027255e+01
  -2.394565e+01   1.590699e+01
  -4.017345e+00  -3.559619e+00
  -5.935488e+01  -6.329739e+01
   8.029612e+00  -1.124245e+02
   2.366615e+01  -8.356124e+01
   8.451275e+01   3.012529e+01
   5.400881e+01   2.719240e+01
  -1.412077e+01   8.322844e+01
  -5.599762e+01   7.157661e+01
  -1.934721e+01  -1.086956e+00
   4.264370e+01   2.747317e+00
   5.992094e+00  -5.190466e+01
  -3.063384e+01   2.577392e+01
  -1.211035e+01   8.983364e+00
  -2.176547e+01  -3.267168e+01
   3.342307e+01   1.768583e+01
   6.102499e+01  -4.727376e+00
   7.937384e+01   4.814698e+01
  -1.220812e+01   9.765975e+01
  -3.196330e+01   5.598530e+01
  -6.281683e+01   1.661599e+01
  -4.507156e+00  -3.041831e+01
   4.327536e+01  -2.455434e+01
   4.831980e+01  -6.434718e+00
   1.516313e+00   2.651849e+00
   1.854417e+01   4.400286e+01
  -1.928835e+01   2.176302e+01
  -3.823730e+01  -3.152502e+01
  -1.597401e+01  -3.477297e+01
  -7.711744e+01  -1.603201e+01
  -3.179056e+01  -1.755067e+01
  -3.107935e+00  -2.842953e+01
   4.486589e+01  -7.322951e+01
   1.037509e+02  -7.269953e+01
   8.418876e+01   2.449487e+01
   6.957747e+01   8.392532e+01
  -2.819209e+00   9.915017e+01
  -4.288456e+01   1.330863e+01
  -2.256033e+01   9.860767e-01
  -1.558839e+01   1.221653e+01
   5.479390e+01   3.795194e+01
   4.282344e+01   6.154124e+01
  -5.262666e+01   4.234911e+01
  -1.200592e+02   5.758448e+01
  -8.324160e+01  -7.167661e+00
  -1.700906e+01  -2.639817e+01
   2.535400e+01  -5.236516e+01
  -1.253054e+01  -1.981529e+01
  -1.103287e+01   3.216637e+01
  -5.849874e+01   3.791596e+00
  -8.081869e+00  -6.413984e+01
   3.489279e+01  -1.037449e+02
   5.136620e+01  -4.488607e+01
   6.747453e+01   1.952032e+01
  -1.257204e+01   9.703412e+01
  -6.114271e+00   7.775766e+01
  -3.406007e+01  -3.462562e+00
  -1.686624e+01  -5.913547e+01
  -3.113685e+01  -6.880141e+01
  -2.440299e+01  -1.867433e+01
  -3.434901e+00  -3.941709e+01
   3.186015e+01  -4.514752e+00
   2.565480e+01   5.227523e+00
   2.151964e+01  -1.035109e+01
   2.817151e+01   8.893240e+01
   3.124288e+01   2.165356e+01
  -1.157874e+01   3.678333e+01
  -6.250871e+01  -1.302677e+01
  -7.981924e+01  -4.409371e+01
  -3.828700e+01  -5.809312e+01
   1.581998e+01  -1.888756e+01
   3.313480e+01   2.661201e+01
  -6.064191e+00  -3.612382e+00
  -1.686505e+01   1.973706e+01
   2.903664e+01  -9.103714e+00
   3.597037e-02   2.289038e+00
  -3.205888e+00  -1.503483e+00
  -3.183784e+01  -6.863823e+00
  -4.858747e+01   5.679385e+00
  -1.485922e+01  -3.001317e+01
   8.313467e+01  -6.851005e+01
   7.852147e+01  -3.700228e+01
   6.416399e+01   3.695420e+01
  -4.342785e+01   1.039558e+02
  -3.324608e+01   8.283158e+01
  -4.584208e+01   3.283402e+00
  -5.988725e+01   5.712072e+00
  -2.808109e+01  -9.760697e+00
   2.538948e+01  -6.355336e+00
   9.340045e+00   9.833486e+00
  -2.067254e+01  -9.950424e-01
  -4.378855e+01  -5.358575e+01
   1.605490e+01  -3.365734e+01
   3.214713e+01   2.663401e+01
   2.968603e+01   5.090803e+01
   2.301639e+01   4.668518e+01
  -2.583979e+01   3.566637e+01
  -1.800207e+01  -1.199304e+01
  -4.812763e+00  -6.083704e+01
   4.326324e+00  -9.053272e+00
   4.917395e+01  -7.063494e+00
  -6.430587e+00  -1.158086e+01
   2.061159e+01  -1.312827e+01
  -2.283008e+00   2.279925e+01
   5.884961e+00  -1.108667e+01
   3.448883e+01   1.590388e+01
   3.578603e+01   3.767122e+01
  -7.362459e+01   3.571471e-01
  -3.708714e+01   3.363641e+01
  -4.586481e+01  -4.327135e+01
  -1.306750e+01  -3.860340e+01
   1.969599e+01  -5.252758e+01
   8.064702e+00  -4.523275e+00
  -2.672204e+01   2.524045e+01
  -5.640609e-01  -1.496313e+01
  -1.097689e+00  -2.104566e+01
  -1.955317e+01  -5.036959e+01
   2.248073e+01  -6.179874e+00
   1.941613e+01   5.108842e+00
   1.551164e+01   1.281267e+01
   1.257483e+01   1.518840e+01
   6.049177e-01  -2.060627e+01
   3.735701e+00   1.133986e+01
  -1.200259e+01   4.684748e+01
  -4.751951e+00   4.671090e+01
  -1.748523e+01  -3.148400e+00
  -6.016348e+00  -4.357207e+01
  -6.053222e+00  -8.359306e+01
   1.367719e+01   6.801689e-01
   4.284781e+01   5.131430e+01
   1.908689e+01   4.897352e+01
  -2.306201e+01   2.842575e+01
  -2.049748e+01  -3.645736e+01
  -2.376516e+01   1.916429e+01
   4.263667e+00  -6.155311e+00
   3.440322e+01  -1.673134e+00
   2.192234e-01   9.876409e+00
  -4.776727e+01   3.454390e+00
  -1.645622e+01   4.156216e+00
   1.209628e+01  -2.382136e+00
   7.673501e+01  -3.186579e+01
