
 $NMID
 id='ANONYMOUS ', fmtdat='(2E16.6)'
 volume=1.0
 tramp=1.0
 $END
   4.545827e+03   5.206341e+00
   2.619814e+03   3.016592e+03
  -9.343402e+02   2.936003e+03
  -2.352686e+03   8.342285e+02
  -9.918811e+02  -7.557147e+02
   7.738088e+02  -5.704400e+02
   1.039874e+03   4.826157e+02
   6.003806e+01   1.261345e+03
  -8.773395e+02   8.352257e+02
  -1.062865e+03  -2.209455e+02
  -3.604591e+02  -9.111962e+02
   3.839079e+02  -8.368631e+02
   9.051711e+02  -1.455770e+02
   3.886062e+02   7.965734e+02
  -3.344140e+02   7.186541e+02
  -4.891684e+02  -3.954930e+01
  -4.002825e+02  -6.964978e+02
   1.759168e+02  -4.152663e+02
   8.352742e+02  -2.066289e+02
   4.419391e+02   2.921494e+02
  -1.077735e+02   3.425315e+02
  -3.214508e+02   2.471964e+02
  -1.656475e+02   2.447391e+02
  -1.767704e+01  -2.067987e+02
   4.607489e+02  -5.022555e+01
   2.310716e+02   3.546190e+02
  -5.427774e+02   5.363705e+02
  -9.431450e+02  -1.109539e+02
  -4.809574e+02  -6.936036e+02
   3.865376e+02  -5.432479e+02
   8.553739e+02   8.544744e+01
   3.956678e+02   4.885254e+02
  -2.634535e+02   5.150251e+02
  -5.256299e+02   1.707275e+02
  -4.899860e+02  -2.065513e+02
  -1.212268e+02  -4.614556e+02
   1.935680e+02  -3.433602e+02
   2.329989e+02   1.755022e+02
  -1.384414e+02   4.868150e+02
  -4.415393e+02  -2.328864e+01
  -2.943548e+02  -6.815437e+02
   3.269714e+02  -8.032198e+02
   5.997976e+02   5.299965e+01
   3.026219e+02   6.583417e+02
  -3.037444e+02   3.623175e+02
  -4.147852e+02  -3.970151e+02
  -5.109970e+00  -6.185104e+02
   5.634653e+02  -1.903756e+02
   6.933435e+02   3.423650e+02
   2.354164e+02   6.233742e+02
  -4.202989e+02   4.293658e+02
  -6.682371e+02  -6.985477e+01
  -3.787581e+02  -4.257339e+02
   1.780832e+02  -4.437768e+02
   4.953009e+02  -6.201864e+01
   2.946222e+02   2.587311e+02
  -1.252135e+02   1.090149e+02
  -1.816483e+02  -1.978318e+02
   1.602270e+02  -1.774881e+02
   3.637388e+02   7.811049e+01
   1.950222e+02   3.281712e+02
  -1.553206e+02   2.750563e+02
  -3.400502e+02   5.469491e+01
  -2.035427e+02  -9.278492e+01
   2.627201e+01  -1.934580e+02
   2.118163e+02  -3.207297e+02
   3.415309e+02  -2.291806e+02
   2.958035e+02   1.724220e+02
   7.260443e+01   5.103426e+02
  -1.507083e+02   4.451401e+02
  -1.247498e+02   1.165034e+02
   1.053606e+00  -5.336109e+01
   1.871214e+01   8.567714e+01
  -1.302338e+02   1.527156e+02
  -3.519037e+02  -7.971817e+00
  -2.194224e+02  -2.680887e+02
   5.547480e+01  -3.104579e+02
   2.821545e+02  -3.722219e+01
   2.324374e+02   1.938788e+02
   5.441975e-01   2.866877e+02
  -3.262473e+02   1.314845e+02
  -4.081164e+02  -1.789393e+02
  -1.643136e+02  -4.283449e+02
   1.430477e+02  -3.110552e+02
   2.731582e+02  -8.106121e+01
   1.542839e+02   2.908801e+01
   8.688723e+01  -4.607456e+00
   2.123100e+02  -9.177802e+01
   3.768414e+02   1.042101e+01
   3.236083e+02   2.908380e+02
   1.090219e+01   4.738444e+02
  -3.190633e+02   4.565708e+02
  -4.721491e+02   1.840952e+02
  -3.405790e+02  -1.065685e+02
  -2.845591e+01  -3.151280e+02
   1.560197e+02  -2.565974e+02
   7.095410e+01  -1.290993e+01
  -1.484028e+02   1.152528e+02
  -2.544662e+02   1.350327e+00
  -5.096460e+01  -2.104537e+02
   1.342104e+02  -2.063944e+02
   1.847992e+02   3.250177e+01
  -4.928179e+01   1.501509e+02
  -1.882878e+02  -5.129043e-01
  -1.429293e+02  -2.980919e+02
   7.046697e+01  -3.339089e+02
   2.408591e+02  -1.751079e+02
   2.766064e+02   7.420606e+01
   2.573973e+02   2.602081e+02
   1.469873e+02   2.484762e+02
  -5.059475e+01   1.320424e+02
  -1.459006e+02  -2.041677e+01
  -8.316422e+01  -6.727620e+01
   8.446122e+01   6.236075e+00
   5.256305e+01   1.115138e+02
  -9.076463e+01   1.237279e+02
  -1.844633e+02   2.089413e+01
  -1.114214e+02  -5.840283e+01
   5.069485e+01  -3.287122e+01
   2.141829e+01   5.854856e+01
  -9.874463e+01   1.216905e+02
  -2.679997e+02   4.180912e+01
  -2.666852e+02  -1.030229e+02
  -6.618409e+01  -2.570239e+02
   1.639598e+02  -2.878950e+02
   2.785231e+02  -1.528999e+02
   2.112857e+02   5.501301e+01
   1.821704e+01   1.494646e+02
  -7.865622e+01   3.368247e+01
   3.318857e+01  -9.746726e+01
   1.792891e+02  -3.712163e+01
   2.440361e+02   1.269235e+02
   1.178327e+02   2.003504e+02
  -8.858702e+01   1.929956e+02
  -1.398364e+02   6.382567e+01
  -9.150498e+01  -3.700205e+01
   7.958293e+01  -3.212867e+01
   9.858728e+01   6.148577e+01
  -4.175827e+01   1.477818e+02
  -1.995038e+02   7.992379e+01
  -2.248999e+02  -1.056377e+02
  -3.246092e+01  -2.209282e+02
   1.960178e+02  -1.705393e+02
   2.325335e+02  -2.629680e+00
   3.854893e+01   9.955396e+01
  -8.431957e+01   9.953643e+01
  -9.229228e+01   5.404668e+00
  -2.887768e+01  -1.382767e+01
   1.322320e+01  -4.563450e+01
  -1.963681e+01   3.099651e+01
  -1.091981e+02   2.611694e+01
  -7.675419e+01  -3.640283e+01
  -8.142015e+00  -1.917030e+02
   1.052653e+02  -1.981572e+02
   1.860487e+02  -6.190480e+01
   1.620230e+02   1.549125e+02
   2.394324e+01   2.507977e+02
  -1.596006e+02   1.196968e+02
  -1.773402e+02   4.505303e+01
  -5.827390e+01  -6.894613e+01
  -1.689938e+01  -3.083722e+01
  -5.210332e+01   1.106219e+00
  -5.269703e+01   1.694745e+01
  -6.969803e+01  -6.720954e+01
   9.010621e+00  -1.086550e+02
   9.640062e+01  -2.912151e+01
   8.314810e+01   6.044730e+01
  -1.691438e+01   1.039008e+02
  -1.117245e+02   7.337307e+01
  -2.063073e+02  -3.908676e+01
  -6.722120e+01  -1.721273e+02
   1.185816e+02  -2.242232e+02
   2.579790e+02  -1.080310e+02
   2.384335e+02   6.532047e+01
   1.289334e+02   1.856444e+02
  -4.678550e+01   1.715098e+02
  -1.326278e+02   7.831873e+01
  -8.175617e+01   6.767347e+01
  -6.530674e+01   2.280235e+01
  -1.194618e+02   4.162838e+01
  -1.521559e+02  -7.434322e+01
  -1.559997e+02  -1.043411e+02
  -5.583068e+01  -2.290155e+02
   1.382500e+02  -1.946935e+02
   2.152470e+02  -1.342334e+01
   1.581712e+02   1.281466e+02
   2.463223e+01   1.674303e+02
  -1.096892e+02   1.534561e+02
  -1.148311e+02   2.858280e+01
  -6.879464e+01  -3.364656e+01
   3.269314e+01  -2.567927e+01
  -1.620057e+01  -6.936359e+01
  -6.723826e+01  -4.042064e+01
  -4.527428e+01  -6.261955e+01
   1.118317e+01  -3.206179e+01
   1.502161e+02  -2.918607e+01
   2.022649e+02   1.308103e+01
   7.405913e+01   8.369946e+01
  -8.625702e+01   9.331959e+01
  -1.407741e+02   4.772139e+01
  -5.227715e+01  -9.069717e+00
   4.646190e+01  -2.822608e+01
   1.491611e+02   4.641637e+01
   4.143391e+01   7.090514e+01
  -7.364050e+01   7.740421e+01
  -9.230362e+01   1.013187e+01
  -6.749784e+01  -1.985119e+01
   8.034680e-02  -2.069794e+01
  -7.446327e+01  -3.816199e+01
  -5.823313e+01  -3.998935e+01
  -5.877300e+01  -7.226559e+01
   2.016185e+01  -1.866516e+02
   1.303878e+02  -1.500577e+02
   1.832141e+02  -2.735984e+01
   1.435355e+02   2.295791e+01
   1.098939e+01   1.258114e+02
  -7.129693e+01   8.796527e+01
  -7.228968e+01  -4.769513e+00
   7.442453e+01  -4.675774e+01
   1.422088e+02   2.926703e+00
   4.108625e+01   1.229941e+02
  -1.145718e+02   1.649035e+02
  -2.270363e+02   6.713537e+01
  -1.696236e+02  -3.144874e+01
  -6.878838e+01  -1.416611e+02
   9.871319e+01  -8.646325e+01
   6.445489e+01   7.239729e+00
  -5.613078e+01   4.431580e+01
  -6.461931e+01  -4.486587e+01
  -8.974005e+01  -1.016437e+02
   5.055032e+01  -1.369116e+02
   1.688660e+02  -3.887969e+01
   1.429064e+02   1.045625e+02
   2.088241e+01   2.194411e+02
  -1.135764e+02   1.404590e+02
  -1.138244e+02  -3.708941e+00
  -7.509017e+01  -1.194885e+02
   7.453207e+00  -9.128068e+01
   5.384217e+01  -4.572821e+00
   3.601500e+01   2.527866e+01
   1.261535e+01   1.303690e+01
   1.372031e+01  -2.381930e+01
   6.046800e+01   1.662439e+01
   1.010321e+02   7.398407e+01
   6.346240e+01   8.723647e+01
  -6.329293e+01   8.291979e+01
  -1.716177e+02  -1.915831e+01
  -1.074647e+02  -5.287691e+01
  -9.132288e+00  -9.175903e+01
   8.618954e+01  -3.219188e+01
   7.220321e+01  -3.781559e+01
  -2.926686e+01  -1.902480e+01
  -5.210852e+01   5.053436e+01
  -7.271826e+00   4.789257e+01
   4.457805e+01  -1.657689e+00
  -2.307100e+01  -2.224022e+01
  -7.861075e+01  -3.840011e+01
  -8.175007e+01  -6.187245e+01
  -4.717733e+01  -9.185528e+01
   1.193983e+02  -6.908337e+01
   1.539367e+02  -5.479246e+01
   1.578593e+02   6.939089e+01
   5.348010e+01   1.648316e+02
  -7.594208e+01   1.629046e+02
  -5.372360e+01   4.414844e+01
  -8.461279e+01  -3.078564e+01
  -4.879226e+01  -3.605613e+01
  -5.384248e+00  -3.155996e+01
  -1.716617e+01  -3.093170e+01
  -4.970842e+01  -5.440520e+01
  -1.572037e+01  -9.088615e+01
   3.802623e+01  -4.596309e+01
   1.042923e+02   1.754572e+01
   2.997039e+01   8.958406e+01
   9.869158e+00   2.781664e+01
  -8.264830e+01   2.417659e+01
  -8.748204e+01  -4.092949e+01
  -5.360818e+01  -1.129264e+02
   7.884566e+01  -6.135744e+01
   9.823059e+01  -8.798179e+00
   6.570682e+01   2.769502e+01
  -4.182575e+01   1.026707e+02
  -3.091727e+01   1.252205e+01
   3.090317e+01  -8.110141e+00
   4.170294e+01  -2.594527e+01
  -1.810722e+01   5.914632e+01
  -9.220075e+01   7.982747e+01
  -9.519522e+01   4.013348e+01
  -8.819538e+01  -1.035432e+01
   1.728777e+01  -5.087422e+01
   5.082621e+01  -4.936316e+01
   3.594335e+01  -5.433640e+01
  -2.509396e+00   6.333115e+01
   1.316293e+01   4.680827e+01
  -3.434601e+01  -1.093109e+01
  -5.608037e+00  -6.441802e+01
   2.345725e+01  -5.626946e+01
   5.154750e+01   2.353879e+01
   1.751034e+01   5.938267e+00
   4.610279e+01  -1.287703e+01
   8.045199e+00  -5.979628e+00
   2.287407e+01   1.768997e+00
  -1.041337e+01   6.265868e+01
  -4.068354e+01   4.797212e+01
  -4.962659e+01  -2.021685e-01
  -3.801046e+01  -4.731578e+01
  -5.350616e+00  -5.332791e+01
   7.358044e+01  -2.243570e+01
   3.011127e+01   3.424982e+01
   3.833928e+01   7.358603e+01
  -1.281376e+00   2.112954e+01
  -9.521265e+01  -2.456661e+00
  -7.570864e+01  -1.191990e+01
   3.006568e+01  -2.676800e+01
   8.672482e+01  -3.286968e+01
   1.068470e+01   3.896910e+01
  -2.556774e+01  -2.394592e+00
  -3.193957e+01  -4.344714e+01
   1.677227e+01  -3.579200e+01
   9.522983e+01  -2.427404e+01
