
 $NMID
 id='ANONYMOUS ', fmtdat='(2E16.6)'
 volume=1.0
 tramp=1.0
 $END
  -3.516949e+03  -1.640858e+02
  -2.065421e+03  -2.053200e+03
   6.934474e+02  -2.225743e+03
   1.869470e+03  -5.769204e+02
   8.924015e+02   7.210214e+02
  -5.444899e+02   6.319069e+02
  -7.811842e+02  -2.521776e+02
  -9.379233e+01  -9.363257e+02
   5.857942e+02  -7.033426e+02
   7.875821e+02   1.401747e+01
   3.085850e+02   8.234237e+02
  -2.156038e+02   6.596997e+02
  -5.080610e+02   4.187885e+01
  -4.039720e+02  -5.500726e+02
   2.213353e+02  -7.756668e+02
   5.696289e+02  -1.178662e+02
   1.913833e+02   6.940686e+02
  -3.005204e+02   6.757411e+02
  -3.879722e+02  -2.984167e+01
  -3.114226e+02  -1.405340e+02
  -1.261788e+02  -5.747746e+02
   1.432310e+02  -6.623489e+01
   9.388780e+01   2.534280e+01
  -2.606513e+02  -1.045557e+02
  -3.926970e+02  -2.102948e+02
  -2.175110e+02  -5.116199e+02
   3.139898e+02  -4.565697e+02
   7.076705e+02   1.186628e+02
   4.354470e+02   3.309287e+02
  -3.311039e+02   3.705550e+02
  -5.905397e+02  -1.057407e+02
  -2.165654e+02  -4.339335e+02
   3.515595e+02  -5.124918e+02
   5.460809e+02  -1.644308e+02
   3.336816e+02   1.749735e+02
   7.561424e+01   4.595448e+02
  -1.749852e+02   1.536584e+02
  -1.766079e+02  -2.060197e+02
   1.310033e+02  -3.537118e+02
   4.425377e+02   1.578092e+01
   2.008082e+02   6.583148e+02
  -2.419098e+02   5.981567e+02
  -4.546540e+02  -5.630047e+01
  -1.627713e+02  -4.208118e+02
   3.315019e+02  -2.345091e+02
   3.611322e+02   3.173403e+02
  -9.483221e+01   4.627233e+02
  -5.259823e+02   1.477202e+02
  -5.073227e+02  -2.948621e+02
  -1.298546e+02  -4.754129e+02
   3.780129e+02  -2.865153e+02
   5.644304e+02   5.857784e+01
   3.164889e+02   3.493586e+02
  -1.759540e+02   3.491312e+02
  -3.994575e+02   4.281077e+01
  -1.839890e+02  -1.706378e+02
   7.501666e+01  -1.344479e+02
   7.299496e+01   1.044919e+02
  -1.657107e+02   1.358958e+02
  -2.313486e+02  -8.461115e+01
  -7.645900e+01  -2.639952e+02
   2.145912e+02  -2.138280e+02
   2.784480e+02  -4.117663e+01
   1.349823e+02   8.409391e+01
  -5.737390e+01   2.153570e+02
  -2.103823e+02   2.596269e+02
  -3.027893e+02   1.718927e+02
  -2.265020e+02  -1.605112e+02
  -6.026654e+01  -3.678311e+02
   1.165902e+02  -2.898109e+02
   1.500491e+02  -4.771300e+01
  -1.866457e+01  -4.934403e+00
   3.307521e+01  -8.875151e+01
   1.871589e+02  -1.367299e+02
   2.049741e+02   4.604855e+01
   1.436169e+02   2.361551e+02
  -3.994678e+01   1.997015e+02
  -1.488443e+02   4.729040e-01
  -1.561318e+02  -2.055082e+02
  -3.763653e+01  -2.012709e+02
   1.705884e+02  -9.790642e+01
   2.828954e+02   1.206791e+02
   1.227152e+02   3.040564e+02
  -8.906431e+01   2.515396e+02
  -2.219835e+02   7.318201e+01
  -1.056322e+02   5.560333e+00
  -6.609197e+01   3.390160e+01
  -2.158307e+02   5.656787e+01
  -3.902227e+02  -2.273189e+01
  -2.725995e+02  -2.256597e+02
  -5.037328e+00  -3.311953e+02
   2.983408e+02  -3.209798e+02
   4.118801e+02  -1.992534e+02
   3.100380e+02   4.965469e+01
   5.238351e+01   2.375708e+02
  -8.726409e+01   2.096637e+02
  -3.124387e+01   3.123406e+01
   7.690816e+01  -6.420099e+01
   1.570736e+02   3.957756e+01
   3.911898e+01   1.468500e+02
  -1.821821e+02   1.605791e+02
  -1.434190e+02  -3.648780e+01
  -1.706626e+01  -1.691639e+02
   1.038810e+02  -2.673494e+01
   1.301094e+02   1.938489e+02
  -8.765389e+00   2.918034e+02
  -2.100824e+02   1.645529e+02
  -2.441578e+02  -3.579005e-01
  -2.156689e+02  -1.842474e+02
  -1.086312e+02  -1.905733e+02
   1.073220e+02  -9.411548e+01
   1.916715e+02  -5.190286e+00
   5.750701e+01   7.679170e+01
  -8.342178e+01  -4.596932e+00
  -9.052558e+01  -1.103576e+02
   1.045759e+02  -1.417117e+02
   1.687037e+02   2.179546e+01
   2.734420e+01   6.347066e+01
  -1.093299e+02   5.173502e+01
  -5.043854e+01  -8.480023e+01
   1.153903e+02  -1.070279e+02
   2.057955e+02  -6.473759e+01
   1.732094e+02   6.300419e+01
   8.501841e+01   2.578836e+02
  -1.293582e+02   2.560735e+02
  -2.292142e+02   1.613708e+02
  -1.402596e+02  -9.042733e+01
   3.349113e+01  -1.689957e+02
   5.242583e+01  -6.770676e+01
   1.055581e+00   1.100059e+02
  -1.492891e+02   6.799431e+01
  -1.537182e+02  -7.197564e+01
  -1.342898e+01  -1.789320e+02
   8.187226e+01  -1.282556e+02
   1.528909e+02   8.864100e+00
   4.243633e+01   8.834942e+00
   9.856132e+00  -9.108804e+00
   3.124200e+00  -5.793737e+01
   1.570911e+01  -3.156220e+01
   1.400907e+02  -2.574407e+01
   1.383468e+02   6.455029e+01
   3.117177e+01   1.621047e+02
  -1.586117e+02   1.210310e+02
  -1.338698e+02   4.413212e+01
  -5.642534e+01  -1.018254e+02
   7.432628e+01  -1.080624e+02
   7.427902e+01  -2.816661e+00
   2.430685e+01   5.140090e+01
  -5.990822e+00   1.230785e+01
   6.029674e+00   2.743341e+01
   5.918318e+01  -2.023337e+00
   5.069381e+01   5.036591e+01
  -1.817399e+01   1.462155e+02
  -1.182258e+02   8.334967e+01
  -1.710379e+02   2.606065e+01
  -1.658160e+02  -1.042318e+02
  -3.338110e+01  -1.771589e+02
   9.107887e+01  -1.431756e+02
   1.148183e+02  -7.001876e+00
   5.891078e+01   7.519417e+01
   1.831390e+01   5.530214e+00
   1.955283e+01   2.605458e+01
   4.339809e+01  -2.716899e+01
   8.910651e+01   3.361814e+01
  -1.084383e+01   7.439037e+01
  -8.489285e+01   4.699864e+01
  -4.423922e+01  -3.027092e+01
   5.359254e+00  -8.123278e+01
   1.034656e+02  -3.347874e+01
   1.398681e+02   3.603603e+01
   7.604672e+01   1.204515e+02
  -6.895929e+01   1.962895e+02
  -2.225846e+02   1.191358e+02
  -2.106927e+02  -1.121376e+02
  -8.227920e+01  -1.673116e+02
   3.576454e+01  -1.160259e+02
   7.393538e+01  -9.329103e+01
   9.347376e+01  -4.478028e+01
   4.653861e+01  -3.730559e+01
   9.395993e+01  -5.526801e+01
   6.472219e+01   1.971519e+01
   8.936001e+01   1.485763e+02
   2.086439e+01   1.700493e+02
  -9.668355e+01   1.592915e+02
  -1.525399e+02   7.232915e+00
  -1.233065e+02  -8.963795e+01
   5.632572e+00  -1.532797e+02
   3.842412e+01  -1.058135e+02
   5.931297e+01  -2.619364e+00
   8.964834e+00   2.562213e+00
  -5.583761e+01   6.450219e+01
   2.158261e+01   1.742314e+01
   7.085440e+01  -1.017385e+01
   3.470493e+01  -4.790761e+00
  -6.871120e+01   3.202966e+01
  -1.298826e+02  -3.740462e+00
  -1.126848e+02  -3.921407e+01
   1.814128e+01  -4.470349e+01
   8.368219e+01  -3.828726e+01
   1.154997e+02  -3.493864e+00
   2.646971e+01   7.172779e+00
  -3.317664e+01   4.030054e+01
  -4.817766e+01  -1.910883e+01
  -3.846516e+01  -3.584649e+01
   4.900444e+01  -7.065464e+01
   1.722309e+01  -7.376197e+00
   2.321356e+01   5.123738e+01
   2.497331e+01   8.031927e+01
   7.138392e+01   2.078963e+01
   4.682098e+01  -4.216211e+01
   6.490128e+00   7.052286e+01
  -3.349162e+01   1.042959e+02
  -8.280549e+01   1.289299e+02
  -1.532347e+02   5.064320e+01
  -1.043083e+02  -1.236014e+02
   1.881749e+01  -1.320668e+02
   9.278970e+01   5.740736e+00
   2.695703e+01   6.126246e+01
  -3.599142e+01   4.839626e+01
  -1.139875e+02  -2.745075e+01
  -1.089934e+02  -1.134916e+02
   5.227949e+01  -6.380083e+01
   1.219111e+02  -6.241662e+01
   1.125030e+02   4.828774e+01
   2.117295e+01   8.103993e+01
  -7.692276e+01  -5.641894e+00
  -5.315773e+01   2.055395e+01
   3.848186e+01  -5.204998e+01
   9.344703e+01  -6.089994e+00
   2.411428e+01   8.282226e+01
  -9.182854e+01   1.249768e+02
  -1.367693e+02   5.665698e+01
  -8.035734e+01  -1.003715e+02
   3.873984e+01  -1.496861e+02
   9.407943e+01  -1.396019e+02
   6.811901e+01   5.473489e+01
   1.807957e+01   8.719512e+01
   3.735834e+01   9.472816e+01
  -3.491480e+01   4.496651e+01
  -6.075046e+01  -2.370686e+01
   8.456564e+00   3.535874e+00
  -1.176236e+01   2.890127e+01
  -3.717859e+01   2.316132e+01
  -5.297735e+01  -5.131015e+01
  -4.333138e+01  -9.474500e+01
   2.312988e+01  -6.119911e+01
   1.313017e+02   4.903069e+01
   1.060925e+02   2.068464e+01
   4.276101e+01   1.774750e+01
  -3.748822e+01   1.549643e+01
  -9.631311e+01  -1.417094e+00
   1.370218e+01  -1.010273e+01
   1.811515e+01  -2.929508e+01
   1.144614e+01  -1.704841e+01
   2.508233e+01   1.828861e+01
   9.225043e+00  -1.257623e+00
   9.710237e+01  -4.095378e+01
   4.474871e+01   4.980474e+01
   1.136510e+01   1.003684e+02
  -6.300053e+01   1.047410e+02
  -1.402166e+02   8.422884e+01
  -1.360004e+02  -5.028577e+01
  -4.777190e+01  -1.338655e+02
   2.883573e+01  -9.233872e+01
   5.545812e+01  -6.639135e+01
   5.718651e+01  -3.792584e+01
   7.217109e+00  -2.983020e+00
   3.767754e+01   3.159103e+00
   1.979940e+01   2.444082e+01
   3.873850e+01   1.338949e+01
   6.446962e+01   8.979824e+01
   1.575271e+01   7.697021e+01
  -7.569164e+01   1.370532e+01
  -6.962562e+01  -5.716463e+01
   5.953353e+00  -1.209092e+02
   5.343021e+01   6.995433e+00
   8.985420e+01   7.428024e+01
  -5.779330e+01   1.086248e+02
  -8.015799e+01   4.167150e+01
  -9.013387e+01  -9.621398e-01
  -3.418243e+01  -5.931874e+01
   5.550434e+00  -9.426271e+01
   1.188996e+01  -1.994540e+01
  -3.043845e+01   1.282161e+01
  -1.727852e+01   2.673410e+01
   1.941429e+01  -1.188109e+01
   6.944472e+01  -2.878319e+01
   9.237245e+01  -5.307606e+01
   4.302378e+01   3.517237e+01
  -1.594240e+01   3.411479e+01
  -4.859185e+01   8.306217e+01
  -2.816068e+01   3.226692e+01
  -6.014292e+00  -5.429540e+01
   3.856547e+01  -2.616931e+01
   4.366152e+00   2.500938e+01
   9.655572e+00   1.824733e+01
  -1.565436e+01  -9.445667e+00
  -2.106501e+01  -3.251622e+01
  -4.957917e+01  -4.262721e+01
  -1.865897e+01  -2.981999e+01
   6.421500e-01   2.182008e+01
   3.935546e+01  -3.448122e+01
   2.090272e+01  -3.751038e+01
   7.490543e+01  -5.104501e+01
   2.771204e+01  -8.084226e+00
   2.885449e+01   1.000506e+02
  -2.427673e+01   7.354767e+01
  -2.090996e+01   8.899805e+00
  -5.330770e+01  -2.598369e+01
   3.779686e+00  -3.382168e+01
   2.789987e+01  -2.761169e+01
   1.126234e+02   3.223937e+00
   3.206219e+01   1.770249e+00
  -4.666404e+01   5.690343e+01
  -3.712008e+01   3.374562e-01
  -6.389676e+01   2.250925e+01
   9.279788e+01  -5.926586e+01
   2.182948e+01   1.210234e+01
  -1.744494e+01   3.933104e+01
  -7.341628e+01   3.393073e+01
