
 $NMID
 id='ANONYMOUS ', fmtdat='(2E16.6)'
 volume=1.0
 tramp=1.0
 $END
   3.673130e+03   8.309023e+01
   2.137987e+03   2.227288e+03
  -6.410278e+02   2.306084e+03
  -1.877150e+03   6.851449e+02
  -8.300449e+02  -5.121210e+02
   6.503358e+02  -5.558594e+02
   8.968507e+02   2.447450e+02
   6.529994e+01   8.769734e+02
  -7.713636e+02   6.947537e+02
  -8.695335e+02  -3.086655e+01
  -2.622659e+02  -7.298098e+02
   1.406710e+02  -9.945369e+02
   5.080209e+02  -1.489357e+02
   4.236272e+02   7.712902e+02
  -2.487596e+02   6.361039e+02
  -6.033846e+02  -9.876875e+01
  -2.368876e+02  -4.660580e+02
   3.278364e+02  -4.282009e+02
   7.766081e+02  -1.107810e+01
   1.518483e+02   3.415117e+02
  -6.688714e+01   4.660385e+02
  -5.370998e+02   2.408602e+02
  -1.205058e+02  -4.599331e+01
   1.266891e+02  -1.973003e+01
   3.840839e+02   1.535419e+02
   2.601429e+02   4.112582e+02
  -3.830604e+02   4.677195e+02
  -7.935637e+02  -1.112573e+02
  -4.886547e+02  -4.922360e+02
   3.184998e+02  -4.917275e+02
   7.210075e+02  -8.723876e+01
   3.884669e+02   4.624844e+02
  -2.088998e+02   4.677085e+02
  -4.463622e+02   2.491550e+02
  -3.595295e+02  -2.210205e+02
  -4.707574e+00  -4.980565e+02
   2.442854e+02  -2.166232e+02
   2.098624e+02   2.190233e+02
  -1.753009e+02   4.767603e+02
  -5.066347e+02  -5.600631e+01
  -2.714190e+02  -6.204107e+02
   3.471434e+02  -5.970521e+02
   5.482519e+02   2.989646e+01
   2.294353e+02   4.373116e+02
  -3.708466e+02   2.849044e+02
  -4.211588e+02  -2.841969e+02
   4.205674e+01  -5.264769e+02
   5.514362e+02  -1.860807e+02
   6.266622e+02   3.168391e+02
   1.690463e+02   5.734795e+02
  -3.595687e+02   3.564385e+02
  -6.223356e+02  -2.650930e+01
  -3.259401e+02  -3.829948e+02
   1.228500e+02  -3.647852e+02
   4.170327e+02  -7.434196e+01
   2.295475e+02   1.944392e+02
  -6.226014e+01   9.495567e+01
  -1.537563e+02  -1.107300e+02
   1.031158e+02  -1.604812e+02
   2.989869e+02   4.614014e+01
   1.663012e+02   2.098556e+02
  -1.296678e+02   2.179557e+02
  -2.891803e+02   1.090163e+02
  -1.692032e+02  -3.861787e+01
  -3.335878e+01  -2.365166e+02
   1.878820e+02  -3.258744e+02
   3.123047e+02  -1.732375e+02
   3.372151e+02   1.545614e+02
   1.057489e+02   3.916979e+02
  -1.378526e+02   3.805582e+02
  -1.412938e+02   1.243501e+02
  -5.489598e+01   1.073749e+01
  -5.386425e+01   4.986467e+01
  -1.657267e+02   4.822056e+01
  -2.476167e+02  -6.114198e+01
  -1.476311e+02  -2.128185e+02
   7.630422e+01  -1.934856e+02
   2.106731e+02  -1.870905e+01
   2.125543e+02   1.638413e+02
   5.360347e-01   2.338493e+02
  -2.444080e+02   1.372364e+02
  -3.492565e+02  -1.233567e+02
  -1.593400e+02  -2.814749e+02
   9.994386e+01  -2.568743e+02
   2.211129e+02  -8.932573e+01
   9.250951e+01   2.920489e+01
   2.940459e+01   6.366217e+00
   1.798444e+02  -2.587455e+01
   3.141978e+02   4.340554e+01
   2.581211e+02   2.485549e+02
   6.357756e+00   3.914638e+02
  -3.408850e+02   3.306590e+02
  -4.637725e+02   1.617906e+02
  -3.311994e+02  -1.426832e+02
  -3.298044e+01  -3.017033e+02
   1.525747e+02  -2.154807e+02
   8.012978e+01  -7.828661e+00
  -1.414972e+02   1.272083e+02
  -2.168544e+02  -2.696570e+01
  -6.203404e+01  -2.124147e+02
   1.937772e+02  -1.770082e+02
   2.287181e+02   4.483804e+01
  -1.949384e+01   2.041371e+02
  -2.330971e+02   6.693122e+01
  -1.939064e+02  -1.990115e+02
  -1.999905e+01  -3.497019e+02
   1.975662e+02  -1.913869e+02
   3.105721e+02   4.606730e+01
   2.232083e+02   1.667607e+02
   5.277454e+01   2.381925e+02
  -1.304712e+02   1.099046e+02
  -1.589445e+02  -2.408709e+01
  -9.507014e+00  -3.169053e+01
   9.070925e+01   5.496503e+01
   1.525595e+01   1.605355e+02
  -1.295530e+02   8.955264e+01
  -2.264592e+02  -5.111745e+01
  -8.238014e+01  -9.267907e+01
   1.122539e+02  -4.063618e+01
   8.274214e+01   4.574305e+01
  -9.898421e+01   8.065353e+01
  -2.118641e+02   6.237526e+00
  -2.376244e+02  -1.561520e+02
  -4.615846e+01  -2.191732e+02
   1.792731e+02  -2.358253e+02
   2.787383e+02  -1.457616e+02
   1.464651e+02   5.121700e+01
  -3.500517e+01   1.118737e+02
  -1.079557e+02   2.522401e+00
   5.267215e+01  -1.116484e+02
   2.099595e+02  -1.225139e+02
   2.174704e+02   4.676731e+01
   8.032103e+01   1.640181e+02
  -4.833284e+01   1.193407e+02
  -9.355030e+01   5.211014e+01
  -2.695371e+01  -2.350357e+01
   1.187477e+01   1.871225e+01
   6.454297e+00   1.038854e+02
  -8.576760e+01   8.462428e+01
  -1.718516e+02   2.108597e+01
  -1.688236e+02  -1.120238e+02
  -2.646262e+01  -1.857449e+02
   1.307891e+02  -1.512012e+02
   1.327650e+02   3.483492e+01
   1.144918e+02   7.925101e+01
  -3.612206e+01   3.519751e+01
  -9.791934e+01   1.247127e+00
   1.364283e+01  -2.334566e+01
   6.970756e+01  -3.601869e+01
  -5.260768e+00   1.577346e+01
  -6.870599e+01  -6.636239e+01
  -5.588180e+01  -5.250710e+01
   1.694350e+01  -1.353732e+02
   1.073329e+02  -1.009651e+02
   1.837420e+02   2.939993e+00
   1.337811e+02   1.331725e+02
   2.381402e+01   2.113848e+02
  -9.861465e+01   1.711479e+02
  -1.200655e+02   3.578617e+00
  -1.344947e+01  -3.069983e+01
  -9.218570e+00  -2.921522e+01
  -1.829647e+01   2.325044e+01
  -8.380559e+01  -1.103107e+01
  -3.532082e+01  -6.648848e+01
   7.868793e+01  -1.018817e+02
   9.110199e+01  -4.284344e+01
   1.111430e+02   6.149951e+01
   6.282097e+00   1.144224e+02
  -1.454515e+02   1.015016e+02
  -1.685568e+02  -1.072421e+01
  -1.301843e+02  -1.688313e+02
   1.004170e+02  -1.856282e+02
   2.609371e+02  -9.166536e+01
   2.142350e+02   8.056009e+01
   9.279569e+01   1.714642e+02
  -8.945603e+01   1.151382e+02
  -1.451239e+02   5.825305e+01
  -7.642505e+01   3.543209e+01
  -3.522657e+01   4.339317e+01
  -8.489642e+01   5.579764e+01
  -1.376547e+02  -2.284375e+01
  -9.944043e+01  -1.410048e+02
  -5.112433e+01  -1.959585e+02
   9.402894e+01  -1.392078e+02
   1.582290e+02  -3.700401e+01
   1.184727e+02   9.566689e+01
   5.534952e+01   1.324440e+02
  -7.817363e+01   7.074511e+01
  -5.510954e+01  -1.954990e+00
   4.601246e+01  -3.882947e+01
   2.814088e+01  -8.813609e+00
   3.955642e+00   3.741544e+01
  -3.437826e+01   3.505332e+01
  -6.139935e+01   4.079001e-01
   3.276591e+01  -4.270135e+01
   8.558374e+01  -2.305510e+01
   1.405781e+02   2.649185e+01
   4.661420e+01   6.033730e+01
  -1.093760e+02   7.479125e+01
  -1.606968e+02   1.571536e+01
  -5.368119e+01  -2.735374e+01
   5.439382e+01  -8.358627e+01
   4.542374e+01  -2.413392e+00
   2.334157e+01   7.940675e+01
  -5.723429e+01   4.384112e+01
  -5.478454e+01  -1.370311e+01
  -1.803258e+01  -6.781626e+01
  -3.431712e+01  -5.043082e+01
  -5.224276e+01  -1.682158e+01
  -4.976003e+01   6.562787e+00
   6.370403e+00  -2.093130e+01
   4.095088e+01  -1.124347e+02
   9.712219e+01  -8.564508e+01
   1.369855e+02  -5.320356e+01
   6.401845e+01   5.099381e+01
   1.329493e+01   1.334776e+02
  -4.603982e+01   4.463187e+01
  -3.014741e+01  -2.115212e+01
   2.742552e+01  -1.177385e+01
   1.477495e+02   2.484276e+01
   6.855905e+01   9.204352e+01
  -8.154487e+01   1.305000e+02
  -1.885450e+02   9.875409e+01
  -1.843087e+02  -4.308449e-01
  -3.552649e+01  -6.100975e+01
   8.839185e+01  -6.141092e+01
   5.156198e+00  -3.089408e+01
  -4.239138e+01  -2.395632e+01
  -8.789992e+01  -1.527783e+01
  -1.948702e+01  -1.486608e+02
   7.933388e+01  -1.349940e+02
   1.576428e+02  -5.890863e+01
   9.875584e+01   1.139415e+02
   2.738892e+01   1.685046e+02
  -1.036046e+02   1.055839e+02
  -8.263960e+01  -1.701365e+01
  -5.673142e+01  -1.286263e+02
   6.439374e+00  -1.024264e+02
   7.168738e+01  -3.057694e+01
   7.522611e+01   8.585148e+00
   1.647986e+01   5.499065e+01
  -3.810184e+01   1.766736e+01
   1.943286e+00   1.710928e+01
   4.909298e+01   6.393543e+01
   4.463572e+01   1.295989e+02
  -3.141347e+01   7.734993e+01
  -1.730630e+02  -4.205831e+01
  -1.079935e+02  -9.261502e+01
   1.278383e+01  -2.339670e+01
   9.323506e+01  -2.380414e+00
   8.645386e+01   1.634955e+01
   4.434011e+00   2.213721e+01
  -5.583654e+01   2.982907e+01
  -3.183279e+01   7.852577e+01
  -5.996717e-01  -3.855095e+01
  -9.832111e-01  -3.473245e+01
  -3.978921e+01  -1.547742e+01
  -5.995653e+01  -3.500394e+01
   2.915415e+00  -5.002570e+01
   8.765204e+01  -1.051288e+02
   1.496510e+02  -6.624932e+01
   1.296696e+02   4.149569e+01
   1.802178e+01   1.283357e+02
  -6.972865e+01   1.543104e+02
  -1.128552e+02   4.357341e+01
  -9.500313e+01  -3.869855e+01
  -8.622743e+01  -5.637403e+01
   1.120372e+01  -4.960649e+01
  -6.609175e+01  -4.079978e+01
  -5.106736e+01  -4.032913e+01
  -6.684477e+01  -6.932527e+01
   9.739816e+00  -4.879186e+01
   8.131987e+01  -5.325448e-01
   7.745858e+01   7.330498e+01
   1.912286e+01   6.747382e+01
  -4.284659e+01   5.982792e+01
  -4.163905e+01  -5.102176e+01
  -3.027867e+01  -5.545022e+01
   4.855120e+01  -3.099444e+01
   7.383640e+01   8.639468e+00
   4.081703e+01   4.446918e+01
  -5.857266e+00   5.927196e+01
  -3.412884e+01   1.873696e+01
   4.215392e+00   2.486765e+01
   3.067181e+01   1.721806e+00
  -3.673320e-01  -1.884602e+00
  -6.922494e+01   6.061553e+01
  -9.988635e+01   6.480230e+01
  -6.773472e+01  -3.757004e+01
  -6.830736e+00  -5.227955e+01
   3.536428e+01  -8.273616e+01
   3.170555e+01  -3.339828e+01
   2.090946e+00   4.771138e+01
  -3.826140e+01   5.764317e+00
  -1.267375e+01   1.364864e-01
  -5.701178e+01  -5.378845e+01
   7.915056e+00  -4.132978e+01
   4.178205e+01  -8.127484e-01
   3.804124e+01   2.398411e+01
  -3.204111e+00   4.068223e+01
  -1.184150e+01  -2.364578e+01
  -3.557706e+00   1.782390e+00
   2.185031e+01  -1.701790e+01
  -1.078145e+01   3.629997e+01
  -4.814515e+00  -2.214599e+01
  -1.753626e+01  -1.220995e+00
   1.512493e+01   1.069974e-01
   3.850060e+01  -2.008241e+01
   1.065875e-01   8.897204e+00
  -3.334613e+01   5.905548e+01
  -8.583724e+01   4.239963e+00
  -1.162334e+02  -4.863712e+00
  -3.890136e+01  -3.981784e+01
   5.130046e+01  -4.474120e+01
   3.225875e+01  -2.255027e+01
  -3.239350e+00  -9.172521e+00
  -6.199032e+01   3.256254e+01
  -5.035566e+01   2.892887e+00
   9.755696e-01  -1.912465e+01
   7.108251e+01  -2.566378e+01
