
 $NMID
 id='ANONYMOUS ', fmtdat='(2E16.6)'
 volume=1.0
 tramp=1.0
 $END
   4.762461e+03   6.044114e+01
   2.750555e+03   3.050619e+03
  -9.866624e+02   2.981300e+03
  -2.335320e+03   9.860905e+02
  -1.061506e+03  -8.859712e+02
   7.185800e+02  -6.683590e+02
   1.037224e+03   5.704106e+02
  -1.833022e+02   1.252821e+03
  -1.005283e+03   9.467352e+02
  -1.035704e+03  -1.178032e+02
  -4.536006e+02  -9.710431e+02
   3.371562e+02  -9.944940e+02
   7.668035e+02  -9.415709e+01
   3.664764e+02   9.655177e+02
  -1.765912e+02   7.880775e+02
  -4.938071e+02  -9.129492e+01
  -1.034866e+02  -7.907243e+02
   3.569702e+02  -6.286741e+02
   5.950666e+02  -4.531908e+01
   3.954052e+02   4.635842e+02
   6.419268e+01   3.778072e+02
  -1.718121e+02   3.352863e+02
  -2.369635e+02   2.995080e+01
  -9.822276e+01  -2.893579e+02
   4.158577e+02   7.092637e+01
   1.734007e+02   4.313563e+02
  -4.819186e+02   6.532221e+02
  -9.908565e+02   8.620046e+01
  -5.567378e+02  -6.234382e+02
   4.371773e+02  -4.533806e+02
   8.674347e+02   3.015306e+01
   3.523533e+02   6.064071e+02
  -2.843984e+02   5.071827e+02
  -5.271344e+02   2.337449e+02
  -4.656988e+02  -4.092932e+02
  -9.666309e+01  -5.266850e+02
   2.240558e+02  -3.216522e+02
   2.405080e+02   1.343626e+02
  -2.059452e+02   4.653169e+02
  -5.073268e+02  -2.829953e+01
  -3.574119e+02  -6.527027e+02
   3.363988e+02  -7.349602e+02
   6.858319e+02  -3.856325e+01
   2.756185e+02   5.865107e+02
  -3.215521e+02   3.751919e+02
  -4.037108e+02  -2.740694e+02
   4.445395e+01  -5.750549e+02
   5.895685e+02  -2.062382e+02
   6.501555e+02   3.931774e+02
   1.989093e+02   6.393057e+02
  -3.950275e+02   3.974063e+02
  -6.536711e+02  -8.660280e+01
  -4.113971e+02  -4.324754e+02
   1.427242e+02  -3.863523e+02
   5.010336e+02  -6.153967e+00
   2.561504e+02   2.479512e+02
  -1.663983e+02   1.494159e+02
  -2.264703e+02  -2.052746e+02
   1.768367e+02  -2.300297e+02
   4.124488e+02   6.746358e+01
   1.453041e+02   3.226490e+02
  -2.507895e+02   2.595741e+02
  -3.577437e+02   9.087022e+01
  -1.819841e+02  -7.009279e+01
   5.059042e+01  -2.132008e+02
   2.435784e+02  -3.179536e+02
   3.321400e+02  -2.315443e+02
   3.110662e+02   1.171042e+02
   8.782244e+01   4.554004e+02
  -1.782713e+02   4.040317e+02
  -1.726508e+02   4.879046e+01
   1.623126e+01  -7.342155e+01
   9.295608e+00   7.149772e+01
  -1.277660e+02   1.965370e+02
  -2.927044e+02  -4.300453e+00
  -1.825345e+02  -2.945419e+02
   7.016268e+01  -3.062800e+02
   2.123424e+02  -3.909477e+01
   1.781467e+02   2.802271e+02
   2.112995e+01   3.489464e+02
  -2.778670e+02   1.146948e+02
  -3.540673e+02  -1.589939e+02
  -2.232569e+02  -3.382564e+02
   6.596644e+01  -3.140560e+02
   1.977397e+02  -1.285643e+02
   1.574248e+02  -3.972429e+01
   1.041054e+02  -7.292665e+01
   2.124384e+02  -6.415217e+01
   4.052811e+02   6.047139e+01
   2.959963e+02   2.842384e+02
  -1.652168e-01   4.325123e+02
  -3.442004e+02   4.055905e+02
  -4.892879e+02   2.240433e+02
  -3.356691e+02  -8.039454e+01
  -3.950263e+01  -3.354162e+02
   1.505665e+02  -2.594372e+02
   1.326197e+02  -3.879094e+01
  -1.048890e+02   1.236536e+02
  -2.639565e+02  -5.682687e+00
  -8.477087e+01  -1.806190e+02
   1.573090e+02  -1.990511e+02
   1.691853e+02   4.529983e+01
  -2.896327e+01   1.540469e+02
  -2.202985e+02   1.134713e+01
  -1.475715e+02  -2.917014e+02
   4.686307e+01  -3.124961e+02
   2.297702e+02  -1.789691e+02
   3.251685e+02   8.029498e+01
   2.913744e+02   1.760634e+02
   1.607649e+02   2.915586e+02
  -1.042598e+02   2.208269e+02
  -1.949798e+02   1.404980e+01
  -8.898442e+01  -5.914301e+01
   1.076936e+02  -1.363639e+00
   5.885331e+01   1.272497e+02
  -8.364218e+01   1.052234e+02
  -1.884764e+02  -4.858516e+01
  -6.617369e+01  -5.893853e+01
   1.048684e+02  -2.248337e+01
   5.848013e+01   9.510557e+01
  -1.205084e+02   7.647107e+01
  -2.815950e+02  -2.275558e+01
  -2.728579e+02  -9.943165e+01
  -9.479830e+01  -2.191442e+02
   1.733603e+02  -2.674833e+02
   2.853028e+02  -1.910317e+02
   1.863519e+02   2.425421e+01
   2.854535e+01   1.186791e+02
  -1.142212e+02   4.577900e+01
  -8.243930e-01  -8.210073e+01
   1.594318e+02  -8.012753e+01
   2.347223e+02   1.147423e+02
   1.093836e+02   2.152020e+02
  -9.569618e+01   8.585716e+01
  -1.196709e+02  -1.812794e+01
  -8.415247e+01  -4.250489e+01
  -1.493242e+01   5.880963e+00
   1.412550e+01   7.286716e+01
  -3.966135e+01   1.030720e+02
  -1.920413e+02   1.626111e+01
  -2.089335e+02  -1.211705e+02
  -4.654470e+01  -2.200344e+02
   1.594674e+02  -1.885594e+02
   2.018554e+02  -3.087835e+01
   6.716076e+01   9.354804e+01
  -3.683630e+01   1.218762e+02
  -8.475594e+01   6.594134e+01
  -2.609715e+01  -2.317614e+00
   2.766058e+01   1.418824e+01
   9.222237e+00   2.516255e+01
  -1.088015e+02  -3.470180e+01
  -1.143288e+02  -8.318358e+01
  -1.671676e+01  -1.496644e+02
   1.391336e+02  -1.431139e+02
   2.306670e+02  -2.657764e+01
   1.555126e+02   1.705452e+02
  -7.293017e+00   2.587617e+02
  -1.047134e+02   1.520367e+02
  -1.320979e+02   1.119089e+01
  -4.041015e+01  -5.036028e+01
  -9.103602e-01  -4.587232e+01
  -7.276903e+01   1.903738e+01
  -1.135292e+02  -3.635144e+01
  -4.922145e+01  -9.505249e+01
   5.910716e+01  -6.144346e+01
   9.930200e+01  -6.426489e+01
   9.839763e+01   4.693153e+01
   3.377875e+01   1.051170e+02
  -1.582708e+02   1.226911e+02
  -2.049738e+02  -5.012127e+01
  -1.378629e+02  -2.145435e+02
   1.142658e+02  -2.486822e+02
   2.480186e+02  -1.429559e+02
   3.010929e+02   9.973616e+01
   1.257831e+02   1.971331e+02
  -6.389880e+01   1.894222e+02
  -1.222338e+02   7.604566e+01
  -6.093238e+01   3.420296e+01
  -6.289206e+01   8.391371e+01
  -7.074609e+01   1.025943e+02
  -1.215889e+02   2.781708e+00
  -1.155988e+02  -1.612637e+02
  -5.247030e+01  -2.226837e+02
   8.471162e+01  -1.915708e+02
   1.629311e+02  -4.539431e+00
   1.304131e+02   1.392421e+02
   1.516522e+01   1.429174e+02
  -5.942940e+01   4.097585e+01
  -5.399771e+01  -2.305430e+01
  -2.877746e+00  -1.747070e+01
  -2.076220e+01  -4.495765e+01
  -3.741843e+01  -2.945674e+01
  -7.047721e+01  -6.798795e+01
  -3.982852e+01  -2.352389e+01
   5.954323e+01  -3.771849e+01
   1.820747e+02  -1.518629e+01
   1.559839e+02   3.580706e+01
   4.873383e+00   9.113375e+01
  -1.458752e+02   6.327940e+01
  -1.803717e+02  -6.410906e+00
   7.598256e+00  -5.255780e+01
   1.287300e+02  -4.730718e+01
   1.116892e+02   2.653367e+01
   3.602745e+00   8.276499e+01
  -7.768166e+01   9.436632e+01
  -7.505388e+01   2.016935e+01
  -5.579780e+01  -5.168035e+01
  -3.437201e+01  -5.242857e+01
  -5.835371e+01   2.131448e+01
  -5.599253e+01   3.812902e+01
  -3.566907e+01  -5.647126e+01
   3.053625e+01  -1.374219e+02
   7.503834e+01  -1.136621e+02
   1.873563e+02  -2.016706e+01
   1.200210e+02   8.933230e+01
   1.036936e+01   9.401321e+01
  -9.097498e+01   4.313809e+01
  -5.825093e+01  -3.130619e+01
   2.933595e+01   2.115682e+00
   1.070527e+02   3.409990e+01
   4.824840e+01   6.803732e+01
  -6.500341e+01   7.025103e+01
  -1.737956e+02   1.529180e+01
  -1.668036e+02  -1.037712e+01
  -3.388164e+01  -7.888183e+01
   7.841770e+01  -7.074814e+01
   4.993116e+01   7.333439e+00
  -3.768828e+01   1.652805e+01
  -8.284835e+01  -4.373530e+01
  -1.839081e+01  -1.861102e+02
   1.049045e+02  -1.416865e+02
   1.975068e+02  -6.787286e+01
   1.087128e+02   1.494309e+02
   3.952398e+01   2.475221e+02
  -1.341363e+02   1.726828e+02
  -8.595029e+01   2.862687e+01
  -4.547204e+01  -1.076522e+02
  -6.402149e-01  -9.534664e+01
   5.164588e+01  -1.085767e+01
   5.551686e+01   3.769249e+01
   3.492914e+01   3.344079e+01
  -2.075741e+01   2.293515e+00
   2.743998e+01   5.099127e+00
   5.026696e+01   7.092706e+01
   4.024312e+01   9.399437e+01
  -4.362141e+01   4.493911e+01
  -1.559280e+02  -2.103011e+01
  -1.371436e+02  -7.189660e+01
  -3.347973e+01  -3.476979e+01
   8.674673e+01  -8.405000e+00
   5.240025e+01   1.168946e+01
  -4.384620e+00  -6.625907e+00
  -4.469617e+01   7.393338e-01
  -8.323244e-01   3.135492e+01
  -9.320661e+00  -1.237926e+01
  -2.027233e+01  -4.798684e+00
  -1.077486e+02  -8.921671e+00
  -8.031757e+01  -2.016919e+01
  -2.321032e+01  -1.143574e+02
   1.430492e+02  -1.340154e+02
   2.032398e+02  -3.673093e+01
   1.574415e+02   6.343777e+01
   3.993082e+01   1.863923e+02
  -6.063245e+01   1.833628e+02
  -9.416116e+01   4.012113e+01
  -7.500817e+01  -9.295827e+00
  -6.213086e+00  -4.044791e+01
  -5.883344e+01  -2.580810e+01
  -3.790787e+01   2.034517e+01
  -8.053274e+01  -5.924019e+01
  -1.556933e+01  -9.211335e+01
   4.895048e+01  -5.846123e+01
   8.925995e+01   5.683773e+01
   5.267531e+01   8.501245e+01
  -3.362215e+01   1.173233e+02
  -4.703012e+01   3.908520e+01
  -1.315671e+02  -8.287623e+01
   1.288428e+01  -1.000956e+02
   4.392340e+01  -4.640280e+01
   9.473111e+01   8.229449e+00
   2.543948e+01   5.371951e+01
  -2.853598e+01   2.600651e+01
  -5.186315e+01  -1.746379e+01
   1.745327e+01  -2.566679e+01
   7.557462e+01   1.535678e+01
  -3.448298e+00   4.564916e+01
  -5.537701e+01   8.389925e+01
  -1.223910e+02   9.435932e+01
  -8.072835e+01  -3.317122e+01
   2.837273e+01  -5.858178e+01
   7.472133e+01  -9.247900e+01
   5.456696e+01  -2.834180e+01
  -2.377905e+01   9.652887e+01
  -4.007770e+01   3.368922e+01
  -5.224341e+01  -2.178807e+01
  -3.317332e+01  -8.010470e+01
  -1.494271e+01  -3.488539e+01
   5.725754e+01  -2.754681e+00
   2.591686e+01   4.436593e+01
   4.363939e+01   4.350142e+01
   1.141921e+01  -4.047626e+00
   2.657608e+01   3.589552e+01
  -2.142033e+01   6.125434e+01
  -3.300338e+01   5.417318e+01
  -5.944003e+01   6.573078e+00
  -2.330855e+01  -6.570684e+01
   1.277802e+01  -4.556685e+01
   4.519367e+01  -2.143302e+01
   3.932256e+01   3.919250e+01
   2.952778e+01   7.971106e+01
  -8.273713e+01   4.804731e+01
  -1.052377e+02  -1.949791e+01
  -1.580402e+01  -8.108060e+01
   1.526688e+01  -3.281569e+01
   4.357994e+01   3.065022e+00
   1.640473e+01  -1.071064e+00
  -3.621731e+01  -9.270779e+00
  -4.142694e+00  -2.597947e+01
   4.480496e+01  -4.515876e+01
   9.400250e+01  -8.031478e+00
