
 $NMID
 id='ANONYMOUS ', fmtdat='(2E16.6)'
 volume=1.0
 tramp=1.0
 $END
  -4.775418e+03   1.190672e+02
  -2.748109e+03  -3.073527e+03
   9.746188e+02  -2.971624e+03
   2.304533e+03  -8.472753e+02
   1.181545e+03   9.287161e+02
  -7.312844e+02   8.546871e+02
  -1.043932e+03  -6.264450e+02
  -2.575523e+02  -1.289198e+03
   8.952626e+02  -8.857944e+02
   1.086319e+03   1.550211e+02
   4.375466e+02   9.999443e+02
  -4.259842e+02   1.002453e+03
  -8.728677e+02   5.095381e+01
  -4.120521e+02  -7.333548e+02
   3.620405e+02  -1.043639e+03
   6.969342e+02   4.920587e+01
   3.187134e+02   8.057138e+02
  -4.518828e+02   5.920376e+02
  -7.856941e+02   1.318767e+02
  -3.046824e+02  -4.172157e+02
   2.729340e+02  -4.317290e+02
   3.918612e+02  -2.290783e+02
   3.339784e+02  -1.239585e+02
  -1.175872e+02   1.581749e+02
  -2.997151e+02  -2.855341e+02
  -2.372324e+02  -2.722888e+02
   4.484400e+02  -5.533205e+02
   8.290365e+02   6.950346e+01
   3.730986e+02   6.125016e+02
  -4.453714e+02   5.538823e+02
  -7.137228e+02   1.475621e+01
  -2.911820e+02  -5.574440e+02
   3.341032e+02  -4.958458e+02
   5.931535e+02  -2.395047e+02
   3.854212e+02   2.761364e+02
   7.257203e+01   5.180637e+02
  -2.226894e+02   2.892403e+02
  -1.686490e+02  -1.050934e+02
   1.740139e+02  -4.170929e+02
   5.409542e+02   9.358949e+01
   3.213443e+02   6.577480e+02
  -2.967853e+02   7.544078e+02
  -7.145375e+02   8.954818e+01
  -3.448973e+02  -5.089234e+02
   2.916043e+02  -3.211110e+02
   3.718201e+02   2.947487e+02
  -9.142809e+01   5.354902e+02
  -6.012126e+02   1.584589e+02
  -6.488231e+02  -4.067689e+02
  -1.415251e+02  -6.027571e+02
   3.784223e+02  -4.089242e+02
   6.380249e+02   2.998388e+01
   3.763633e+02   3.845987e+02
  -1.157355e+02   4.398058e+02
  -3.899044e+02   1.266595e+02
  -2.900519e+02  -1.566426e+02
   8.644303e+01  -1.373117e+02
   1.151693e+02   1.359137e+02
  -1.397798e+02   2.095520e+02
  -3.564838e+02  -1.633996e+01
  -1.415962e+02  -2.926816e+02
   1.852587e+02  -2.376629e+02
   3.022347e+02  -1.152278e+00
   1.810342e+02   1.538681e+02
  -3.960994e+01   1.997014e+02
  -2.479900e+02   2.697317e+02
  -3.343739e+02   1.989768e+02
  -3.428237e+02  -1.462358e+02
  -8.994517e+01  -4.499427e+02
   1.531389e+02  -3.697305e+02
   1.593972e+02  -1.282256e+02
   2.684630e+01   7.304710e+00
  -1.342275e+00  -8.303151e+01
   1.732318e+02  -1.360818e+02
   2.748465e+02   2.257564e+01
   2.046039e+02   2.648795e+02
  -3.109842e+01   2.617851e+02
  -2.451642e+02   5.303650e+01
  -2.425794e+02  -2.145744e+02
   2.366060e+00  -3.135114e+02
   3.035019e+02  -1.687735e+02
   3.580517e+02   1.682039e+02
   1.565563e+02   3.740895e+02
  -1.363781e+02   3.390457e+02
  -2.225170e+02   1.100107e+02
  -1.360727e+02  -3.808398e+01
  -9.120109e+01   2.057123e+01
  -2.156881e+02   7.750465e+01
  -3.883417e+02  -4.398893e+01
  -3.189423e+02  -2.305101e+02
   1.651643e+01  -4.674545e+02
   3.442963e+02  -4.699218e+02
   4.611387e+02  -2.230009e+02
   3.456794e+02   1.049449e+02
   1.119697e+02   2.757890e+02
  -7.565039e+01   2.830464e+02
  -5.863893e+01   8.553691e+01
   6.926967e+01  -8.650394e+01
   1.277213e+02   2.780492e+01
   2.961165e+01   2.022904e+02
  -1.754603e+02   1.816309e+02
  -1.707810e+02  -6.866025e+01
   1.275033e+01  -2.109429e+02
   1.898016e+02  -4.142059e+01
   1.076883e+02   1.998317e+02
  -9.285785e+00   3.239263e+02
  -1.862396e+02   1.769740e+02
  -2.893166e+02  -7.401030e+01
  -2.685685e+02  -2.087646e+02
  -1.191374e+02  -2.467345e+02
   1.354429e+02  -1.050266e+02
   1.895407e+02  -2.960380e+01
   8.291964e+01   3.187547e+01
  -6.596345e+01  -4.250155e+01
  -1.056455e+01  -1.227989e+02
   9.464710e+01  -1.062540e+02
   1.457926e+02  -1.872921e+01
   5.570846e+01   9.842911e+01
  -4.613899e+01   1.908855e+01
  -3.440854e+01  -7.837659e+01
   1.173422e+02  -6.825228e+01
   2.195835e+02   2.642806e+01
   2.398329e+02   1.883130e+02
   4.604012e+01   2.307748e+02
  -1.983251e+02   2.148619e+02
  -2.774577e+02   1.251667e+02
  -1.386770e+02  -4.148776e+01
   2.186591e+01  -1.102501e+02
   7.058049e+01  -2.077990e+00
  -2.935078e+01   8.729324e+01
  -2.029342e+02   6.043930e+01
  -2.093389e+02  -1.127174e+02
  -6.663585e+01  -1.930585e+02
   7.704897e+01  -1.630548e+02
   1.159353e+02   7.219707e+00
   7.377834e+01   1.352967e+01
  -8.476889e-01  -1.162437e+01
  -3.609184e+01  -6.221810e+01
   6.840184e+01  -1.298512e+02
   1.926970e+02  -2.897175e+01
   2.384398e+02   6.616510e+01
   3.387895e+01   1.941619e+02
  -1.561787e+02   1.529900e+02
  -1.813115e+02   2.814603e+01
  -7.521143e+01  -1.214878e+02
   1.030094e+02  -8.027473e+01
   8.416500e+01  -1.247295e+01
   3.099232e+01   8.454469e+01
   2.264402e+01   2.218112e+01
  -1.720665e+01  -1.040390e+01
   5.871593e+01  -3.220052e+01
   7.988096e+01   9.029132e+01
   2.107796e+01   1.212606e+02
  -1.126240e+02   1.735574e+02
  -2.658960e+02  -9.168804e+00
  -1.916054e+02  -1.558506e+02
  -3.230785e+01  -2.427337e+02
   1.149566e+02  -1.229439e+02
   8.968021e+01  -1.196341e+01
   4.462555e+01   1.074474e+01
   5.040951e+01   8.757349e+00
   5.218249e+01  -7.299544e+01
   9.566466e+01  -3.830244e+01
   2.553894e+01   3.885487e+01
  -5.031090e+01   9.172183e+01
  -7.293793e+01   6.207165e+01
  -7.702468e+01  -5.454453e+01
   5.653606e+01  -1.032309e+02
   8.987759e+01  -7.913117e+01
   1.627292e+02   4.833977e+01
   9.372408e+01   2.598150e+02
  -9.873851e+01   2.166837e+02
  -2.842872e+02   1.054307e+02
  -2.596916e+02  -1.012680e+02
  -1.162581e+02  -1.590301e+02
   6.856009e+01  -1.516257e+02
   1.153846e+02  -1.052261e+02
   6.449062e+01  -4.352038e+01
   4.012706e+01  -4.675334e+01
   7.699422e+01  -9.024387e+01
   6.790899e+01   2.777713e+01
   9.869204e+01   1.276514e+02
   6.365360e+01   2.091587e+02
  -9.814724e+01   1.513933e+02
  -1.830064e+02   5.824256e-01
  -1.437344e+02  -1.254709e+02
  -3.939008e+01  -1.460557e+02
   9.634579e+01  -1.016925e+02
   1.057833e+02  -1.273961e+00
   4.089072e+01   6.436023e+01
   3.193891e+01   2.365487e+01
   7.122495e+00   2.132587e+01
   5.503822e+01   2.317267e+01
  -4.447009e-01   3.345908e+01
  -7.176785e+01   4.203136e+01
  -1.400081e+02   3.443688e+01
  -1.287077e+02  -4.025950e+01
  -8.542539e+00  -1.046818e+02
   1.353469e+02  -8.528819e+01
   1.296973e+02  -4.943679e+01
   7.120657e+01   5.717225e+01
  -8.903449e+01   3.612727e+01
  -1.017233e+02  -1.092261e+01
  -1.475641e+01  -6.894428e+01
   5.004365e+01  -5.560678e+01
   3.406182e+01  -1.281336e-01
   3.243069e+01   6.639148e+01
   3.867909e+01   1.704754e+01
   5.440080e+01  -4.623642e+01
   5.357890e+01  -2.918313e+01
   8.389989e+01   8.689692e+01
  -1.943363e+01   1.300065e+02
  -9.402305e+01   9.983475e+01
  -1.393289e+02   2.143162e+01
  -1.107338e+02  -1.054903e+02
   1.165748e+01  -1.040346e+02
   3.891468e+01  -4.403241e+01
   6.067403e+01   5.329312e+01
  -6.768864e+01   5.950366e-02
  -1.359614e+02  -2.435965e+01
  -3.978265e+01  -9.425765e+01
   7.564611e+01  -1.275299e+02
   1.886564e+02  -4.322691e+01
   1.215448e+02   5.397030e+01
  -6.228005e+00   9.361130e+01
   6.410645e+00   6.199485e+01
  -6.008402e+01  -4.012587e+01
  -7.379816e+00  -4.878006e+01
   8.111687e+01   1.548986e+01
   3.061417e+01   1.011404e+02
  -9.042836e+01   1.671165e+02
  -2.039581e+02   3.071602e+01
  -1.268554e+02  -9.636246e+01
  -2.634535e+01  -1.853334e+02
   8.636948e+01  -1.321343e+02
   1.206337e+02   1.081948e+01
   5.850050e+01   4.029077e+01
   8.438171e+00   5.856586e+01
  -2.777015e+01   1.956030e+01
  -7.420031e+00  -3.413430e+01
   2.774239e+00   9.538073e+00
  -1.987431e+01   7.436501e+01
  -8.282507e+01   2.614320e+01
  -7.327607e+01  -9.724243e+01
  -8.393282e+01  -9.769670e+01
   4.573688e+01  -6.158487e+01
   1.595524e+02   1.325613e+01
   1.337806e+02   7.295652e+01
   6.366148e+00   2.502972e+01
  -1.068717e+02   1.673741e+01
  -9.636257e+01   8.924965e+00
  -1.267756e+01  -1.672101e+01
   1.380503e+01  -4.780353e+01
   3.570573e+01  -1.898403e+01
  -1.455249e+01   1.903462e+00
   1.047266e+01  -2.000873e+01
   6.996281e+01   4.958332e+01
   8.781704e+01   5.983630e+01
   7.615984e+00   7.042802e+01
  -8.590405e+01   1.074331e+02
  -1.586084e+02   5.479420e+01
  -1.381521e+02  -4.256041e+01
  -2.755996e+01  -1.762222e+02
   7.854435e+01  -1.389066e+02
   1.215073e+02  -5.657591e+01
   8.058600e+01   4.684069e+01
   2.185538e+01   4.364957e+01
  -1.455900e+00  -4.939578e+01
   4.965376e+01   3.009936e+01
   3.705362e+01   6.498145e+01
   4.920951e+01   9.756067e+01
  -3.305211e+01   8.593227e+01
  -6.382959e+01  -3.996860e+01
  -8.757664e+01  -8.362433e+01
  -2.600076e+01  -1.378825e+02
   9.249876e+01  -2.024581e+01
   7.683325e+01   5.669591e+01
   6.171365e+01   8.080956e+01
  -2.950113e+01   6.521811e+01
  -7.367632e+01   1.779574e+01
  -1.754111e+01  -3.892480e+01
  -7.333991e-01  -6.487129e+01
   3.069921e+01  -3.491845e+01
  -3.831938e+01   5.714022e+01
  -1.026930e+02   1.505995e+01
  -3.971730e+01  -2.468469e+01
   4.748420e+01  -1.072231e+02
   8.774507e+01  -4.886964e+01
   7.020781e+01   1.269400e+01
  -1.794160e+01   6.672132e+01
  -8.363949e+01   1.050031e+02
  -5.974706e+01  -3.379453e+01
  -1.303397e+01  -6.875148e+01
   1.751329e+01  -1.553025e+01
   3.981554e+01   2.131448e+01
   3.829916e+01   5.657478e+01
   2.449038e+01   3.255433e+01
  -1.790849e+01  -2.155727e+01
  -8.199536e+00  -2.609696e+01
  -3.311221e+01   3.803788e+00
  -5.732265e+00   4.932201e+01
  -3.587877e+00   3.914723e+01
  -2.045160e+01   1.149125e+01
   1.804319e+00  -5.539095e+01
   1.840496e+01  -5.762200e+00
   5.586099e+01   3.981999e+01
  -1.578267e+01   6.429668e+01
  -4.473406e+01   2.501251e+01
  -2.738074e+01  -1.339842e+01
  -1.331760e+01  -4.169375e+01
   5.141363e+01  -2.476815e+01
   5.921219e+01   3.753157e+01
   5.773994e+01   6.751771e+01
  -4.544769e+01   3.175936e+01
  -1.087931e+02  -1.852835e+01
  -3.779033e+01  -3.255731e+01
   4.293640e+01  -1.225538e+01
   4.491123e+01   4.108431e+01
  -1.173511e+01   1.426143e+01
  -7.965136e+01   3.127502e+01
