
 $NMID
 id='ANONYMOUS ', fmtdat='(2E16.6)'
 volume=1.0
 tramp=1.0
 $END
   4.772507e+03  -7.284371e+00
   2.847744e+03   3.042286e+03
  -1.076726e+03   3.077844e+03
  -2.463656e+03   8.383659e+02
  -1.061626e+03  -9.061114e+02
   7.607409e+02  -7.726350e+02
   1.112934e+03   6.047349e+02
   3.781482e+01   1.137275e+03
  -1.043648e+03   8.067071e+02
  -1.003526e+03  -1.983591e+02
  -4.652072e+02  -1.067866e+03
   3.252311e+02  -9.434008e+02
   9.187882e+02  -8.770735e+01
   4.936868e+02   7.987758e+02
  -3.542373e+02   7.964835e+02
  -7.633087e+02  -2.836491e+02
  -2.065517e+02  -7.004355e+02
   5.217832e+02  -5.010033e+02
   7.946616e+02  -1.221049e+02
   3.118893e+02   9.606988e+01
   1.072874e+02   5.286668e+02
  -2.559673e+02   1.686191e+02
  -4.105042e+02  -1.205780e+01
   3.666811e+01  -6.897946e+01
   4.689126e+02  -1.160531e+02
   1.617270e+02   5.380151e+02
  -5.494540e+02   3.570789e+02
  -8.675505e+02   3.194711e+01
  -5.215493e+02  -6.197160e+02
   4.260742e+02  -5.735891e+02
   7.819509e+02   1.146600e+02
   2.859994e+02   4.326970e+02
  -3.452448e+02   6.552361e+02
  -5.309058e+02   1.862548e+02
  -4.647637e+02  -1.994681e+02
  -1.720555e+02  -4.540861e+02
   2.329795e+02  -4.161598e+02
   2.243633e+02   3.807235e+02
  -1.657230e+02   4.951579e+02
  -5.141178e+02   7.059704e+01
  -3.133119e+02  -7.644161e+02
   2.889083e+02  -7.122664e+02
   7.106639e+02   7.752888e+01
   2.721208e+02   5.961799e+02
  -3.290554e+02   3.732373e+02
  -4.599298e+02  -3.157291e+02
   6.699271e+01  -6.012535e+02
   6.130028e+02  -1.801273e+02
   6.702435e+02   3.943912e+02
   1.715218e+02   5.729466e+02
  -3.909146e+02   4.271110e+02
  -6.795022e+02  -4.074059e+01
  -3.840909e+02  -3.748273e+02
   1.315075e+02  -4.079656e+02
   4.712750e+02  -7.442413e+01
   2.716787e+02   2.560563e+02
  -1.419975e+02   1.337366e+02
  -1.650176e+02  -2.149346e+02
   2.241601e+02  -2.320609e+02
   4.290934e+02   8.924022e+01
   1.160783e+02   3.862410e+02
  -3.143801e+02   2.584186e+02
  -3.596213e+02   9.570915e+01
  -1.698393e+02  -9.573893e+01
   3.132613e+01  -2.327028e+02
   2.072193e+02  -3.465064e+02
   3.141790e+02  -2.585531e+02
   3.514211e+02   7.469708e+01
   1.087493e+02   4.500205e+02
  -1.270575e+02   4.161939e+02
  -1.375090e+02   1.495991e+02
  -2.615751e+01  -2.027048e+01
   1.139871e+00   9.515117e+01
  -1.350393e+02   1.569351e+02
  -3.306711e+02  -2.083930e+01
  -1.946147e+02  -2.507793e+02
   1.470844e+01  -2.499461e+02
   1.993590e+02  -5.919545e+01
   1.771558e+02   2.637758e+02
   3.870071e+00   3.135375e+02
  -2.562564e+02   9.808851e+01
  -3.643222e+02  -1.684707e+02
  -1.483894e+02  -4.106994e+02
   1.057698e+02  -2.909418e+02
   2.074470e+02  -1.116467e+02
   1.135527e+02   3.008342e+01
   5.775800e+01  -5.645509e+01
   2.790893e+02  -9.190002e+01
   4.346088e+02   3.182244e+01
   3.185616e+02   3.258771e+02
  -7.989768e+00   4.421657e+02
  -3.360690e+02   3.861802e+02
  -4.467047e+02   2.303380e+02
  -3.403905e+02  -8.546089e+01
  -1.022608e+02  -2.838237e+02
   1.104503e+02  -2.583444e+02
   1.498304e+02  -3.603001e+01
  -9.536478e+01   9.954003e+01
  -1.931236e+02  -9.381310e+00
  -8.334979e+01  -2.289946e+02
   1.983928e+02  -2.091233e+02
   2.002348e+02   9.019335e+01
  -1.852215e+01   2.419033e+02
  -1.813272e+02   3.913703e+01
  -1.355754e+02  -2.505177e+02
   5.530587e+01  -3.501794e+02
   2.350636e+02  -1.799200e+02
   3.036694e+02   4.036013e+00
   2.652916e+02   2.121939e+02
   1.014934e+02   2.929568e+02
  -1.020246e+02   1.276448e+02
  -1.664923e+02   1.735470e+01
   5.017915e+00  -7.301331e+01
   1.091570e+02   2.890680e+01
   3.391684e+01   1.942584e+02
  -1.560658e+02   1.737432e+02
  -2.291327e+02  -2.489044e+01
  -9.612065e+01  -1.638935e+02
   8.650503e+01  -3.521721e+01
   7.367158e+01   2.719725e+01
  -1.292533e+02   9.192902e+01
  -2.433830e+02  -2.363541e+01
  -2.343731e+02  -1.519514e+02
  -5.563231e+01  -2.570161e+02
   1.399567e+02  -2.410352e+02
   2.846883e+02  -1.294970e+02
   1.730713e+02   9.747699e+01
  -2.239406e+01   1.357690e+02
  -1.301692e+02   2.539214e+00
   1.418553e+01  -1.476228e+02
   2.225121e+02  -7.080437e+01
   2.168793e+02   1.279001e+02
   7.112533e+01   2.093893e+02
  -6.575170e+01   1.533887e+02
  -1.359700e+02   5.694964e+01
  -6.091641e+01   2.333094e+01
   1.177096e+01  -2.268851e+01
  -1.455976e+01   7.935998e+01
  -4.195381e+01   1.209819e+02
  -1.761929e+02   7.034616e+00
  -1.803059e+02  -1.557721e+02
   6.464676e+00  -2.358759e+02
   2.188899e+02  -1.859419e+02
   2.331666e+02   1.305784e+01
   9.700609e+01   1.655073e+02
  -6.872840e+01   1.105660e+02
  -5.394743e+01   7.053063e+00
  -3.127986e+00  -4.928180e+01
   6.516879e+00   1.607913e+01
  -3.725403e+01  -5.001964e+00
  -8.548439e+01  -1.616728e+01
  -7.420793e+01  -6.908935e+01
  -4.854983e+01  -1.567645e+02
   1.153782e+02  -1.518983e+02
   2.045161e+02  -4.416377e+01
   2.076806e+02   1.388345e+02
   1.019360e+01   2.557921e+02
  -1.724619e+02   2.135893e+02
  -1.651417e+02  -1.078304e+01
  -7.092790e+01  -1.037681e+02
   1.147086e+00  -6.633163e+01
  -3.866983e+01   4.266682e+01
  -9.234954e+01   1.112552e+01
  -5.466279e+01  -8.801264e+01
   1.228141e+01  -8.473107e+01
   1.109678e+02  -5.169823e+01
   1.014686e+02   8.695841e-01
   1.307575e+01   8.763912e+01
  -8.272700e+01   1.031494e+02
  -1.770092e+02  -4.104305e+01
  -8.313345e+01  -2.249436e+02
   1.032691e+02  -2.629189e+02
   2.635622e+02  -1.015483e+02
   2.433217e+02   1.016306e+02
   1.094083e+02   1.544441e+02
  -5.031584e+01   1.203490e+02
  -4.744161e+01   5.847147e+01
  -5.178121e+01   5.528419e+01
  -3.220012e+01   8.373424e+01
  -1.072634e+02   9.208352e+01
  -1.765123e+02   1.035368e+01
  -1.194603e+02  -1.265200e+02
  -4.659925e+01  -2.273530e+02
   1.016338e+02  -2.029155e+02
   2.046347e+02  -1.744050e+01
   1.740249e+02   1.341033e+02
   3.600055e+00   1.938031e+02
  -8.776790e+01   1.288093e+02
  -8.095326e+01  -1.512506e-01
  -4.294336e+01  -4.415663e+01
   6.324419e+00  -1.712513e+01
  -1.921758e+01   1.959445e+00
  -5.907548e+01  -2.436324e+01
  -1.314667e+01  -3.834901e+01
   1.181904e+02  -3.380082e+01
   1.072805e+02  -1.811326e+01
   1.597734e+02   4.947223e+01
   3.726644e+01   1.121044e+02
  -8.783997e+01   7.860296e+01
  -1.604324e+02   2.508525e+01
  -5.977790e+01  -5.550324e+01
   5.839619e+01  -7.184834e+01
   5.162526e+01  -8.963478e+00
   1.494153e+01   5.082209e+01
  -6.286964e+01   3.934991e+00
  -6.569338e+01  -1.103141e+01
  -4.745907e+01  -6.072931e+01
  -3.502705e+01  -1.304150e+01
  -3.876995e+01   1.665070e+01
  -4.937895e+01  -4.859287e+01
  -6.642496e+01  -7.382956e+01
   2.891497e+01  -1.225980e+02
   1.286854e+02  -1.016910e+02
   1.295641e+02  -4.324247e+01
   1.461351e+02   9.913607e+01
   4.976411e+01   1.418059e+02
  -6.402881e+01   1.308749e+02
  -4.088016e+01   1.217591e+00
   3.460749e+01  -2.002673e+01
   1.285487e+02   4.943480e+01
   4.027063e+01   1.172885e+02
  -8.903835e+01   1.239366e+02
  -1.803225e+02   5.320680e+01
  -1.467791e+02  -2.913899e+01
   1.115997e+01  -9.763554e+01
   4.308578e+01  -8.948405e+01
   3.774007e+01  -1.596246e+01
   1.272051e+01   4.035869e+01
  -6.186169e+01   4.637946e+00
  -1.167756e+01  -4.343036e+01
   6.924242e+01  -1.129012e+02
   1.373920e+02  -6.119209e+01
   9.499715e+01   7.373323e+01
   2.137793e+01   1.768534e+02
  -1.133005e+02   1.294032e+02
  -1.178719e+02  -1.347177e+01
  -5.113471e+01  -1.433195e+02
  -1.201880e+01  -9.921538e+01
   2.949321e+01   4.231397e+00
   4.589112e+01   7.389007e+01
   4.603693e+01   1.824453e+01
   1.979650e+01  -4.418669e+01
   3.765365e+01  -8.020234e+00
   6.553622e+01   7.261868e+01
   3.711743e+01   9.299993e+01
  -2.691526e+01   5.165476e+01
  -1.171134e+02   1.742554e+01
  -1.255276e+02  -1.027963e+02
  -7.218057e+01  -7.438530e+01
   9.448496e+01  -3.542634e+01
   1.004025e+02  -5.229607e+01
   3.112595e+01   1.705541e+01
  -3.128313e+01  -7.270327e+00
  -2.911950e+01   1.337915e+01
   4.455255e+01  -1.885481e+01
   3.202928e+01   8.534940e+00
  -5.830298e+01  -1.397116e+01
  -7.874881e+01  -2.218935e+00
   7.929771e+00  -8.576821e+01
   9.277980e+01  -1.200151e+02
   1.974117e+02  -4.814038e+01
   9.427501e+01   4.934048e+01
   5.838088e+01   1.685383e+02
  -7.613059e+01   1.622856e+02
  -1.049647e+02   9.402545e+01
  -7.665940e+01   1.889059e+00
  -2.402398e+01  -5.440175e+01
  -2.457857e+01  -2.056531e+01
  -5.428788e+01   4.939419e+00
  -3.388581e+01  -2.572148e+01
  -3.991607e+01  -1.080100e+02
   2.481887e+01  -1.141737e+02
   8.539979e+01   1.265131e+00
   9.490286e+01   1.050509e+02
   3.349118e+01   8.118203e+01
  -6.690378e+01   1.031361e+01
  -1.090540e+02  -8.264401e+01
   1.377158e+01  -8.135080e+01
   1.150510e+02  -7.871445e+01
   9.283975e+01   2.123868e+01
   3.137773e+01   9.027551e+01
  -6.556292e+01   5.432780e+01
  -4.590002e+01   5.579239e+01
   5.544435e+01  -6.955393e+00
   6.977021e+01   4.027044e+00
  -1.653252e+01   9.818242e+00
  -6.766304e+01   9.193455e+01
  -9.053858e+01   8.298596e+01
  -6.223792e+01  -8.383806e+00
  -1.578299e+01  -5.826610e+01
   3.397362e+01  -1.197728e+02
   2.462088e+01  -3.902316e+01
   4.505203e+00   4.626766e+01
   2.147657e+01   4.829384e+01
  -3.745191e+01   7.204144e+00
   2.197436e+01  -3.015975e+01
   2.611574e+01  -4.896840e+01
   5.499481e+01  -2.909650e+01
   3.505114e+01   6.343073e+01
  -2.673398e+01  -2.685947e+01
   1.985568e+01  -2.458099e+01
   1.117254e+01  -1.890669e+01
   4.194384e+01   4.504190e+01
   1.932268e+01   5.711078e+01
  -4.976385e+00   3.726438e+01
  -1.813060e+01  -2.906127e+01
  -2.733956e+01  -3.766553e+01
  -4.757083e-01  -3.166120e+01
   5.505385e+01   4.994311e+01
   2.321476e+01   6.200923e+01
  -5.269510e+01   8.014989e+01
  -5.062422e+01   1.194316e+01
  -4.899268e+01  -4.865297e+01
  -7.991595e+00  -5.955926e+01
   7.892321e+01  -2.037993e+01
   2.248250e+01  -4.641534e-01
  -2.412831e+01   2.169916e+00
  -1.696149e+01  -6.717732e+00
   2.831274e+01   1.335262e+01
   9.149136e+01  -2.790244e+01
