
 $NMID
 id='ANONYMOUS ', fmtdat='(2E16.6)'
 volume=1.0
 tramp=1.0
 $END
   4.746885e+03  -9.587351e+01
   2.856712e+03   3.098815e+03
  -9.476089e+02   2.856903e+03
  -2.310044e+03   9.440817e+02
  -9.940876e+02  -9.216650e+02
   7.477810e+02  -7.062205e+02
   1.023860e+03   5.712774e+02
   2.253053e+01   1.122328e+03
  -9.867577e+02   8.853404e+02
  -1.085621e+03  -6.953216e+01
  -5.492898e+02  -9.902681e+02
   3.892972e+02  -1.061737e+03
   5.775402e+02  -1.180244e+02
   3.828134e+02   7.901753e+02
  -1.310341e+02   7.736113e+02
  -4.918681e+02  -1.303182e+02
  -1.894146e+02  -6.844564e+02
   3.812979e+02  -7.178366e+02
   7.387053e+02  -1.192512e+02
   4.183035e+02   1.765114e+02
   3.498254e+02   5.898470e+02
  -3.133415e+02   4.418128e+02
  -2.330530e+02   1.042830e+02
   1.241410e+02  -2.469456e+02
   4.567125e+02   7.961019e+01
   2.873040e+02   5.158046e+02
  -3.961056e+02   5.638179e+02
  -1.022714e+03  -8.752927e+01
  -4.448875e+02  -6.802607e+02
   4.544925e+02  -5.179418e+02
   7.745671e+02  -4.762834e+01
   2.676183e+02   5.949938e+02
  -3.462120e+02   4.640539e+02
  -4.791451e+02   2.359779e+02
  -3.419360e+02  -2.282658e+02
  -9.548846e+01  -4.757099e+02
   1.695841e+02  -2.849225e+02
   3.174014e+02   2.302457e+02
  -1.065773e+02   5.165360e+02
  -5.179700e+02  -5.015933e+01
  -3.136836e+02  -6.714088e+02
   3.648665e+02  -7.144702e+02
   6.741425e+02   5.674562e+01
   3.340576e+02   6.292579e+02
  -3.642968e+02   4.038933e+02
  -4.183552e+02  -3.478317e+02
   8.117872e+01  -5.819452e+02
   5.668436e+02  -1.569513e+02
   5.795556e+02   4.196522e+02
   1.302181e+02   6.334681e+02
  -4.260284e+02   3.742744e+02
  -6.205323e+02  -9.240248e+01
  -3.530862e+02  -4.058748e+02
   1.375246e+02  -3.744436e+02
   4.367927e+02  -5.023493e+01
   2.014418e+02   1.693191e+02
  -1.518133e+02   8.031892e+01
  -1.505966e+02  -1.489696e+02
   2.090427e+02  -1.063365e+02
   3.643116e+02   1.220891e+02
   1.203134e+02   2.940744e+02
  -2.833832e+02   2.602995e+02
  -4.156246e+02   4.315288e+01
  -2.012888e+02  -1.293589e+02
   4.450144e+01  -2.428363e+02
   1.996744e+02  -3.657994e+02
   3.479773e+02  -2.223643e+02
   2.906375e+02   1.219434e+02
   7.388797e+01   4.124566e+02
  -1.083562e+02   4.024657e+02
  -1.205347e+02   1.260991e+02
   5.858542e+00  -2.703001e+01
  -4.055560e+01   1.201253e+02
  -2.257900e+02   1.542008e+02
  -2.997396e+02  -3.908279e+01
  -1.841161e+02  -3.342230e+02
   8.654109e+01  -3.332002e+02
   2.667997e+02  -2.837521e+01
   2.403416e+02   2.760811e+02
   3.278999e+01   3.469143e+02
  -2.808727e+02   1.578398e+02
  -3.817784e+02  -1.682951e+02
  -1.979214e+02  -3.418738e+02
   1.102787e+02  -3.317380e+02
   2.880452e+02  -1.567640e+02
   1.381048e+02   2.811316e+01
   8.015021e+01  -3.550949e+01
   2.491796e+02  -7.762743e+01
   4.266470e+02   7.111788e+01
   3.568134e+02   2.894810e+02
  -1.191470e+01   4.639456e+02
  -3.579191e+02   4.268300e+02
  -4.931715e+02   2.040845e+02
  -3.490847e+02  -8.416629e+01
  -9.670047e+01  -3.052608e+02
   1.194846e+02  -2.674779e+02
   9.210514e+01  -4.283614e+01
  -4.507595e+01   1.031363e+02
  -1.604118e+02   1.012699e+01
  -4.589679e+01  -2.082366e+02
   1.362613e+02  -1.389731e+02
   1.337232e+02   9.617993e+01
  -3.881019e+01   2.112747e+02
  -2.295127e+02   1.156544e+01
  -1.924253e+02  -2.921175e+02
   2.935449e+01  -3.761238e+02
   2.155189e+02  -1.902692e+02
   3.405539e+02   5.277322e+01
   2.908626e+02   2.399833e+02
   8.571283e+01   2.160539e+02
  -7.331626e+01   1.593044e+02
  -1.711877e+02   8.441258e+01
  -6.969244e+01   2.173413e+01
   5.974284e+01   6.744982e+01
  -1.569019e+01   9.704645e+01
  -1.328784e+02   5.670938e+01
  -1.685137e+02  -2.162071e+01
  -3.211742e+01  -7.143253e+01
   7.002037e+01  -3.559035e+01
  -1.467738e+01   4.606901e+01
  -1.349090e+02   3.889380e+01
  -2.633854e+02   3.303518e+00
  -2.241187e+02  -1.170309e+02
  -2.590842e+01  -2.700452e+02
   1.782261e+02  -2.981542e+02
   2.527178e+02  -1.152427e+02
   1.886907e+02   6.322292e+01
  -3.676473e+01   1.318050e+02
  -1.384467e+02  -1.508848e+01
   2.411899e+01  -1.539087e+02
   2.081550e+02  -1.155416e+02
   2.545729e+02   6.475699e+01
   1.034955e+02   2.572342e+02
  -7.972139e+01   2.049148e+02
  -1.332043e+02   4.265157e+01
  -1.099170e+02  -3.613580e+01
   9.897717e+00   2.209899e+00
   5.566723e+01   6.343020e+01
  -6.503097e+01   1.135951e+02
  -2.301384e+02   4.335234e+01
  -2.337557e+02  -1.374673e+02
  -5.166549e+01  -2.560193e+02
   1.849091e+02  -1.981717e+02
   2.333200e+02  -6.827461e+01
   1.031982e+02   1.545007e+02
  -1.049142e+02   1.908942e+02
  -1.271306e+02   6.139452e+01
  -8.084980e+00  -2.000251e+01
   4.299588e+01  -2.266717e+01
  -2.581130e+00   1.575012e+00
  -6.918674e+01  -1.851189e+01
  -1.002269e+02  -1.080421e+02
  -1.636567e+01  -1.241780e+02
   1.012317e+02  -1.280974e+02
   2.368582e+02  -4.997143e+01
   2.162239e+02   1.505177e+02
   6.457936e+01   2.636721e+02
  -9.656085e+01   1.632589e+02
  -1.654313e+02   3.760474e+01
  -8.330788e+01  -3.147854e+01
  -3.504374e+01  -8.257874e+00
  -6.481151e+01   4.553262e+01
  -9.172523e+01  -1.359213e+01
  -4.914203e+01  -6.236136e+01
   6.729962e+01  -8.726246e+01
   9.471834e+01  -4.506355e+01
   8.703138e+01   5.583823e+01
  -1.915133e+01   1.441691e+02
  -1.103919e+02   9.268445e+01
  -2.454254e+02  -3.691138e+01
  -1.087358e+02  -2.291076e+02
   1.449998e+02  -2.870429e+02
   2.930757e+02  -1.243930e+02
   2.945606e+02   7.161946e+01
   1.396748e+02   1.980820e+02
  -5.348448e+01   1.665803e+02
  -5.446926e+01   1.020865e+02
  -3.679860e+01   3.273888e+01
  -3.656935e+01   9.558058e+01
  -8.315281e+01   1.057441e+02
  -1.311846e+02  -2.910469e+01
  -1.362942e+02  -1.607010e+02
  -2.507519e+01  -1.688504e+02
   1.018444e+02  -1.655648e+02
   2.047527e+02  -2.107828e+01
   1.751978e+02   1.226953e+02
   1.811461e+01   1.745356e+02
  -1.209095e+02   4.982162e+01
  -9.506511e+01  -3.548159e+01
   2.184140e+01  -7.651941e+01
   4.747463e+01  -2.956131e+01
  -1.225428e+01   6.709975e+00
  -6.943854e+01  -3.088896e+00
  -8.286063e+01  -6.209646e+01
   1.447762e+01  -7.387452e+01
   1.411042e+02  -1.920088e+01
   1.606013e+02   3.775043e+01
   2.348847e+01   8.197956e+01
  -7.279449e+01   8.412766e+01
  -1.569465e+02   2.899371e+01
  -5.149403e+01  -4.503903e+01
   9.699247e+01  -4.682259e+01
   1.092724e+02   2.763513e+01
  -7.828745e+00   2.941317e+01
  -8.512220e+01   4.048203e+01
  -8.124353e+01  -5.108322e+01
  -2.613413e+01  -5.601245e+01
  -2.053942e+01  -9.861044e+01
  -4.653466e+01  -1.736826e+01
  -4.616645e+01   2.155072e+00
  -4.280915e+01  -6.524471e+01
   5.068535e+01  -1.413790e+02
   1.418757e+02  -1.656768e+02
   1.853034e+02  -6.334259e+01
   8.939119e+01   8.757095e+01
   1.745914e+01   1.139666e+02
  -7.459141e+01   2.527963e+01
  -7.252603e+01  -4.558354e+01
   7.979712e+01  -2.384798e+01
   1.687882e+02   5.669396e+01
   7.445679e+01   1.429787e+02
  -7.020791e+01   1.035174e+02
  -1.986190e+02   3.834771e+01
  -1.668726e+02  -5.642651e+01
  -3.160457e+01  -6.509101e+01
   5.257465e+01  -5.353083e+01
   5.038048e+01  -1.953979e+01
  -7.351360e+01   2.965459e+01
  -1.145836e+02   2.568606e+01
  -5.256373e+01  -1.216361e+02
   1.149691e+02  -1.806720e+02
   1.690663e+02  -8.223164e+01
   1.334163e+02   1.247625e+02
   4.117859e+00   2.399460e+02
  -6.584298e+01   1.642436e+02
  -6.776997e+01  -5.604758e+01
  -5.515403e+01  -1.231639e+02
   9.862552e-01  -1.036514e+02
   2.499951e+01   1.232308e+01
   6.575608e+01   2.887276e+01
   8.862794e+01  -1.223053e+01
   5.441746e+00  -1.988951e+01
   2.535748e+01   6.911783e+01
   9.062826e+01   1.194994e+02
   3.122087e+01   8.371896e+01
  -3.566963e+01   7.600554e+01
  -1.590170e+02  -5.443288e+01
  -1.876497e+02  -7.720241e+01
  -1.970857e+01  -1.112850e+01
   1.071342e+02  -1.963492e+01
   1.069841e+02   7.336142e+00
  -1.514982e+01   3.071759e+01
  -1.241161e+01  -3.563876e+00
  -1.291664e+01  -8.390365e-01
   4.129001e+01   3.622590e+01
   6.465669e+00   1.237844e+01
  -6.754380e+01   2.102773e+01
  -1.123894e+02  -2.369399e+01
  -5.179352e+01  -9.971625e+01
   8.387411e+01  -1.261619e+02
   2.044528e+02  -5.598254e+01
   1.809225e+02   8.043467e+01
   4.386223e+01   1.661862e+02
  -6.292952e+01   1.576541e+02
  -1.085728e+02   9.715116e+01
  -9.761313e+01   3.192310e+00
  -3.388968e+01  -4.916965e+01
   4.440946e+01  -1.159812e+01
   2.964644e+01  -1.044924e+01
  -3.821190e+01  -5.821245e+01
  -2.497987e+00  -9.928258e+01
   3.415926e+01  -8.796994e+01
   8.070920e+01   3.589052e+01
   7.383508e+01   1.094875e+02
   1.253157e+01   8.852846e+01
  -7.945937e+01   2.492333e+00
  -8.537047e+01  -6.791974e+01
  -3.301058e+01  -1.074270e+02
   2.641782e+01  -4.545782e+01
   6.450913e+01   2.327865e+01
   3.321377e+01   7.658127e+01
  -1.843664e+01   2.520695e+01
  -3.679043e+01   2.630128e+01
   3.329698e+01  -1.804138e+01
   4.354670e+01   2.963676e+01
   3.549063e+01   3.614249e+01
  -7.600990e+01   6.203481e+01
  -1.185192e+02   1.143621e+00
  -1.133268e+02  -4.893635e+00
  -3.069790e+01  -9.032940e+01
   4.642033e+01  -1.139177e+02
   8.926346e+01  -9.092906e+00
   1.675732e+01   3.154105e+01
  -2.425810e+01   5.593724e+01
  -2.903331e+01  -1.884405e+01
  -2.804836e+01  -2.109576e+01
  -5.122479e+01  -2.392673e+01
   2.252756e+01  -2.103014e-01
   5.874640e+01  -2.877918e+01
   3.069113e+01  -3.659171e+01
  -6.077399e+00  -4.742067e+01
  -8.855683e-01   1.085326e+01
  -7.036981e+00   3.010644e+01
  -3.206366e+00   6.682224e+01
  -1.845273e+01   4.220474e+01
  -4.560349e+01  -5.445443e+01
  -3.777256e+00  -3.403995e+01
   7.148450e+01   1.955975e+01
   8.541095e+01   4.834446e+01
   3.642674e+01   6.287731e+01
  -5.340498e+01   9.134457e+01
  -9.291017e+01  -4.392505e+01
  -1.268444e+02  -4.373468e+01
   3.537958e+01  -8.725161e+01
   5.448873e+01  -4.456049e+01
   3.566773e+01   2.129106e+01
  -4.342292e+01   2.087158e+01
  -5.660053e+01  -3.629863e+01
   4.542574e+01  -3.077846e+01
   9.452189e+01  -5.599257e+01
