
 $NMID
 id='ANONYMOUS ', fmtdat='(2E16.6)'
 volume=1.0
 tramp=1.0
 $END
  -4.805598e+03   1.572177e+02
  -2.667366e+03  -2.989446e+03
   1.002831e+03  -2.955007e+03
   2.333157e+03  -7.597987e+02
   1.066938e+03   8.223441e+02
  -8.606868e+02   6.573818e+02
  -1.234652e+03  -4.475572e+02
   5.427806e+01  -1.276779e+03
   1.032377e+03  -8.140365e+02
   1.113813e+03   3.112819e+02
   4.509753e+02   1.011415e+03
  -3.330545e+02   8.952935e+02
  -8.107662e+02   2.258528e+02
  -2.668982e+02  -7.204983e+02
   3.555079e+02  -8.402644e+02
   6.307444e+02   7.261664e+01
   1.659370e+02   7.434355e+02
  -4.166976e+02   8.147879e+02
  -5.900135e+02   7.046329e+01
  -4.550242e+02  -4.625669e+02
   1.287117e+02  -6.117667e+02
   4.147875e+02  -2.906421e+02
   1.030002e+02   7.452279e+01
  -1.266487e+02   2.395710e+01
  -5.121260e+02  -1.650947e+02
  -3.048535e+02  -5.309864e+02
   4.776681e+02  -4.420910e+02
   8.107741e+02   1.031701e+02
   3.963276e+02   4.544323e+02
  -3.774325e+02   5.428005e+02
  -7.245433e+02  -1.196364e+02
  -2.692996e+02  -5.736396e+02
   3.325021e+02  -5.435774e+02
   6.267345e+02  -1.520269e+02
   5.127602e+02   2.170000e+02
   9.329286e+01   5.534057e+02
  -2.121092e+02   3.135246e+02
  -2.114824e+02  -3.036201e+02
   5.904268e+01  -4.351180e+02
   4.729317e+02   5.036396e+01
   3.105670e+02   7.675900e+02
  -3.452485e+02   7.379475e+02
  -6.533438e+02   4.749084e+00
  -2.833319e+02  -6.200637e+02
   2.881749e+02  -3.668648e+02
   4.776962e+02   3.433230e+02
  -2.728093e+01   6.157372e+02
  -6.057620e+02   2.039159e+02
  -6.684471e+02  -4.109503e+02
  -2.110337e+02  -6.126459e+02
   3.620714e+02  -4.031412e+02
   6.793742e+02   8.589462e+01
   4.140833e+02   4.408599e+02
  -1.435772e+02   4.154260e+02
  -4.770128e+02   5.103100e+01
  -2.247617e+02  -2.557551e+02
   1.575944e+02  -1.449624e+02
   1.640985e+02   1.977624e+02
  -2.001346e+02   2.195539e+02
  -3.457580e+02  -6.443245e+01
  -1.327828e+02  -3.250163e+02
   2.387117e+02  -2.946337e+02
   3.464935e+02  -7.757968e+01
   1.960089e+02   7.360298e+01
   1.494723e+01   2.438023e+02
  -2.269640e+02   3.711675e+02
  -3.901542e+02   2.018299e+02
  -3.106572e+02  -1.869840e+02
  -6.888284e+01  -4.886821e+02
   1.190920e+02  -4.009221e+02
   1.313072e+02  -4.184728e+01
   3.864665e+00   2.761524e+01
   8.818601e-01  -1.212727e+02
   1.647985e+02  -1.687889e+02
   2.948294e+02   3.855299e+01
   1.856684e+02   2.519576e+02
  -1.054098e+02   3.008599e+02
  -2.646741e+02   1.253547e+01
  -2.194872e+02  -2.432927e+02
   4.667153e+01  -3.754037e+02
   3.175791e+02  -1.455943e+02
   4.044880e+02   1.544373e+02
   2.009743e+02   3.802506e+02
  -7.775221e+01   3.251080e+02
  -2.358592e+02   9.942978e+01
  -1.191719e+02  -1.994775e+01
  -4.136615e+01   9.694639e+01
  -1.804988e+02   6.744802e+01
  -4.430243e+02  -2.264335e+01
  -3.385199e+02  -2.120623e+02
  -1.334587e+01  -4.323932e+02
   3.451525e+02  -4.402947e+02
   5.049341e+02  -2.575005e+02
   3.705562e+02   4.701646e+01
   1.012405e+02   3.525463e+02
  -8.920494e+01   3.060693e+02
  -1.337309e+02   6.130738e+01
   7.464387e+01  -1.138553e+02
   1.859403e+02  -4.484420e+01
   1.407610e+00   2.193811e+02
  -1.380129e+02   2.233204e+02
  -2.001596e+02  -9.388558e+01
  -4.054710e+00  -2.382197e+02
   2.180068e+02  -5.148870e+01
   2.027442e+02   2.505099e+02
  -1.727383e+01   3.956642e+02
  -1.761884e+02   2.533583e+02
  -3.067193e+02  -6.003087e+01
  -2.865381e+02  -2.138918e+02
  -1.619832e+02  -2.555590e+02
   8.598417e+01  -1.492335e+02
   1.964688e+02  -3.015047e+01
   6.080496e+01   7.028185e+01
  -1.100527e+02  -2.162256e+01
  -6.861373e+01  -1.485499e+02
   9.573439e+01  -1.342021e+02
   2.375607e+02  -1.519753e+01
   3.641622e+01   4.622289e+01
  -5.527764e+01   6.407855e+01
  -2.563982e+01  -4.477144e+01
   8.908832e+01  -8.991028e+01
   2.651746e+02   1.142130e+01
   2.857609e+02   1.113794e+02
   4.722397e+01   2.304758e+02
  -1.843232e+02   2.606668e+02
  -2.931227e+02   1.287940e+02
  -1.713476e+02  -6.557229e+01
   5.267077e+01  -1.267906e+02
   9.758893e+01   2.776001e+01
  -7.750122e+01   1.195153e+02
  -2.059092e+02   7.972740e+01
  -2.355905e+02  -8.681857e+01
  -7.758617e+01  -2.361247e+02
   8.454257e+01  -1.773876e+02
   1.524530e+02  -7.535755e+01
   9.539884e+01   3.291804e+01
   5.459809e+00   2.978119e+00
  -4.689274e+01  -6.070413e+01
   3.537768e+01  -1.239045e+02
   2.022479e+02  -2.359729e+01
   2.591330e+02   1.190226e+02
   5.672228e+01   2.515612e+02
  -1.525868e+02   1.637984e+02
  -2.337933e+02   1.642210e+01
  -1.309900e+02  -1.195078e+02
   1.374903e+01  -1.149006e+02
   1.198137e+02  -9.271601e+00
   9.228552e+00   4.579546e+01
  -1.521383e+01  -1.263069e+01
  -2.360898e+01  -3.063032e+00
   8.118437e+01   1.463880e+01
   7.388474e+01   6.421408e+01
   4.117429e+01   1.599315e+02
  -1.495856e+02   1.763989e+02
  -2.689621e+02  -1.354506e+00
  -1.859428e+02  -1.814444e+02
  -4.998582e+01  -2.353891e+02
   9.616166e+01  -1.770014e+02
   1.374745e+02  -5.700395e+01
   3.287114e+01   1.597372e-01
   2.362375e+01   2.080433e+01
   6.560836e+01  -1.182344e+01
   1.000095e+02   1.285580e+01
   3.853104e+01   5.578337e+01
  -2.813055e+01   9.161036e+01
  -8.244567e+01   8.243326e+01
  -9.703574e+01  -2.806195e+01
  -8.475502e+00  -1.155167e+02
   1.625709e+02  -8.835196e+01
   2.318269e+02   8.938043e+01
   1.086143e+02   1.811427e+02
  -7.152569e+01   2.177585e+02
  -2.101898e+02   8.388618e+01
  -2.218035e+02  -9.242878e+01
  -1.112079e+02  -1.402503e+02
   1.533466e+01  -1.116463e+02
   6.574493e+01  -7.785426e+01
   9.261892e+01  -8.827263e+01
   8.172839e+01  -8.561275e+01
   8.125097e+01  -8.853500e+01
   1.383942e+02   1.361841e+01
   1.192372e+02   1.768861e+02
   3.283803e+01   2.283953e+02
  -1.159504e+02   1.727914e+02
  -1.808415e+02   1.524627e+01
  -1.446171e+02  -1.348071e+02
  -7.528318e+00  -1.381564e+02
   9.713384e+01  -7.475134e+01
   1.968539e+01   1.215064e+01
   1.640249e+01   3.855574e+01
   6.197698e+00   4.208996e+01
   2.983952e+01   2.212139e+01
   1.075630e+01   8.030797e+00
   3.431900e+01   2.685662e+01
  -7.809936e+01   4.735344e+00
  -1.730647e+02  -1.781963e+01
  -1.137308e+02  -5.132003e+01
  -2.940809e+01  -9.500653e+01
   1.216461e+02  -7.200239e+01
   1.753286e+02   1.676852e+01
   2.767096e+01   6.177955e+01
  -8.996854e+01   5.323433e+00
  -7.561527e+01  -5.682485e+01
  -1.582883e+00  -6.252744e+01
   7.884416e+01  -2.995563e+01
   7.670261e+01   3.665995e+00
   5.930238e+01   6.650942e+01
   2.548010e+01   3.698097e+01
   6.491660e+01  -3.815513e+01
   8.076415e+01  -5.482273e+01
   6.019489e+01   6.403204e+01
  -4.874071e+01   1.464411e+02
  -7.643445e+01   1.666389e+02
  -1.280256e+02   4.279696e+01
  -9.018589e+01  -1.252712e+02
   3.559301e+01  -1.043279e+02
   4.647679e+01   6.226174e+00
   2.544270e+01   3.629589e+01
  -3.086289e+01   5.248379e+01
  -1.145633e+02  -6.687182e+01
  -6.120731e+01  -1.008177e+02
   9.830762e+01  -1.060497e+02
   1.816945e+02  -7.757569e+01
   1.667561e+02   5.160588e+01
   3.663189e+01   1.010125e+02
  -7.413228e+01   6.915265e+01
  -6.659066e+01   1.122653e+01
   5.545321e+01  -2.638303e+01
   1.258891e+02   1.026834e+01
   6.199361e+01   1.243409e+02
  -9.946311e+01   1.557298e+02
  -2.112554e+02   6.605170e+01
  -1.641169e+02  -9.269677e+01
  -8.387190e+00  -1.886775e+02
   8.316717e+01  -1.317782e+02
   1.182225e+02   9.403463e+00
   6.841356e+01   8.958216e+01
  -1.406846e+01   1.117814e+02
  -7.708879e+01  -1.577060e-01
  -5.110878e+01  -5.575069e+01
  -3.081266e+01  -2.916422e+01
   8.551111e+00   2.938892e+01
   1.493401e+01  -2.873226e+01
  -3.569341e+01  -1.168440e+02
  -3.870502e+01  -1.158278e+02
   7.285617e+01  -5.368730e+01
   1.639831e+02   2.274136e+01
   1.137379e+02   1.051774e+02
   8.669061e+00   5.745003e+01
  -8.528153e+01   4.524519e+01
  -6.661163e+01   2.959795e+01
  -2.949576e+00   4.393612e+00
   7.445733e+01  -3.894082e+01
   5.661910e+01  -1.063588e+01
  -5.880493e+01   5.919991e+00
  -5.382840e+01   2.860886e+01
   8.002196e+01  -2.603346e+01
   1.346878e+02   1.844284e+01
   8.403550e+01   8.991658e+01
  -1.346190e+02   1.402841e+02
  -1.943379e+02   7.513683e+01
  -1.712695e+02  -3.512085e+01
  -3.567732e+01  -1.665150e+02
   5.988985e+01  -1.427167e+02
   1.384313e+02  -5.422866e+01
   7.067324e+01  -6.852249e+00
   3.874608e+01   4.585279e+01
   1.675191e+01  -2.877430e+01
  -5.121590e+00  -3.994591e+01
   1.281801e+01   4.332150e+01
   4.065354e+01   1.130370e+02
  -3.532904e+01   3.922120e+01
  -4.919262e+01  -2.989609e+00
  -4.863374e+01  -1.168933e+02
   4.308284e+00  -1.192470e+02
   6.505390e+01  -4.222257e+00
   1.174149e+02   5.857742e+01
   2.065901e+01   1.025562e+02
  -7.550137e+01   6.709948e+01
  -1.112498e+02   8.126922e+00
  -3.201534e+01  -3.704769e+01
   5.488795e+01  -4.370317e+01
   3.086877e+01  -2.448087e+01
  -2.126967e+01  -2.913874e+01
  -5.774053e+01   1.304168e+01
  -1.713252e+01  -1.445208e+01
   6.614538e+01  -6.946682e+01
   1.194159e+02   1.907834e+01
   9.033739e+01   1.238261e+00
  -3.475876e+01   6.084571e+01
  -8.836598e+01   4.919436e+01
  -5.461806e+01   3.582778e+00
  -2.183291e+01  -1.724207e+01
   1.023750e+01  -4.311606e+01
   4.863464e+01  -1.859580e+00
   2.547828e+01   5.418129e+01
   9.850372e+00   3.780049e+01
  -1.959219e+01  -2.983177e+00
  -5.563359e+01  -2.399315e+01
  -3.518109e+01  -8.338779e+00
   7.229148e+00  -2.386848e+00
   4.621686e+01  -1.675279e+01
   6.347919e+01  -5.186439e+01
   1.673055e+01  -3.625244e+01
   4.673730e+01   4.272605e+00
   3.816191e+01   5.857402e+01
  -1.084357e+01   8.428618e+01
  -6.436361e+01  -3.117837e+00
  -7.254335e+01  -3.819211e+01
  -1.357833e+01  -5.048179e+01
   3.546502e+01  -2.678557e+01
   1.006592e+02   8.533312e+00
   1.798099e+01   4.356252e+00
  -3.692186e+01   3.689079e+01
  -6.524067e+01  -3.787689e+00
  -1.556488e+01  -1.537367e+01
   5.656641e+01  -1.030747e+01
   3.482398e+01   1.039239e+00
  -3.715943e+01   2.793441e+01
  -8.942550e+01   7.977345e+00
