
 $NMID
 id='ANONYMOUS ', fmtdat='(2E16.6)'
 volume=1.0
 tramp=1.0
 $END
  -4.723023e+03   1.849497e+02
  -2.676175e+03  -3.041306e+03
   8.488170e+02  -3.121549e+03
   2.342508e+03  -7.972833e+02
   1.007124e+03   8.364442e+02
  -7.000199e+02   7.185052e+02
  -9.668596e+02  -5.412694e+02
  -6.939780e+01  -1.147905e+03
   7.828297e+02  -7.891731e+02
   9.420738e+02   2.546050e+02
   4.763205e+02   9.305502e+02
  -2.968640e+02   1.014060e+03
  -7.606163e+02   1.564443e+02
  -3.200750e+02  -8.703874e+02
   2.886926e+02  -7.952776e+02
   6.767534e+02  -5.438184e+01
   1.594358e+02   6.757328e+02
  -3.098058e+02   6.101780e+02
  -7.802606e+02  -6.405615e+01
  -4.111439e+02  -3.137364e+02
  -6.828591e+01  -3.896352e+02
   2.189682e+02  -3.658316e+02
   2.244027e+02   4.048255e+01
  -8.643283e+00  -1.164525e+01
  -4.674449e+02   3.690696e+01
  -3.888611e+02  -5.201339e+02
   4.998740e+02  -4.891324e+02
   9.673455e+02   1.748895e+02
   3.789344e+02   6.131470e+02
  -3.535454e+02   4.772460e+02
  -8.135369e+02  -1.118081e+01
  -3.766461e+02  -5.864967e+02
   3.266250e+02  -5.640718e+02
   6.751634e+02  -2.413401e+02
   5.329372e+02   3.557667e+02
   8.319733e+00   5.985740e+02
  -2.677838e+02   2.662835e+02
  -2.079238e+02  -2.573071e+02
   1.039288e+02  -4.901089e+02
   4.374628e+02  -7.455946e-02
   3.161363e+02   8.048705e+02
  -3.010669e+02   7.768251e+02
  -6.760564e+02   6.468056e+01
  -3.970543e+02  -6.319054e+02
   2.216697e+02  -3.523415e+02
   3.946625e+02   3.729756e+02
  -3.519316e+00   6.269025e+02
  -5.767263e+02   1.668869e+02
  -6.499599e+02  -3.998591e+02
  -2.152307e+02  -6.374438e+02
   4.361550e+02  -4.107997e+02
   6.346753e+02   2.596614e+01
   3.230647e+02   3.888640e+02
  -2.093407e+02   3.658829e+02
  -4.538055e+02   6.071083e+01
  -2.215752e+02  -2.593146e+02
   1.283735e+02  -1.084560e+02
   1.231393e+02   1.627958e+02
  -1.545963e+02   2.015953e+02
  -3.548706e+02  -9.472239e+01
  -1.307690e+02  -2.998651e+02
   2.154342e+02  -2.671881e+02
   3.570491e+02  -6.050889e+01
   2.220036e+02   1.174755e+02
  -3.793036e+01   2.561822e+02
  -2.651998e+02   3.931560e+02
  -3.563271e+02   2.860985e+02
  -3.300973e+02  -1.192496e+02
  -1.293066e+02  -4.562233e+02
   8.329377e+01  -3.919774e+02
   1.343847e+02  -1.336694e+02
   3.137477e+01   4.129989e+01
   5.647121e+01  -8.296387e+01
   1.899943e+02  -1.192044e+02
   2.775632e+02   2.287667e+01
   1.769966e+02   2.846790e+02
  -6.325764e+01   2.870670e+02
  -2.581694e+02   3.544165e+01
  -2.402700e+02  -2.888295e+02
   1.408233e+01  -3.429409e+02
   3.278315e+02  -1.364163e+02
   3.885521e+02   1.962369e+02
   1.781032e+02   3.743416e+02
  -8.713294e+01   3.401406e+02
  -2.482268e+02   1.141921e+02
  -1.855492e+02  -2.075504e+01
  -1.466885e+02   3.623996e+01
  -2.285780e+02   6.370231e+01
  -4.042486e+02  -3.973847e+01
  -3.341235e+02  -3.240849e+02
  -3.243500e+00  -4.964378e+02
   3.725394e+02  -4.806727e+02
   5.183937e+02  -1.947519e+02
   3.849092e+02   1.090889e+02
   4.411544e+01   3.318976e+02
  -1.427873e+02   2.592298e+02
  -1.080461e+02   1.017475e+00
   9.961512e+01  -1.257646e+02
   2.198595e+02  -9.318662e+00
   4.973097e+01   1.902795e+02
  -2.139942e+02   1.866424e+02
  -1.723831e+02  -6.818597e+01
   2.583557e+01  -1.747633e+02
   1.849149e+02  -3.030391e+01
   1.734349e+02   2.826282e+02
  -6.581883e+01   3.619928e+02
  -2.587688e+02   1.876434e+02
  -3.616307e+02  -1.222802e+02
  -2.380313e+02  -2.108630e+02
  -7.252531e+01  -2.483043e+02
   1.108173e+02  -1.143882e+02
   1.260451e+02   6.069691e+01
   2.874935e+01   2.069211e+01
  -9.855548e+01  -9.783083e+01
  -3.513694e+01  -1.465919e+02
   1.163208e+02  -9.406612e+01
   1.579523e+02   1.375720e+01
   5.813958e+01   6.280341e+01
  -8.053549e+01  -2.083796e+01
  -2.395592e+01  -1.174530e+02
   1.260775e+02  -1.139525e+02
   2.769455e+02   7.382280e-01
   2.893948e+02   1.324652e+02
   7.865943e+01   2.633571e+02
  -1.683520e+02   2.784443e+02
  -2.692331e+02   1.317774e+02
  -1.524615e+02  -4.592828e+01
   3.799386e+01  -1.046161e+02
   1.211214e+02  -1.699255e+01
  -2.928739e+01   1.119969e+02
  -2.040557e+02   5.052090e+01
  -1.914904e+02  -7.389255e+01
  -5.603459e+01  -1.963601e+02
   8.663004e+01  -1.900282e+02
   1.579729e+02  -7.350237e+01
   1.085331e+02   5.905323e+01
  -1.748300e+01   7.312595e+01
  -3.088440e+01  -7.245165e+01
   6.967926e+01  -1.367098e+02
   2.089842e+02  -7.225433e+01
   2.170108e+02   1.407488e+02
   7.793201e+01   2.367390e+02
  -1.743998e+02   1.983859e+02
  -2.679581e+02   1.665788e+01
  -1.064354e+02  -1.201679e+02
   5.199623e+01  -1.266483e+02
   7.144363e+01  -2.499176e+01
   5.051045e+01   7.023574e+00
   2.099914e+01  -3.988563e-01
   3.232799e+01   4.148139e+01
   2.682899e+01   6.764153e+01
   4.862848e+01   7.642301e+01
   5.604179e+01   1.517828e+02
  -1.281488e+02   1.390089e+02
  -2.299965e+02   5.491348e+00
  -2.242503e+02  -1.708668e+02
  -4.261062e+01  -2.466549e+02
   8.468964e+01  -2.009942e+02
   1.824223e+02  -2.170309e+01
   8.212155e+01   8.561210e+01
   6.075947e+01   4.405298e+01
   7.526942e+00  -3.309865e+01
   4.767995e+01   7.424426e+00
   4.209156e+01   3.106595e+01
  -7.150234e+01   3.782855e+01
  -7.838183e+01   2.221161e+01
  -5.816203e+01  -4.448360e+01
  -1.436731e+01  -1.330966e+02
   1.460242e+02  -7.046560e+01
   2.257133e+02   6.869312e+01
   1.196619e+02   2.172571e+02
  -1.197531e+02   2.703682e+02
  -2.931601e+02   1.128979e+02
  -2.787325e+02  -7.082984e+01
  -1.621331e+02  -1.587307e+02
   4.072981e+01  -1.637354e+02
   9.735835e+01  -1.163414e+02
   5.959218e+01  -9.138627e+01
   4.562718e+01  -1.227665e+02
   1.142732e+02  -8.621328e+01
   1.550637e+02   2.276376e+01
   1.388240e+02   1.366756e+02
   4.717432e+00   2.515091e+02
  -1.315487e+02   1.552422e+02
  -1.976150e+02   3.138564e+01
  -1.597481e+02  -1.283923e+02
   9.596970e-01  -1.961167e+02
   7.615839e+01  -7.637338e+01
   8.519191e+01   1.769879e+01
   2.925478e+01   5.051086e+01
   2.066844e+01   5.134971e+01
  -1.825436e+01   6.564475e+01
  -6.278262e+00   6.712408e+01
   5.328595e+01   6.714816e+01
  -2.458679e+01   6.033308e+01
  -1.418043e+02   1.633747e+01
  -1.038148e+02  -5.436550e+01
  -5.426022e+01  -6.126246e+01
   8.838783e+01  -4.946075e+01
   1.519883e+02  -2.466718e+01
   3.333526e+01   1.670648e+01
  -5.503339e+01   7.313127e+01
  -7.457025e+01  -1.279386e+01
   2.943656e+01  -7.396285e+01
   6.704293e+01  -1.903621e+01
   2.215251e+01   4.054874e+01
   9.271927e+00   3.693324e+01
   2.113692e+01  -7.902528e+00
   5.821574e+01  -1.773752e+01
   1.100858e+02  -8.538926e+00
   5.813921e+01   5.685740e+01
   2.375156e+00   1.451727e+02
  -9.989445e+01   1.637707e+02
  -2.114238e+02   1.065492e+01
  -1.052268e+02  -4.816196e+01
  -1.025613e+00  -8.354430e+01
   1.343362e+02  -6.126257e+01
   7.000570e+01   1.423243e+01
  -7.988025e+01   4.181259e+01
  -1.545649e+02  -3.224310e+01
  -9.660671e+01  -1.550346e+02
   9.297656e+01  -1.801727e+02
   2.190200e+02  -8.220801e+01
   1.672700e+02   3.827207e+01
   6.741242e+01   1.056536e+02
  -4.582333e+01   1.227593e+02
  -3.682557e+01   3.455755e+01
   2.060229e+01  -3.051237e+01
   8.882701e+01   7.696899e+01
   4.885784e+01   1.679620e+02
  -6.431393e+01   1.604800e+02
  -2.203816e+02   4.137940e+01
  -1.681504e+02  -8.057824e+01
  -1.900941e+01  -2.110354e+02
   9.338760e+01  -1.801419e+02
   7.097238e+01   1.041962e+01
   4.605343e+01   1.177458e+02
   2.062557e+01   5.895777e+01
  -2.831629e+01   1.123944e+01
  -3.173576e+01  -1.449022e+01
  -1.685177e-01  -2.624500e+01
  -6.250937e+00  -4.480238e+01
   3.664486e+01  -6.603062e+00
  -7.141513e+01  -4.393260e+01
  -5.306849e+01  -8.931282e+01
   3.483558e+01  -3.712013e+01
   1.147118e+02   1.232311e+01
   1.270794e+02   6.133462e+01
   2.331516e+01   5.046105e+01
  -7.922351e+01   3.976236e+01
  -7.737597e+01  -1.603990e+01
  -1.930116e+01  -5.390831e+00
   4.088765e+01  -1.158527e+01
   4.110263e+00   3.622341e+01
  -3.233422e+01   3.366469e+01
  -1.848762e+01   1.963180e+01
   2.231225e+01  -2.432198e+01
   1.041672e+02   5.687471e+01
   4.002180e+01   5.974559e+01
  -9.344227e+01   1.120379e+02
  -1.880145e+02   3.771325e+01
  -1.438681e+02  -7.221393e+01
  -2.625501e+01  -1.861010e+02
   1.133306e+02  -1.200932e+02
   1.421047e+02  -7.809915e+01
   4.854712e+01  -4.489809e+00
  -7.161145e+00   2.671174e+01
  -4.519401e+00   5.513699e+00
   3.941555e+01  -3.332347e+01
   7.120530e+01   2.855639e+01
   2.877760e+01   1.134619e+02
  -6.395760e+01   6.985238e+01
  -1.132058e+02   2.679512e+01
  -1.054755e+02  -1.171516e+02
  -1.514378e+01  -1.437097e+02
   9.657106e+01  -7.291140e+00
   1.096960e+02   6.022798e+01
   5.576472e+01   1.501818e+02
  -9.804134e+01   9.390243e+01
  -1.087373e+02   1.773190e+01
   1.880713e+00  -7.341118e+01
   5.687046e+00  -7.711628e+01
   4.136672e+01   3.432675e+00
   1.346460e+01   1.040834e+01
  -5.503004e+01  -1.770231e+01
  -9.303446e+01  -2.326092e+01
   9.306532e+01  -9.442976e+01
   9.973854e+01  -3.790780e+01
   9.496582e+01   1.985471e+01
   5.673192e+00   9.537148e+01
  -5.621231e+01   1.183763e+02
  -5.512667e+01   5.398764e+01
  -1.941327e+01  -2.934480e+01
  -1.687877e+01  -1.366030e+01
  -2.624429e+01  -2.400281e+01
   4.671363e+01   1.968761e+01
  -1.110955e+00   3.059348e+01
  -3.035044e+01   1.423018e+00
  -8.279389e+00  -5.582470e+01
  -9.020254e+00  -4.237610e+01
   3.080224e+01  -1.704104e+01
   1.707586e+01   1.712128e+01
  -1.253063e+00  -4.999508e+01
   3.066517e+01  -1.477125e+01
   4.393979e+01   8.658085e+00
   3.145733e+01   9.961166e+00
   3.758656e+00   5.574273e+01
  -3.016276e+01  -3.528415e+01
  -4.313296e+01  -4.097628e+01
  -2.570850e+01  -4.830786e+01
   2.934363e+01  -1.381337e+00
   1.083810e+02  -3.530753e+00
   5.336926e+00   5.118970e+00
   5.113220e+00   3.513722e+01
  -9.036598e+01   3.679691e+01
  -4.417727e+01   1.928018e+01
  -1.983152e+01   6.041410e+01
   5.656831e+01  -7.602464e+00
   2.745858e+01  -5.504522e+01
  -4.389539e+01   5.150965e+01
