
 $NMID
 id='ANONYMOUS ', fmtdat='(2E16.6)'
 volume=1.0
 tramp=1.0
 $END
  -4.713986e+03  -1.500259e+02
  -2.708428e+03  -2.829571e+03
   7.343670e+02  -3.005162e+03
   2.099899e+03  -9.547894e+02
   1.048871e+03   8.546485e+02
  -8.298050e+02   7.045723e+02
  -9.324530e+02  -5.302534e+02
  -3.506170e+01  -1.261789e+03
   9.946736e+02  -7.570781e+02
   1.046943e+03   7.640253e+01
   6.529406e+02   8.777952e+02
  -2.490388e+02   8.898395e+02
  -7.250896e+02   4.770951e+01
  -3.431419e+02  -8.824820e+02
   2.828701e+02  -7.622655e+02
   6.922887e+02  -1.590335e+02
   3.563997e+02   6.325866e+02
  -3.633786e+02   7.130187e+02
  -5.758947e+02  -8.973488e+01
  -3.174592e+02  -4.547225e+02
  -1.170586e+02  -3.925375e+02
   1.797051e+02  -1.292826e+02
   3.220274e+02  -4.346458e+01
   6.851419e+01  -2.007079e+01
  -4.693585e+02  -9.556954e+01
  -2.705325e+02  -4.953374e+02
   4.938909e+02  -4.891587e+02
   9.341439e+02   9.884866e+00
   4.230125e+02   4.749589e+02
  -4.166023e+02   5.582564e+02
  -6.935864e+02   1.049448e+02
  -5.051588e+02  -5.528554e+02
   1.617541e+02  -6.142044e+02
   5.872409e+02  -3.323652e+02
   4.170985e+02   3.107035e+02
   3.151567e+01   5.540513e+02
  -2.074050e+02   2.998203e+02
  -2.200896e+02  -2.502663e+02
   1.509247e+02  -4.273110e+02
   5.291147e+02   1.773599e+01
   3.058900e+02   7.427394e+02
  -3.653827e+02   7.486752e+02
  -7.100274e+02  -1.642387e+01
  -2.614600e+02  -6.078577e+02
   3.703792e+02  -3.333262e+02
   4.605977e+02   3.424569e+02
  -1.088687e+02   5.468072e+02
  -6.119646e+02   1.488440e+02
  -6.111126e+02  -4.060656e+02
  -1.761739e+02  -5.783991e+02
   3.613219e+02  -3.084222e+02
   6.547509e+02   8.160659e+01
   4.046808e+02   3.588822e+02
  -8.843128e+01   3.539284e+02
  -4.747524e+02   5.658485e+01
  -3.127249e+02  -1.594200e+02
   9.333221e+01  -1.150629e+02
   1.979879e+02   1.130140e+02
  -1.642458e+02   1.863979e+02
  -3.486621e+02   1.907852e+01
  -1.805912e+02  -2.874646e+02
   2.010674e+02  -2.416609e+02
   3.414696e+02  -9.311464e+01
   1.974161e+02   1.094402e+02
  -6.021388e+01   2.570955e+02
  -2.269596e+02   3.818535e+02
  -3.169718e+02   2.384908e+02
  -2.900958e+02  -1.090790e+02
  -1.128322e+02  -4.490841e+02
   9.378112e+01  -3.971011e+02
   1.084097e+02  -1.493195e+02
   4.988600e+01   2.875300e+01
   3.090267e+01  -7.223643e+01
   1.660880e+02  -1.225343e+02
   2.568085e+02   3.885576e+01
   1.887443e+02   2.873797e+02
  -3.682808e+01   3.057034e+02
  -2.022906e+02   5.538205e+01
  -1.981459e+02  -2.462439e+02
  -9.188957e+00  -2.965148e+02
   2.511859e+02  -9.536850e+01
   3.579772e+02   1.887903e+02
   1.732786e+02   3.771638e+02
  -9.414514e+01   3.410027e+02
  -2.418362e+02   1.354455e+02
  -1.687367e+02   5.568383e+00
  -1.002320e+02   4.784612e+01
  -2.473691e+02   3.654528e+01
  -4.682949e+02  -5.568661e+01
  -3.497703e+02  -2.779460e+02
   4.428075e+01  -4.683779e+02
   4.092311e+02  -4.511085e+02
   5.017035e+02  -1.996418e+02
   3.740915e+02   1.097483e+02
   7.247592e+01   3.428814e+02
  -1.232736e+02   3.233361e+02
  -6.450345e+01   5.733008e+01
   7.689803e+01  -1.029346e+02
   1.930413e+02   2.136340e+01
   4.042914e+01   1.942916e+02
  -1.635543e+02   1.661962e+02
  -1.840688e+02  -2.247390e+01
  -3.884209e+00  -1.917960e+02
   1.616695e+02  -3.870912e+01
   1.316955e+02   2.556514e+02
  -4.115594e+00   3.254521e+02
  -2.162138e+02   1.659987e+02
  -3.008369e+02  -6.706294e+01
  -2.823359e+02  -2.242206e+02
  -1.566526e+02  -2.361042e+02
   6.858543e+01  -1.427276e+02
   1.898555e+02  -3.110163e+01
   2.386333e+01   2.017164e+01
  -5.499958e+01  -3.156803e+01
  -2.596114e+01  -1.585472e+02
   1.163554e+02  -1.563424e+02
   1.713481e+02   2.065428e+01
   6.983893e+01   5.810606e+01
  -9.701737e+01   5.362769e+01
  -6.405023e+01  -6.057108e+01
   1.088631e+02  -1.128734e+02
   2.613501e+02  -2.067523e+01
   2.808534e+02   1.635576e+02
   7.457681e+01   2.470441e+02
  -1.720866e+02   2.631200e+02
  -2.666128e+02   1.194770e+02
  -1.887252e+02  -3.727511e+01
   1.203968e+01  -7.857422e+01
   7.434242e+01  -4.377610e+00
  -4.087120e+01   8.029819e+01
  -2.040726e+02   2.595095e+01
  -2.296397e+02  -1.129029e+02
  -7.831175e+01  -1.771767e+02
   1.016709e+02  -1.405156e+02
   1.491474e+02  -3.821195e+01
   8.283875e+01   1.251248e+01
  -2.248164e+01   6.088235e+01
  -5.629881e+01  -4.013238e+01
   6.686364e+01  -4.163617e+01
   1.799632e+02  -3.428074e+01
   1.710169e+02   1.190740e+02
  -1.104168e+01   2.029453e+02
  -1.827251e+02   1.299371e+02
  -1.638535e+02  -8.866099e+00
  -2.253135e+01  -1.024894e+02
   1.029580e+02  -9.147829e+01
   6.360858e+01  -1.315464e+01
  -7.173785e-01   2.854615e+01
  -4.232926e+01   1.825616e+01
  -1.395987e+01   2.849782e+01
   6.973300e+01   1.518381e+01
   7.193536e+01   8.556936e+01
   2.215149e+01   1.647913e+02
  -1.327671e+02   1.412849e+02
  -2.242673e+02  -1.976834e+01
  -1.582559e+02  -1.477376e+02
  -8.648119e+00  -2.440741e+02
   1.259189e+02  -1.558395e+02
   1.388573e+02  -2.077333e+00
   3.973770e+01   3.615879e+01
   1.895378e+01   3.923070e+01
   7.872290e+01  -2.410744e+01
   1.096861e+02  -1.159782e+01
   1.409716e+01   8.259108e+01
  -4.866355e+01   1.153981e+02
  -1.490283e+02   5.411259e+01
  -1.043159e+02  -4.558684e+01
   1.264553e+01  -1.056637e+02
   1.471019e+02  -8.045800e+01
   2.289324e+02   7.057670e+01
   1.602560e+02   2.168140e+02
  -1.137226e+02   2.211924e+02
  -2.621206e+02   7.861369e+01
  -2.796857e+02  -8.309385e+01
  -1.406451e+02  -1.609375e+02
   6.013201e+01  -1.755733e+02
   1.193687e+02  -9.811716e+01
   5.662752e+01  -7.071261e+01
   9.860341e+01  -1.040344e+02
   8.141258e+01  -7.618682e+01
   1.101413e+02   5.083050e+01
   8.191900e+01   1.894669e+02
   1.239061e+01   2.120630e+02
  -1.252424e+02   1.993813e+02
  -1.599807e+02  -7.366370e+01
  -1.332485e+02  -1.188271e+02
   8.912386e+00  -1.966990e+02
   8.083689e+01  -1.109003e+02
   3.921081e+01   1.360851e+00
  -3.209777e+01   4.032261e+01
   3.049703e+00   1.771323e+01
   7.862830e+01   8.186932e+00
   9.118277e+01   3.459684e+01
   4.502914e+01   6.996048e+01
  -5.434991e+01   5.537730e+01
  -1.892479e+02   8.176742e-01
  -1.845230e+02  -8.931530e+01
   6.755416e+00  -8.664605e+01
   1.348324e+02  -6.720844e+01
   1.507918e+02  -1.667655e+01
   8.271408e+01   3.046790e+01
  -6.924499e+01   2.658778e-01
  -8.793673e+01  -1.044043e+01
  -3.173634e+00  -7.153578e+01
   7.887510e+01  -6.023818e+01
   5.755971e+01   2.001827e+01
   6.989299e+01   4.502850e+01
   2.159689e+01   3.369374e+01
   4.504599e+01  -4.188303e-01
   1.035137e+02   1.241301e+00
   9.708631e+00   8.277330e+01
  -3.732775e+01   1.498276e+02
  -1.370496e+02   1.458860e+02
  -1.480732e+02   2.625820e+01
  -1.078226e+02  -6.186736e+01
  -2.692791e+00  -1.441188e+02
   4.310878e+01  -3.458967e+01
   1.957027e+01  -1.670326e+01
  -8.907496e+01   2.923739e+01
  -1.224912e+02  -2.261817e+00
  -3.365864e+01  -9.066303e+01
   7.378225e+01  -1.352519e+02
   1.737838e+02  -3.499626e+01
   1.557833e+02   4.366374e+01
   2.795099e+01   7.800831e+01
  -8.798050e+00   6.303593e+01
  -6.473493e+00  -5.608791e+01
   4.415047e+01  -4.915113e+01
   1.016801e+02   5.863257e+01
   4.964954e+01   1.220627e+02
  -1.032490e+02   1.416281e+02
  -1.829209e+02   4.026758e+01
  -1.713206e+02  -1.150559e+02
  -1.480677e+01  -1.862234e+02
   7.619101e+01  -1.379026e+02
   1.321774e+02   3.064387e+01
   9.165782e+01   1.076642e+02
   6.064323e-01   1.112869e+02
  -4.336795e+01   3.713578e+01
  -4.851619e+01  -6.695187e+00
  -2.193002e+01  -1.852862e+01
  -3.436576e+01  -5.370913e-01
  -1.227686e+01  -2.816270e+01
  -6.049791e+01  -1.192298e+02
  -3.843560e+01  -1.149214e+02
   5.336673e+01  -2.016537e+01
   1.454114e+02   3.431817e+01
   1.207306e+02   7.575625e+01
   2.570129e+01   3.949326e+01
  -9.755543e+01   5.333444e+01
  -5.749020e+01   3.993398e+01
   1.506398e+01  -9.062914e+00
   6.514981e+01  -2.590477e+01
   4.549672e+01  -8.499784e-01
  -4.698855e+01  -3.087478e+01
   4.386437e+01  -1.261039e+01
   1.079910e+02  -7.985246e+00
   9.792985e+01   6.455632e+01
  -6.532634e+00   9.534807e+01
  -1.043147e+02   8.587467e+01
  -1.834702e+02   3.048912e+01
  -1.414147e+02  -4.224513e+01
  -1.710879e+01  -1.321390e+02
   8.283142e+01  -1.371629e+02
   6.355281e+01  -8.285603e+01
   7.292298e+01   1.409284e+01
  -7.049086e+00   8.011057e+01
   2.480137e+01   3.983412e+01
  -7.849800e+00   7.172656e+00
   2.173372e+01   3.220060e+00
   3.252294e+01   7.321738e+01
  -6.290679e+01   3.196464e+01
  -1.028277e+02  -5.844866e+00
  -4.889426e+01  -1.371690e+02
   1.039616e+01  -8.620227e+01
   4.698271e+01   8.427755e+00
   9.424438e+01   6.447466e+01
  -3.203982e+01   1.245809e+02
  -7.458243e+01   4.550573e+01
  -7.099392e+01  -2.319926e+01
  -3.458820e+01  -6.359195e+01
   1.438833e+01  -5.191264e+01
   5.360780e+01  -8.673660e+00
  -2.736484e+01   3.267152e+01
  -4.461134e+01  -9.936745e-01
  -2.528695e+01  -3.872623e+01
   6.086557e+00  -7.090560e+01
   8.217807e+01  -6.962380e+01
   4.776453e+01   2.173319e+01
   1.239464e+01   8.529745e+01
  -1.000569e+02   5.473263e+01
  -3.570877e+01  -2.392074e+01
  -2.033629e+01  -5.237988e+01
   4.351021e+01  -8.732015e+01
   4.854720e+01   3.973477e+01
   6.293913e+01   8.049744e+01
   3.869237e+00   2.414200e+01
  -6.195796e+01   1.168932e+01
  -3.305323e+01  -1.905503e+01
  -7.620774e+01   9.588451e+00
   2.437208e+01   2.676369e+01
   1.528493e+01  -1.789068e+01
   1.564602e+01  -1.906245e+01
   5.848720e+01  -3.784058e+01
   5.079796e+01  -1.358239e+00
   8.593128e+00   7.706191e+01
  -1.391245e+01   5.203352e+01
   4.664658e+00   2.262581e+01
  -5.708310e+01  -2.354846e+01
  -3.252708e+01  -2.494230e+01
   6.697532e+01  -3.095289e+01
   7.851724e+01   8.895109e+00
   5.646244e+01   4.539105e+01
  -1.848209e+01   5.021556e+01
  -4.867081e+01   8.283167e+00
   4.567087e+00   4.375292e+01
   5.498578e+01   1.490033e+01
   6.716915e+01   3.282029e+01
  -4.385278e+01   2.655470e+01
  -1.120107e+02  -1.274371e+01
