
 $NMID
 id='ANONYMOUS ', fmtdat='(2E16.6)'
 volume=1.0
 tramp=1.0
 $END
  -4.672064e+03   1.572698e+02
  -2.608157e+03  -2.959526e+03
   1.063579e+03  -2.834954e+03
   2.359915e+03  -6.665449e+02
   8.814036e+02   1.044732e+03
  -8.574621e+02   6.933911e+02
  -1.070259e+03  -5.333314e+02
   7.676631e+01  -1.268402e+03
   1.039541e+03  -7.680998e+02
   9.386729e+02   2.074413e+02
   4.390398e+02   8.932903e+02
  -4.420657e+02   1.020074e+03
  -7.950464e+02   9.174492e+01
  -4.900516e+02  -6.105968e+02
   4.359849e+02  -9.371167e+02
   7.738574e+02   1.378088e+02
   7.275690e+01   8.103829e+02
  -4.045579e+02   5.890815e+02
  -6.307564e+02   1.839262e+01
  -4.443698e+02  -4.820061e+02
   7.982547e+01  -4.166284e+02
   2.199291e+02  -2.435946e+02
   3.255373e+02  -3.986089e+01
  -5.774944e+01   1.071594e+02
  -5.876310e+02   8.504456e+01
  -1.394899e+02  -6.758950e+02
   4.335073e+02  -1.774276e+02
   8.684280e+02   8.386657e+01
   5.259463e+02   6.638343e+02
  -3.628653e+02   6.500278e+02
  -7.617361e+02   8.518827e+01
  -3.402935e+02  -6.072630e+02
   3.020212e+02  -4.671723e+02
   6.450794e+02  -3.449903e+02
   5.497822e+02   2.293884e+02
   1.660848e+02   5.996591e+02
  -3.112397e+02   3.761887e+02
  -3.129465e+02  -4.106148e+02
   1.944456e+02  -4.440584e+02
   4.584772e+02  -1.282860e+02
   3.156361e+02   7.050566e+02
  -3.139762e+02   7.470582e+02
  -6.646394e+02  -2.810271e+01
  -2.477702e+02  -6.335640e+02
   2.946356e+02  -3.521275e+02
   4.122559e+02   3.320023e+02
  -6.498536e+01   6.026651e+02
  -5.656442e+02   1.651449e+02
  -5.902175e+02  -4.260323e+02
  -1.929872e+02  -6.101547e+02
   3.258323e+02  -3.488581e+02
   5.800668e+02   7.595997e+01
   2.982459e+02   3.550417e+02
  -1.770504e+02   3.163186e+02
  -4.433018e+02   6.694018e+00
  -2.420585e+02  -2.443096e+02
   1.521810e+02  -1.439994e+02
   1.505021e+02   1.712371e+02
  -2.214927e+02   1.817477e+02
  -3.780966e+02  -1.062810e+02
  -1.284575e+02  -3.532008e+02
   1.960206e+02  -2.983393e+02
   3.198104e+02  -8.693079e+01
   1.834470e+02   8.464970e+01
  -3.121835e+01   1.651743e+02
  -1.869904e+02   3.016903e+02
  -3.089850e+02   2.078238e+02
  -3.082178e+02  -1.618985e+02
  -1.128642e+02  -4.777281e+02
   1.164422e+02  -4.509457e+02
   2.073532e+02  -1.625169e+02
   7.483031e+01   5.605448e+01
   8.672936e+01  -6.802431e+01
   2.223741e+02  -1.233068e+02
   2.749256e+02   5.316487e+01
   1.898287e+02   3.109466e+02
  -8.449605e+01   3.122272e+02
  -2.655137e+02   6.275192e+01
  -2.495580e+02  -2.876694e+02
  -2.813795e+01  -3.347863e+02
   2.461487e+02  -1.535234e+02
   4.119323e+02   1.734027e+02
   2.078478e+02   3.892608e+02
  -1.197592e+02   3.100903e+02
  -2.315430e+02   1.041215e+02
  -1.811372e+02  -3.354490e+01
  -8.821118e+01  -3.265601e+01
  -1.922607e+02   4.437938e+01
  -3.726167e+02  -2.531022e+00
  -3.513169e+02  -2.669421e+02
   2.472960e+01  -4.480784e+02
   3.808891e+02  -4.356442e+02
   4.605878e+02  -1.782753e+02
   3.362492e+02   1.044767e+02
   6.724326e+01   2.981374e+02
  -1.347340e+02   2.281139e+02
  -9.502898e+01   4.538671e+01
   5.809873e+01  -8.856008e+01
   1.963891e+02   2.530602e+01
   5.851386e+01   1.288676e+02
  -1.295024e+02   1.330698e+02
  -1.982612e+02  -6.229545e+01
   4.095254e+01  -1.804559e+02
   1.582911e+02  -4.368790e+01
   1.903247e+02   2.377139e+02
  -7.639991e+00   3.637198e+02
  -2.348094e+02   1.883105e+02
  -3.069654e+02  -6.793439e+01
  -2.582806e+02  -1.917277e+02
  -1.080253e+02  -2.589424e+02
   6.791138e+01  -1.560182e+02
   1.382004e+02  -4.411352e+01
   3.321312e+01   4.045495e+01
  -4.039373e+01   7.520694e-01
  -2.650560e+01  -1.291467e+02
   1.132165e+02  -1.613361e+02
   1.849076e+02  -2.350875e+01
   7.411205e+01   7.017713e+01
  -5.432234e+01   1.616774e+01
  -5.251866e+01  -1.165688e+02
   8.901037e+01  -9.334179e+01
   2.577683e+02  -6.370918e-01
   2.678340e+02   1.723359e+02
   1.032038e+02   2.758968e+02
  -1.642966e+02   2.842860e+02
  -2.547443e+02   1.028345e+02
  -1.849045e+02  -6.861758e+01
  -9.765173e+00  -1.005706e+02
   1.140482e+02   3.124937e+01
   2.127173e+01   1.561614e+02
  -1.786089e+02   1.284141e+02
  -2.195178e+02  -1.033585e+02
  -8.135688e+01  -2.393078e+02
   9.239987e+01  -1.973666e+02
   1.612652e+02  -6.627265e+01
   8.571344e+01   1.478727e+01
  -1.570967e+01   5.896469e+01
  -4.702865e+01  -4.435218e+01
   6.606179e+01  -1.134908e+02
   2.365966e+02  -5.579497e+01
   2.038509e+02   1.490748e+02
   1.761801e+01   2.211068e+02
  -1.678918e+02   1.873227e+02
  -2.194769e+02   2.011754e+00
  -9.210905e+01  -1.175776e+02
   5.321176e+01  -1.458180e+02
   7.236278e+01  -2.986793e+01
   1.634470e+01   5.547907e+01
  -1.028981e+01   1.046312e+01
   3.707435e+01  -7.978159e+01
   7.656221e+01  -6.273203e+01
   6.477473e+01   2.908887e+01
   2.989020e+01   1.728647e+02
  -1.003280e+02   1.651648e+02
  -2.432469e+02   8.747599e+01
  -2.555022e+02  -1.743081e+02
  -7.474354e+01  -2.316164e+02
   1.281627e+02  -2.472577e+02
   1.338543e+02  -5.445360e+01
   9.258038e+01   6.787028e+01
   5.946607e+01   2.536228e+01
   8.311016e+01   2.181896e+00
   6.378676e+01  -1.967195e+01
   4.906430e+01   7.539818e+01
  -3.809320e+01   8.926542e+01
  -9.503934e+01   3.452707e+01
  -6.309580e+01  -8.179411e+01
  -1.136097e+01  -1.764102e+02
   1.855783e+02  -6.273577e+01
   1.874092e+02   7.433639e+01
   1.136670e+02   2.339803e+02
  -1.124459e+02   2.386466e+02
  -3.025522e+02   1.298725e+02
  -3.048926e+02  -8.285673e+01
  -1.395350e+02  -1.830977e+02
  -1.964890e+01  -1.785869e+02
   8.571604e+01  -1.287849e+02
   7.010958e+01  -1.053816e+02
   3.709563e+01  -9.097938e+01
   1.007817e+02  -4.952814e+01
   1.371158e+02   1.834630e+01
   1.456183e+02   1.498701e+02
   2.891647e+01   2.300282e+02
  -1.088060e+02   1.344418e+02
  -1.922191e+02   3.583178e+01
  -1.874278e+02  -1.249003e+02
  -7.040405e+01  -1.721995e+02
   9.816359e+01  -1.114887e+02
   1.348231e+02   2.317522e+01
   5.015491e+00   2.539473e+01
   1.141138e+01   7.895156e+01
   1.833686e+01  -1.106337e+01
   6.664303e+01   3.272075e+01
   6.321502e+01   5.380486e+01
  -4.853935e+01   3.696089e+01
  -1.022892e+02   4.105839e+01
  -1.426507e+02  -6.863982e+01
  -2.358054e+01  -1.260012e+02
   7.226866e+01  -9.574116e+01
   1.316268e+02  -8.863314e+00
   5.350633e+01   3.602464e+01
  -8.376249e+01   3.658333e+01
  -5.426664e+01   2.277827e+01
  -2.100397e+01  -7.357519e+01
   5.153822e+01  -6.854333e+01
   7.188617e+01  -2.145725e+01
   6.935079e+01   6.933091e+01
   6.524182e+01   2.756644e+01
   1.055586e+02  -2.519362e+01
   8.650665e+01   1.256110e+01
   4.993462e+01   9.602757e+01
  -5.391547e+01   1.700525e+02
  -1.468948e+02   1.211704e+02
  -1.356034e+02  -4.007557e+00
  -1.201230e+02  -1.463521e+02
  -9.403922e+00  -1.210103e+02
   1.305184e+02  -5.558019e+01
   4.087452e+01   7.607376e+01
  -4.808162e+01   7.255734e+01
  -1.316527e+02  -4.253376e+01
  -7.722155e+01  -1.142576e+02
   6.588840e+01  -1.437077e+02
   1.883809e+02  -8.968570e+01
   1.369236e+02   2.790114e+01
   3.607279e+01   9.069261e+01
  -7.345248e+01   6.667222e+01
  -5.155776e+01  -1.250825e+01
   5.078206e+01  -3.798277e+01
   9.693829e+01   5.976528e+01
  -5.080176e+00   1.177167e+02
  -6.600236e+01   1.909587e+02
  -1.729169e+02   5.242522e+01
  -1.262184e+02  -1.164306e+02
  -2.984859e+01  -1.901606e+02
   6.359500e+01  -1.516343e+02
   1.061750e+02   6.644089e+00
   6.165537e+01   1.067093e+02
  -5.306580e+01   9.250657e+01
  -4.451599e+01   2.471848e+01
  -3.842687e+01  -2.750713e+01
  -3.542926e+01   4.300835e+00
  -4.165355e+01   1.808930e+01
  -3.297768e+01  -5.480889e+01
  -5.705457e+01  -1.366858e+02
  -1.724748e+00  -1.116770e+02
   1.078356e+02  -7.012833e+01
   1.745131e+02   4.282592e+01
   1.344564e+02   1.034072e+02
   1.561127e+01   5.236120e+01
  -1.480872e+02   6.429604e+01
  -6.076239e+01  -2.303905e+01
   2.585990e+01   2.170113e+01
   5.272122e+01  -5.149114e+01
   3.282265e+01  -2.407610e+01
   1.002463e+01   2.131161e+01
   4.379852e+00   2.093613e+01
   8.147492e+01  -4.731076e+00
   8.120468e+01   5.408854e+01
  -2.988513e+01   1.064339e+02
  -1.269876e+02   1.182618e+02
  -2.179441e+02   1.924167e+01
  -1.262938e+02  -5.133383e+01
  -1.004790e+01  -1.630515e+02
   4.239682e+01  -1.400410e+02
   1.398361e+02  -1.047339e+02
   9.668839e+01   1.954838e+01
   2.654516e+01   7.893462e+01
   1.799637e+01  -2.886442e+00
   3.386628e+01  -7.220644e+00
   3.574945e+01   8.102050e+01
   5.381449e+01   1.150669e+02
  -2.488401e+01   4.518444e+01
  -1.034085e+02  -1.927335e+01
  -1.267628e+02  -1.152521e+02
   1.117824e+01  -1.795792e+02
   9.231206e+01  -3.122234e+00
   1.534766e+02   9.025582e+01
   4.718116e+01   1.168943e+02
  -8.743511e+01   4.620018e+01
  -8.842446e+01  -1.007789e+01
  -8.485983e+01  -5.248078e+01
   5.182698e+01  -2.916818e+01
   4.863388e+01  -1.804012e+01
  -3.793812e+00   2.287420e+01
  -5.292566e+01   3.740164e+01
  -4.138992e+01  -4.831679e+01
   4.995722e+01  -4.809515e+01
   8.691684e+01  -5.842180e+01
   4.538563e+01   2.321825e+01
  -4.090975e+01   1.002805e+02
  -4.247593e+01   2.907148e+01
  -3.581960e+01  -2.991418e+01
  -4.828551e-02  -4.614926e+01
   3.789611e+01  -5.550780e+01
   3.760904e+01   2.920079e+01
   2.553624e+01   7.436454e+01
  -9.095980e+00   6.820517e+01
  -3.748505e+01  -2.451904e+01
  -4.932380e+01  -2.374631e+01
  -3.588677e+00   4.276112e+01
  -7.666904e+00   4.312545e+01
  -4.721146e+00   1.634929e+01
  -1.142404e+01  -4.785914e+01
  -1.963078e+00  -3.934435e+01
   3.509519e+01  -7.771192e+00
   5.064665e+01   5.842001e+01
  -2.003127e+00   5.784381e+01
  -6.753238e+01   5.095405e+01
  -4.450662e+01  -5.483271e+01
   2.339541e+01  -7.026435e+01
   7.205580e+01   4.901023e-01
   8.002969e+01   2.634607e+01
   2.236758e+01   6.985372e+01
  -3.011902e+00   6.956647e+01
  -8.154038e+01   9.847070e+00
  -3.941157e+01   3.061120e+01
   4.077791e+01  -2.834129e+01
   8.082205e+00   2.760810e+01
  -3.895961e+01   1.046352e+02
  -1.004028e+02  -1.917587e+01
