
 $NMID
 id='ANONYMOUS ', fmtdat='(2E16.6)'
 volume=1.0
 tramp=1.0
 $END
   4.601865e+03   6.597136e+00
   2.570884e+03   2.857367e+03
  -6.994342e+02   2.926299e+03
  -2.292580e+03   7.969336e+02
  -1.065746e+03  -8.623790e+02
   6.580574e+02  -6.450813e+02
   9.996485e+02   6.878199e+02
  -1.371017e+02   1.186174e+03
  -1.044365e+03   7.703482e+02
  -1.030017e+03  -1.211310e+02
  -4.488453e+02  -9.743304e+02
   4.847294e+01  -9.854107e+02
   7.089424e+02   9.046587e+01
   5.040593e+02   7.980691e+02
  -2.251065e+02   6.883933e+02
  -6.313462e+02  -9.803664e+01
  -4.223034e+02  -5.209635e+02
   4.005007e+02  -6.834565e+02
   6.057395e+02  -1.653088e+02
   4.587621e+02   3.412283e+02
   1.105248e+02   5.649493e+02
  -2.416731e+02   4.806260e+02
  -1.678175e+02   8.568688e+01
   1.127829e+02   6.010968e+00
   5.262578e+02   1.189040e+02
   1.560380e+02   4.232292e+02
  -2.675738e+02   5.440851e+02
  -9.388134e+02  -1.370778e+02
  -5.103550e+02  -6.705617e+02
   4.012493e+02  -5.456924e+02
   7.409983e+02  -1.056303e+02
   3.418102e+02   5.649530e+02
  -2.917351e+02   5.438848e+02
  -6.244796e+02   3.114477e+02
  -4.302433e+02  -2.593373e+02
  -5.397068e+01  -4.632500e+02
   2.216733e+02  -3.441883e+02
   3.098105e+02   1.574749e+02
  -1.168113e+02   4.908073e+02
  -4.218984e+02   3.261844e+01
  -3.074228e+02  -6.768905e+02
   3.163485e+02  -7.176364e+02
   6.453669e+02  -8.738121e+01
   3.116082e+02   4.969974e+02
  -3.266995e+02   3.704025e+02
  -4.536436e+02  -2.941989e+02
   6.365993e+01  -5.662120e+02
   5.977576e+02  -1.844965e+02
   6.528765e+02   4.048694e+02
   1.635747e+02   5.995081e+02
  -3.854324e+02   3.532964e+02
  -6.088716e+02  -8.669359e+01
  -3.707504e+02  -3.781225e+02
   1.329118e+02  -3.777273e+02
   4.065804e+02  -3.184880e+01
   2.375235e+02   2.249691e+02
  -1.051995e+02   1.265158e+02
  -1.403343e+02  -1.580618e+02
   1.631495e+02  -1.800336e+02
   3.278897e+02   6.807990e+01
   1.410912e+02   2.924036e+02
  -2.307435e+02   3.002941e+02
  -3.249760e+02   6.097279e+01
  -1.472804e+02  -1.209812e+02
   7.926867e+01  -2.782900e+02
   2.396786e+02  -3.577820e+02
   3.386087e+02  -1.799993e+02
   2.775915e+02   2.025091e+02
   7.857041e+01   4.376867e+02
  -1.119763e+02   3.939537e+02
  -1.748058e+02   1.694920e+02
  -5.825192e+01   2.864247e+01
  -6.599602e+01   4.982423e+01
  -1.768182e+02   4.662618e+01
  -2.910435e+02  -8.589272e+01
  -1.923820e+02  -2.388936e+02
   4.369013e+01  -1.842377e+02
   2.249167e+02  -2.587283e+01
   2.155543e+02   2.181357e+02
  -1.318924e+01   2.808856e+02
  -2.987358e+02   1.227476e+02
  -4.156211e+02  -1.615143e+02
  -2.366344e+02  -3.947549e+02
   9.411417e+01  -3.339923e+02
   2.588273e+02  -1.155409e+02
   1.952894e+02   7.065776e+00
   1.521832e+02  -5.954841e+01
   2.525947e+02  -7.114065e+01
   4.054053e+02   6.475860e+01
   2.905147e+02   3.055631e+02
   1.011181e+01   4.500508e+02
  -3.665346e+02   4.153066e+02
  -4.954810e+02   2.172269e+02
  -3.262305e+02  -6.451424e+01
  -1.345224e+02  -2.665066e+02
   9.984533e+01  -2.197596e+02
   8.688711e+01  -2.240170e+01
  -8.661340e+01   1.197874e+02
  -2.406289e+02   2.442338e+01
  -9.758679e+01  -1.454864e+02
   9.403127e+01  -1.969443e+02
   1.947296e+02  -3.560587e+01
   3.599412e+01   9.593481e+01
  -1.669133e+02  -1.940750e+01
  -1.884612e+02  -2.216281e+02
   1.634668e+01  -3.414078e+02
   2.455198e+02  -1.806313e+02
   3.322579e+02   3.439481e+01
   3.086079e+02   1.975016e+02
   6.798996e+01   2.532644e+02
  -1.104056e+02   1.873539e+02
  -1.714761e+02   7.364188e+01
  -5.673596e+01  -2.539094e+01
   1.163551e+02   3.654392e+01
   3.571439e+01   1.042626e+02
  -1.338474e+02   9.883865e+01
  -1.845000e+02   2.104359e+01
  -5.825168e+01  -1.135080e+02
   6.585984e+01  -5.943407e+01
   7.065056e+01   6.966759e+01
  -8.294203e+01   8.290388e+01
  -2.471443e+02   1.776844e+01
  -2.280184e+02  -1.475259e+02
  -5.705336e+01  -2.578502e+02
   1.209745e+02  -2.753233e+02
   2.830371e+02  -1.070859e+02
   1.737022e+02   4.112124e+01
  -1.851333e+01   6.491834e+01
  -8.550357e+01  -5.176918e+01
   5.466586e+01  -1.622660e+02
   2.115230e+02  -8.110028e+01
   2.249067e+02   1.108921e+02
   6.391047e+01   1.970418e+02
  -1.159070e+02   1.532387e+02
  -1.487327e+02   3.202763e+01
  -7.277979e+01  -8.195479e+00
   8.979123e+00   1.636752e+01
   4.970956e+01   3.312640e+01
  -6.893453e+01   8.371708e+01
  -2.005228e+02   1.734353e+01
  -1.769410e+02  -1.255295e+02
   5.299618e+00  -2.406858e+02
   1.689409e+02  -1.635912e+02
   2.219798e+02   1.297312e+01
   7.875773e+01   1.433088e+02
  -8.391374e+01   1.083237e+02
  -7.881006e+01   2.825341e+01
  -4.611887e+01  -1.708553e+01
   3.707989e+01  -2.269319e+01
   3.273698e+01   4.377356e+01
  -3.517658e+01  -2.306389e+01
  -6.898919e+01  -1.008607e+02
  -2.183994e+01  -1.549547e+02
   1.336739e+02  -1.472195e+02
   2.841602e+02  -1.070320e+01
   2.178815e+02   1.539612e+02
   2.082292e+01   2.452872e+02
  -1.576754e+02   1.885080e+02
  -1.930114e+02   2.218449e+01
  -8.758261e+01  -6.951179e+01
  -4.292730e+01  -1.297117e+02
  -2.839178e+01   6.731980e+00
  -9.687540e+01  -1.691555e+01
  -7.197474e+01  -2.009564e+01
   4.942482e+01  -7.110161e+01
   1.254805e+02  -6.165330e+01
   1.141153e+02   4.407937e+01
  -3.209812e+01   9.859032e+01
  -1.768086e+02   8.049616e+01
  -2.305742e+02  -3.791480e+01
  -1.203057e+02  -1.976640e+02
   1.185162e+02  -2.422165e+02
   3.006177e+02  -6.612981e+01
   3.145964e+02   9.512613e+01
   1.289402e+02   1.486929e+02
  -1.726090e+01   1.832374e+02
  -7.950611e+01   1.345972e+02
  -5.994661e+01   6.230666e+01
  -6.367952e+01   9.362335e+01
  -1.163056e+02   5.429121e+01
  -1.143598e+02  -4.362980e+01
  -9.484941e+01  -1.113602e+02
   4.767882e+00  -2.305105e+02
   8.467225e+01  -1.531877e+02
   1.507144e+02  -6.100821e+00
   1.296675e+02   1.035508e+02
  -1.274951e+01   1.338508e+02
  -4.212972e+01   5.856116e+01
  -5.856434e+01  -1.641060e+01
  -1.026714e+01  -3.040276e+01
   3.266440e+01  -3.133719e+01
  -3.694952e+01   2.262320e+00
  -8.820555e+01  -6.151889e+01
  -7.870611e+01  -6.236928e+01
   7.225236e+01  -2.354411e+01
   1.429692e+02   4.497527e+01
   1.322681e+02   5.946193e+01
  -3.030481e+00   7.757784e+01
  -1.416697e+02   5.954215e+01
  -1.365598e+02   2.723807e+01
  -2.141173e+01  -3.014268e+01
   5.240837e+01  -5.044218e+01
   5.603061e+01   5.107752e+01
   9.459856e+00   9.517850e+01
  -7.451372e+01   7.315630e+01
  -1.053136e+02   8.239938e+00
  -8.716207e+01  -5.997233e+01
  -5.448661e+01  -6.770672e+01
  -6.273884e+01  -3.520893e+00
  -3.826475e+01  -9.706424e+00
  -5.902003e+01  -1.196616e+02
   5.707690e+01  -1.383791e+02
   1.152357e+02  -1.479766e+02
   1.665703e+02  -3.881375e+01
   1.910310e+02   1.149570e+02
   3.090770e+00   1.147044e+02
  -9.470875e+01   1.843175e+01
  -5.003649e+01   6.320741e+00
   3.857270e+01   9.863190e+00
   1.408828e+02   3.935377e+01
   1.022084e+02   1.067153e+02
  -6.438368e+01   7.504358e+01
  -1.826237e+02   6.199776e+01
  -1.779081e+02   1.856677e+01
  -4.525300e+01  -8.731673e+01
   1.193225e+01  -7.310461e+01
   3.134437e+01  -1.991960e+01
  -9.044063e+01  -2.238947e+01
  -7.571889e+01  -6.504170e+01
  -4.358300e+00  -1.478723e+02
   1.271692e+02  -1.659492e+02
   1.949589e+02  -4.111393e+01
   1.296573e+02   1.179112e+02
   1.010098e+01   1.548872e+02
  -7.128051e+01   1.365364e+02
  -8.051320e+01   2.619040e+01
  -6.568072e+01  -7.565428e+01
   4.730912e+00  -8.275543e+01
   2.474739e+01  -2.080868e+01
   6.667566e+01   4.307966e+01
   3.653287e+01  -3.187136e+00
   6.062787e+00   5.211720e+00
   4.105849e+01  -4.408284e+00
   4.617666e+01   9.896672e+01
   1.529218e+01   1.670428e+02
  -5.697616e+01   3.512440e+01
  -1.415602e+02  -4.435139e+01
  -1.212972e+02  -9.136100e+01
   4.118267e+01  -3.628099e+01
   8.799951e+01  -2.720585e+01
   1.100202e+02  -6.179666e+00
   1.492045e+01   1.577620e+01
  -9.181717e+01   5.325077e+01
  -5.043002e+01   1.849259e+01
   2.906519e+01   3.310713e+00
  -2.965279e+00  -4.810181e+01
  -4.589293e+01  -4.466479e+01
  -8.304627e+01  -2.243280e+01
  -3.315852e+01  -1.007939e+02
   1.155875e+02  -1.177360e+02
   2.088806e+02  -7.425619e+01
   1.331621e+02   7.136853e+01
   3.425813e+01   1.803312e+02
  -9.464353e+01   1.689656e+02
  -1.105750e+02   7.549021e+01
  -8.694144e+01  -4.874289e+01
  -8.398269e+01  -6.967843e+01
   1.546089e+01  -3.044264e+01
   5.769279e+00   1.216033e+00
  -2.487815e+01  -4.394691e+01
  -5.722369e+00  -8.811466e+01
   5.957802e+01  -5.110854e+01
   9.051395e+01   2.649286e+01
   9.220452e+01   1.176122e+02
   1.108656e+01   1.274448e+02
  -1.231581e+02   4.270464e+01
  -1.363798e+02  -8.261798e+01
  -3.190371e+01  -9.763530e+01
   8.913972e+01  -5.890053e+01
   1.603171e+02  -1.442627e+01
   4.182028e+01   3.861593e+01
  -3.461318e+01   9.331550e+01
  -2.567294e+01   6.256637e+01
   3.275516e+00   2.022676e+01
   6.861676e+01  -1.553484e+01
   2.709727e+01   3.293093e+01
  -1.029321e+02   9.160597e+01
  -8.707202e+01   3.030835e+01
  -1.037743e+02  -3.620741e+01
  -1.058392e+01  -1.113546e+02
   8.270311e+01  -7.992879e+01
   4.036726e+01  -4.786827e-01
   3.283263e+01   4.495464e+01
  -3.297004e+01   7.151580e+01
  -6.123290e+01   4.591026e+01
  -2.186504e+01  -4.870193e+01
  -2.878151e+01  -3.188689e+01
  -7.773512e-01   2.238800e+01
   1.182505e+01   4.162869e+01
  -5.926587e+00   9.519069e-01
  -1.926057e+01  -2.128031e+01
   5.411259e-01  -7.370088e+00
  -9.355946e+00  -6.162516e+00
   2.532404e+01   2.286084e+01
  -1.195609e+01  -1.481449e+01
  -2.791479e+01  -4.481809e+01
  -2.015385e+00  -3.888403e+01
   4.442505e+01  -2.625556e+00
   7.664599e+01   3.786483e+01
   4.829167e+01   5.582241e+01
  -3.140331e+01   1.129209e+01
  -9.409196e+01  -2.513279e+01
  -7.842884e+01  -5.914837e+01
   3.483096e+01  -8.029285e+01
   6.860600e+01  -2.217696e+01
   5.227116e+00  -4.925315e+01
  -5.077049e+01  -1.981498e+01
  -2.458423e+01   2.426934e+01
   7.205927e+01  -1.227487e+01
   6.911198e+01  -5.218852e+00
