
 $NMID
 id='ANONYMOUS ', fmtdat='(2E16.6)'
 volume=1.0
 tramp=1.0
 $END
  -4.320427e+03   1.621112e+02
  -2.555148e+03  -2.714179e+03
   7.209546e+02  -3.035754e+03
   2.093214e+03  -8.208704e+02
   1.009461e+03   8.276700e+02
  -7.068859e+02   6.068604e+02
  -8.810651e+02  -5.312160e+02
   9.494400e+01  -1.233259e+03
   9.708698e+02  -5.952912e+02
   1.004114e+03   2.086721e+02
   5.276474e+02   9.458331e+02
  -2.559454e+02   9.351093e+02
  -6.915352e+02  -1.607846e+02
  -3.202335e+02  -7.291590e+02
   2.768157e+02  -7.787311e+02
   5.647062e+02  -7.398355e+00
   1.775779e+02   5.656849e+02
  -3.510788e+02   7.278591e+02
  -8.128709e+02   1.820191e+02
  -3.207211e+02  -3.792644e+02
   7.946641e+01  -4.811544e+02
   3.153589e+02  -2.454708e+02
   3.627725e+02   3.514053e+01
   2.029487e+01  -2.371393e+00
  -2.318739e+02  -1.444333e+02
  -1.976417e+02  -5.382803e+02
   5.820013e+02  -3.889267e+02
   8.369687e+02   4.806928e+01
   3.822947e+02   6.501266e+02
  -4.038348e+02   5.018043e+02
  -7.114563e+02   5.902154e+01
  -2.685231e+02  -5.637412e+02
   3.866826e+02  -5.896718e+02
   6.266888e+02  -2.500574e+02
   4.650619e+02   3.379260e+02
   2.887044e+01   5.184958e+02
  -2.445912e+02   3.107572e+02
  -1.455726e+02  -2.664953e+02
   1.481715e+02  -4.629579e+02
   5.012981e+02   4.273241e+00
   2.746448e+02   7.111166e+02
  -3.261341e+02   7.244651e+02
  -7.139580e+02  -3.017609e+01
  -3.105546e+02  -6.089022e+02
   3.099729e+02  -3.648151e+02
   4.008322e+02   2.556100e+02
  -5.829606e+01   5.124916e+02
  -5.346510e+02   1.169234e+02
  -5.898694e+02  -4.307554e+02
  -1.297090e+02  -5.740864e+02
   4.349364e+02  -3.111196e+02
   6.142397e+02   8.913392e+01
   3.503446e+02   4.154343e+02
  -1.512998e+02   3.842419e+02
  -4.468441e+02   1.904039e+00
  -2.687302e+02  -2.445563e+02
   1.151299e+02  -1.557952e+02
   1.303522e+02   1.616449e+02
  -1.776016e+02   2.302800e+02
  -3.474377e+02  -4.412028e+01
  -1.644904e+02  -3.242771e+02
   2.291492e+02  -2.942723e+02
   3.493618e+02  -5.937710e+01
   1.980013e+02   1.134251e+02
  -6.700285e+01   2.400991e+02
  -2.541605e+02   3.094158e+02
  -3.277230e+02   2.073208e+02
  -2.893271e+02  -1.344990e+02
  -7.551200e+01  -4.196398e+02
   1.382152e+02  -4.055877e+02
   1.336227e+02  -1.241397e+02
  -1.510373e+00   5.129511e+01
   2.836889e+01  -5.249461e+01
   1.775064e+02  -8.847226e+01
   2.868414e+02   7.558795e+00
   1.893994e+02   2.337478e+02
  -3.081581e+01   2.909900e+02
  -2.397390e+02   7.044519e+01
  -2.193519e+02  -2.193863e+02
   5.538494e+00  -2.718469e+02
   2.451858e+02  -1.449033e+02
   3.111931e+02   1.472348e+02
   1.524778e+02   3.421902e+02
  -9.943976e+01   2.562442e+02
  -1.817725e+02   1.065761e+02
  -8.964485e+01   1.083671e+01
  -9.202154e+01   3.892930e+01
  -2.686834e+02   7.192026e+01
  -4.202874e+02  -5.386740e+01
  -3.666665e+02  -2.876863e+02
  -2.922981e+01  -4.509959e+02
   3.151995e+02  -4.350070e+02
   5.113225e+02  -2.407755e+02
   4.015842e+02   3.393242e+01
   1.164345e+02   2.947247e+02
  -1.439360e+02   2.622457e+02
  -1.331567e+02   5.943733e+01
   6.924278e+01  -1.108923e+02
   2.558961e+02  -2.549632e+01
   1.333223e+02   2.077710e+02
  -1.412297e+02   2.426949e+02
  -2.000991e+02  -8.774560e+00
  -3.260278e+01  -1.651351e+02
   1.774820e+02  -4.251801e+01
   1.703259e+02   2.200956e+02
  -2.126314e+01   3.637934e+02
  -1.986072e+02   2.384202e+02
  -3.195224e+02  -2.437915e+01
  -2.345826e+02  -2.134219e+02
  -8.684685e+01  -2.766652e+02
   1.082985e+02  -8.700253e+01
   1.360222e+02   7.109676e+00
   4.219101e+01   6.423221e+01
  -1.238973e+02  -7.028145e+01
  -3.752682e+01  -1.189886e+02
   1.409760e+02  -1.638639e+02
   1.829105e+02   1.655770e+00
   9.056805e+01   6.877657e+01
  -9.054272e+01   2.817648e-01
  -5.065114e+01  -7.893518e+01
   1.065238e+02  -9.761614e+01
   2.635388e+02  -1.967592e+01
   3.084742e+02   9.075362e+01
   1.127109e+02   2.666386e+02
  -1.599432e+02   2.634525e+02
  -3.132683e+02   1.221040e+02
  -1.909929e+02  -3.601921e+01
   3.629918e+00  -7.906243e+01
   8.732456e+01   2.806547e+01
  -2.621226e+01   9.820123e+01
  -1.867889e+02   4.793674e+01
  -2.283017e+02  -1.295248e+02
  -6.427303e+01  -1.661865e+02
   8.939290e+01  -1.159305e+02
   1.372472e+02  -6.895245e+00
   6.165050e+01   4.641258e+01
  -5.716829e+01   1.626451e+01
  -6.995956e+01  -8.392916e+01
   7.462908e+01  -1.393939e+02
   2.000520e+02  -4.379734e+01
   2.360941e+02   1.416911e+02
   5.428451e+01   2.224954e+02
  -1.758674e+02   1.614511e+02
  -1.830393e+02   2.482120e+01
  -4.575009e+01  -1.133866e+02
   7.228373e+01  -1.002011e+02
   1.112540e+02  -2.627134e+01
   1.701305e+01   1.050742e+01
  -2.056230e+01   2.524137e+01
   2.771429e+01   2.448634e+01
   4.672012e+01  -1.721353e+01
   3.114244e+01   7.187390e+01
   1.389773e+01   1.410274e+02
  -1.292568e+02   1.638369e+02
  -2.673016e+02   2.281646e+01
  -2.476493e+02  -1.613163e+02
  -3.900308e+01  -2.735271e+02
   1.290517e+02  -1.705509e+02
   1.516531e+02  -5.376700e+01
   8.171935e+01   5.224925e+01
   4.555944e+01  -2.227920e+01
   6.227937e+01  -1.021976e+01
   1.111510e+02   1.955440e+00
   5.517389e+01   5.562371e+01
  -3.554276e+01   9.588475e+01
  -8.246995e+01   5.252765e+01
  -4.514794e+01  -4.894227e+01
   3.829397e+01  -1.253259e+02
   1.247258e+02  -6.864645e+01
   2.168600e+02   4.092689e+01
   1.190724e+02   2.148988e+02
  -7.190286e+01   2.307861e+02
  -2.747822e+02   8.094379e+01
  -2.535808e+02  -9.823376e+01
  -1.385002e+02  -1.752305e+02
   6.526711e+01  -1.174681e+02
   7.545596e+01  -1.154691e+02
   7.367029e+01  -3.981564e+01
   9.557393e+01  -9.657762e+01
   1.066370e+02  -9.124040e+01
   1.482835e+02   1.497306e+01
   8.758479e+01   1.684662e+02
   7.246197e+00   2.298582e+02
  -1.262968e+02   1.747210e+02
  -1.621560e+02   1.631885e+01
  -1.687576e+02  -1.699145e+02
  -1.357091e+01  -1.587588e+02
   1.546994e+02  -1.127272e+02
   6.993225e+01   1.301627e+01
   1.176026e+01   1.454587e+01
  -1.246151e+00   5.880307e+01
   3.335421e+01   3.301112e+01
   5.567125e+01   2.080391e+01
   7.671684e+01   6.213473e+01
  -7.959490e+01   1.011105e+01
  -1.455754e+02  -1.160163e+01
  -1.184012e+02  -6.897709e+01
  -2.536356e+01  -8.644474e+01
   1.005400e+02  -9.700187e+01
   1.100104e+02  -3.339391e+01
   3.649874e+01   5.754832e+01
  -5.757979e+01   1.972552e+00
  -5.554483e+01  -2.806530e+01
  -3.863332e+00  -7.041105e+01
   3.461593e+01  -4.996522e+01
   2.489330e+01   1.182981e+01
   1.407715e+01   2.186093e+01
   4.323943e+01   1.822249e+01
   1.209883e+02   1.205749e+01
   9.284503e+01   2.111485e+01
   3.438107e+01   4.187583e+01
  -7.061017e+01   1.254385e+02
  -1.335877e+02   1.293893e+02
  -1.588164e+02  -4.699046e+01
  -6.773386e+01  -1.570670e+02
   2.919361e+01  -1.454525e+02
   8.604248e+01  -4.051176e+01
   8.464948e+01   3.856028e+01
  -7.421034e+01   2.019703e+01
  -1.159770e+02  -7.019197e+01
  -3.175473e+01  -1.216732e+02
   7.886702e+01  -8.170934e+01
   1.815608e+02  -5.559835e+01
   1.290586e+02   4.237812e+01
   6.492458e+01   5.027752e+01
  -6.555351e+01   4.315671e+01
  -4.528815e+01   2.958401e+01
   2.022755e+01  -6.115579e+01
   1.035372e+02  -3.075235e+01
   2.940553e+01   1.087730e+02
  -6.682915e+01   1.714604e+02
  -1.413574e+02   9.501924e+01
  -9.157845e+01  -1.167434e+02
  -1.280877e+00  -2.225880e+02
   1.091632e+02  -1.170970e+02
   1.011549e+02   3.579133e+00
   5.583254e+01   1.066844e+02
   1.387788e+01   1.147999e+02
  -1.174086e+01   4.940240e+01
  -6.321700e+01  -1.665348e+01
  -1.832283e+01  -4.493525e+01
  -2.426407e+01  -6.459667e+00
  -2.678147e+01  -3.253378e+00
   5.717678e+00  -1.067937e+02
  -1.835141e+01  -1.221269e+02
   9.098656e+01  -3.692484e+01
   1.447128e+02   8.521996e+01
   9.319639e+01   8.552552e+01
  -3.770659e+00   2.312320e+01
  -8.286765e+01   1.641038e+01
  -9.660969e+01  -4.513500e+00
  -1.600187e+01  -1.492963e+01
   4.582724e+01  -3.466602e+01
   4.351129e+01  -7.349288e+00
   4.464827e+01  -2.251227e+00
  -5.209580e+00  -1.030185e+01
   4.329334e+01   1.725604e+01
   1.093495e+02   3.345467e+01
   5.598461e+01   8.144544e+01
  -1.339317e+02   1.157582e+02
  -2.176951e+02   6.375430e+01
  -1.425550e+02  -9.812670e+01
  -6.217849e+00  -1.849731e+02
   7.849617e+01  -1.338207e+02
   1.169461e+02  -7.434320e+01
   7.361689e+01   4.409996e+01
   3.018992e+01  -3.192887e+00
   2.692543e+01  -1.434737e+01
   3.529177e+01   3.678517e+01
   6.817061e+01   6.369016e+01
   4.400976e+01   7.042739e+01
  -3.775470e+01   6.672985e+01
  -7.965358e+01   7.869406e+00
  -6.768708e+01  -6.028983e+01
  -5.481399e+00  -1.311704e+02
   6.378558e+01  -5.365538e+01
   1.071987e+02   3.629975e+01
   4.702781e+01   8.466989e+01
  -6.693878e+01   6.761332e+01
  -8.777342e+01   1.139087e+01
  -1.090334e+01  -5.834465e+01
   4.591631e+00  -8.543970e+01
   3.607564e+01  -3.034624e+01
  -2.439743e+01   7.641167e-01
  -3.683153e+01   1.209297e+01
  -5.257777e+01  -4.211068e+01
   6.046975e+01  -7.185364e+01
   1.178651e+02  -6.610242e+01
   8.526208e+01  -8.309558e+00
  -2.466867e+01   8.049109e+01
  -7.980763e+01   6.082051e+01
  -4.526100e+01  -1.992648e+01
   3.152617e+01  -4.626812e+01
   3.717942e+01  -5.033121e+01
   5.440966e+01   1.658392e+01
   2.633935e+01   3.967712e+01
  -1.088746e+00   6.139944e+01
  -6.109478e+01  -6.814511e+00
  -2.862786e+01  -2.296688e+01
  -3.487672e+01  -1.752570e+01
   2.261721e+01  -1.327805e+01
   4.641761e+01  -5.112330e+00
   4.417575e+01  -5.582923e+01
   3.882580e+01  -4.254625e+01
   4.172454e+01  -2.320909e+01
   2.299622e+00   5.258918e+01
   1.922028e+01   3.690353e+01
  -4.539397e+01   2.115327e+01
  -5.598019e+01  -5.236518e+01
  -5.394786e+01  -7.104585e+01
   8.366124e+01  -5.078380e+01
   1.084100e+02  -2.769742e+01
   4.880218e+01   5.259989e+01
  -1.679105e+01   5.405768e+01
  -2.000078e+01   3.619779e+01
  -1.922956e+01  -8.037009e+00
   1.960411e+01   2.566026e+01
   5.312954e+01   1.573903e+01
  -5.442610e+01   2.515782e+01
  -9.128599e+01   1.567801e+01
