
 $NMID
 id='ANONYMOUS ', fmtdat='(2E16.6)'
 volume=1.0
 tramp=1.0
 $END
   4.684214e+03   1.170246e+02
   2.734057e+03   2.687416e+03
  -8.850927e+02   2.848126e+03
  -2.246929e+03   9.247588e+02
  -9.868379e+02  -7.476424e+02
   6.847776e+02  -6.971949e+02
   1.160489e+03   5.361730e+02
  -5.610990e+01   1.159595e+03
  -9.726640e+02   8.237057e+02
  -1.025887e+03  -5.213566e+01
  -5.231550e+02  -1.119893e+03
   3.022890e+02  -1.061174e+03
   7.463823e+02  -1.063754e+02
   2.760113e+02   6.061551e+02
  -1.537529e+02   8.197689e+02
  -6.226256e+02   1.557634e+02
  -2.145333e+02  -5.331382e+02
   3.712682e+02  -5.913655e+02
   6.413407e+02  -5.284505e+01
   6.099073e+02   5.174332e+02
  -4.658219e+01   3.896673e+02
  -3.800305e+02   3.865102e+02
  -1.989325e+02   1.051177e+02
   1.165441e+02  -1.344497e+02
   4.828892e+02   7.769828e+01
   4.196680e+02   3.480294e+02
  -1.113517e+02   5.486497e+02
  -9.016133e+02  -3.872382e+01
  -5.646765e+02  -5.841268e+02
   1.857942e+02  -5.349738e+02
   7.646586e+02   5.401683e+01
   4.564660e+02   3.867561e+02
  -3.204532e+02   6.422736e+02
  -5.967916e+02   1.869556e+02
  -4.969801e+02  -2.004135e+02
  -5.738834e+01  -4.545326e+02
   2.030220e+02  -2.908506e+02
   2.307823e+02   1.513918e+02
  -2.411754e+02   4.425511e+02
  -4.570263e+02  -7.637917e+01
  -1.353294e+02  -6.548051e+02
   4.095887e+02  -7.098679e+02
   5.688908e+02  -1.604373e+01
   2.273284e+02   5.656364e+02
  -2.875618e+02   2.632673e+02
  -3.262087e+02  -3.426950e+02
   9.241344e+01  -5.692607e+02
   5.566686e+02  -1.108703e+02
   5.683146e+02   4.554292e+02
   1.270286e+02   6.232457e+02
  -3.954837e+02   3.771803e+02
  -6.820707e+02  -9.033704e+01
  -3.189645e+02  -4.061956e+02
   1.685503e+02  -3.253968e+02
   4.514245e+02  -1.991143e+01
   2.399660e+02   2.113220e+02
  -1.993802e+02   1.455982e+02
  -1.910720e+02  -2.313580e+02
   1.241134e+02  -2.457990e+02
   3.902872e+02   9.856439e+01
   2.028361e+02   3.655275e+02
  -2.168233e+02   2.660798e+02
  -3.777813e+02   2.605689e+01
  -2.018944e+02  -1.638385e+02
   6.421306e+01  -2.164206e+02
   2.312730e+02  -1.978277e+02
   2.683901e+02  -2.014470e+02
   2.854033e+02   1.148035e+02
   1.107671e+02   4.451440e+02
  -8.823341e+01   3.679225e+02
  -1.132580e+02   1.191975e+02
  -4.667012e+01  -1.980186e+01
  -3.992705e+01   5.109599e+01
  -2.059707e+02   1.640231e+02
  -2.875928e+02   1.350387e+00
  -1.965383e+02  -2.211090e+02
   7.716019e+01  -2.589340e+02
   2.362744e+02  -1.031425e+01
   1.587926e+02   1.876952e+02
  -6.160672e+01   2.472163e+02
  -3.569679e+02   1.514923e+02
  -3.466116e+02  -1.824581e+02
  -1.616561e+02  -3.585619e+02
   1.269584e+02  -2.947134e+02
   2.239413e+02  -8.766830e+01
   1.291055e+02  -1.762394e+01
   1.255809e+02  -7.001393e+01
   2.074850e+02  -9.308334e+01
   3.885018e+02   3.385546e+01
   3.050959e+02   3.267439e+02
  -3.768420e+00   4.233093e+02
  -3.227597e+02   3.882165e+02
  -4.615993e+02   1.781288e+02
  -3.506135e+02  -1.234803e+02
  -6.051162e+01  -3.201108e+02
   1.531950e+02  -2.619047e+02
   7.132919e+01  -2.552437e+01
  -1.408555e+02   1.004202e+02
  -1.543688e+02   1.065391e+01
  -3.729225e+01  -2.279539e+02
   1.860846e+02  -2.135148e+02
   2.285933e+02   5.674643e+01
  -1.411375e+01   2.023392e+02
  -2.188833e+02   6.845284e+01
  -1.481501e+02  -2.681441e+02
   7.226072e+01  -4.278864e+02
   3.113547e+02  -2.183373e+02
   3.983401e+02   9.909860e+01
   2.657341e+02   2.849707e+02
   6.985488e+01   2.844550e+02
  -1.252263e+02   1.529964e+02
  -1.703215e+02   6.169046e+01
  -7.648490e+01  -1.837794e+01
   1.359967e+01   7.440099e+01
  -9.197932e+00   1.252851e+02
  -1.528648e+02   1.052214e+02
  -1.901495e+02  -1.699977e+01
  -6.828441e+01  -1.275791e+02
   3.158764e+01  -5.985106e+01
   5.235544e+01   8.185235e+01
  -9.426397e+01   1.145122e+02
  -2.612246e+02   1.250665e+01
  -2.301681e+02  -1.925836e+02
  -7.939868e+01  -2.654775e+02
   1.864994e+02  -2.301600e+02
   3.086919e+02  -1.451883e+02
   1.482890e+02   7.960866e+01
   1.709425e+01   1.134304e+02
  -7.175097e+01  -2.434670e+01
   2.074514e+00  -9.936778e+01
   2.166869e+02  -5.616323e+01
   2.091589e+02   9.907951e+01
   1.032996e+02   2.208115e+02
  -9.950825e+01   1.578544e+02
  -1.571320e+02   2.723556e+01
  -9.162460e+01  -4.298986e+00
  -1.167177e+01   1.321754e+01
   6.294579e+01   8.296250e+01
  -7.245248e+01   7.977079e+01
  -1.903382e+02   4.221564e+01
  -1.775862e+02  -9.409207e+01
  -2.855588e+01  -2.878635e+02
   1.453886e+02  -2.034425e+02
   2.051664e+02  -1.063471e+01
   7.937069e+01   8.938977e+01
  -9.574005e+01   6.529129e+01
  -7.404491e+01   3.798891e+00
  -5.768973e+01   1.380358e+01
   2.656610e+01   1.671732e-01
  -3.813368e+01   1.802958e+01
  -5.983310e+01   9.690971e+00
  -8.099899e+01  -1.057214e+02
  -3.242499e+01  -1.836579e+02
   1.384574e+02  -1.583273e+02
   2.719557e+02  -1.205213e+01
   2.021269e+02   1.345797e+02
   3.729599e+01   2.377037e+02
  -1.241225e+02   1.449084e+02
  -1.556736e+02  -1.180643e+01
  -7.193519e+01  -2.390331e+01
  -1.690911e+01   2.351132e+01
  -6.981026e+01   1.113700e+01
  -4.595784e+01   1.266444e+01
  -7.593195e+01  -6.765151e+01
   1.917209e+01  -8.209277e+01
   6.831427e+01  -8.313596e+01
   6.983074e+01   3.480141e+01
   4.868309e+01   1.096304e+02
  -1.502628e+02   6.087869e+01
  -2.133981e+02  -7.935728e+01
  -6.440424e+01  -2.350921e+02
   1.377403e+02  -2.273447e+02
   2.423676e+02  -9.113206e+01
   2.390794e+02   6.597994e+01
   9.769967e+01   1.685630e+02
  -2.819957e+01   1.294913e+02
  -7.623842e+01   1.388581e+02
  -7.229031e+01   2.166146e+01
  -6.870256e+01   8.066199e+01
  -9.567216e+01   4.366025e+01
  -1.027796e+02  -2.359761e+01
  -8.056526e+01  -1.317853e+02
  -4.868679e+01  -1.759997e+02
   9.408199e+01  -1.433013e+02
   1.661120e+02  -5.296815e+00
   1.536206e+02   1.058504e+02
   3.536867e+01   1.195254e+02
  -9.151478e+01   9.520841e+01
  -4.437922e+01  -1.407765e+01
  -4.231468e-01  -3.844312e+01
   1.262880e+01  -2.459382e+01
  -6.144787e+00  -2.105796e+01
  -6.535391e+01   1.128155e+01
  -2.594247e+01  -3.452845e+01
   8.521459e+01  -3.444532e+01
   1.687228e+02   2.948120e+01
   1.826483e+02   7.170024e+01
   4.531817e+01   1.430102e+02
  -8.988073e+01   7.213840e+01
  -1.492802e+02   2.520701e+01
  -3.809899e+01  -1.168786e+01
   9.546999e+01  -1.398368e+01
   7.200779e+01   1.879677e+01
  -7.793612e+00   6.618586e+01
  -7.332876e+01   7.965747e+01
  -1.089579e+02   9.864283e+00
  -7.787702e+01  -6.547848e+01
  -3.328526e+01  -1.122473e+02
  -5.608578e+01   2.183797e+01
  -1.171242e+01   2.715923e+00
   7.882973e-02  -6.718528e+01
   2.623437e+01  -1.424084e+02
   1.297243e+02  -1.021622e+02
   1.390983e+02  -3.134391e+01
   1.320047e+02   1.308886e+02
   3.619631e+01   9.479773e+01
  -8.731726e+01   5.489741e+01
  -5.748013e+01  -1.313805e+01
   1.090571e+01   8.449070e+00
   1.374883e+02   3.632146e+01
   6.203935e+01   1.239642e+02
  -6.348790e+01   9.726176e+01
  -1.780832e+02   8.266355e+01
  -1.529197e+02   4.943256e+00
  -3.582935e+01  -4.281089e+01
   5.482937e+01  -1.045443e+02
   5.046956e+01  -3.175631e+01
  -3.376063e+01   9.709420e+00
  -2.032958e+01  -3.626936e+01
  -5.159106e+01  -1.214307e+02
   8.430143e+01  -1.113101e+02
   1.791047e+02  -6.396242e+01
   1.346018e+02   9.432748e+01
   2.262697e-01   2.196009e+02
  -1.118554e+02   1.654166e+02
  -1.336938e+02  -3.325549e+01
  -5.530400e+01  -9.556492e+01
  -2.447868e+01  -1.086139e+02
   1.166679e+01  -4.451795e+01
   9.346536e+01   1.436293e+01
   9.205218e+01   3.526081e+01
   4.982260e+01  -1.238884e+01
   3.125991e+01   3.342636e+01
   4.054676e+01   7.744717e+01
   4.016623e+01   1.114183e+02
  -3.635946e+00   8.240854e+01
  -1.410860e+02   1.188561e+01
  -1.216133e+02  -4.959448e+01
  -3.486827e+01  -4.850476e+01
   1.043975e+02  -3.178963e+01
   9.262219e+01  -2.068263e+01
   3.269055e+01   4.739412e+01
  -6.462481e+01   3.712544e+01
  -6.363767e+00   3.007479e+01
   1.805759e+01   8.993525e+00
   3.160557e+01  -2.283555e+01
  -6.024250e+01   2.052506e+01
  -4.674023e+01  -3.722649e+01
   7.747477e-01  -3.829746e+01
   1.110424e+02  -1.015742e+02
   1.500587e+02  -3.937316e+01
   1.329868e+02   6.512854e+01
   1.110164e+01   1.264408e+02
  -6.158557e+01   1.495013e+02
  -5.383877e+01   4.934740e+01
  -8.538856e+01  -4.081349e+00
  -2.188550e+01  -4.478276e+01
  -5.543483e+00  -5.679001e+01
  -3.157100e+01  -1.868495e+01
  -1.344065e+01  -3.197742e+01
  -1.701642e+01  -8.282847e+01
   4.716846e+01  -4.406363e+01
   4.855976e+01  -1.776535e+01
   1.184397e+02   1.129834e+02
   1.523506e+01   7.898656e+01
  -5.899989e+01   2.046174e+01
  -1.443748e+02  -5.438545e+01
  -6.637969e+01  -8.483933e+01
   8.100074e+01  -5.670576e+01
   1.133101e+02   1.863442e+01
   6.505210e+01   4.871242e+01
   5.236857e+00   4.783679e+01
  -3.358377e+01   1.287456e+01
   4.439936e+01  -7.903118e+00
   4.284743e+01  -4.427390e+00
   2.471162e+01   3.351019e+01
  -7.912330e+01   5.571410e+01
  -9.534172e+01   6.772555e+01
  -3.720315e+01  -1.828169e+01
   1.234535e+01  -7.864566e+01
   5.625204e+01  -4.096491e+01
   6.938440e+01   1.135401e+01
  -5.319455e+00   1.045125e+02
  -5.701051e+01   4.340986e+01
  -9.026174e+01  -2.953951e+01
  -8.372366e+01  -5.711504e+01
   1.254401e+01  -2.270953e+01
   6.537529e+01  -1.905827e+01
   1.754577e+01   2.860820e+01
   1.358322e+01  -1.891684e+00
   1.037541e+01  -3.128121e+01
   2.596788e+01  -1.860679e+01
  -9.681845e+00   2.588223e+01
  -8.784415e+00   5.336173e+01
  -2.480576e+01  -7.704933e+00
  -3.125383e+01  -2.257962e+01
   1.141291e+01  -2.243913e-01
   3.835944e+01  -4.866071e+01
   1.314665e+01   6.657961e+01
   1.538441e+01   5.689450e+01
  -5.815675e+01   5.245080e+01
  -6.401106e+01   3.202192e+00
  -6.627286e+01  -5.116058e+01
   3.977286e+01  -4.470791e+01
   4.046263e+01  -2.293919e+01
   1.177561e+01   6.389966e+00
  -1.040787e+01  -6.656197e+00
  -2.606652e+01  -2.426953e+01
   4.605267e-02  -6.087088e+01
   1.233270e+02  -5.873600e+01
