
 $NMID
 id='ANONYMOUS ', fmtdat='(2E16.6)'
 volume=1.0
 tramp=1.0
 $END
  -4.306809e+03  -9.698962e+01
  -2.474691e+03  -2.639537e+03
   7.243711e+02  -2.761322e+03
   1.987476e+03  -8.318949e+02
   8.844169e+02   7.742709e+02
  -6.756792e+02   5.069687e+02
  -9.988748e+02  -4.586875e+02
  -3.906772e+01  -1.107200e+03
   8.819060e+02  -8.053245e+02
   9.228414e+02   1.905140e+02
   3.779098e+02   7.960523e+02
  -3.152944e+02   8.509367e+02
  -5.093068e+02   3.545499e+01
  -4.896084e+02  -8.846529e+02
   4.311457e+02  -6.481582e+02
   7.790127e+02  -9.369890e+01
   2.197698e+02   5.854570e+02
  -3.336734e+02   7.380569e+02
  -5.711444e+02   9.862746e+01
  -3.927054e+02  -3.829879e+02
   5.382466e+01  -5.791711e+02
   2.412270e+02  -1.305882e+02
   2.152694e+02  -4.208788e+01
  -1.630878e+02  -4.545167e+01
  -3.953016e+02  -9.200555e+01
  -1.311376e+02  -2.462160e+02
   3.888937e+02  -4.684246e+02
   7.481967e+02   5.561454e+01
   3.608397e+02   3.831019e+02
  -3.833905e+02   4.202509e+02
  -7.689548e+02  -6.592542e+01
  -3.341892e+02  -4.039478e+02
   3.081472e+02  -5.469467e+02
   5.037773e+02  -1.169719e+02
   3.859929e+02   2.816285e+02
  -4.345145e+01   5.202004e+02
  -2.396871e+02   2.281016e+02
  -1.084399e+02  -1.556601e+02
   1.963006e+02  -4.043635e+02
   3.331015e+02   1.837355e+01
   1.662913e+02   6.687535e+02
  -2.542387e+02   6.460546e+02
  -5.836358e+02  -3.359672e+01
  -2.217566e+02  -4.905251e+02
   2.909219e+02  -2.857115e+02
   3.760934e+02   3.067984e+02
  -7.807045e+01   4.997532e+02
  -5.956464e+02   1.574910e+02
  -5.988604e+02  -3.644333e+02
  -1.891454e+02  -5.639749e+02
   3.587009e+02  -3.023606e+02
   6.409081e+02   1.162741e+02
   4.235037e+02   4.005182e+02
  -1.270958e+02   3.889194e+02
  -4.379945e+02   4.248168e+01
  -2.316609e+02  -2.026120e+02
   1.393635e+02  -1.112402e+02
   1.395069e+02   1.769674e+02
  -1.652341e+02   1.611414e+02
  -3.295151e+02  -1.115649e+02
  -1.555906e+02  -2.918452e+02
   2.094465e+02  -2.199597e+02
   3.039408e+02  -7.337576e+01
   1.920195e+02   3.611787e+01
  -5.264605e+01   1.924973e+02
  -2.324848e+02   3.517014e+02
  -3.232920e+02   2.379532e+02
  -2.417289e+02  -1.637419e+02
  -5.523040e+01  -4.579999e+02
   8.059875e+01  -3.878321e+02
   1.214095e+01  -1.301827e+02
  -1.878318e+01  -2.766160e+01
   7.345336e+01  -1.221046e+02
   2.370658e+02  -1.545715e+02
   2.590416e+02   3.763745e+01
   1.058883e+02   2.661663e+02
  -2.805196e+01   2.613508e+02
  -1.829127e+02  -8.679930e+00
  -1.600917e+02  -2.502137e+02
   3.285427e+01  -3.201270e+02
   2.493145e+02  -1.388536e+02
   3.433457e+02   1.420985e+02
   1.962724e+02   3.310027e+02
  -1.499411e+02   2.979707e+02
  -2.275844e+02   1.747486e+02
  -1.417139e+02   5.085185e+01
  -1.074646e+02   3.296584e+01
  -2.401955e+02   3.214091e+01
  -3.955283e+02  -9.997008e+01
  -3.301254e+02  -2.682099e+02
   9.283734e+00  -4.812996e+02
   3.906473e+02  -4.467839e+02
   4.765537e+02  -2.286103e+02
   3.392331e+02   8.020416e+01
   3.971292e+01   3.189667e+02
  -1.291811e+02   3.002934e+02
  -9.130024e+01   2.243546e+01
   7.219636e+01  -1.186825e+02
   1.671924e+02  -2.011336e+01
   7.344233e+01   1.411125e+02
  -1.168450e+02   1.716164e+02
  -1.680003e+02  -1.863460e+01
   3.723359e+01  -1.769016e+02
   1.936658e+02  -2.639264e+01
   1.485172e+02   2.461329e+02
  -4.585330e+01   3.836300e+02
  -2.547941e+02   2.012694e+02
  -2.969700e+02  -1.146760e+02
  -2.608490e+02  -2.662430e+02
  -8.069987e+01  -2.902003e+02
   8.877956e+01  -1.298638e+02
   1.457539e+02   4.140827e+00
   7.929410e+01   4.377121e+01
  -5.147801e+01  -3.554098e+01
  -2.391999e+01  -1.093269e+02
   1.227611e+02  -7.022334e+01
   1.452036e+02   1.464911e+01
   1.693320e+01   8.050555e+01
  -8.229410e+01   2.343746e+01
  -6.425780e+01  -1.040667e+02
   1.685857e+02  -1.195438e+02
   3.117345e+02   8.871040e-02
   2.831423e+02   1.084975e+02
   3.474030e+01   2.470252e+02
  -1.869891e+02   2.785802e+02
  -2.922522e+02   1.478177e+02
  -1.453961e+02  -4.199678e+01
   1.833336e+01  -1.280367e+02
   6.521925e+01  -5.422933e+01
  -2.864590e+00   6.075043e+01
  -1.172473e+02   4.841934e+01
  -1.741414e+02  -7.953927e+01
  -6.235530e+01  -1.760188e+02
   1.041395e+02  -1.222720e+02
   1.456946e+02   2.147482e+01
   1.013755e+02   8.473826e+01
  -4.510154e+01   1.265025e+01
  -9.049991e+01  -6.587613e+01
   2.687351e+01  -1.007605e+02
   1.817636e+02  -2.406600e+01
   1.443261e+02   1.399218e+02
   3.026673e+01   2.401917e+02
  -1.807483e+02   1.208677e+02
  -1.390519e+02  -3.185044e+01
  -3.576253e+01  -1.313076e+02
   1.034528e+02  -1.262853e+02
   7.126848e+01  -2.140124e+01
  -2.484609e+01   4.067777e+00
  -5.013427e+01  -6.714371e+00
   1.190611e+01  -8.077364e-01
   9.866197e+01   7.388828e+01
   8.816183e+01   1.030482e+02
   2.233756e+01   1.635751e+02
  -1.321732e+02   1.911571e+02
  -2.457232e+02   5.238297e+01
  -2.375237e+02  -1.226453e+02
  -5.710877e+01  -2.726841e+02
   7.406661e+01  -1.845571e+02
   1.195893e+02  -3.814753e+01
   9.805460e+01   5.019015e+01
   3.633301e+01   7.372049e+01
   4.578804e+01  -3.055858e+01
   9.795009e+01  -2.103161e+01
   2.742934e+01   2.588100e+01
  -5.986871e+01   1.312154e+02
  -1.178677e+02   5.882330e+01
  -6.241374e+01  -5.271723e+01
   3.943884e+01  -1.234295e+02
   1.466383e+02  -8.317989e+01
   1.797928e+02   4.334335e+01
   8.226170e+01   1.877304e+02
  -5.603536e+01   1.996683e+02
  -2.727849e+02   6.473472e+01
  -2.639036e+02  -3.906975e+01
  -1.307833e+02  -1.596609e+02
   2.399069e+01  -1.922074e+02
   1.074879e+02  -6.294655e+01
   8.380698e+01  -5.886245e+01
   7.141824e+01  -8.927407e+01
   5.970556e+01  -6.593385e+01
   9.200995e+01  -4.798676e+00
   1.249431e+02   1.291974e+02
   3.667418e+01   2.243779e+02
  -1.094524e+02   1.785869e+02
  -1.462659e+02   1.581369e+01
  -1.335007e+02  -8.565594e+01
   9.747508e+00  -1.488079e+02
   6.004755e+01  -9.359162e+01
   5.170129e+01   9.532703e+00
  -4.095127e+00   4.458847e+01
   3.307978e+01   5.127696e+01
   4.062107e+01   5.136986e+00
   7.866541e+01   3.357092e+00
   3.231243e+01   3.827829e+01
  -4.871225e+01  -3.688974e+00
  -1.478837e+02  -5.471352e+00
  -1.164537e+02  -1.025238e+02
  -1.251453e+01  -5.938609e+01
   9.879636e+01  -8.367932e+01
   1.288552e+02   2.854779e+01
   2.460849e+01   6.213864e+01
  -5.098237e+01   8.724604e+01
  -8.675682e+01  -7.921315e+00
  -1.434851e+01  -1.167727e+02
   3.691276e+01  -5.544304e+01
   5.936358e+01  -5.819133e+00
   5.042753e+01   5.521009e+01
   4.902758e+01   3.984027e+01
   4.405572e+01  -4.860610e+01
   5.615460e+01  -1.087827e+01
   3.028182e+01   8.552625e+01
  -1.943383e+01   1.557819e+02
  -1.248767e+02   1.524906e+02
  -1.113192e+02   2.324783e+01
  -1.078214e+02  -6.237346e+01
  -2.054663e+01  -1.250770e+02
   7.707519e+01  -4.565702e+01
   3.681449e+01  -1.650808e+01
  -3.436141e+01  -8.070637e+00
  -9.815932e+01  -3.350780e+01
  -6.837256e+01  -7.890390e+01
   5.926453e+01  -5.364720e+01
   1.505105e+02  -3.731530e+01
   1.106072e+02   3.988398e+01
   3.909355e+01   8.098724e+01
  -8.537010e+01   5.753550e+01
  -1.860905e+01   6.318009e+00
   5.537194e+01  -3.368415e+01
   1.140578e+02   5.616142e+01
   3.740222e+01   1.287410e+02
  -7.695741e+01   1.630282e+02
  -1.757367e+02   7.582507e+01
  -1.199390e+02  -9.716703e+01
   1.431395e+01  -1.836905e+02
   9.169739e+01  -1.190826e+02
   7.452536e+01   1.035120e+01
   5.305326e+00   9.969100e+01
   4.373407e+01   6.417774e+01
  -4.841872e+01   4.802121e+01
  -3.369392e+01  -4.143649e+01
  -9.316440e+00  -6.673268e+00
   6.366997e+00  -3.285665e-01
  -3.229268e+01  -1.554733e+01
  -9.517659e+01  -8.171887e+01
  -5.526300e+01  -1.100716e+02
   4.270157e+01  -7.145100e+01
   1.655684e+02   6.648356e+00
   1.078106e+02   8.518747e+01
  -7.920635e-01   5.070478e+01
  -7.718387e+01   1.079124e+01
  -8.648896e+01   1.175075e-01
  -3.015206e+01  -4.194634e+01
   6.166548e+01  -2.811871e+00
   3.735482e+01   1.745645e+01
  -3.200025e+01   3.567174e+01
  -3.259234e+00   2.240678e+00
   5.439426e+01   1.253126e+01
   1.119766e+02   4.560469e+01
  -3.013078e+01   7.821147e+01
  -1.194583e+02   1.037720e+02
  -1.805471e+02   9.270878e+01
  -1.450286e+02  -3.550782e+01
  -1.358275e+01  -1.912519e+02
   7.472704e+01  -1.519363e+02
   9.686828e+01  -7.340231e+01
   8.462803e+01   1.656315e+01
   5.959614e+01   3.542244e+01
   2.687119e+01   7.704712e+00
   1.429396e+01   2.188162e+01
   3.165051e+01   7.982434e+01
   3.589293e+01   1.021196e+02
  -7.345815e+01   9.113640e+01
  -6.425930e+01  -2.326292e+01
  -5.965712e+01  -1.315664e+02
  -4.740444e+01  -1.099687e+02
   1.024223e+02  -2.987165e+01
   9.634911e+01   6.538072e+01
   6.043733e+01   8.479196e+01
  -2.998268e+01   5.652676e+01
  -1.017522e+02  -2.960460e+01
  -3.505362e+01  -4.516983e+01
  -3.496086e+01  -6.387791e+01
   7.196886e+00  -2.404501e+01
  -4.793886e+01  -3.130392e+01
  -5.360006e+01   3.629417e+00
   2.852483e+00   2.282906e+01
   8.138995e+01  -6.057798e+01
   1.066341e+02  -7.097422e+01
   7.785993e+01   2.203636e+01
  -2.690720e+01   9.068862e+01
  -7.549576e+01   4.207800e+01
  -4.443280e+01  -7.822137e+00
  -8.355068e-01  -6.494377e+01
   4.330557e+01  -5.804376e+01
   2.440641e+01  -1.254827e+01
   2.470613e+01   4.746467e+01
  -3.121073e+01   2.134159e+01
  -4.294621e+01  -5.991963e+01
  -2.145343e+01  -1.028206e+00
  -1.014219e+01   2.131253e+00
   1.096658e+01   2.662591e+01
   3.776519e+01   2.442269e+00
   1.166453e+01  -3.384634e+01
  -6.606283e-01  -6.100094e+01
   1.235522e+01  -3.460693e+01
   4.859172e+01   4.428485e+01
   7.186664e+00   7.140312e+01
  -3.416624e+01   5.807202e+01
  -1.879273e+01  -4.583196e+01
  -3.180560e+01  -4.407667e+01
   2.970769e+01   3.149824e+00
   8.691045e+01  -6.229554e+00
   6.166310e+01   1.285604e+00
  -2.647817e+01   6.258965e+01
  -6.950541e+01   7.515661e+01
  -2.622606e+01  -7.536897e+00
   4.307126e+01  -1.323222e+01
   3.798890e+01  -6.629663e+00
  -2.049272e+01   6.494508e+01
  -7.732143e+01   3.697929e+01
