
 $NMID
 id='ANONYMOUS ', fmtdat='(2E16.6)'
 volume=1.0
 tramp=1.0
 $END
   4.609494e+03   6.521682e+01
   2.511243e+03   2.722817e+03
  -1.000297e+03   2.859287e+03
  -2.258997e+03   9.111053e+02
  -1.062421e+03  -7.120229e+02
   7.961767e+02  -7.305752e+02
   1.024899e+03   5.853539e+02
  -6.194252e-01   1.158295e+03
  -8.282526e+02   8.339300e+02
  -9.825900e+02  -1.759954e+01
  -3.489954e+02  -8.773734e+02
   2.687114e+02  -1.113087e+03
   7.495495e+02  -1.544874e+02
   3.288488e+02   7.367771e+02
  -3.308594e+02   7.762368e+02
  -7.544255e+02  -3.964636e+01
  -2.440793e+02  -7.008883e+02
   4.598665e+02  -8.669959e+02
   7.064114e+02  -3.451228e+02
   2.657594e+02   3.103187e+02
   8.832481e+01   2.732683e+02
  -3.372326e+02   1.464088e+02
  -3.165253e+02   1.716968e+02
   1.493229e+00   9.808093e+01
   4.252767e+02   7.213308e+01
   1.412604e+02   4.934329e+02
  -4.447082e+02   2.751376e+02
  -8.827171e+02  -1.098503e+02
  -4.841998e+02  -5.128761e+02
   3.921029e+02  -6.256421e+02
   8.239271e+02   5.302357e+01
   4.133415e+02   4.560408e+02
  -2.071956e+02   6.357480e+02
  -5.308483e+02   2.598025e+02
  -4.390011e+02  -2.411426e+02
  -3.944345e+01  -5.508166e+02
   2.251150e+02  -3.201656e+02
   2.127633e+02   2.596422e+02
  -2.073152e+02   4.404246e+02
  -5.059577e+02   3.125203e+01
  -2.554654e+02  -7.034665e+02
   3.115082e+02  -7.486671e+02
   5.897248e+02  -1.687565e+01
   2.681648e+02   5.730028e+02
  -3.370831e+02   3.091733e+02
  -3.744327e+02  -2.894489e+02
   1.035386e+02  -5.841311e+02
   5.638090e+02  -2.091227e+02
   6.047153e+02   3.577933e+02
   2.201090e+02   5.663732e+02
  -3.210059e+02   3.469687e+02
  -6.285291e+02  -8.654364e+01
  -3.883423e+02  -4.429469e+02
   1.866419e+02  -4.497254e+02
   5.095096e+02  -6.150636e+01
   2.910481e+02   2.302387e+02
  -6.942133e+01   1.417718e+02
  -1.622516e+02  -1.410396e+02
   1.769156e+02  -1.799903e+02
   3.645206e+02   7.094294e+01
   1.626002e+02   2.800555e+02
  -1.510278e+02   2.431795e+02
  -2.721308e+02   6.647708e+01
  -1.864579e+02  -8.615449e+01
   4.169189e+01  -2.499392e+02
   2.404759e+02  -3.775040e+02
   3.746409e+02  -2.245054e+02
   3.194131e+02   2.171465e+02
   1.040243e+02   4.914882e+02
  -1.069252e+02   3.824464e+02
  -8.775790e+01   1.122953e+02
  -2.190990e+01   9.502636e+00
  -5.768329e+01   1.601724e+02
  -2.145320e+02   2.192778e+02
  -2.647299e+02  -1.167013e+01
  -1.796939e+02  -2.885923e+02
  -3.525778e+00  -2.560011e+02
   1.758170e+02  -3.122488e+01
   2.024378e+02   1.749207e+02
  -2.711037e+01   2.711882e+02
  -2.606611e+02   1.495199e+02
  -3.958518e+02  -1.361059e+02
  -2.348245e+02  -3.344502e+02
   7.081082e+01  -3.190203e+02
   2.434890e+02  -1.759889e+02
   1.702484e+02  -1.970336e+01
   1.217788e+02  -3.048898e+01
   2.284448e+02  -9.402911e+01
   3.936121e+02  -1.603571e+00
   3.915890e+02   3.342695e+02
   1.466052e+01   4.799316e+02
  -3.973119e+02   4.462610e+02
  -5.844201e+02   1.981954e+02
  -3.998076e+02  -7.942566e+01
  -9.709848e+01  -3.146640e+02
   1.414496e+02  -2.659701e+02
   1.087551e+02  -5.505788e+01
  -8.866695e+01   6.087836e+01
  -2.024091e+02  -1.172018e+01
  -4.910070e+01  -1.941959e+02
   1.549849e+02  -2.297745e+02
   1.609174e+02   2.583933e+01
  -9.870488e+00   1.681996e+02
  -2.173484e+02   2.443448e+01
  -1.740333e+02  -2.745788e+02
   5.858834e+01  -3.503381e+02
   2.992786e+02  -2.368939e+02
   3.875075e+02   5.603579e+01
   2.661094e+02   2.405529e+02
   9.669937e+01   2.748176e+02
  -7.219730e+01   1.632806e+02
  -1.217760e+02   3.488317e+01
  -4.607027e+01  -1.772008e+01
   1.188422e+01   2.136158e+01
  -6.632101e+00   1.213933e+02
  -1.242591e+02   9.271425e+01
  -1.763399e+02  -3.796693e+01
  -7.113049e+01  -9.739577e+01
   1.127522e+02   2.575425e+01
   8.364154e+01   1.040453e+02
  -9.255388e+01   7.691550e+01
  -2.877915e+02   1.171923e+01
  -3.106418e+02  -8.903608e+01
  -8.744385e+01  -2.064738e+02
   1.872508e+02  -2.941865e+02
   3.343798e+02  -1.741335e+02
   1.545994e+02   8.361463e+01
  -4.115646e+01   1.174874e+02
  -1.134418e+02   2.403870e+01
   8.092011e+01  -1.446343e+02
   2.177493e+02  -8.556609e+01
   2.428926e+02   1.238896e+02
   5.346780e+01   2.605209e+02
  -1.594908e+02   2.145927e+02
  -1.795735e+02  -1.765747e+01
  -1.059787e+02  -5.694062e+01
   8.125813e+00  -6.449135e+01
   4.965519e+01   8.011558e+01
  -6.935947e+01   1.443743e+02
  -1.800118e+02   3.400637e+01
  -1.890725e+02  -1.318518e+02
  -6.922095e+01  -2.230140e+02
   1.415587e+02  -1.552955e+02
   2.122402e+02  -1.334979e+01
   7.331136e+01   1.000589e+02
  -8.787345e+01   8.765522e+01
  -1.240387e+02   2.082500e+01
  -1.304397e+01  -2.962302e+01
   4.645905e+01  -1.135353e+01
   5.101950e+00   8.995850e+00
  -7.649119e+01  -1.059579e+01
  -8.309415e+01  -9.322248e+01
   2.025715e+00  -1.171108e+02
   1.284368e+02  -1.505682e+02
   2.372750e+02  -5.804142e+01
   1.824562e+02   1.362082e+02
   2.474879e+01   2.031886e+02
  -1.264625e+02   1.680943e+02
  -1.354930e+02   3.395001e+01
  -5.384052e+01  -6.787687e+01
   1.730534e+01  -5.743814e+01
  -2.201659e-02  -1.048077e+01
  -7.704111e+01  -8.702333e-01
  -5.013858e+01  -2.714170e+01
   1.077118e+01  -4.550941e+01
   8.126959e+01  -4.105415e+01
   9.785986e+01   1.775101e+01
  -3.399750e+01   9.738179e+01
  -1.264129e+02   1.163591e+02
  -1.580644e+02  -6.437892e+01
  -1.064444e+02  -2.445683e+02
   6.914932e+01  -2.654956e+02
   2.433499e+02  -8.309333e+01
   2.945420e+02   9.127987e+01
   1.272036e+02   2.079172e+02
  -4.242005e+01   1.765484e+02
  -1.143922e+02   6.153428e+01
  -7.267913e+01   3.147530e+01
  -6.859795e+01   5.584080e+01
  -6.560048e+01   9.235225e+01
  -1.227980e+02   4.933741e+00
  -1.243588e+02  -1.134941e+02
  -2.962208e+01  -1.988011e+02
   9.029602e+01  -1.734194e+02
   1.971466e+02  -4.011934e+01
   1.540127e+02   8.749216e+01
   9.684177e+00   1.267825e+02
  -9.725632e+01   9.825396e+01
  -5.499183e+01  -2.871354e+01
   2.128218e-01  -5.767192e+01
   4.019293e+01   7.492513e+00
  -3.894032e+01   7.434716e+00
  -5.083388e+01  -3.510068e+01
  -4.232369e+01  -5.252716e+01
   5.634893e+01   1.571220e+00
   1.290369e+02  -1.424766e+01
   7.333096e+01   7.919928e+01
   1.515903e+01   8.599465e+01
  -8.261842e+01   8.924242e+01
  -1.122952e+02   2.103703e+01
  -6.313491e+01  -5.843061e+01
   3.000595e+01  -4.807308e+01
   3.581732e+01   2.437422e+01
  -2.330164e+01   7.339886e+01
  -6.703153e+01   4.447258e+01
  -6.081437e+01  -2.917000e+01
  -3.883651e+01  -9.959425e+01
  -1.804461e+01  -2.759066e+01
  -6.605944e+01  -1.190326e+01
  -2.039918e+01  -8.273611e+00
  -8.221684e+00  -6.294060e+01
   2.162957e+01  -1.445638e+02
   1.153810e+02  -1.043218e+02
   1.491082e+02   1.596335e+00
   1.538712e+02   6.266678e+01
   7.389130e+00   1.221616e+02
  -9.876418e+01   4.760986e+01
  -1.149434e+02  -9.702463e+00
   3.349685e+01  -3.645840e+01
   1.602498e+02   1.904127e+01
   8.428462e+01   1.102584e+02
  -6.205471e+01   1.052810e+02
  -1.818776e+02   8.242182e+01
  -1.579773e+02  -9.594638e+00
  -3.934099e+01  -5.220423e+01
   6.207224e+01  -4.842804e+01
   3.086882e+01   1.919724e+01
  -6.139508e+01   2.953487e+01
  -1.523210e+02  -4.559699e+01
  -4.400461e+01  -1.540121e+02
   8.896952e+01  -1.440982e+02
   1.821327e+02  -3.824177e+01
   1.552575e+02   1.142726e+02
  -7.755511e+00   1.964335e+02
  -1.179793e+02   7.722294e+01
  -1.396466e+02  -2.553477e+01
  -8.095925e+01  -1.472933e+02
  -1.214145e+01  -1.160239e+02
   8.813251e+01  -2.890170e+01
   1.307398e+02   1.885031e+01
   7.167254e+01  -7.768115e+00
   1.012103e+01  -6.589349e+01
   3.191416e+00  -3.490519e+00
   3.562394e+01   9.335422e+01
   5.633082e+01   1.398875e+02
  -5.047580e+01   3.898184e+01
  -1.046064e+02  -2.101225e+01
  -1.430472e+02  -2.304845e+01
  -4.486839e+01  -3.672987e+01
   5.504557e+01  -9.231408e-01
   6.673256e+01  -1.683775e+01
   1.326610e+01  -2.738201e+01
  -6.414384e+01   1.511483e+01
  -1.040464e+01   3.382651e+01
   2.986872e+01  -2.438467e+00
   1.595425e+00  -2.142913e+01
  -6.507082e+01  -1.933021e+01
  -8.703686e+01  -7.130968e+00
   1.118408e+01  -8.668545e+01
   9.348863e+01  -1.390639e+02
   1.789043e+02  -5.565987e+01
   1.295129e+02   8.871272e+01
   7.226328e+00   1.812163e+02
  -7.668120e+01   1.175394e+02
  -8.116061e+01   6.392350e+01
  -7.034310e+01  -1.388004e+01
  -2.015661e+01  -5.337235e+01
   2.478691e+01  -2.510981e+01
   4.086706e+01   2.139302e+01
   6.534659e+00  -1.196513e+01
  -4.564589e+01  -8.072423e+01
  -1.424792e+01  -5.465028e+01
   8.019498e+01   2.067293e+01
   7.007357e+01   1.083157e+02
  -5.628538e-01   1.446126e+02
  -1.035174e+02   4.253595e+01
  -1.082193e+02  -9.010968e+01
  -3.674058e+01  -8.042033e+01
   5.671417e+01  -5.922456e+01
   7.970335e+01   3.134029e+01
   5.463072e+01   4.528697e+01
  -4.104885e+00   1.362446e+01
  -9.427839e+00   4.045754e+01
   3.372376e+01   3.614150e+01
   9.237349e+01   4.499924e+00
  -1.984712e+01   1.665449e+01
  -9.370094e+01   9.054923e+01
  -1.309301e+02   3.288617e+01
  -6.483208e+01  -2.289801e+01
  -1.465053e+00  -8.833451e+01
   3.254461e+01  -3.756857e+01
   2.698900e+01  -1.120478e+01
  -2.209463e+01   4.663028e+01
  -2.809048e+01   6.894492e+01
  -3.476260e+01  -5.568676e+01
  -1.177514e+01  -8.480087e+01
   2.378092e+00  -5.696661e+01
   5.085004e+01   2.550124e+01
   4.720247e+01   3.213483e+01
   2.614763e+01   8.061547e+01
  -2.168752e+01  -4.478835e+01
  -3.715542e+01  -1.168874e+01
  -3.667900e+01  -3.823719e-01
  -1.943243e+01   3.461872e+01
   3.689020e+00   2.374386e+01
  -2.836889e+00  -2.254082e+01
   4.002634e+01  -2.386390e+01
   4.406479e+01  -1.660190e+01
   4.730766e+01   2.933135e+01
   1.821945e+01   7.133400e+01
  -7.431717e+00   1.862175e+01
  -5.629561e+01  -5.437629e+00
  -2.889692e+01  -3.189989e+01
  -1.633612e+00  -5.549858e+01
   5.207316e+01  -2.856830e+01
   2.284927e+01  -1.476872e+01
  -3.500937e+01   1.386795e+01
  -4.253058e+01  -3.207697e+00
   4.897798e+01  -2.592858e+01
   1.115539e+02   8.383735e+00
