
 $NMID
 id='ANONYMOUS ', fmtdat='(2E16.6)'
 volume=1.0
 tramp=1.0
 $END
   4.438360e+03   6.297819e+01
   2.623132e+03   2.576175e+03
  -7.999571e+02   2.810854e+03
  -2.194644e+03   8.678805e+02
  -8.979030e+02  -7.005009e+02
   6.912975e+02  -5.391340e+02
   9.363617e+02   4.291192e+02
   2.568424e+01   1.039167e+03
  -7.578476e+02   8.593486e+02
  -1.004864e+03  -1.136119e+02
  -3.515000e+02  -8.783457e+02
   1.822569e+02  -9.754980e+02
   6.415120e+02  -2.003242e+02
   3.808078e+02   7.003259e+02
  -3.496867e+02   9.396716e+02
  -6.356641e+02  -8.867173e+01
  -3.924514e+02  -7.210903e+02
   4.730577e+02  -7.846008e+02
   6.241060e+02   4.982992e+01
   3.831154e+02   2.304362e+02
  -1.357521e+02   4.445789e+02
  -3.412994e+02   1.935715e+02
  -2.077878e+02  -1.337263e+02
   1.338562e+02   4.582546e+01
   3.206788e+02   6.478949e+01
   3.129333e+02   4.773470e+02
  -5.239146e+02   5.050652e+02
  -9.606109e+02  -8.124539e+01
  -4.198381e+02  -6.703124e+02
   4.803116e+02  -4.994094e+02
   7.910346e+02   1.560905e+02
   3.069836e+02   4.327430e+02
  -3.188874e+02   4.430524e+02
  -5.234598e+02   1.814616e+02
  -3.553540e+02  -1.361248e+02
   6.218849e+01  -4.604965e+02
   1.452323e+02  -3.720185e+02
   1.293342e+02   2.114377e+02
  -1.533529e+02   5.249112e+02
  -4.940091e+02   9.305714e+01
  -2.290517e+02  -7.610860e+02
   3.139303e+02  -7.682822e+02
   6.071564e+02  -3.575863e+01
   2.124152e+02   5.998624e+02
  -3.312305e+02   3.853417e+02
  -4.278484e+02  -3.678196e+02
   1.153180e+02  -5.902675e+02
   5.742384e+02  -1.348246e+02
   6.686673e+02   3.848038e+02
   1.351230e+02   5.421745e+02
  -3.916509e+02   3.497441e+02
  -6.588509e+02  -8.896553e+01
  -3.826270e+02  -3.545621e+02
   1.828570e+02  -3.996375e+02
   4.640002e+02  -8.304175e+01
   2.699642e+02   1.924411e+02
  -6.984855e+01   1.209965e+02
  -1.443148e+02  -1.618970e+02
   1.665000e+02  -1.805094e+02
   2.770279e+02   3.295782e+01
   9.484136e+01   2.982449e+02
  -1.905921e+02   2.451007e+02
  -3.069121e+02   7.564867e+01
  -1.505082e+02  -8.762794e+01
   3.356978e+01  -2.930302e+02
   1.979398e+02  -3.513018e+02
   3.486855e+02  -2.393472e+02
   2.759612e+02   1.265202e+02
   1.052493e+02   4.591387e+02
  -1.012753e+02   3.418212e+02
  -1.017376e+02   1.452767e+02
  -3.117293e+01   3.848279e+01
  -6.209986e+01   1.195435e+02
  -1.843204e+02   1.470190e+02
  -2.273831e+02  -7.793139e+01
  -1.553205e+02  -2.363990e+02
   4.223907e+01  -2.085114e+02
   1.942737e+02   1.013497e+01
   1.749555e+02   2.655357e+02
  -1.319835e+01   3.037985e+02
  -3.351940e+02   1.022130e+02
  -4.294217e+02  -1.920223e+02
  -1.676182e+02  -3.959015e+02
   9.149050e+01  -3.495569e+02
   2.514304e+02  -1.177509e+02
   9.983279e+01  -4.621891e+01
   6.462625e+01  -7.434831e+01
   2.376187e+02  -1.021326e+02
   4.003841e+02   1.236080e+01
   3.332825e+02   2.137804e+02
  -8.838920e+00   4.045246e+02
  -3.868084e+02   3.868221e+02
  -4.916685e+02   1.845113e+02
  -3.307731e+02  -1.257830e+02
  -5.437916e+01  -2.692252e+02
   1.240205e+02  -2.732046e+02
   8.141223e+01  -7.273273e+01
  -8.393218e+01   8.491947e+01
  -1.798663e+02   7.845826e+00
  -8.330115e+01  -1.818661e+02
   1.012689e+02  -1.602878e+02
   1.308547e+02   2.022332e+01
   4.044224e+01   1.493513e+02
  -1.520001e+02   2.780831e+00
  -1.615567e+02  -2.452454e+02
   5.752123e+01  -3.535788e+02
   2.199409e+02  -1.842377e+02
   3.320835e+02   5.038206e+01
   2.971585e+02   2.089654e+02
   1.039673e+02   2.280416e+02
  -9.291192e+01   1.507222e+02
  -1.381846e+02   2.236641e+01
  -4.297098e+01   5.710632e+00
   7.202379e+01   5.224518e+01
  -1.834351e+01   1.244626e+02
  -1.732060e+02   9.105901e+01
  -1.928024e+02   2.328746e+01
  -6.843184e+01  -5.179368e+01
   8.519186e+01  -3.855554e+01
   1.842213e+01  -1.811048e+01
  -1.363731e+02  -9.238586e+00
  -2.035294e+02  -5.090668e+01
  -2.083731e+02  -1.085882e+02
  -1.949149e+01  -1.910927e+02
   1.942942e+02  -2.109730e+02
   2.520907e+02  -8.404614e+01
   1.205560e+02   5.346318e+01
  -4.871517e+01   9.636619e+01
  -1.139730e+02   1.520144e+01
   3.413569e+01  -1.189954e+02
   2.109012e+02  -9.465662e+01
   2.584644e+02   6.596368e+01
   7.061192e+01   2.079636e+02
  -8.532835e+01   1.546983e+02
  -1.744076e+02   1.339917e+01
  -6.049295e+01  -2.373897e+01
   5.719035e+01   9.431702e+00
   7.661997e+01   5.043403e+01
  -5.041942e+01   1.301340e+02
  -1.517122e+02   1.579339e+00
  -1.749716e+02  -1.097701e+02
  -3.529249e+01  -2.237495e+02
   1.307922e+02  -1.352144e+02
   1.626744e+02  -1.017479e+01
   5.880141e+01   9.577839e+01
  -6.669850e+01   8.652493e+01
  -9.053334e+01  -1.803625e+00
  -7.395086e+00   8.643352e-01
   1.250747e+01  -2.421875e+01
  -3.143257e+01   1.508360e+01
  -1.415338e+02   3.802874e-02
  -9.076691e+01  -2.536882e+01
  -5.074997e+00  -1.416423e+02
   1.020564e+02  -1.487278e+02
   2.476747e+02  -7.036184e+00
   2.251092e+02   1.120733e+02
   2.039469e+01   2.174961e+02
  -1.160274e+02   1.726876e+02
  -1.365603e+02   4.679902e+01
  -6.304570e+01  -9.232463e+01
  -3.587129e+01  -8.698325e+01
  -4.959590e+00   1.368915e+01
  -1.815260e+01   1.016601e+01
  -4.733488e+01   7.612516e+00
  -2.525080e+00  -6.372168e+01
   9.918051e+01  -6.757004e+01
   8.060495e+01   5.389284e+00
   9.593900e-01   9.334064e+01
  -1.568263e+02   1.157102e+02
  -1.919574e+02  -1.373514e+01
  -1.144527e+02  -2.019068e+02
   9.575116e+01  -2.688446e+02
   2.496375e+02  -1.006822e+02
   2.412452e+02   9.814376e+01
   9.283669e+01   1.381697e+02
  -9.742087e+01   1.023049e+02
  -1.014411e+02   5.802033e+01
  -7.871901e+01   3.375425e+01
   3.890750e-02   1.042824e+02
  -6.097099e+01   1.063919e+02
  -8.930254e+01  -1.936256e+01
  -1.239790e+02  -1.607345e+02
  -5.625652e+01  -2.254468e+02
   9.424492e+01  -1.436536e+02
   1.849207e+02  -7.210439e+01
   1.346105e+02   1.069330e+02
   1.642022e-01   1.702749e+02
  -5.889130e+01   1.216166e+02
  -2.355759e+01  -8.552954e+00
   3.251768e+01  -3.817551e+01
   3.537140e-01  -5.829735e+01
  -6.030272e+01  -1.648718e+01
  -1.100610e+02   2.348207e+01
  -6.739944e+01  -3.175343e+01
   9.752582e+01  -2.839027e+01
   1.642353e+02   6.802529e+00
   1.353213e+02   3.593700e+01
  -8.256309e+00   1.226631e+02
  -1.449471e+02   9.450037e+01
  -1.373296e+02   2.931386e+01
  -8.822271e+01  -5.661089e+01
  -2.382421e+00  -5.510370e+01
   2.055182e+01   8.163580e+00
   8.725427e+00   6.178566e+01
  -5.261771e+01   2.790047e+01
   2.000698e+01  -4.832476e+01
  -4.544348e+01  -1.016505e+02
   3.536068e+00  -3.129246e+01
  -8.271417e+01  -8.247557e+00
  -5.206587e+01  -2.165150e+01
  -1.771712e+01  -2.266634e+01
   6.679000e+01  -1.375432e+02
   9.644127e+01  -1.098003e+02
   1.830805e+02  -4.415185e+01
   1.375624e+02   6.581537e+01
   2.304840e+01   8.252352e+01
  -6.761504e+01   3.940466e+01
  -7.417607e+01  -1.973989e+01
   5.304296e+01   5.941163e+00
   1.194836e+02   7.450993e+01
   1.097665e+02   8.822325e+01
  -9.540843e+01   1.074759e+02
  -1.793755e+02   2.617970e+01
  -1.749352e+02  -1.657160e+00
  -6.008512e+01  -5.459005e+01
   4.445367e+01  -1.024467e+02
   2.264458e+01  -2.255297e+01
  -5.862523e+01   2.898882e+01
  -6.798263e+01   2.235820e+00
  -3.915650e+01  -1.193649e+02
   7.524179e+01  -1.895577e+02
   9.974145e+01  -6.470356e+01
   1.264466e+02   8.418051e+01
  -8.998461e+00   2.020574e+02
  -4.996705e+01   1.165195e+02
  -1.154439e+02  -3.086106e+01
  -3.734286e+01  -1.459577e+02
   9.926127e+00  -1.161392e+02
   6.862437e+01   6.921079e+00
   9.947560e+01   2.777876e+01
   2.243697e+01   4.664300e+01
   5.019801e+00  -3.442777e+01
   5.575069e+01   2.006018e+01
   4.612920e+01   6.471453e+01
   2.078245e+01   8.118102e+01
  -6.781347e+01   4.428379e+01
  -1.239949e+02  -6.819793e+00
  -1.289964e+02  -4.259936e+01
  -1.944183e+01  -6.628733e+01
   1.155842e+02  -3.768346e+01
   1.262896e+02   1.151926e+01
   1.169797e+01   1.558889e+01
  -4.599360e+01   1.616271e+01
  -4.529037e+00   2.919673e+01
   3.962916e+00  -2.411686e+01
  -7.531794e-01   5.436835e+00
  -6.318125e+01  -3.642903e+01
  -7.357396e+01  -7.975491e+00
  -1.692659e+01  -1.079746e+02
   1.175647e+02  -1.163740e+02
   1.789654e+02  -6.681535e+01
   1.553459e+02   7.701329e+01
  -5.361214e+00   1.689725e+02
  -9.002551e+01   1.827812e+02
  -6.736428e+01   3.167932e+01
  -7.110210e+01  -2.097473e+01
  -3.969251e+01  -2.580831e+01
  -2.637537e+01   2.802369e+01
   1.528517e+01   4.481231e+01
  -1.231070e+01  -3.018699e+01
  -1.992890e+01  -8.920264e+01
  -1.698104e+01  -5.820104e+01
   6.898202e+01   4.016913e+01
   8.545805e+01   1.618548e+02
   1.012556e+01   1.063798e+02
  -9.289461e+01   1.179776e+00
  -1.337854e+02  -3.877807e+01
  -7.356136e+01  -8.311586e+01
   7.327586e+01  -7.638652e+01
   6.779787e+01  -7.352605e+00
   3.656487e+01   3.813825e+01
  -3.430778e+01   6.368292e+01
  -3.662178e+01   3.986810e+01
   2.519720e+01  -3.080501e+01
   8.982144e+01   2.780580e+01
  -2.834868e+01  -6.857814e+00
  -5.034392e+01   9.554770e+01
  -1.359486e+02   7.069214e+01
  -1.812951e+01  -8.613097e+00
   9.579822e+00  -8.601381e+01
   4.243251e+00  -7.863267e+01
   1.740184e+01  -6.075597e+01
   2.496335e+01   8.765549e+01
  -2.339889e+00   5.219300e+01
  -2.809505e+01  -3.849645e+01
  -2.190201e+01  -3.127236e+01
   9.112757e+00  -5.630714e+01
   3.006713e+00  -4.190261e+00
   5.078263e+01  -6.369153e+00
  -7.748141e-01  -1.482866e+01
   1.141932e+00  -3.092323e+01
  -2.977088e+01  -1.048049e+01
   4.373864e+01   8.893838e+00
   2.292442e+01   4.086881e+01
  -5.000202e+00  -2.522024e+01
  -4.648209e+01  -1.832842e+01
  -1.561135e+01  -6.886427e+01
   5.186453e+01   3.199784e+00
   4.675980e+01   2.465852e+01
   3.494732e+01   6.677766e+01
  -4.813398e+01  -8.738343e+00
  -6.810255e+01  -2.261704e+01
  -6.373012e+01  -5.411674e+01
   2.172554e+01  -3.974692e+01
   4.504196e+01   6.910933e+00
   8.651159e+00   1.762078e+01
  -5.781270e+00  -3.951819e+00
  -7.120172e+01   2.035536e+01
   4.157709e+01  -1.033216e+02
   1.271484e+02  -4.888106e+01
