
 $NMID
 id='ANONYMOUS ', fmtdat='(2E16.6)'
 volume=1.0
 tramp=1.0
 $END
  -4.462524e+03   2.332540e+01
  -2.599201e+03  -2.630716e+03
   7.588470e+02  -2.848692e+03
   2.177482e+03  -9.498823e+02
   9.326251e+02   7.654468e+02
  -6.958780e+02   7.100093e+02
  -9.971339e+02  -3.024967e+02
   9.059114e+01  -1.114639e+03
   9.556182e+02  -8.483387e+02
   9.562712e+02   2.697550e+01
   4.922717e+02   8.406226e+02
  -2.046877e+02   8.463638e+02
  -7.616350e+02   1.204956e+02
  -3.737537e+02  -7.526703e+02
   1.527573e+02  -8.192633e+02
   8.517101e+02   8.698408e+00
   2.812546e+02   7.847811e+02
  -4.262115e+02   4.561710e+02
  -5.958290e+02   1.675195e+02
  -4.701907e+02  -4.475332e+02
  -5.268880e+01  -5.519274e+02
   1.877115e+02  -9.491975e+01
   4.270845e+02   9.888142e+01
  -2.585567e+02   2.173951e+02
  -3.378286e+02  -2.597902e+01
  -3.367539e+02  -5.651507e+02
   5.022387e+02  -4.819891e+02
   9.216648e+02   1.386489e+02
   3.781674e+02   5.799628e+02
  -4.372559e+02   3.484336e+02
  -8.443612e+02  -3.553504e+01
  -3.382261e+02  -5.108582e+02
   3.977136e+02  -5.139656e+02
   5.514376e+02  -2.354686e+02
   3.977750e+02   3.642347e+02
   3.928230e+01   5.066880e+02
  -1.987331e+02   2.309043e+02
  -2.129713e+02  -2.571929e+02
   2.006686e+02  -4.311464e+02
   5.745551e+02  -2.684508e+01
   2.230261e+02   7.152486e+02
  -3.643461e+02   7.325739e+02
  -7.657934e+02   1.138198e+01
  -3.570645e+02  -5.494035e+02
   2.938897e+02  -3.315881e+02
   3.845767e+02   2.721423e+02
  -2.102176e+01   5.994369e+02
  -5.640246e+02   1.481966e+02
  -5.624091e+02  -4.308967e+02
  -1.150790e+02  -6.125384e+02
   3.900814e+02  -3.830211e+02
   6.706590e+02   1.134589e+02
   3.937610e+02   4.337422e+02
  -1.471392e+02   3.957985e+02
  -4.455155e+02   9.885218e+01
  -2.111860e+02  -2.125335e+02
   1.787577e+02  -8.788240e+01
   2.170601e+02   1.356250e+02
  -2.136594e+02   1.582320e+02
  -3.799879e+02  -1.372592e+02
  -1.522136e+02  -3.505844e+02
   2.603759e+02  -2.739563e+02
   3.973674e+02  -1.313573e+01
   2.315373e+02   1.152823e+02
  -2.763350e+01   2.155762e+02
  -2.334349e+02   3.039520e+02
  -3.284971e+02   2.126308e+02
  -3.099757e+02  -1.235759e+02
  -8.049340e+01  -4.400903e+02
   1.030481e+02  -3.466880e+02
   1.149148e+02  -7.818401e+01
   6.042813e+01  -2.016401e+01
   5.456045e+01  -1.190197e+02
   2.405521e+02  -1.808089e+02
   2.568030e+02   8.428219e+01
   1.110778e+02   3.094008e+02
  -8.433737e+01   2.978442e+02
  -1.998973e+02   6.590022e+01
  -1.760890e+02  -1.954988e+02
  -2.547744e+01  -2.861919e+02
   2.381264e+02  -1.158683e+02
   3.597357e+02   1.154871e+02
   2.098358e+02   3.994113e+02
  -1.281393e+02   3.492425e+02
  -3.023127e+02   1.050058e+02
  -1.639444e+02   4.984244e+00
  -4.942087e+01   3.832510e+00
  -1.983258e+02   1.036540e+02
  -4.257183e+02  -6.474914e+01
  -3.946956e+02  -2.965837e+02
  -1.501935e+01  -4.623591e+02
   3.914179e+02  -4.208471e+02
   4.877899e+02  -1.492224e+02
   3.153813e+02   8.396469e+01
   3.562724e+01   2.963949e+02
  -1.383202e+02   2.350006e+02
  -9.368623e+01   2.783891e+01
   1.177954e+02  -1.231123e+02
   2.121862e+02  -9.938310e+00
   7.148860e+01   2.121631e+02
  -1.319982e+02   1.924375e+02
  -2.516628e+02  -5.686237e+01
   2.876024e+01  -2.459305e+02
   2.249691e+02  -9.701962e+01
   2.166680e+02   2.781091e+02
  -2.244044e+01   3.630694e+02
  -2.431821e+02   1.906944e+02
  -3.507350e+02  -7.195887e+01
  -2.812664e+02  -2.430990e+02
  -7.334626e+01  -2.245247e+02
   1.077804e+02  -1.415398e+02
   1.583503e+02  -3.199944e-01
   4.233658e+01  -1.523963e+00
  -6.820443e+01  -5.954388e+01
  -5.435217e+01  -1.756901e+02
   1.191722e+02  -8.255431e+01
   2.513207e+02   5.798688e+01
   9.324261e+01   8.478498e+01
  -6.583850e+01   3.259355e+01
  -6.237347e+01  -8.277132e+01
   6.904659e+01  -1.066861e+02
   2.967113e+02   6.069651e+00
   2.613299e+02   1.712544e+02
   7.956779e+01   2.752955e+02
  -1.576562e+02   2.632971e+02
  -2.899844e+02   1.122532e+02
  -1.759309e+02  -3.376031e+01
   2.033319e+01  -1.218346e+02
   9.273969e+01   3.668665e+00
  -8.743167e+01   1.171533e+02
  -2.160902e+02   4.171861e+01
  -2.203971e+02  -9.434992e+01
  -7.915334e+01  -2.242688e+02
   1.079846e+02  -1.895101e+02
   1.411777e+02  -4.412934e+00
   7.894384e+01   8.674449e+01
  -1.285653e+01  -2.196244e+01
  -5.387588e+01  -7.772057e+01
   6.303860e+01  -1.480575e+02
   1.936114e+02  -1.373980e+01
   2.039450e+02   1.448314e+02
   5.660689e+01   2.351019e+02
  -1.888080e+02   1.506700e+02
  -1.941821e+02  -3.058641e+01
  -9.391458e+01  -1.218493e+02
   8.822879e+01  -8.679931e+01
   1.227832e+02  -2.218261e-01
   5.514097e+01   3.583415e+01
  -4.784393e+01   2.119177e+01
  -2.781447e+01  -1.126629e+01
   8.270565e+01   1.514733e+00
   9.805805e+01   7.322517e+01
  -2.613617e+01   1.581298e+02
  -1.289165e+02   1.597256e+02
  -2.472220e+02   4.200138e+01
  -2.000849e+02  -1.547400e+02
  -1.146412e+01  -2.385074e+02
   9.138381e+01  -2.001797e+02
   1.615301e+02  -4.185684e+01
   1.102533e+02   5.335177e+01
   1.756445e+01   7.852070e+01
   5.950830e+01   3.093084e+01
   8.393739e+01  -9.574781e-01
   6.343656e+01   1.294784e+01
  -5.549148e+01   5.227061e+01
  -1.373582e+02   3.148971e+01
  -6.966271e+01  -5.757834e+01
  -3.727682e+00  -1.352986e+02
   1.446064e+02  -5.874736e+01
   1.890100e+02   1.916281e+01
   8.645358e+01   2.368287e+02
  -9.543798e+01   2.405601e+02
  -2.688104e+02   1.153678e+02
  -2.676292e+02  -8.067592e+01
  -1.066723e+02  -2.136031e+02
   3.239803e+01  -1.488669e+02
   1.261253e+02  -9.273060e+01
   8.841435e+01  -6.982146e+01
   7.398126e+01  -1.169712e+02
   7.026578e+01  -8.041309e+01
   1.512072e+02   1.808165e+00
   1.168945e+02   1.944401e+02
   3.499214e+01   2.326933e+02
  -1.317326e+02   1.450130e+02
  -1.663463e+02   3.711742e+01
  -1.442706e+02  -1.389258e+02
  -5.992268e+01  -2.019297e+02
   9.344081e+01  -1.288272e+02
   1.077529e+02  -4.456025e+00
   5.382564e+01   1.959209e+01
   6.205003e+00   5.085439e+01
  -1.715417e+01   1.191100e+01
   9.534764e+01   2.759647e+01
   2.182781e+01   5.712791e+01
  -6.105397e+01   3.097878e+01
  -1.637974e+02   2.497495e+00
  -1.553687e+02  -4.638604e+01
  -3.980780e+01  -9.177768e+01
   1.438984e+02  -1.071216e+02
   1.217790e+02  -3.212024e+01
   6.506495e+01   1.286761e+01
  -5.377266e+01   5.171721e+01
  -8.371684e+01  -1.106424e+01
  -1.420803e+01   2.151766e+00
   4.870205e+01  -7.250568e+01
   4.071883e+01   2.232336e+01
   1.906807e+01   5.494860e+01
   3.495318e+01   2.466598e+01
   5.119056e+01  -1.652166e+01
   5.751012e+01  -1.749982e+01
   4.090611e+01   6.640596e+01
  -1.999542e+01   1.223285e+02
  -1.079518e+02   9.177720e+01
  -1.810061e+02   2.912139e+01
  -1.520197e+02  -1.218589e+02
  -2.526157e+01  -1.497184e+02
   1.160065e+02  -9.531887e+01
   8.489181e+01  -6.644057e+00
  -2.580811e+01   3.973522e+01
  -1.180265e+02   6.120085e+00
  -7.051151e+01  -1.090105e+02
   9.180703e+01  -1.359772e+02
   1.934004e+02  -6.599272e+01
   1.662176e+02   3.656544e+01
   3.752182e+01   7.959022e+01
  -2.455743e+01   9.094730e+01
  -3.878297e+01   2.763138e+01
   1.987620e+01  -7.568819e+01
   6.270095e+01   4.434539e+01
   3.478946e+01   9.212625e+01
  -1.102267e+02   1.413399e+02
  -1.703879e+02   8.903849e+01
  -1.233444e+02  -7.235481e+01
  -2.848178e+01  -1.867532e+02
   7.153182e+01  -1.346332e+02
   5.709803e+01   8.173748e+00
   4.149289e+01   1.010415e+02
   2.789133e+01   1.327792e+02
  -4.170481e+01   4.645097e+01
  -3.400784e+01   1.652427e+00
  -4.989816e+01  -5.713605e+01
  -6.435514e+01   4.714021e+01
  -1.585954e+01  -4.880123e+01
  -4.837985e+01  -9.814743e+01
  -1.872751e+01  -8.061806e+01
   8.415991e+01  -6.779456e+01
   1.298255e+02   5.330898e+01
   1.559159e+02   9.785806e+01
   2.579193e+01   8.543006e+01
  -7.250711e+01  -4.711835e+00
  -1.219850e+02   2.980576e+01
  -1.373906e+01   3.031861e+01
   2.817793e+01   3.814387e+01
  -1.399887e+00   5.372927e-01
  -7.681991e+01  -2.496526e+00
  -2.914890e+00  -5.620158e+01
   7.604234e+01   3.455348e+01
   8.776840e+01   1.276808e+01
   5.003384e+01   8.519705e+01
  -1.147027e+02   1.185294e+02
  -1.951278e+02   7.051496e+01
  -1.354790e+02  -6.249014e+01
  -1.854759e+01  -1.471927e+02
   5.340114e+01  -1.618869e+02
   7.477728e+01  -6.853017e+01
   5.795452e+01   5.495607e+01
  -2.088559e+01   1.241172e+01
   2.163902e+01   3.028658e+01
  -2.795858e+00  -6.687008e+00
   2.592812e+01   6.865914e+01
   3.523747e+01   6.743932e+01
  -8.586837e-01   5.871387e+01
  -9.202835e+01  -2.356929e+01
  -3.134741e+01  -1.005446e+02
  -1.325711e+01  -8.384902e+01
   6.575192e+01   1.267280e+01
   1.107385e+02   5.775362e+01
   3.814892e+01   1.080670e+02
  -7.757951e+01   6.679505e+01
  -1.066604e+02  -1.554274e+01
  -4.771389e+01  -2.954084e+01
  -6.866047e+00  -5.255525e+00
   2.072011e+01  -3.098525e+01
  -3.490646e+01   6.480845e+00
  -5.516930e+01  -2.998702e+01
  -3.981920e+00  -5.776349e+01
   1.028197e+02  -1.157640e+02
   9.866923e+01  -7.041280e+01
   3.317705e+01   3.993635e+01
  -4.785831e+00   7.876635e+01
  -2.569903e+01   6.944242e+01
  -2.412212e+01   7.890973e+00
   3.228300e+01  -6.559001e+01
   4.366061e+01  -1.049555e+01
   3.866384e+01   3.012002e+01
   1.691946e+01   3.743167e+01
  -5.677860e+00   7.032712e+01
  -1.018922e+01   2.398691e+01
  -4.326368e+01  -3.166901e+01
   7.439271e+00  -2.249634e+01
   1.412076e+01  -4.849944e+00
   3.554168e+01   1.490838e+01
   1.657847e+01  -3.878762e+01
   1.801065e+00   1.572994e+01
   1.630089e+01   6.281113e+00
   2.289843e+01   2.384395e+01
  -1.945967e+01   4.926974e+01
  -7.414656e+01   8.811698e+00
  -5.105438e+01  -1.204861e+01
  -3.618872e+01  -5.686635e+01
   3.183819e+01  -6.060541e+01
   6.209115e+01   3.125547e+01
   4.339299e+01   6.311947e+01
  -1.384147e+01   1.440028e+01
   5.335624e+00   1.381109e+01
  -2.022818e+01   2.193833e+01
   1.321303e+01  -2.593016e+01
   6.519102e+01  -1.085635e+01
  -5.269358e+00   7.183421e+01
  -1.315243e+02   4.680504e+01
