
 $NMID
 id='ANONYMOUS ', fmtdat='(2E16.6)'
 volume=1.0
 tramp=1.0
 $END
  -3.195412e+03  -1.316235e+02
  -2.074247e+03  -1.796011e+03
   6.137804e+01  -1.993751e+03
   1.251102e+03  -1.164993e+03
   8.447324e+02   1.059570e+01
  -7.030492e+01   1.660308e+02
  -4.669375e+02  -1.365443e+02
   1.561849e+01  -6.557502e+02
   4.799998e+02  -6.070368e+02
   6.347762e+02   1.082983e+01
   3.609802e+02   6.451589e+02
  -1.410295e+01   6.296440e+02
  -3.082781e+02   3.069207e+02
  -4.653605e+02  -5.111708e+02
   2.294985e+02  -3.197352e+02
   4.057779e+02  -1.234351e+01
   3.486076e+02   5.391570e+02
  -2.694894e+02   4.848088e+02
  -3.517483e+02   6.160061e+01
  -3.757285e+02  -3.606510e+02
  -2.027567e+02  -3.831753e+02
   2.216242e+02  -5.023380e+02
   1.484877e+02  -5.658393e+01
  -7.167036e+01  -7.474614e+01
  -2.545826e+02  -1.453708e+02
   2.831934e+00  -3.740807e+02
   3.952628e+02  -2.516933e+02
   7.075005e+02   1.610827e+02
   1.380900e+02   4.308424e+02
  -3.515322e+02   3.600909e+02
  -4.162880e+02  -1.428080e+02
  -8.283817e+01  -3.360503e+02
   3.778939e+02  -4.219840e+02
   5.887059e+02  -8.366393e+01
   2.781360e+02   1.289176e+02
  -4.045249e+01   3.557516e+02
   1.538013e+01   2.697845e+02
   5.432166e+01  -5.272302e+01
   1.970136e+02  -1.599410e+02
   1.976485e+02   1.363624e+02
   1.950377e+01   5.768808e+02
  -2.414318e+02   5.078025e+02
  -2.867520e+02   5.628486e+01
  -1.346551e+02  -3.356628e+02
   1.776944e+02  -1.209686e+02
   2.265609e+02   2.932407e+02
  -9.256379e+01   3.924632e+02
  -4.453808e+02   6.658919e+01
  -4.742732e+02  -3.298869e+02
  -1.713883e+02  -4.966063e+02
   2.627072e+02  -2.900121e+02
   4.482032e+02   3.932962e+01
   2.963573e+02   2.777367e+02
  -6.867619e+01   2.760777e+02
  -2.699797e+02   9.901922e+01
  -2.210525e+02  -7.224379e+01
  -3.072841e+00  -6.847324e+01
   5.996684e+01   6.138147e+01
  -1.120252e+02   8.974449e+01
  -2.679389e+02  -3.274708e+01
  -1.402017e+02  -1.965333e+02
   1.307398e+02  -2.770446e+02
   3.216277e+02  -1.580018e+02
   2.574400e+02   6.973182e+01
  -1.318458e+01   3.049453e+02
  -2.326304e+02   3.475893e+02
  -3.536827e+02   1.450735e+02
  -2.703239e+02  -1.813865e+02
  -1.038171e+02  -3.314146e+02
   8.262996e+01  -2.783200e+02
   6.351018e+01  -1.315509e+02
   4.999815e+01  -6.181040e+01
   1.147806e+02  -1.107326e+02
   1.989311e+02  -7.218223e+01
   2.307970e+02   1.067999e+02
   1.029067e+02   2.267260e+02
  -1.098369e+02   2.524459e+02
  -2.390667e+02  -1.185673e+00
  -1.704787e+02  -2.499945e+02
   5.188720e+01  -3.134169e+02
   2.501551e+02  -7.175026e+01
   3.125101e+02   1.611673e+02
   1.503159e+02   3.361422e+02
  -7.070458e+01   2.683371e+02
  -2.061763e+02   1.590156e+02
  -1.647351e+02   4.309512e+01
  -1.266434e+02   7.549540e+01
  -2.456421e+02   2.001461e+01
  -3.427746e+02  -7.650255e+01
  -2.983402e+02  -2.970292e+02
  -6.521574e+00  -4.017819e+02
   3.669435e+02  -3.797306e+02
   4.558397e+02  -1.607952e+02
   3.339245e+02   1.135605e+02
   4.181396e+01   2.186220e+02
  -4.375285e+01   2.239413e+02
  -3.333954e+01   5.363077e+01
   8.105015e+01   4.760030e-01
   9.957530e+01   5.305402e+01
   1.612083e+01   1.782589e+02
  -1.213660e+02   1.203350e+02
  -1.102148e+02  -6.894386e+01
  -5.210061e-01  -1.464706e+02
   1.457229e+02  -1.555209e+01
   1.604750e+02   2.097821e+02
   1.092237e+01   3.436087e+02
  -2.283071e+02   2.175680e+02
  -3.413360e+02  -4.285074e+01
  -2.806915e+02  -2.583387e+02
  -9.121458e+01  -2.398641e+02
   1.023135e+02  -1.218863e+02
   1.401504e+02   6.073947e+00
   4.378114e+01   7.858865e+01
  -1.035204e+02  -2.063279e+01
  -2.750742e+01  -1.316065e+02
   1.199824e+02  -1.468224e+02
   1.922109e+02  -1.645548e+01
   5.807847e+01   7.444379e+01
  -7.565498e+01  -8.866878e+00
  -2.271918e+01  -6.665444e+01
   1.082851e+02  -6.905487e+01
   3.026091e+02   5.654114e+01
   2.426284e+02   1.712191e+02
   5.024697e+01   2.357822e+02
  -2.188065e+02   2.278761e+02
  -3.132038e+02   1.262859e+02
  -1.364373e+02   1.108689e-01
   3.634075e+00  -9.329345e+01
   7.960561e+01  -3.293908e+01
  -9.125317e+01   5.980883e+01
  -1.985394e+02   5.831925e+01
  -1.858211e+02  -8.568328e+01
  -1.367759e+01  -1.980290e+02
   1.207068e+02  -1.895249e+02
   1.251211e+02  -3.363498e+01
   4.642781e+01   7.016682e+01
  -3.543114e+01   2.946127e+01
   1.267943e+01  -6.747034e+01
   8.428768e+01  -8.848554e+01
   1.604773e+02  -2.310252e+01
   1.712951e+02   1.453863e+02
   6.298996e+00   2.262270e+02
  -1.499278e+02   1.712875e+02
  -1.632209e+02   1.476787e+01
  -6.914526e+01  -1.393467e+02
   4.992683e+01  -1.092676e+02
   9.538570e+01  -2.623165e+01
  -1.242383e+01   7.264713e+01
  -7.383880e+01   4.840258e+01
  -2.461900e+01  -2.843664e+01
   5.157044e+01  -3.099053e+01
   9.997222e+01   8.802515e+01
   5.307808e+00   1.865721e+02
  -1.387676e+02   1.444276e+02
  -2.196556e+02   3.081042e+01
  -1.977498e+02  -1.069232e+02
  -5.763302e+01  -2.260458e+02
   9.573695e+01  -1.902907e+02
   1.712691e+02  -4.987298e+01
   6.481362e+01   3.378446e+01
   3.274000e+00   2.974362e+01
   3.596059e+01  -2.913116e+01
   8.983256e+01  -3.815731e+01
   5.911149e+01   6.255163e+01
  -3.029482e+01   7.703506e+01
  -1.057562e+02   4.286952e+01
  -1.306928e+02  -5.344442e+01
   3.467501e+01  -1.472325e+02
   1.185409e+02  -5.604010e+01
   1.819933e+02   4.008837e+01
   9.445330e+01   1.884117e+02
  -9.091583e+01   1.989016e+02
  -2.419264e+02   1.086928e+02
  -2.413651e+02  -9.071957e+01
  -3.056789e+01  -1.689736e+02
   7.635607e+01  -1.184212e+02
   8.550929e+01  -5.932142e+01
   1.836518e+01  -6.933615e+01
   8.164943e+01  -9.756111e+01
   7.548281e+01  -5.958908e+01
   1.530868e+02   1.698417e+01
   1.045586e+02   1.555694e+02
   5.897863e+01   2.046584e+02
  -9.305478e+01   1.636613e+02
  -2.019816e+02   1.927767e+01
  -1.028576e+02  -1.056399e+02
  -2.664837e+01  -1.465478e+02
   9.087372e+01  -8.207789e+01
   3.341310e+01   2.345395e+01
  -3.747262e+01   6.195330e+00
  -2.725942e+01   4.003241e+01
   2.878066e+01   2.037699e+00
   9.085847e+01   1.097465e+01
   7.046543e+01   2.670364e+01
  -6.541276e+01   5.192018e+01
  -1.452103e+02  -1.584347e+01
  -1.340527e+02  -6.867912e+01
   8.381560e+00  -1.061631e+02
   1.791584e+02  -3.434688e+01
   1.315132e+02   2.033911e+01
   3.001677e+01   5.724770e+01
  -2.537560e+01   1.903361e+01
  -4.509585e+01   4.115125e-01
  -2.096223e+00  -7.500333e+01
   5.155442e+01  -7.642766e+01
   5.598277e+01   2.587127e+01
   3.138853e+01   8.867897e+01
   4.270663e+00   6.475615e+01
   2.050908e+01   9.506225e+00
   3.156338e+01  -7.058480e-01
   7.143773e+00   4.687770e+01
   1.593546e+00   1.623021e+02
  -1.271969e+02   9.695020e+01
  -1.356589e+02   4.135908e+01
  -1.438857e+02  -9.752403e+01
  -1.135394e+01  -1.452116e+02
   8.793031e+01  -6.373779e+01
   6.038387e+01   1.088341e+01
  -5.784315e+01  -3.836301e+00
  -1.529047e+02  -3.615814e+01
  -5.963188e+01  -1.224388e+02
   1.109451e+02  -1.195752e+02
   2.354930e+02  -5.673873e+00
   1.543838e+02   4.507979e+01
   1.210088e+01   6.020597e+01
  -3.912141e+01   7.959835e+01
  -4.958312e+01   1.238255e+01
   1.238644e+01   1.520036e+01
   5.442713e+01   3.781457e+00
   6.644317e+01   1.096010e+02
  -9.232300e+01   1.677793e+02
  -1.805555e+02   1.012215e+02
  -1.145061e+02  -9.046068e+01
  -2.919175e+01  -1.694138e+02
   8.266866e+01  -8.499761e+01
   4.568378e+01  -9.746922e+00
   4.212587e+01   9.844551e+01
  -5.620945e+01   5.620512e+01
  -5.217906e+01  -3.960494e+01
  -4.424735e+01  -2.752763e+00
   3.462795e+00  -9.684682e-01
  -3.439917e+00   5.867489e+01
   1.513313e+01  -1.280926e+01
  -1.032636e+02  -5.452023e+01
  -5.642058e+01  -1.436863e+02
  -8.409578e+00  -6.784439e+01
   1.619030e+02   2.867213e+01
   1.548190e+02   9.262408e+01
   3.827042e+00   5.639853e+01
  -7.274187e+01   2.459489e+01
  -7.300804e+01   2.248385e+01
   2.410743e+00  -1.651238e+01
   4.067550e+01  -4.249338e+01
  -2.250747e+01  -3.139126e+01
  -3.771998e+01  -4.214645e+00
  -1.109635e+01  -4.197138e+00
   9.076544e+01   1.714615e+01
   7.058955e+01   1.683918e+01
   3.216604e+01   7.584015e+01
  -1.139915e+02   1.039806e+02
  -1.857134e+02   5.519978e+01
  -1.617875e+02  -2.526811e+01
  -4.835045e+01  -1.547569e+02
   7.333243e+01  -1.842250e+02
   1.342950e+02  -6.342969e+01
   8.103154e+01   4.196308e+01
   3.565627e+01  -6.024260e+00
   1.399814e+01   4.519781e+01
  -2.351599e+01  -7.195217e+00
   5.785937e+01   5.456989e+01
   4.583134e+01   1.207589e+02
  -1.005246e+01   6.317310e+01
  -7.389695e+01   3.868648e+00
  -8.901429e+01  -1.144823e+02
  -5.915488e+01  -8.499794e+01
   4.686370e+01  -3.271727e+01
   7.713118e+01   4.672234e+01
   2.276043e+01   6.010164e+01
  -9.048997e+01   4.462973e+01
  -8.911884e+01  -1.436751e+00
  -2.343485e+01  -5.982470e+01
   4.399539e+01  -6.020420e+01
   3.928298e+01  -3.720287e+01
  -5.035954e+01   1.883347e+01
  -5.842644e+01   6.751176e+00
  -7.691208e+00  -2.330445e+01
   6.386123e+01  -6.135970e+01
   7.895966e+01  -4.942430e+01
   6.090373e+01   2.701301e+00
   5.874613e+01   7.338131e+01
  -2.487604e+01   8.615153e+01
  -4.297372e+01  -4.386361e+00
  -3.798134e+00  -4.991820e+01
   4.043076e+01  -4.954809e+01
   3.233495e+01   4.046054e+01
   4.846019e+01   3.745314e+01
  -1.903531e+01   4.716756e+01
  -3.723332e+00   3.067466e+00
  -2.586221e+01   5.332055e+01
  -5.828713e+01   1.159352e+01
   5.794320e+00   5.610870e+01
   3.238380e+01   8.399636e+00
  -6.520613e+00  -4.554765e+01
   3.225619e+01  -6.029805e+01
   7.173496e+00   1.787844e+00
   3.104097e+01   5.560436e+01
   1.562704e-01   4.907076e+01
  -5.462865e+01   1.518264e+01
  -5.941687e+01  -2.258569e+01
  -9.647379e+00  -3.618690e+01
   5.963656e+01  -3.882358e+01
   9.628644e+01   3.460545e+01
   5.049765e+01   5.256422e+01
   1.147891e+01   6.409832e+00
  -6.221734e+01   2.478211e+01
   2.366490e+01  -1.464585e+01
   3.208977e+01  -2.356360e+00
   3.759966e+01   4.916317e+01
  -2.355864e+01   4.633255e+01
  -9.389166e+01   3.042481e+01
