
 $NMID
 id='ANONYMOUS ', fmtdat='(2E16.6)'
 volume=1.0
 tramp=1.0
 $END
  -4.712508e+03  -8.513175e+01
  -2.737646e+03  -2.817252e+03
   6.582891e+02  -2.918832e+03
   2.263816e+03  -9.796742e+02
   1.038343e+03   8.108720e+02
  -7.272303e+02   6.354841e+02
  -9.981824e+02  -4.553758e+02
  -1.859827e+02  -1.164260e+03
   8.316214e+02  -7.740777e+02
   1.073857e+03   1.391817e+02
   4.610984e+02   9.854894e+02
  -2.559897e+02   9.517294e+02
  -7.521497e+02   1.966324e+02
  -4.197481e+02  -7.092968e+02
   2.519210e+02  -8.137814e+02
   4.935370e+02   9.127326e+01
   4.854650e+02   6.106929e+02
  -1.785244e+02   4.719360e+02
  -6.149136e+02   5.341893e+01
  -4.789685e+02  -4.294325e+02
   5.325618e+01  -5.657510e+02
   1.870496e+02  -3.732754e+02
   4.166999e+02  -2.150486e+02
  -1.124095e+02   1.120271e+02
  -4.751785e+02  -1.011804e+02
  -1.029838e+02  -4.190573e+02
   4.320295e+02  -5.162044e+02
   9.923810e+02   1.269128e+02
   4.982587e+02   5.823908e+02
  -4.352004e+02   5.349107e+02
  -7.575473e+02  -1.222210e+02
  -4.206726e+02  -5.135798e+02
   2.482837e+02  -5.634984e+02
   6.699506e+02  -1.687061e+02
   5.304518e+02   2.823063e+02
   1.219724e+02   6.037790e+02
  -2.313389e+02   3.407210e+02
  -2.793525e+02  -2.123139e+02
   2.050326e+02  -5.071093e+02
   4.250399e+02  -1.276117e+01
   2.613092e+02   6.892437e+02
  -3.129904e+02   7.860734e+02
  -6.449412e+02  -5.272736e+01
  -2.662152e+02  -6.063056e+02
   2.974563e+02  -3.680862e+02
   4.262748e+02   3.311011e+02
  -3.962786e+01   5.993883e+02
  -5.777182e+02   1.537225e+02
  -6.343033e+02  -4.428281e+02
  -2.056899e+02  -6.732811e+02
   4.609964e+02  -3.854653e+02
   6.831282e+02   6.990359e+01
   3.684272e+02   3.899505e+02
  -1.922605e+02   3.563664e+02
  -4.957220e+02   1.934622e+01
  -1.915628e+02  -2.346820e+02
   1.689931e+02  -7.987663e+01
   1.925728e+02   1.809931e+02
  -1.622134e+02   2.331215e+02
  -3.801218e+02  -5.470435e+01
  -1.971448e+02  -3.029048e+02
   1.541379e+02  -2.674677e+02
   3.398374e+02  -5.135289e+01
   1.849733e+02   7.049238e+01
  -4.772316e+01   2.648499e+02
  -1.990966e+02   2.948373e+02
  -2.877534e+02   1.572923e+02
  -2.649455e+02  -1.586186e+02
  -7.369656e+01  -4.319552e+02
   9.793879e+01  -3.074411e+02
   6.471045e+01  -9.544098e+01
   7.597769e+00   9.041857e+00
   5.292887e+01  -9.712257e+01
   2.525855e+02  -1.319204e+02
   3.416079e+02   5.264859e+01
   1.509219e+02   2.535691e+02
  -1.015646e+02   3.180544e+02
  -2.532644e+02   3.497058e+01
  -2.102072e+02  -2.623720e+02
   2.155784e+01  -3.114331e+02
   3.157015e+02  -1.278090e+02
   3.915745e+02   1.542788e+02
   1.772254e+02   3.396691e+02
  -1.282107e+02   3.186715e+02
  -2.620968e+02   9.798185e+01
  -1.703743e+02   6.145430e+01
  -1.061454e+02  -3.158927e+00
  -2.326718e+02   4.418277e+01
  -4.092941e+02  -4.461885e+01
  -3.278626e+02  -2.605538e+02
  -3.927743e+01  -4.395591e+02
   3.457518e+02  -4.545431e+02
   5.394482e+02  -2.253503e+02
   4.045859e+02   1.109415e+02
   8.024561e+01   3.243312e+02
  -1.612996e+02   2.389244e+02
  -1.189941e+02  -9.840700e+00
   8.913580e+01  -1.471899e+02
   2.611881e+02  -5.552561e+00
   5.751726e+01   2.098348e+02
  -1.233490e+02   1.826980e+02
  -1.254667e+02  -4.690418e+01
   3.814332e+01  -1.849891e+02
   1.926489e+02   3.636742e+01
   1.080589e+02   2.706974e+02
  -6.519152e+01   3.591492e+02
  -2.360914e+02   1.917271e+02
  -3.254861e+02  -1.255552e+02
  -2.658395e+02  -3.170706e+02
  -7.412171e+01  -2.888597e+02
   1.812417e+02  -1.756725e+02
   2.138897e+02   3.700235e+01
   3.065880e+01   5.525816e+01
  -1.311333e+02  -3.981379e+01
  -5.483158e+01  -1.428836e+02
   2.165646e+02  -1.010406e+02
   2.556043e+02  -1.354060e+01
   9.138815e+01   6.987163e+01
  -9.034749e+01   4.161356e+01
  -8.960802e+01  -6.452288e+01
   1.433631e+02  -2.811370e+01
   3.038584e+02   1.015097e+01
   2.893758e+02   1.654456e+02
   2.396176e+01   2.742564e+02
  -1.814707e+02   2.769985e+02
  -3.333115e+02   1.312660e+02
  -2.037837e+02  -8.420636e+01
   1.851196e+01  -1.165528e+02
   8.980406e+01  -4.919364e+01
   1.548798e+01   1.015271e+02
  -1.494284e+02   7.530045e+01
  -1.934787e+02  -9.193570e+01
  -6.174905e+01  -1.856910e+02
   8.722568e+01  -1.646747e+02
   1.175862e+02  -4.752676e+01
   7.241463e+01   7.494014e+01
  -3.466990e+01   3.406991e+01
  -5.126136e+01  -1.086194e+02
   1.255893e+02  -1.280687e+02
   2.672401e+02  -6.008340e+01
   1.929568e+02   1.419366e+02
   2.725458e+01   2.920285e+02
  -1.853390e+02   1.855523e+02
  -1.905339e+02  -1.025829e+00
  -4.731041e+01  -1.782631e+02
   8.716117e+01  -1.480062e+02
   5.370678e+01  -2.038077e+01
  -3.093596e+01   4.461607e+01
  -1.574352e+01   3.387746e+01
  -2.273119e+01  -4.578500e+01
   6.600128e+01  -2.041068e+01
   5.051102e+01   4.856797e+01
   1.587308e+01   1.968275e+02
  -6.584908e+01   1.376820e+02
  -2.123735e+02   7.580705e+01
  -1.927135e+02  -1.161149e+02
  -4.243166e+01  -2.192286e+02
   1.549459e+02  -1.404575e+02
   1.522579e+02  -2.112907e+01
   7.267315e+01   1.251834e+02
  -3.124217e+01   7.458581e+01
  -5.926485e+00   9.900638e+00
   5.742839e+01  -5.439665e+01
   3.836929e+01   1.016358e+01
  -3.593575e+00   5.812090e+01
  -1.081160e+02   7.593660e+01
  -9.115577e+01   1.744655e+01
  -9.394401e+00  -1.044707e+02
   1.286311e+02  -7.480639e+01
   1.821873e+02   8.674500e+01
   7.007755e+01   2.480767e+02
  -1.233995e+02   2.208269e+02
  -2.859334e+02   8.728173e+01
  -2.232029e+02  -1.089864e+02
  -1.204148e+02  -1.931135e+02
   8.120533e+01  -1.190579e+02
   8.045119e+01  -4.941578e+01
   5.320554e+01  -7.020528e+01
   6.382105e+01  -7.279891e+01
   7.928504e+01  -1.153139e+02
   1.304626e+02  -6.562907e+00
   1.183825e+02   1.718976e+02
   2.972274e+01   2.635513e+02
  -1.305125e+02   2.224612e+02
  -1.754640e+02   8.198769e+00
  -1.714545e+02  -1.714404e+02
  -4.282172e+00  -1.916121e+02
   1.135853e+02  -6.700959e+01
   6.659361e+01   5.640859e+01
  -1.716845e+01   8.884160e+01
  -2.724644e+01   7.496696e+01
   4.505468e+01   1.459954e+00
   5.648188e+01   1.592128e+01
   6.154549e+01   2.299959e+01
  -7.553366e+01   4.363593e+01
  -1.628722e+02   2.782990e+01
  -1.391870e+02  -4.617065e+01
  -2.776622e+01  -9.454374e+01
   1.143643e+02  -1.073429e+02
   1.443258e+02  -3.254820e+01
   2.720848e+01   9.610007e+01
  -7.569157e+01   6.880045e+01
  -9.750294e+01  -1.249396e+01
  -5.289711e+01  -7.633821e+01
   2.495970e+01  -6.481705e+01
   8.346537e+01   1.551433e+01
   4.902259e+01   2.885832e+01
   3.931994e+01   5.470906e+00
   6.759984e+01  -2.929929e+01
   7.545344e+01   4.303059e+00
   6.436045e+01   7.883328e+01
  -3.293751e+01   1.362936e+02
  -6.424326e+01   1.488029e+02
  -1.404241e+02   7.001129e+01
  -1.282238e+02  -3.646448e+01
  -2.424327e+01  -1.029369e+02
   5.484663e+01  -7.946317e+01
   5.201484e+01   3.598679e+00
  -4.526100e+01   2.624694e+01
  -7.949325e+01  -5.190911e+01
  -8.462143e+01  -1.041937e+02
   9.169179e+01  -1.112175e+02
   1.305695e+02  -9.256390e+01
   1.459247e+02   2.287669e-01
   5.863758e+01   1.147649e+02
  -4.190945e+01   8.439594e+01
  -4.123390e+01  -8.223604e+00
  -3.765157e+01  -3.138045e+01
   6.433293e+00   3.781020e+00
   2.442322e+00   8.304888e+01
  -8.506806e+01   1.742424e+02
  -1.283861e+02   7.945039e+01
  -1.027527e+02  -6.552131e+01
  -3.570901e+01  -1.703671e+02
   5.486593e+01  -1.338981e+02
   1.248782e+02  -4.508279e+01
   6.043938e+01   1.222998e+02
   3.215843e+01   1.389041e+02
  -1.398505e+01  -6.747651e-01
  -9.201993e+00  -3.097804e+01
   6.512100e+00  -2.461224e+01
   8.419675e+00   3.213786e+01
   5.778988e+00  -3.014971e+01
  -8.669209e+01  -8.865960e+01
  -6.824173e+01  -1.276602e+02
   6.216984e+01  -2.054990e+01
   1.620636e+02   9.769096e+01
   1.391408e+02   5.265452e+01
  -2.479148e+01   7.866637e+01
  -1.047889e+02   8.531749e+00
  -8.542840e+01   1.766567e+00
  -9.652793e+00   3.301932e+01
   5.567258e+01   1.189850e+01
   1.356047e+01  -2.605917e+01
  -3.650548e+01  -1.422385e+01
  -1.400621e+00  -7.604515e+00
   8.922165e+01   8.859799e+00
   9.270646e+01   4.191887e+01
  -1.351296e+01   4.709451e+01
  -1.093787e+02   9.949693e+01
  -1.444189e+02   5.593250e+01
  -1.283153e+02  -4.007382e+01
  -1.970676e+01  -2.024895e+02
   4.800519e+01  -1.540384e+02
   1.275567e+02  -5.630503e+01
   9.447415e+01  -1.823747e+01
   4.468611e+01   4.783221e+01
   4.153126e+01   4.726214e+01
   4.363493e+01   2.466181e+01
   4.813886e+01   6.757724e+01
   1.685992e+01   1.206341e+02
  -4.116610e+01   7.746369e+01
  -8.845198e+01  -1.456938e-01
  -9.583973e+01  -8.533402e+01
  -1.851319e+01  -1.185435e+02
   3.304506e+01  -5.343158e+01
   9.459175e+01   6.042906e+01
   4.606332e+01   6.829591e+01
  -7.180727e+01   7.162217e+01
  -8.437924e+01   2.249119e+01
  -4.099370e+01  -2.489147e+01
   2.050180e+01  -6.781344e+01
   2.183439e+01  -4.520239e+01
  -3.708670e+01  -1.739442e+01
  -2.961229e+01   1.956333e+01
  -1.760259e+01   1.707150e+01
   9.454691e+01  -4.816265e+01
   1.201483e+02  -5.030428e+01
   7.239422e+01   1.420302e+01
  -3.809909e+01   5.226831e+01
  -8.354612e+01   1.138805e+02
  -1.634349e+01   2.350449e+01
  -1.049217e+01  -6.860845e+01
   3.884251e+01  -2.564051e+01
   3.949385e+01   4.823792e+01
   2.002477e+01   1.928422e+01
  -2.562105e+01   2.190046e+01
  -4.189799e+01   2.099805e+01
  -2.680959e+01  -2.314035e+01
  -1.689633e+01   1.396277e+01
  -1.822872e+01   2.181012e+01
   1.021880e+01  -2.871818e+01
   4.092791e-01  -5.769429e+01
   3.214695e+01  -6.780794e+01
   3.032963e+01   1.691275e+01
   3.062390e+01   4.187242e+01
   2.387705e+00   6.534616e+01
  -6.466932e+01   6.368498e+01
  -4.029478e+01  -4.492716e+01
  -2.437066e+01  -7.059194e+01
   9.934834e+01  -3.668541e+01
   9.651665e+01   1.013590e+01
   2.009204e+01   4.098175e+01
  -4.365898e+01   1.257273e+01
  -6.116717e+01   4.155053e+01
   1.060128e+01   2.436317e+01
   2.949905e+01  -1.774308e+01
   5.994143e+01   1.113873e+01
  -6.349260e+01   2.420197e+01
  -9.470122e+01   7.008819e+00
