
 $NMID
 id='ANONYMOUS ', fmtdat='(2E16.6)'
 volume=1.0
 tramp=1.0
 $END
   4.357414e+03   4.106944e+01
   2.338724e+03   2.700805e+03
  -7.733568e+02   2.869739e+03
  -2.081838e+03   8.586772e+02
  -9.110798e+02  -6.822711e+02
   7.099057e+02  -5.777983e+02
   8.371523e+02   3.762854e+02
   3.977301e+01   1.116185e+03
  -8.812627e+02   8.431241e+02
  -1.084587e+03  -6.392611e+01
  -4.584132e+02  -8.365482e+02
   2.959120e+02  -9.361978e+02
   6.277777e+02  -1.782210e+02
   4.643408e+02   7.130021e+02
  -9.735128e+01   5.766605e+02
  -6.440723e+02   1.130411e+02
  -2.785622e+02  -7.790669e+02
   5.554585e+02  -6.503475e+02
   6.377992e+02  -1.948351e+01
   4.902508e+02   4.110986e+02
   1.943247e+02   3.952785e+02
   8.123054e+00   3.489193e+02
  -2.391718e+02  -7.605843e+01
   2.322923e+02  -1.435106e+02
   4.707087e+02   9.946870e+01
   1.175176e+02   5.957998e+02
  -4.416478e+02   5.846741e+02
  -8.140298e+02   1.004806e+01
  -3.997306e+02  -4.548701e+02
   3.526082e+02  -5.043643e+02
   7.120696e+02  -2.450360e+01
   4.990868e+02   4.993505e+02
  -2.178919e+02   5.286201e+02
  -6.432660e+02   1.599702e+02
  -3.751099e+02  -2.800233e+02
   6.546742e+01  -5.491120e+02
   2.623906e+02  -2.698299e+02
   1.712710e+02   2.101969e+02
  -2.796215e+02   5.014222e+02
  -4.888007e+02   1.766375e+01
  -2.620241e+02  -7.072839e+02
   3.418864e+02  -7.828948e+02
   6.753894e+02  -2.640705e+01
   2.543680e+02   6.021325e+02
  -3.229311e+02   3.347790e+02
  -4.751954e+02  -3.691206e+02
   8.944566e+01  -6.157479e+02
   5.856175e+02  -1.523497e+02
   5.839501e+02   3.750728e+02
   1.658554e+02   5.820385e+02
  -4.251435e+02   3.394612e+02
  -6.643004e+02  -9.758572e+01
  -3.842059e+02  -4.069123e+02
   1.849440e+02  -4.171405e+02
   5.104086e+02  -7.178821e+01
   2.770390e+02   2.620551e+02
  -1.155906e+02   1.155370e+02
  -1.696201e+02  -1.419554e+02
   1.923274e+02  -2.570162e+02
   3.857037e+02   4.635846e+01
   1.793525e+02   3.454627e+02
  -1.626337e+02   2.855281e+02
  -3.232490e+02   6.329436e+01
  -2.267515e+02  -1.137033e+02
   1.141119e+01  -2.365653e+02
   2.382615e+02  -3.202685e+02
   4.118542e+02  -1.889050e+02
   3.223114e+02   1.586936e+02
   3.304764e+01   4.464223e+02
  -1.119544e+02   3.654549e+02
  -1.339572e+02   9.935080e+01
  -4.142863e+01   3.056843e+01
  -6.179491e+01   8.159939e+01
  -2.495734e+02   1.088338e+02
  -2.316890e+02  -1.108964e+02
  -1.803507e+02  -2.865333e+02
   5.822027e+01  -2.330105e+02
   2.030169e+02  -4.432355e+01
   2.111237e+02   2.064918e+02
   3.338968e+01   2.657850e+02
  -2.614913e+02   1.104920e+02
  -3.459443e+02  -1.532803e+02
  -2.051676e+02  -3.542087e+02
   1.079662e+02  -3.089291e+02
   2.319486e+02  -1.348254e+02
   1.822009e+02  -1.411461e-01
   1.083603e+02  -3.629383e+01
   2.386461e+02  -7.353942e+01
   4.195137e+02   6.052319e+01
   3.897790e+02   3.051317e+02
   3.455747e+00   5.042227e+02
  -3.754741e+02   4.389174e+02
  -5.006369e+02   1.743349e+02
  -3.314857e+02  -1.342930e+02
  -7.290152e+00  -2.559366e+02
   1.359950e+02  -2.521716e+02
   7.716028e+01  -3.708891e+01
  -1.005534e+02   8.991950e+01
  -2.101828e+02  -3.733135e+01
  -5.827985e+01  -2.081743e+02
   1.787857e+02  -1.692989e+02
   1.925259e+02   3.065645e+01
  -4.148215e+00   1.745492e+02
  -1.842061e+02   3.000820e+01
  -1.858143e+02  -2.870394e+02
   4.459659e+00  -4.242274e+02
   2.338705e+02  -2.516358e+02
   3.829274e+02   3.441873e+01
   2.850014e+02   2.446963e+02
   1.171245e+02   2.658299e+02
  -1.318779e+02   1.706698e+02
  -1.576776e+02  -1.081645e+01
  -5.682726e+01  -2.143334e+01
   9.254743e+01   6.055925e+01
   2.464659e+00   1.090501e+02
  -1.744343e+02   9.980201e+01
  -2.058574e+02   2.897352e+01
  -9.680793e+01  -4.897389e+01
   7.200323e+01   1.922127e+01
   7.213035e+01   7.148615e+01
  -9.237496e+01   8.969158e+01
  -2.841351e+02   1.624178e+01
  -2.794705e+02  -1.164337e+02
  -6.583906e+01  -2.359295e+02
   1.362543e+02  -2.798727e+02
   2.825970e+02  -1.191494e+02
   1.755379e+02   1.226301e+01
  -1.348883e+01   8.805675e+01
  -6.159952e+01  -1.671900e+01
   6.857885e+01  -9.828947e+01
   1.990202e+02  -9.326747e+01
   2.343654e+02   1.287787e+02
   1.195942e+02   2.424468e+02
  -9.183915e+01   1.477605e+02
  -1.486443e+02   3.093984e+01
  -8.718321e+01  -6.067698e+01
  -3.374535e+00  -3.008658e+01
   3.562133e+00   9.343116e+01
  -9.629180e+01   8.471887e+01
  -1.791738e+02  -2.337352e+00
  -1.172504e+02  -1.407615e+02
  -2.957299e+01  -1.852158e+02
   1.573418e+02  -1.705888e+02
   1.452918e+02  -2.220243e+01
   6.001365e+01   8.563891e+01
  -5.073348e+01   6.622556e+01
  -1.002678e+02   3.869536e+00
  -3.101865e+01  -1.649579e+01
   8.630845e+00  -5.245078e+01
   9.989513e-01  -5.560338e+00
  -1.109876e+02  -4.442708e+01
  -5.507313e+01  -1.196282e+02
  -4.277254e+01  -1.383957e+02
   1.055259e+02  -9.399194e+01
   2.560460e+02  -6.322716e+00
   2.080231e+02   1.393114e+02
   8.839085e+01   2.206218e+02
  -8.199736e+01   1.523804e+02
  -1.458322e+02   1.727588e+01
  -6.068651e+01  -1.040419e+02
  -2.757024e+01  -6.098432e+01
  -5.387340e+01   1.933883e+01
  -7.234926e+01   1.135701e+01
   1.324204e+00  -4.384893e+01
   3.884815e+01  -1.017970e+02
   9.658544e+01  -2.872701e+01
   8.005251e+01   4.019729e+01
  -4.472364e+01   9.047351e+01
  -1.465319e+02   6.811823e+01
  -1.661072e+02  -5.161821e+01
  -9.230462e+01  -2.038331e+02
   1.315921e+02  -2.386219e+02
   2.946433e+02  -9.562804e+01
   2.332736e+02   6.705272e+01
   9.915540e+01   1.737620e+02
  -2.643220e+01   1.448412e+02
  -6.165347e+01   1.090316e+02
  -5.981281e+01   8.383204e+01
  -4.973814e+01   9.003720e+01
  -1.395907e+02   9.271899e+01
  -1.192133e+02  -2.000321e+01
  -1.355620e+02  -1.424226e+02
  -4.943111e+01  -2.119939e+02
   7.987129e+01  -1.912209e+02
   1.637326e+02  -2.178618e+01
   1.641584e+02   1.168339e+02
   8.048108e+00   1.674901e+02
  -5.466609e+01   1.158758e+02
  -3.192913e+01   1.355434e+00
   1.195445e+01  -6.219653e+01
   1.473383e+01   4.911523e-02
   7.782289e-01  -3.996537e+01
  -8.450191e+01  -1.553855e+01
  -2.581980e+01  -5.120731e+01
   1.403975e+01  -6.219053e+01
   1.178374e+02  -1.631407e+01
   9.265906e+01   2.549908e+01
  -2.300836e+01   9.291074e+01
  -1.398500e+02   8.520481e+01
  -1.460716e+02   6.588971e+01
  -4.534648e+01  -2.630362e+01
   8.824982e+01  -4.567396e+01
   7.424138e+01   1.238780e+01
   3.617282e+01   4.059692e+01
  -2.691540e+01   5.429729e+01
  -6.236528e+01  -1.395026e+01
  -5.759947e+01  -2.822313e+01
  -5.869340e+01  -3.388068e+01
  -9.750735e+01  -7.137463e+00
  -8.786337e+01   3.718998e+01
  -5.424332e+01  -1.030721e+01
   1.123048e+01  -1.451041e+02
   8.976084e+01  -1.379167e+02
   1.151756e+02  -2.186747e+01
   1.602270e+02   9.733785e+01
  -2.816130e+01   1.226365e+02
  -9.289623e+01   3.160648e+01
  -3.287770e+01  -4.703787e+01
   2.948376e+01  -3.712541e+01
   1.636292e+02   4.038742e+01
   7.743379e+01   1.088114e+02
  -8.555680e+01   1.049506e+02
  -1.626527e+02   8.160900e+01
  -1.930583e+02  -4.040458e+01
  -6.250351e+01  -6.213995e+01
   8.303520e+01  -3.529466e+01
   6.033509e+01  -3.084947e+01
  -2.810422e+01  -3.910504e+00
  -9.550440e+01  -2.322239e+01
  -1.276580e+01  -1.595814e+02
   7.194013e+01  -1.867324e+02
   1.799748e+02  -6.452437e+01
   1.351042e+02   1.380778e+02
   2.674426e+01   1.815167e+02
  -7.604178e+01   1.431943e+02
  -9.647006e+01   3.524405e+00
  -7.541767e+01  -1.480745e+02
  -1.312819e+01  -9.757044e+01
   6.004387e+00  -4.863591e+01
   5.040623e+01  -3.819061e+01
   8.416872e+00  -2.511292e+01
   2.680997e+01  -5.814377e+01
   2.168288e+01  -4.341386e+01
   7.159702e+01   8.709112e+01
   5.371323e+01   1.137008e+02
  -1.031156e+01   5.208183e+01
  -1.306122e+02  -3.785630e+01
  -9.995627e+01  -7.608209e+01
   2.012749e+01  -5.312044e+01
   6.456014e+01  -1.193193e+00
   7.055353e+01   5.005502e+01
   1.313678e+01   4.197153e+01
  -6.322748e+01   1.785599e+01
  -6.135303e+01   2.296046e+01
   2.576343e+01  -1.691350e+01
  -1.396557e+00  -2.035600e+01
  -8.535089e+01  -1.658032e+01
  -9.648823e+01  -9.721367e+00
  -8.939578e+00  -8.275504e+01
   1.131392e+02  -1.207425e+02
   1.846356e+02  -1.038718e+02
   1.467722e+02   2.358632e+01
   4.661087e+01   1.729904e+02
  -3.899264e+01   1.495355e+02
  -8.565404e+01   6.849450e+01
  -8.546126e+01   5.002627e+00
  -2.192527e+01  -4.157751e+01
   2.475846e+01  -3.037630e+01
  -3.194039e+01  -3.458515e-01
  -4.676900e+00  -6.691747e+00
  -5.531430e+00  -8.149585e+01
   4.991044e+00  -6.845580e+01
   1.198662e+02  -5.885682e+00
   1.176301e+02   1.039241e+02
   1.417724e+00   7.259727e+01
  -6.651928e+01   1.134500e+01
  -1.050514e+02  -4.272835e+01
  -4.572901e+01  -7.920529e+01
   3.825670e+01  -5.325935e+00
   1.378302e+02   5.100462e+01
   3.575376e+01   3.831736e+01
  -1.996526e+01   3.083001e+01
  -3.227087e+01  -1.842503e+00
   7.664872e+00  -2.196794e+00
   8.090762e+01   1.309839e+01
   6.776943e+01   4.080097e+00
  -7.280899e+01   4.099053e+01
  -1.304722e+02   5.431021e+01
  -7.442034e+01  -1.784153e+01
  -3.275063e+01  -8.094989e+01
   6.420423e+01  -6.197538e+01
   5.266693e+01   1.729733e+01
   6.474793e+00   4.195325e+01
  -1.517129e+01   6.528435e+01
  -4.756810e+01   2.156554e+01
  -1.733176e+01  -4.756374e+01
   1.271776e+01  -1.751294e+01
   1.430631e+01   1.576567e+01
   1.756128e+01   1.339878e+01
  -4.858636e-01   2.678604e+01
   9.297471e+00   1.706257e+00
  -2.959406e+01  -4.376271e-01
   8.598037e+00   5.546708e+01
  -5.600973e+00   3.939829e+01
  -1.217316e+01   3.673668e+01
  -4.109374e+01  -2.739438e+01
   1.306178e+01  -4.698493e+01
   1.940514e+01  -4.802867e+01
   4.803369e+01   1.832948e+01
   4.021322e+01   7.703529e+01
  -5.696749e+01   4.801258e+00
  -4.732720e+01  -4.475244e+01
  -4.948926e+01  -2.668162e+01
   4.547096e+01  -3.215402e+01
   4.066358e+01   2.048187e+01
   2.004433e+01   2.411481e+01
  -2.226785e+01   2.111527e+01
  -1.541438e+01  -3.236135e+01
   1.126655e+01  -3.157609e+01
   1.008427e+02  -2.413274e+01
