
 $NMID
 id='ANONYMOUS ', fmtdat='(2E16.6)'
 volume=1.0
 tramp=1.0
 $END
  -4.544302e+03  -5.282158e+01
  -2.596124e+03  -2.803425e+03
   8.969398e+02  -2.942410e+03
   2.190515e+03  -8.786004e+02
   1.003544e+03   8.391346e+02
  -6.851514e+02   6.849095e+02
  -9.366155e+02  -4.883165e+02
   5.342355e+01  -1.156878e+03
   9.293734e+02  -9.093821e+02
   1.009364e+03   1.223115e+02
   3.077777e+02   9.066852e+02
  -1.117586e+02   9.408316e+02
  -5.758324e+02   8.029713e+01
  -4.711082e+02  -7.194099e+02
   1.856599e+02  -8.166706e+02
   6.988625e+02   5.457876e+01
   3.633436e+02   8.411743e+02
  -3.287276e+02   4.384045e+02
  -7.450814e+02   1.105067e+02
  -3.276194e+02  -2.661808e+02
  -8.517601e+00  -6.165497e+02
   2.083635e+02  -3.110702e+02
   2.320357e+02   4.480221e+01
  -5.467392e+01   1.619463e+02
  -3.801572e+02  -1.405914e+02
  -1.751247e+02  -3.640461e+02
   4.461877e+02  -5.101794e+02
   8.045690e+02   1.061714e+02
   4.210395e+02   6.314565e+02
  -5.494647e+02   4.767519e+02
  -8.207839e+02  -6.498591e+01
  -4.010766e+02  -5.864302e+02
   2.743794e+02  -6.193181e+02
   6.160703e+02  -2.581348e+02
   4.205869e+02   2.766839e+02
   9.356058e+01   5.325205e+02
  -2.383924e+02   3.070518e+02
  -1.672789e+02  -2.043470e+02
   1.899044e+02  -5.216646e+02
   4.636786e+02   4.091116e+01
   2.727767e+02   7.066991e+02
  -3.695103e+02   6.932274e+02
  -7.059198e+02  -5.184242e+01
  -2.107360e+02  -6.156637e+02
   4.403052e+02  -3.607810e+02
   4.471603e+02   3.751377e+02
  -7.916370e+01   6.359213e+02
  -5.860736e+02   1.607773e+02
  -6.036410e+02  -4.560911e+02
  -1.945874e+02  -6.038746e+02
   4.147677e+02  -3.650989e+02
   6.341426e+02   8.238336e+01
   3.865244e+02   4.216309e+02
  -1.570240e+02   4.087472e+02
  -4.357564e+02   5.691407e+01
  -2.673156e+02  -2.447388e+02
   1.779873e+02  -8.336480e+01
   1.835503e+02   1.573189e+02
  -1.790105e+02   1.922137e+02
  -3.245588e+02  -7.869795e+01
  -1.510480e+02  -3.081906e+02
   1.985096e+02  -2.021630e+02
   2.879389e+02  -2.983506e+01
   1.817126e+02   8.804149e+01
  -4.392629e+01   2.155819e+02
  -2.007855e+02   3.411722e+02
  -3.424649e+02   2.844976e+02
  -3.187693e+02  -1.284432e+02
  -1.066222e+02  -5.028180e+02
   1.148481e+02  -4.169485e+02
   1.542667e+02  -1.249898e+02
   5.005003e+01   4.372547e+01
   7.857441e+01  -4.067652e+01
   2.163215e+02  -1.215648e+02
   2.038250e+02   6.216439e+01
   1.106029e+02   3.097159e+02
  -7.288969e+01   2.580072e+02
  -2.098211e+02  -1.048794e+01
  -2.063367e+02  -2.225151e+02
  -1.063159e+00  -2.754414e+02
   3.016844e+02  -1.036642e+02
   4.036209e+02   1.830039e+02
   2.234232e+02   3.773551e+02
  -1.589329e+02   3.534343e+02
  -3.418190e+02   8.748891e+01
  -2.002287e+02  -3.349095e+01
  -7.606585e+01   3.298978e+01
  -1.851720e+02   6.726558e+01
  -3.880227e+02  -7.061685e+01
  -3.428725e+02  -3.018833e+02
  -2.620868e+01  -4.482668e+02
   3.638152e+02  -3.838136e+02
   5.392613e+02  -1.564565e+02
   3.203182e+02   1.231942e+02
   5.854119e+00   3.078489e+02
  -1.414806e+02   2.783905e+02
  -1.081722e+02  -3.261255e+01
   9.197434e+01  -1.441103e+02
   2.271387e+02   2.976075e+00
   5.271296e+01   2.093416e+02
  -1.519833e+02   2.071520e+02
  -1.895225e+02  -8.022710e+01
   2.030566e+01  -1.966012e+02
   1.652261e+02  -4.747976e+01
   1.629206e+02   2.616186e+02
  -3.211704e+01   3.850791e+02
  -2.144407e+02   2.055515e+02
  -3.058301e+02  -3.947088e+01
  -3.064878e+02  -2.432495e+02
  -1.541743e+02  -2.711386e+02
   7.459349e+01  -1.738117e+02
   2.070855e+02  -3.675247e+01
   6.147153e+01   4.696603e+01
  -9.694942e+01  -6.926689e+01
  -3.271986e+01  -1.582495e+02
   1.579563e+02  -1.209564e+02
   2.115471e+02   1.466691e+01
   8.893377e+01   9.507698e+01
  -6.217767e+01  -1.613495e+00
  -6.291746e+01  -7.290207e+01
   1.560444e+02  -7.787698e+01
   3.241797e+02   1.320639e+00
   2.371074e+02   1.958315e+02
   7.217005e+01   2.808359e+02
  -2.245155e+02   2.957103e+02
  -3.140868e+02   7.331549e+01
  -1.743190e+02  -8.013672e+01
   6.107275e+01  -1.045560e+02
   1.370668e+02   4.519536e+01
  -7.153073e+01   1.490028e+02
  -2.146191e+02   7.240895e+01
  -2.359724e+02  -1.206636e+02
  -9.447422e+01  -2.332617e+02
   9.226076e+01  -2.042750e+02
   1.686636e+02  -4.977394e+01
   1.102236e+02   6.614050e+01
   1.686586e+01   3.128018e+01
  -7.868398e+01  -9.521851e+01
   1.144502e+01  -1.286327e+02
   1.756865e+02  -1.688506e+01
   1.951382e+02   1.218886e+02
   2.352729e+01   2.020948e+02
  -1.819254e+02   1.400915e+02
  -1.750483e+02  -3.258954e+01
  -6.090099e+01  -1.530353e+02
   5.637370e+01  -1.112777e+02
   8.754129e+01  -2.540248e+01
   4.075491e+01   3.842095e+01
  -1.716940e+01   3.256858e+01
   5.725853e+01   1.688147e+01
   6.301975e+01  -6.326916e+00
   4.201134e+01   5.927152e+01
   3.451469e+01   1.139695e+02
  -6.185023e+01   1.539126e+02
  -2.573843e+02   4.949125e+01
  -2.046780e+02  -1.321795e+02
  -3.545643e+01  -2.609445e+02
   1.103251e+02  -1.948842e+02
   1.230186e+02  -3.114218e+01
   1.252742e+01   6.840832e+01
   4.841354e+01   4.023377e-01
   4.303923e+01  -2.566397e+01
   1.010687e+02   1.140827e+01
   4.474480e+01   4.806071e+01
  -4.162476e+01   7.265254e+01
  -5.660288e+01   4.159000e+01
  -7.178868e+01  -2.407878e+01
  -1.185528e+01  -6.317712e+01
   1.306382e+02  -7.792090e+01
   1.728536e+02   4.190601e+01
   1.003971e+02   2.491637e+02
  -1.080521e+02   2.261799e+02
  -2.797307e+02   7.268321e+01
  -2.701957e+02  -1.034664e+02
  -1.247065e+02  -1.770544e+02
   1.581829e+01  -1.825012e+02
   9.673207e+01  -9.920972e+01
   5.658967e+01  -3.238031e+01
   9.258059e+01  -3.632370e+01
   7.514810e+01  -4.530895e+01
   9.602417e+01  -8.468040e+00
   9.559095e+01   1.214920e+02
  -2.401641e+01   2.181418e+02
  -9.484722e+01   1.403747e+02
  -1.646482e+02   3.862429e+01
  -1.564421e+02  -8.277118e+01
   2.219536e+01  -1.231906e+02
   6.482474e+01  -9.736729e+01
   7.622962e+01  -4.007617e+01
  -5.656585e+00   6.064590e+01
  -1.536395e+01   2.991067e+01
   3.137524e+01   5.788069e+01
   6.323617e+01   7.791622e+00
   5.283053e+01   6.651531e+01
  -5.009945e+01  -8.706753e+00
  -1.378168e+02   4.210441e+01
  -1.227045e+02  -3.083056e+01
  -6.703866e+01  -1.030713e+02
   1.071631e+02  -4.875372e+01
   1.243528e+02  -2.028657e+01
   3.411070e+01   2.516732e+01
  -5.527751e+01   6.769133e+00
  -6.411829e+01  -4.679673e+01
   2.829601e+01  -4.345571e+01
   1.010779e+02   8.146330e+00
   6.634933e+01  -9.390417e+00
   4.331809e+01   2.910117e+01
   5.863214e+01   1.885043e+01
   6.294018e+01   3.185884e+01
   6.198384e+01   1.645529e+01
  -2.065192e+00   7.356638e+01
  -3.033221e+01   1.230006e+02
  -1.085684e+02   1.324898e+02
  -1.493713e+02  -1.855661e+00
  -1.400038e+02  -8.764047e+01
  -1.741132e+01  -1.505315e+02
   9.334440e+01  -4.228244e+01
   4.637583e+01   9.190261e-01
  -2.851780e+01   1.565073e+01
  -1.162502e+02  -1.015350e+01
  -7.797519e+00  -7.046026e+01
   1.234073e+02  -6.292740e+01
   1.788059e+02  -4.286694e+01
   1.298137e+02   4.435866e+01
   3.373801e+00   6.491769e+01
  -7.206085e+01   5.773498e+01
  -4.746648e+00   2.856718e+01
   3.872055e+00  -8.681378e+00
   6.293376e+01   3.910405e+01
  -1.602602e+01   8.992850e+01
  -8.880137e+01   1.244160e+02
  -1.913992e+02   4.619985e+01
  -9.122832e+01  -1.179702e+02
   3.232668e+00  -1.390874e+02
   9.892256e+01  -1.346249e+02
   1.054579e+02   1.715126e+01
   8.638735e+01   8.373345e+01
   2.600076e+01   6.632209e+01
  -5.629568e+01  -1.738144e+00
  -3.233964e+01  -1.946048e+01
  -3.045517e+01  -1.483649e+01
   5.049586e+00   4.002554e+01
  -4.269082e+01   2.834293e+01
  -3.411292e+01  -5.409100e+01
  -3.227667e+01  -1.047184e+02
   7.126480e+01  -4.871887e+01
   7.208588e+01   4.850906e+01
   8.490671e+01   5.863049e+01
  -1.652854e+01   1.446953e+01
  -9.551106e+01   3.347219e+01
  -4.922220e+01   3.955439e+01
   1.842784e+01  -3.638393e+01
   4.637297e+01  -4.073845e+01
   1.646649e+01  -4.072501e+01
  -3.095406e+01  -4.547167e+00
   1.617550e+01   4.246153e+01
   8.660091e+01  -4.698366e-01
   8.264937e+01   4.111177e+01
   1.463457e+00   1.358902e+02
  -1.180142e+02   1.196260e+02
  -1.954548e+02   2.529334e+01
  -1.458462e+02  -1.063823e+02
   9.313998e+00  -2.072582e+02
   7.124636e+01  -1.542637e+02
   1.029397e+02  -6.114952e+01
   6.082215e+01   3.434348e+01
   6.075686e+01   7.641149e+01
  -5.179204e+00   4.769326e+01
  -1.059309e+00   4.044391e+01
  -2.535063e+01   3.739876e+01
  -1.333477e+01   9.115186e+01
  -4.731162e+01   4.237149e+01
  -8.547724e+01  -2.758683e+00
  -7.709855e+01  -8.125209e+01
   3.267643e+01  -9.899287e+01
   9.270069e+01   6.745212e+00
   7.472802e+01   8.149394e+01
   5.368181e+01   7.814235e+01
  -4.853534e+01   2.338379e+01
  -1.023724e+02  -2.443446e+01
  -4.531618e+01   2.131116e+00
   5.125759e+01  -2.708283e+01
   3.719423e-01  -3.468478e+01
   4.827187e+00  -5.495973e+01
  -7.882490e+01  -3.665799e+01
  -1.011673e+01  -3.970742e+01
   1.185758e+02  -1.053249e+02
   1.366575e+02   1.731365e+00
   6.142234e+01   3.763735e+01
  -2.127723e+00   8.032154e+01
  -5.221983e+01   4.992766e+01
  -3.365268e+01  -2.100464e+01
  -1.744069e+01  -8.865902e+01
   2.126607e+01  -4.085226e+01
   2.325058e+01   1.650033e+00
   4.561474e+01   5.894496e+01
  -1.123453e+01   3.059411e+01
  -1.098905e+01  -3.905430e+01
   7.461905e+00  -2.120329e+01
   1.008055e+01  -9.130172e-01
  -7.801707e+00  -4.166186e+01
  -5.275871e+00   1.769859e+01
   3.173112e+01  -2.435596e+01
   1.557892e+01  -5.164893e+01
   6.262402e+01   1.135533e+01
   2.482147e+00   7.876244e+01
  -1.938108e+01   5.437288e+01
  -6.350988e+01   3.629501e+01
  -5.339814e+01  -5.024228e+01
  -1.582983e+01  -3.900006e+01
   8.005087e+01   3.247242e+00
   1.004307e+02  -1.023516e+01
   6.101402e+01   5.053180e+01
  -5.262769e+01   1.654272e+01
  -5.990896e+01  -4.101586e+01
  -1.106089e+01  -2.840482e+01
   6.465812e+01  -1.144590e+01
   3.188169e+01   6.898114e+01
  -4.829369e+01   5.725166e+01
  -1.018793e+02   2.023184e+01
