
 $NMID
 id='ANONYMOUS ', fmtdat='(2E16.6)'
 volume=1.0
 tramp=1.0
 $END
  -4.644871e+03   5.372691e+00
  -2.574557e+03  -2.773158e+03
   9.412638e+02  -2.918038e+03
   2.225758e+03  -9.241794e+02
   9.900022e+02   7.492604e+02
  -9.631846e+02   6.564029e+02
  -1.021865e+03  -4.627800e+02
   2.144518e+01  -1.192298e+03
   8.073535e+02  -9.562615e+02
   8.710805e+02   2.451097e+02
   3.195842e+02   8.472368e+02
  -2.869102e+02   9.466910e+02
  -5.901181e+02  -1.842958e+01
  -1.902680e+02  -9.469052e+02
   2.271149e+02  -9.504219e+02
   7.612467e+02  -4.035957e+01
   3.331196e+02   6.730759e+02
  -2.823745e+02   9.754461e+02
  -6.878121e+02   1.883238e+02
  -2.943702e+02  -3.478317e+02
   8.312483e+01  -4.564913e+02
   2.952517e+02  -3.684291e+02
   1.917853e+02  -5.483267e+01
  -8.607962e+01   1.816546e+02
  -2.462888e+02  -1.711172e+02
  -1.762635e+02  -5.133155e+02
   6.045031e+02  -4.485378e+02
   9.690516e+02  -1.444711e+01
   5.047836e+02   5.691582e+02
  -4.494900e+02   4.952301e+02
  -7.430244e+02   2.561966e+01
  -4.149196e+02  -3.720912e+02
   2.363025e+02  -6.603622e+02
   6.576577e+02  -2.911926e+02
   4.322978e+02   2.109039e+02
   1.283139e+02   4.949463e+02
  -1.876390e+02   3.408077e+02
  -1.400002e+02  -2.116518e+02
   1.636845e+02  -4.591623e+02
   5.414033e+02   1.283190e+01
   2.903448e+02   6.693599e+02
  -3.637991e+02   7.966242e+02
  -6.405868e+02   7.163269e+01
  -2.618012e+02  -5.712061e+02
   3.511847e+02  -3.783754e+02
   4.013649e+02   2.893895e+02
  -1.355544e+02   5.654813e+02
  -5.863229e+02   1.789240e+02
  -6.029957e+02  -4.416490e+02
  -1.534356e+02  -6.206255e+02
   4.163536e+02  -3.551034e+02
   6.762848e+02   1.250995e+02
   4.039262e+02   4.613107e+02
  -1.229111e+02   3.926539e+02
  -4.941450e+02   5.407405e+01
  -2.867476e+02  -1.806577e+02
   1.177698e+02  -1.040106e+02
   1.180636e+02   1.513261e+02
  -1.969143e+02   1.763927e+02
  -3.883778e+02  -7.276830e+01
  -1.562377e+02  -3.073976e+02
   2.314772e+02  -2.578941e+02
   3.491338e+02  -9.292204e+01
   1.795173e+02   5.761794e+01
  -2.229790e+01   2.437001e+02
  -2.119926e+02   3.301911e+02
  -3.279534e+02   2.743715e+02
  -2.644277e+02  -1.309863e+02
  -5.456610e+01  -4.409570e+02
   1.421818e+02  -3.991159e+02
   1.043771e+02  -6.000181e+01
  -1.569914e+01   6.449754e+01
   2.731288e+00  -6.589611e+01
   1.508329e+02  -1.460493e+02
   2.726806e+02   3.098441e+01
   1.382615e+02   2.469564e+02
  -1.123821e+02   1.947140e+02
  -2.366356e+02  -2.751201e+01
  -1.917663e+02  -3.231339e+02
   4.896432e+01  -3.234103e+02
   3.149645e+02  -1.411304e+02
   4.087560e+02   1.527218e+02
   2.437465e+02   3.892768e+02
  -8.290898e+01   3.045852e+02
  -2.525882e+02   1.278776e+02
  -1.805982e+02   1.887884e+00
  -6.524728e+01  -1.853028e+01
  -2.166316e+02   2.104894e+01
  -3.707485e+02  -9.786792e+01
  -3.585681e+02  -2.886310e+02
   3.741868e+00  -4.383382e+02
   3.744246e+02  -4.158741e+02
   5.392996e+02  -2.161466e+02
   3.671109e+02   1.147113e+02
   4.766534e+01   2.833873e+02
  -1.889287e+02   2.568013e+02
  -1.461290e+02   2.890316e+01
   1.380930e+02  -1.718332e+02
   2.295375e+02  -2.188791e+01
   8.889465e+01   1.404557e+02
  -1.452009e+02   1.842753e+02
  -1.468648e+02  -7.720495e+01
   4.743686e+01  -1.434521e+02
   2.045304e+02  -4.412226e+01
   1.559540e+02   2.488475e+02
  -2.633756e+01   3.403137e+02
  -2.256306e+02   2.040610e+02
  -2.888847e+02  -3.282037e+01
  -2.806627e+02  -2.255269e+02
  -6.558820e+01  -2.557700e+02
   1.198563e+02  -1.565835e+02
   1.911912e+02   9.515085e+00
   4.900619e+01   5.284484e+01
  -5.473497e+01  -4.502850e+01
  -5.289213e+00  -1.216526e+02
   1.625180e+02  -8.458933e+01
   1.798145e+02   2.069098e+00
   5.951051e+01   7.394985e+01
  -5.166021e+01   3.912843e+01
  -7.452679e+01  -1.571927e+01
   1.223737e+02  -4.946078e+01
   2.181153e+02   3.377534e+01
   2.406202e+02   9.170479e+01
   7.531125e+01   1.779345e+02
  -1.602043e+02   2.241337e+02
  -2.718241e+02   1.287634e+02
  -1.579294e+02  -4.991225e+01
   3.894371e+01  -9.762617e+01
   1.153827e+02   2.067550e+01
  -3.083214e+01   9.892797e+01
  -1.813486e+02   7.408374e+01
  -2.376996e+02  -1.139179e+02
  -7.035463e+01  -1.943291e+02
   9.372325e+01  -1.500782e+02
   1.441884e+02  -3.846911e+01
   9.135102e+01   6.464858e+01
   1.830884e+01   2.953943e+01
   1.818335e+00  -4.609370e+01
   9.713827e+01  -1.096240e+02
   2.038526e+02  -1.944283e+01
   1.933390e+02   1.213681e+02
   7.903955e+00   2.398271e+02
  -1.996563e+02   1.851987e+02
  -2.099054e+02   4.996676e+01
  -1.108157e+02  -5.717727e+01
   7.207860e+01  -1.279565e+02
   6.232955e+01  -6.167001e+01
   9.125055e+00  -1.555942e+00
   1.020831e+01   3.116078e+01
  -8.597854e+00   1.789068e+01
   4.692931e+01   3.837762e+00
   7.418419e+01   6.158841e+01
   2.015603e+01   1.338842e+02
  -1.066919e+02   1.293802e+02
  -2.641096e+02   2.584399e+01
  -1.795635e+02  -1.540068e+02
  -2.739604e+00  -2.325339e+02
   1.027696e+02  -1.492438e+02
   1.448383e+02   2.262435e+01
   5.931729e+01   7.218467e+01
   6.944034e+00   5.253489e+01
   3.837107e+01  -3.152606e+01
   6.410157e+01  -4.920017e+01
   4.059348e+01  -8.946595e+00
  -6.187244e+01   5.987628e+01
  -5.927880e+01   5.751668e+01
  -1.273992e+01  -1.693739e+01
   2.597259e+01  -9.002345e+01
   1.295082e+02  -6.798622e+01
   1.864691e+02   8.092107e+01
   7.676993e+01   2.218776e+02
  -1.402855e+02   2.192886e+02
  -3.104545e+02   8.548354e+01
  -2.352690e+02  -1.103659e+02
  -1.080807e+02  -1.944828e+02
   5.259386e+01  -1.748149e+02
   1.415108e+02  -7.846360e+01
   1.004794e+02  -8.237229e+01
   8.110651e+01  -5.988441e+01
   7.186690e+01  -7.226810e+01
   1.415512e+02   2.334966e+00
   1.231438e+02   1.431435e+02
   2.012601e+01   2.437275e+02
  -1.007740e+02   2.097884e+02
  -2.018056e+02   1.463706e+01
  -1.692274e+02  -1.483243e+02
  -1.826822e+00  -1.792663e+02
   9.729021e+01  -1.172206e+02
   3.674583e+01  -3.354580e+01
  -4.070556e+00   7.432213e+01
   5.995006e+00   6.208795e+01
   3.707153e+01   3.383791e+01
   4.387648e+01   8.323431e+00
   9.663807e+00   3.053729e+01
  -4.988063e+01   2.132331e+01
  -1.417990e+02  -6.917215e+00
  -1.274115e+02  -3.275143e+01
  -1.380718e+00  -1.128929e+02
   1.381792e+02  -8.313774e+01
   1.298012e+02  -3.141291e+01
   3.687905e+01   4.778232e+01
  -4.713074e+01   4.091552e+01
  -6.961431e+01  -3.031054e+01
  -9.404478e+00  -8.233540e+01
   7.140991e+01  -6.711150e+01
   6.274077e+01  -4.583705e+00
   5.781839e+01   6.416811e+01
   6.189460e+01   3.348801e+01
   9.249984e+01   1.421216e+00
   1.026112e+02   2.068240e+01
   1.179744e+00   4.921314e+01
  -4.857501e+01   1.633916e+02
  -1.081392e+02   1.654724e+02
  -1.362889e+02   5.914279e+01
  -1.005665e+02  -1.064674e+02
  -2.079608e+01  -1.437717e+02
   5.711455e+01  -8.696284e+01
   4.917341e+01   4.181547e+01
  -6.816906e+01   5.630476e+01
  -1.499541e+02  -6.028751e+01
  -4.999758e+01  -1.215925e+02
   1.072849e+02  -1.218207e+02
   2.460813e+02  -4.197751e+01
   1.633489e+02   5.927244e+01
  -1.537677e+01   1.102253e+02
  -9.176962e+01   5.702079e+01
  -5.115218e+01  -4.034486e+00
   3.924280e+01  -1.801360e+01
   8.823527e+01   7.247445e+01
   2.183412e+01   1.129927e+02
  -8.584222e+01   1.312385e+02
  -1.498494e+02   2.949744e+01
  -1.400518e+02  -1.224082e+02
  -2.407432e+01  -1.968088e+02
   8.545481e+01  -9.596113e+01
   1.450424e+02  -8.481094e+00
   7.873637e+01   1.017298e+02
  -1.313796e-01   1.437709e+02
  -5.523135e+01   3.054456e+01
  -6.982641e+01  -6.340120e+01
  -4.273615e+01  -3.413605e+00
  -2.219825e+01   1.505196e+01
  -3.413289e+01  -2.610385e+01
  -2.050141e+01  -1.215970e+02
  -2.349024e+01  -8.741431e+01
   5.328256e+01  -5.455867e+01
   1.173460e+02   8.379518e-01
   1.170664e+02   7.259961e+01
   4.406387e+01   3.901296e+01
  -4.458531e+01  -1.969114e+01
  -5.104287e+01   5.861732e+00
   2.263537e+01   1.091450e+01
   4.061577e+01   5.765267e+00
   2.654581e+01   7.455251e+00
   2.033637e+01   2.063677e+01
   3.270783e+01   4.623057e+00
   4.605626e+01   2.931915e+01
   3.685608e+01   7.617625e+01
  -2.659030e+01   1.256205e+02
  -1.081119e+02   1.056102e+02
  -1.542248e+02   3.337929e+01
  -1.679978e+02  -8.928416e+01
  -8.208641e+01  -1.138621e+02
   3.354013e+01  -1.640282e+02
   8.802165e+01  -9.552699e+01
   4.019988e+01   2.209201e+00
   6.407403e+01   6.239290e+01
   1.896725e+00  -2.648368e+01
   6.769291e+00  -3.246972e+01
   4.163895e+01   4.972477e+01
   3.281662e+01   1.066848e+02
  -1.921806e+01   4.881035e+01
  -1.049878e+02  -2.310302e+01
  -4.370142e+01  -1.452810e+02
   2.765126e+01  -1.263359e+02
   6.957716e+01  -2.592126e+00
   1.610208e+02   8.613059e+01
   1.782885e+01   1.227476e+02
  -6.577441e+01   5.700526e+01
  -6.530524e+01   3.389258e+01
  -5.958333e+01  -3.665346e+01
  -2.850123e+01  -2.649692e+01
  -2.747426e+01  -4.141124e+01
  -2.296244e+01  -7.363610e+00
  -8.511384e+01   1.590661e+01
   3.373290e+01  -4.360500e+01
   7.102474e+01  -5.524273e+01
   6.479862e+01  -5.004615e+01
   5.564015e+01   4.365615e+01
  -5.870298e-01   6.441750e+01
  -2.405555e+01   7.614938e+01
  -1.408879e+01   5.713188e+00
   1.892383e+01  -3.730155e+01
   2.595445e+00  -2.785387e+01
   2.765544e+01   1.584890e+01
   3.357840e+01   4.660997e+01
   1.739551e+01   1.317397e+01
   1.265332e+01  -2.909662e+00
  -2.100704e+01  -3.469668e+01
  -2.711353e+00  -1.487357e+01
  -2.638213e+00   2.598446e+01
   1.981462e+01   6.908378e+00
  -1.672534e+01  -5.358609e+01
   3.183628e+01  -4.779622e+01
   3.662111e+01   2.805310e+01
  -9.343599e+00   3.686543e+01
  -2.371207e+00   5.053577e+01
  -4.818892e+01   1.455065e+01
  -4.716302e+01  -7.009598e+01
  -3.759754e+00  -1.108747e+01
   6.244014e+01  -3.513306e+00
   1.071556e+02   9.009453e+01
  -9.281553e+00   7.426471e+01
  -2.489075e+01   1.604857e+01
  -1.186138e+02   2.281147e+01
  -2.143636e+01  -1.093945e+01
   4.221967e+01   1.113768e+01
   6.428455e+01   2.311421e+00
  -2.200816e+01   4.239669e+01
  -1.044891e+02   2.268473e+01
