
 $NMID
 id='ANONYMOUS ', fmtdat='(2E16.6)'
 volume=1.0
 tramp=1.0
 $END
  -3.971493e+03  -5.655069e+01
  -2.512123e+03  -2.319432e+03
   4.969507e+02  -2.441989e+03
   1.879364e+03  -1.008418e+03
   9.557080e+02   3.683342e+02
  -6.096869e+02   3.328719e+02
  -6.759060e+02  -3.565876e+02
  -3.552447e+01  -1.077575e+03
   6.499281e+02  -8.618614e+02
   8.596475e+02   1.365402e+02
   3.295847e+02   7.674341e+02
  -1.503450e+02   8.269666e+02
  -4.840189e+02   1.786147e+02
  -3.999412e+02  -4.699004e+02
   4.543843e+02  -6.319423e+02
   6.000630e+02  -1.262096e+02
   1.441464e+02   6.180770e+02
  -1.857894e+02   5.417302e+02
  -5.129144e+02   1.484370e+02
  -4.363967e+02  -2.080172e+02
  -7.011342e+01  -5.105369e+02
   2.210284e+02  -2.845042e+02
   2.622751e+02  -1.917124e+01
  -9.499343e+01  -1.304938e+02
  -5.175936e+02  -1.072635e+02
  -1.753045e+02  -4.391264e+02
   3.003646e+02  -3.284534e+02
   7.143589e+02   8.663202e+01
   3.799662e+02   6.138413e+02
  -4.685340e+02   4.756699e+02
  -6.600643e+02  -1.496251e+02
  -3.103211e+02  -5.711492e+02
   3.089191e+02  -4.930299e+02
   5.841352e+02  -1.860016e+02
   3.547823e+02   1.880130e+02
   2.331108e+01   4.415885e+02
  -2.461195e+02   2.984906e+02
  -1.895247e+02  -1.900825e+02
   2.757368e+02  -4.099364e+02
   4.576965e+02   1.050216e+01
   2.752407e+02   7.029387e+02
  -2.989874e+02   6.373658e+02
  -5.978534e+02  -4.646569e+01
  -2.247525e+02  -6.304307e+02
   2.937939e+02  -3.669710e+02
   4.075220e+02   3.209717e+02
  -3.353824e+01   6.383240e+02
  -6.095557e+02   2.019899e+02
  -6.034744e+02  -4.358957e+02
  -1.720996e+02  -6.892781e+02
   4.339407e+02  -4.142719e+02
   6.855349e+02   9.422628e+01
   3.862876e+02   4.008906e+02
  -1.416098e+02   3.740681e+02
  -4.319003e+02   5.230248e+01
  -1.889410e+02  -1.672882e+02
   1.224242e+02  -8.515522e+01
   1.462901e+02   1.193192e+02
  -1.638728e+02   1.686002e+02
  -3.489728e+02  -1.101000e+02
  -1.289232e+02  -2.325445e+02
   1.950415e+02  -2.516051e+02
   3.483969e+02  -8.976242e+01
   2.149053e+02   9.312156e+01
  -1.028505e+01   2.296402e+02
  -2.286017e+02   3.859241e+02
  -3.418912e+02   2.365749e+02
  -3.074618e+02  -1.797840e+02
  -7.872244e+01  -4.565425e+02
   9.206655e+01  -3.639633e+02
   1.063627e+02  -8.850426e+01
   2.048252e+01   1.662864e+01
   1.609624e+01  -1.326117e+02
   2.235360e+02  -1.466941e+02
   2.627701e+02   5.793523e+01
   1.335758e+02   2.515940e+02
  -8.419546e+01   2.455183e+02
  -2.293921e+02   1.459707e+01
  -1.589792e+02  -2.248654e+02
   1.646293e+01  -2.591003e+02
   2.662118e+02  -1.267628e+02
   3.740989e+02   1.016362e+02
   1.662466e+02   3.354433e+02
  -8.224729e+01   3.254855e+02
  -2.760668e+02   1.426948e+02
  -1.505887e+02   5.011349e+00
  -8.444690e+01   1.605158e+01
  -2.551852e+02   3.231292e+01
  -3.917529e+02   5.927252e-01
  -3.242987e+02  -2.396564e+02
   3.921239e+01  -4.132872e+02
   3.794384e+02  -4.023096e+02
   4.704864e+02  -1.878279e+02
   2.806219e+02   8.892407e+01
   8.617332e+00   2.759922e+02
  -1.483380e+02   2.521069e+02
  -6.632926e+01   1.214858e+01
   1.208678e+02  -9.625908e+01
   1.881466e+02  -5.402183e+00
   6.236499e+01   1.368086e+02
  -1.191313e+02   1.451331e+02
  -1.576812e+02  -3.651621e+01
   1.888748e+01  -1.685485e+02
   1.920082e+02  -1.597614e+01
   1.665066e+02   2.417917e+02
   2.790390e+01   3.334705e+02
  -2.494206e+02   2.297746e+02
  -3.730268e+02  -3.657684e+01
  -3.009234e+02  -1.987774e+02
  -1.160511e+02  -2.669823e+02
   1.581575e+02  -2.109116e+02
   1.826310e+02  -5.193855e+01
   4.885566e+01  -7.800004e+00
  -3.911521e+01   1.116092e+01
   2.110248e+00  -7.829464e+01
   1.523794e+02  -7.428861e+01
   1.863917e+02   3.559565e+00
   4.217157e+01   5.604550e+01
  -8.457731e+01   2.000835e+01
  -8.017946e+01  -6.737030e+01
   1.327318e+02  -1.415303e+02
   2.789751e+02  -2.412556e+01
   2.968661e+02   1.370883e+02
   9.058712e+01   2.922750e+02
  -2.083192e+02   3.228241e+02
  -3.335382e+02   1.127236e+02
  -1.747074e+02  -6.051489e+01
   1.632365e+01  -1.247355e+02
   1.176153e+02  -5.810764e+01
   6.851963e+00   1.182910e+02
  -2.070802e+02   4.112529e+01
  -2.128536e+02  -9.742220e+01
  -6.982992e+01  -1.565653e+02
   4.734252e+01  -9.048321e+01
   1.325256e+02  -1.870162e+01
   7.884916e+01   3.234452e+01
  -5.200887e+01  -4.704139e+01
  -5.765471e+01  -7.492742e+01
   6.860065e+01  -1.133166e+02
   2.179164e+02  -3.492213e+01
   2.223957e+02   9.874525e+01
   4.316776e+01   2.175675e+02
  -1.765407e+02   1.448972e+02
  -1.709014e+02   2.401295e+01
  -5.692398e+01  -1.228046e+02
   7.393733e+01  -1.269465e+02
   9.090282e+01  -5.146540e+00
  -2.681293e+00   1.765726e+01
  -1.003213e+01   5.772500e+01
  -4.546400e-01  -1.552356e+00
   7.394282e+01  -1.669690e+01
   8.471146e+01   2.271731e+01
  -1.296964e+01   1.282012e+02
  -1.362823e+02   1.814120e+02
  -2.566635e+02   4.074825e+01
  -2.002102e+02  -1.402259e+02
  -4.419242e+01  -2.794766e+02
   1.600738e+02  -1.381433e+02
   1.620318e+02  -2.714708e+01
   8.393572e+01   1.163560e+02
  -1.398913e+01   4.282657e+01
   1.805732e+01   2.268606e+00
   5.316279e+01  -1.830706e+01
   6.339696e+01   4.984708e+01
  -3.836111e+01   1.441043e+02
  -1.010987e+02   5.802095e+01
  -1.127565e+02  -4.527049e+01
  -2.125097e+01  -1.336494e+02
   1.241487e+02  -8.522585e+01
   2.169006e+02   3.234617e+01
   1.094089e+02   2.272577e+02
  -1.297994e+02   2.309164e+02
  -2.879288e+02   9.369773e+01
  -2.848552e+02  -1.220116e+02
  -9.330001e+01  -2.165666e+02
   7.192408e+01  -1.587912e+02
   9.783825e+01  -8.543216e+01
   9.748965e+01  -7.094771e+01
   5.869827e+01  -8.100627e+01
   8.759920e+01  -7.190181e+01
   1.321473e+02  -1.449337e+01
   1.241062e+02   1.407694e+02
   2.744222e+01   2.313836e+02
  -1.153314e+02   2.422807e+02
  -2.002171e+02   5.443327e+01
  -1.427561e+02  -1.374999e+02
  -2.719019e+01  -2.322583e+02
   5.558653e+01  -1.386667e+02
   3.936996e+01   8.861723e+00
  -2.078319e+00   8.097934e+01
  -1.742009e+01   6.059774e+01
   5.568431e+01  -2.668063e+00
   8.187617e+01   3.569784e+01
   4.560044e+01  -9.894389e-01
  -6.309752e+01   2.850665e+01
  -1.854051e+02   1.038938e+01
  -1.481402e+02  -3.300394e+01
   2.121671e+00  -5.796530e+01
   1.241292e+02  -5.729140e+01
   1.657324e+02  -5.924797e+01
   5.118595e+01   4.452651e+01
  -6.553473e+01   4.278798e+01
  -6.873262e+01  -6.909516e+00
  -1.087301e+01  -5.096532e+01
   5.651665e+01  -1.002318e+02
   8.698444e+01  -3.627164e+01
   6.815949e+01   3.187398e+01
   4.045658e+01   5.753330e+01
   8.350689e+01   1.284121e+01
   8.364056e+01   3.337291e+01
   1.693260e+01   7.366592e+01
  -6.957256e+01   1.544108e+02
  -1.349874e+02   1.649253e+02
  -1.702307e+02   4.039787e+01
  -1.279636e+02  -7.161301e+01
  -2.612896e+01  -1.311793e+02
   7.987674e+01  -6.162826e+01
   2.110722e+01  -1.622409e+00
  -9.264157e+01   5.199268e+01
  -1.775261e+02  -4.965074e+01
  -6.764995e+01  -9.360227e+01
   1.084516e+02  -1.526042e+02
   2.073908e+02  -6.527371e+01
   1.583613e+02   4.973320e+01
   3.447963e+01   4.992184e+01
  -4.396664e+01   6.733948e+01
  -3.947030e+01  -3.617431e+00
   4.138338e+01  -3.498472e+01
   1.149169e+02   1.936447e+01
   5.216557e+01   9.566742e+01
  -6.668697e+01   1.328368e+02
  -1.621830e+02   7.318000e+01
  -1.511899e+02  -1.102070e+02
  -4.772758e+01  -1.970579e+02
   1.103778e+02  -1.775234e+02
   1.314713e+02  -1.905089e+01
   4.022330e+01   6.382146e+01
   1.291095e+00   1.052706e+02
  -6.398745e+01   4.946005e+01
  -7.169625e+01  -6.063923e+00
   3.137305e+00  -3.582807e+01
  -2.334236e+01   6.634879e+00
  -3.155943e+01   2.826269e+01
  -8.182797e+01  -6.508139e+01
  -3.884574e+01  -9.511579e+01
   1.177473e+01  -5.324039e+01
   1.187611e+02   3.612960e+01
   1.021290e+02   7.700372e+01
   7.025360e-01   7.030876e+01
  -7.165672e+01   2.326374e+01
  -9.310858e+01   4.078851e+01
   2.349709e-01  -4.068716e+01
   3.433568e+01  -3.518189e+01
   5.262278e+01  -5.885334e+01
   3.683135e+01  -4.711285e+01
   3.183144e+01   3.031217e+01
   6.520039e+01   2.243630e+01
   8.762355e+01   5.345279e+01
   2.301911e+01   1.012466e+02
  -8.283028e+01   1.080192e+02
  -1.513077e+02   7.235456e+01
  -1.363978e+02  -4.702240e+01
  -6.464580e+01  -1.880540e+02
   2.417638e+01  -1.403500e+02
   7.895866e+01  -3.105321e+01
   1.027429e+02   4.832453e+01
   7.297619e+00   4.057331e+01
  -4.418051e+00  -2.072558e+01
   1.165551e+01   2.392633e+00
   9.451532e+00   1.826366e+01
   3.918120e+01   9.903267e+01
  -3.810030e+01   6.908865e+01
  -8.243328e+01  -1.455324e+01
  -7.638437e+01  -8.516864e+01
  -1.259045e+01  -8.861704e+01
   8.729627e+01  -4.450613e+01
   1.051212e+02   6.929015e+01
   4.796567e+00   9.051242e+01
  -6.859428e+01   5.871920e+01
  -6.881978e+01  -2.970937e+01
  -3.414012e+01  -3.822701e+01
   2.164141e+01  -7.026445e+01
   3.248859e+01   1.001437e+01
  -1.729233e+01  -2.455706e+00
  -4.268574e+01  -4.046874e+01
  -2.058578e+01  -3.687627e+01
   3.213008e+01  -8.100787e+01
   9.189434e+01  -4.853914e+01
   8.181413e+01   3.267557e+01
   4.449521e+01   5.763452e+01
  -1.525994e+01   7.110878e+01
  -4.449188e+01   2.542082e+01
   1.373657e+00  -2.080872e+01
  -2.288075e+01  -4.295274e+00
  -1.100018e+00   4.830108e+01
  -9.910616e+00   7.359362e+01
   2.477066e+00   4.647470e+01
  -6.468573e+00  -3.339033e+00
  -4.316599e+01  -1.830657e+01
  -6.885775e+01   7.181043e+00
  -3.610840e+01  -4.913342e+00
  -1.596479e+01  -9.980364e+00
  -1.539345e+01  -2.469225e+01
  -1.016693e+01  -1.716378e+01
   4.384374e+01  -2.485442e+01
   1.760275e+01   4.981705e+01
   5.802316e+01   4.171038e+01
  -6.262748e+01   3.831724e+01
  -5.096241e+01  -1.796215e+01
  -3.988877e+01  -3.502811e+01
   4.711537e+01  -3.306460e+01
   7.816270e+01   4.692314e+01
   9.344526e+00   6.046667e+01
  -3.417689e+01   3.061396e+01
  -3.434934e+01   3.719505e+01
   1.085706e+01   1.887353e+01
  -9.386373e-04  -4.194409e+01
   4.201285e+01  -3.611338e+00
  -6.799264e+01  -2.705547e+01
  -6.928837e+01   1.352267e+01
