
 $NMID
 id='ANONYMOUS ', fmtdat='(2E16.6)'
 volume=1.0
 tramp=1.0
 $END
  -4.214373e+03   3.482904e+01
  -2.368169e+03  -2.617767e+03
   8.340722e+02  -2.789565e+03
   2.110101e+03  -8.473732e+02
   9.081484e+02   6.579113e+02
  -6.441641e+02   5.300736e+02
  -9.341059e+02  -5.048723e+02
   6.658307e+00  -1.137571e+03
   8.455344e+02  -7.825182e+02
   8.143068e+02   2.038884e+02
   4.345834e+02   8.757399e+02
  -2.339002e+02   7.605686e+02
  -6.183976e+02   1.407324e+02
  -3.759226e+02  -8.038946e+02
   4.177092e+02  -4.980051e+02
   5.258859e+02  -4.836677e+01
   2.513419e+02   7.420342e+02
  -4.216353e+02   5.531245e+02
  -7.906304e+02   1.975577e+02
  -3.874443e+02  -5.425002e+02
  -1.332295e+02  -3.254011e+02
   2.287717e+02  -9.369226e+01
   2.186114e+02  -6.371469e+01
  -5.863492e+01   1.234200e+01
  -3.701782e+02  -4.166673e+01
  -2.286154e+02  -4.460771e+02
   5.574937e+02  -5.674072e+02
   7.714150e+02  -3.053143e+00
   3.831954e+02   5.324727e+02
  -5.357231e+02   5.345946e+02
  -7.525794e+02  -1.499870e+02
  -4.706740e+02  -5.425102e+02
   2.269601e+02  -6.994628e+02
   5.804172e+02  -1.319574e+02
   3.328131e+02   3.247522e+02
  -1.411929e+00   5.141540e+02
  -3.288968e+02   2.931384e+02
  -1.749280e+02  -2.465868e+02
   1.842005e+02  -4.859061e+02
   5.104811e+02  -7.383038e+01
   2.420325e+02   7.031130e+02
  -3.477135e+02   7.032196e+02
  -6.359393e+02  -5.961712e+01
  -2.662978e+02  -6.376407e+02
   2.958451e+02  -3.252085e+02
   3.652725e+02   3.208661e+02
  -5.781685e+01   6.028847e+02
  -5.378211e+02   1.536080e+02
  -6.123534e+02  -4.255033e+02
  -1.860331e+02  -6.745534e+02
   3.883190e+02  -3.690753e+02
   6.889185e+02   1.046437e+02
   4.058440e+02   4.286129e+02
  -1.875158e+02   3.830857e+02
  -5.030704e+02   7.577889e+01
  -2.574961e+02  -1.823292e+02
   1.126579e+02  -1.036508e+02
   1.096885e+02   9.806241e+01
  -2.243484e+02   1.354388e+02
  -3.619456e+02  -1.145876e+02
  -1.004814e+02  -3.226449e+02
   2.602356e+02  -3.041719e+02
   3.788324e+02  -1.117618e+02
   2.202114e+02   1.028699e+02
   4.818124e+00   2.782137e+02
  -2.115046e+02   3.764834e+02
  -3.859219e+02   2.181880e+02
  -3.469393e+02  -1.936602e+02
  -5.788298e+01  -4.654516e+02
   2.085644e+02  -3.652123e+02
   1.230669e+02  -9.249445e+00
  -1.050191e+00   6.768570e+01
  -2.498939e-01  -9.370608e+01
   1.965962e+02  -1.581808e+02
   2.986048e+02   5.239913e+01
   1.056975e+02   2.891914e+02
  -1.095875e+02   2.850268e+02
  -2.347373e+02   4.464535e+00
  -1.756458e+02  -2.564774e+02
   1.809464e+01  -3.351752e+02
   2.777040e+02  -1.565460e+02
   4.264296e+02   1.332421e+02
   2.281624e+02   3.745171e+02
  -8.312503e+01   3.088001e+02
  -2.410850e+02   1.375875e+02
  -1.562279e+02  -9.232360e+00
  -4.404184e+01   5.639969e+01
  -1.789936e+02   7.076813e+01
  -3.297815e+02  -3.281846e+01
  -3.322853e+02  -2.755233e+02
  -4.664332e+01  -4.387713e+02
   2.914867e+02  -3.760607e+02
   4.813258e+02  -1.974144e+02
   3.687747e+02   8.625430e+01
   1.176024e+02   2.688817e+02
  -1.160161e+02   2.433666e+02
  -1.091496e+02   1.322268e+01
   9.590790e+01  -1.547641e+02
   2.412428e+02  -2.136187e+01
   4.673653e+01   1.385293e+02
  -1.181830e+02   1.870559e+02
  -1.545403e+02  -5.011304e+01
   3.542010e+01  -1.630071e+02
   2.173992e+02  -2.390277e+01
   1.534602e+02   1.556305e+02
  -5.841609e+01   3.477940e+02
  -2.185749e+02   1.967569e+02
  -2.946221e+02  -6.340715e+01
  -2.290954e+02  -2.151849e+02
  -5.504619e+01  -2.668754e+02
   1.181690e+02  -1.431492e+02
   1.863533e+02   1.314678e+01
   1.068621e+02   4.460831e+01
  -6.857600e+01  -3.986256e+01
  -3.849007e+00  -7.908537e+01
   1.256250e+02  -2.288103e+01
   1.438206e+02   5.971156e+01
   4.068090e+01   8.177459e+01
  -1.201405e+02   1.566633e+01
  -1.002951e+02  -9.070144e+01
   1.281077e+02  -8.411868e+01
   2.767159e+02   1.149230e+01
   2.818398e+02   1.471869e+02
   5.688254e+00   2.647245e+02
  -2.014710e+02   2.447638e+02
  -2.676818e+02   1.343207e+02
  -1.331208e+02  -9.216275e+01
   3.661966e+01  -1.097761e+02
   1.212027e+02  -2.202457e+01
  -5.101378e+01   1.068102e+02
  -1.872341e+02   4.589545e+01
  -1.753524e+02  -9.523363e+01
  -1.137709e+02  -2.106609e+02
   7.590541e+01  -1.472560e+02
   1.274035e+02   9.910666e+00
   3.703990e+01   4.275540e+01
  -2.859043e+01  -5.430585e+00
  -6.334289e+01  -1.021119e+02
   5.319320e+01  -1.580041e+02
   1.451184e+02  -1.774055e+01
   1.984656e+02   1.344569e+02
   4.045056e+01   2.403989e+02
  -1.566335e+02   1.636298e+02
  -1.822035e+02   2.079436e+01
  -1.088143e+02  -1.237212e+02
   3.119888e+01  -1.280709e+02
   8.047841e+01  -3.415293e+01
  -1.520352e+01   1.190760e+01
  -3.434513e+01   3.269903e+01
  -4.143917e+00  -1.320182e+01
   4.227184e+01   1.691665e+01
   8.459985e+01   9.564240e+01
   1.914475e+01   1.060163e+02
  -1.095158e+02   1.182688e+02
  -2.427214e+02   1.615520e+01
  -2.113967e+02  -1.692291e+02
  -1.708517e+01  -2.095052e+02
   1.175694e+02  -1.450231e+02
   1.057043e+02  -6.627549e+01
   6.368219e+01   8.841802e+01
   8.176975e+00   6.602782e+01
   1.141822e+01   1.653203e+01
   3.061098e+01   4.759801e+01
   5.082395e+00   1.236176e+01
  -7.924104e+01   6.489658e+01
  -6.680408e+01   7.518771e+01
  -4.421096e+01  -1.763472e+01
   1.005358e+01  -1.007894e+02
   1.500317e+02  -8.143678e+01
   1.826379e+02   3.458509e+01
   1.211176e+02   2.111012e+02
  -4.140005e+01   2.289321e+02
  -2.613647e+02   1.255201e+02
  -2.776711e+02  -6.714260e+01
  -1.291598e+02  -1.357523e+02
   2.066450e+01  -1.464142e+02
   1.262003e+02  -1.169708e+02
   8.211038e+01  -6.614747e+01
   1.206462e+02  -8.310972e+01
   1.136347e+02  -8.582695e+01
   1.283955e+02   1.434232e+01
   1.053111e+02   1.110109e+02
   2.895295e+01   2.018272e+02
  -1.075415e+02   1.648454e+02
  -1.091715e+02   1.956225e+01
  -7.713519e+01  -1.063692e+02
  -4.613431e+00  -1.925975e+02
   6.387220e+01  -1.279361e+02
   5.162549e+01   7.979324e+00
  -4.195156e+01   8.584826e+01
  -4.457216e+00   5.578109e+01
   6.744131e+00   3.057614e+01
   5.467803e+01   1.277921e+01
  -5.076060e+00   1.707279e+01
  -9.882780e+01   1.369711e+01
  -1.911883e+02  -5.161939e+01
  -1.494032e+02  -8.683893e+01
  -2.799665e+01  -5.540502e+01
   1.258971e+02  -6.802266e+01
   1.301666e+02  -1.097464e+01
   6.980942e+01   1.310392e+01
   1.466288e+01   1.342684e+01
  -6.944398e+01  -2.032492e+01
  -1.582994e+01  -4.039598e+01
   2.487080e+01  -3.576258e+01
   2.778566e+00   3.437290e+01
   2.194389e+01   5.750552e+01
   3.670022e+01   6.457715e+00
   3.732915e+01  -1.757903e+01
   9.209741e+01  -1.907625e-01
   4.539626e+01   4.826868e+01
  -5.682535e+01   1.366526e+02
  -8.880765e+01   1.238797e+02
  -1.437260e+02   5.341538e+01
  -1.378147e+02  -9.231772e+01
   2.260921e+01  -1.109874e+02
   7.976741e+01  -7.194861e+01
   6.238585e+01   3.306230e+01
  -6.852771e+01   2.603335e+01
  -1.532492e+02  -5.002890e+01
  -9.920250e+01  -4.711229e+01
   3.336558e+01  -1.117429e+02
   1.594255e+02  -1.855263e+01
   1.687727e+02   3.043006e+01
   2.868528e+01   5.439048e+01
  -3.861822e+01   5.339125e+01
  -2.988393e+01  -3.216238e+00
   2.994004e+01  -2.282323e+01
   1.073798e+02   1.068367e+01
   3.412712e+01   9.953253e+01
  -6.182714e+01   1.319565e+02
  -1.461088e+02   5.359487e+01
  -1.100189e+02  -1.282238e+02
   1.848332e-01  -1.977552e+02
   9.897020e+01  -9.862343e+01
   1.099457e+02   1.984209e+01
   3.917077e+01   1.427985e+02
   9.930466e+00   1.195945e+02
  -3.828757e+01   1.276735e+01
  -4.337372e+01  -1.488621e+01
  -1.034331e+01  -4.031948e+01
   2.195040e+01   2.128645e+01
  -3.633289e+01  -2.907432e+01
  -7.030974e+01  -1.051586e+02
  -3.465733e+01  -1.187383e+02
   4.043689e+01  -2.805441e+01
   1.398510e+02   4.288906e+01
   1.469837e+02   4.106304e+01
   3.670595e+01   5.465250e+01
  -7.978918e+01   2.123186e+01
  -6.454304e+01  -3.081587e+01
  -1.643717e+01  -3.477847e+01
   8.039165e+00  -4.713593e+01
   2.462427e+01   6.907782e+00
  -1.939738e+01  -3.968809e+01
   1.196826e+01  -1.188216e+01
   8.206858e+01  -2.798975e+01
   1.038393e+02   5.860639e+01
  -7.747895e+00   4.801281e+01
  -1.278655e+02   1.100756e+02
  -1.940216e+02   2.274602e+01
  -1.641566e+02  -5.936068e+01
  -3.138278e+01  -1.354551e+02
   5.467585e+01  -1.364145e+02
   1.092669e+02  -5.049050e+01
   1.208429e+02   6.063541e+01
  -3.738256e+00   1.301148e+01
  -3.808671e+01   2.755400e+01
  -1.819931e+01   2.195310e+00
   1.889222e+01   4.756304e+01
   1.566544e+01   1.134653e+02
  -4.978486e+01   5.220562e+01
  -6.353243e+01  -5.023654e+01
  -6.035890e+01  -1.186790e+02
  -3.001717e+01  -1.120770e+02
   6.713584e+01  -3.210061e+01
   1.204187e+02   6.607411e+01
   2.888078e+01   8.630101e+01
  -8.381208e+01   8.479341e+01
  -8.367309e+01   6.258688e+00
  -1.755014e+01  -7.988271e+01
   4.784466e+01  -3.904635e+01
   6.386482e+01  -3.574230e+01
  -4.274977e+01   4.751043e+00
  -3.883538e+01   8.994107e+00
  -1.601268e+01  -1.999645e+01
   5.217301e+01  -2.019911e+01
   6.930121e+01  -2.891040e+01
   2.073121e+01   3.503665e+01
  -4.433396e+01   7.145318e+01
  -4.140002e+01   7.695231e+01
  -4.408817e+01  -1.328537e+01
  -4.637178e+00  -7.025566e+01
   2.557889e+01  -5.846081e+00
   2.127180e+01   1.379931e+01
  -1.966206e+00   5.662313e+01
   1.867190e+01  -8.076495e+00
  -5.365427e+01   4.077055e+00
  -1.417376e+01  -3.203287e+01
   1.808836e+01   2.339017e+00
  -1.134924e+00   1.088146e+01
   2.764683e+01  -1.151201e+01
   2.664106e+01  -3.881641e+01
   4.250280e+01  -5.744534e+01
   7.225178e+01  -1.971828e+00
   7.146550e+01   6.612673e+01
  -9.650374e-01   8.197261e+01
  -6.477668e+01  -1.127775e+01
  -5.453003e+01  -3.640500e+01
  -5.163107e+01  -6.637984e+01
   2.941234e+01  -5.122611e+01
   7.529836e+01   3.149736e+01
   5.595250e+01   6.523306e+01
   1.820977e+01   4.452968e+01
  -2.721300e+01   1.839387e+01
  -3.745849e+01  -3.217520e+01
   1.599338e+01   1.811189e+00
  -2.345173e+00  -3.432998e-01
  -2.464787e+01   4.918732e+01
  -1.182821e+02   1.005518e+01
