
 $NMID
 id='ANONYMOUS ', fmtdat='(2E16.6)'
 volume=1.0
 tramp=1.0
 $END
  -4.411804e+03  -5.037369e+01
  -2.672336e+03  -2.741275e+03
   1.043645e+03  -2.969277e+03
   2.332472e+03  -8.278611e+02
   9.339272e+02   7.114902e+02
  -7.790639e+02   6.595034e+02
  -7.959461e+02  -5.057527e+02
   2.305948e+01  -1.159370e+03
   1.027162e+03  -8.449567e+02
   8.347159e+02   2.054036e+02
   3.612997e+02   8.775013e+02
  -2.824386e+02   1.036700e+03
  -5.072993e+02   9.591334e+00
  -3.378352e+02  -9.165245e+02
   2.875777e+02  -7.731982e+02
   6.453441e+02   3.958675e+01
   1.576276e+02   7.914453e+02
  -3.617211e+02   8.984356e+02
  -6.571215e+02   9.483000e+00
  -2.450812e+02  -4.678305e+02
  -1.372457e+02  -4.964805e+02
   1.790886e+02  -1.530097e+02
   2.023473e+02  -5.428285e+01
  -2.167455e+02   1.086470e+02
  -3.851749e+02  -8.805895e+01
  -2.581051e+02  -5.479017e+02
   6.404495e+02  -3.626798e+02
   1.010215e+03   5.232244e+01
   3.782713e+02   5.078032e+02
  -4.202532e+02   5.496601e+02
  -7.662172e+02   2.689336e+01
  -4.391255e+02  -4.915282e+02
   2.358319e+02  -5.971311e+02
   6.552171e+02  -2.464995e+02
   4.498587e+02   2.475683e+02
  -1.804928e+01   5.307666e+02
  -1.885770e+02   2.736250e+02
  -1.587797e+02  -2.617860e+02
   1.379210e+02  -4.762639e+02
   5.340014e+02  -2.553751e+01
   2.690109e+02   6.993548e+02
  -3.184674e+02   8.093524e+02
  -6.088115e+02   7.154594e+01
  -2.831015e+02  -5.559587e+02
   3.734489e+02  -3.413420e+02
   4.394820e+02   3.775056e+02
  -9.799071e+01   6.248078e+02
  -6.234180e+02   2.017527e+02
  -6.130611e+02  -4.334230e+02
  -1.487219e+02  -6.466396e+02
   3.955767e+02  -3.650791e+02
   6.591057e+02   1.037715e+02
   3.736434e+02   4.491216e+02
  -1.652574e+02   4.229776e+02
  -4.625747e+02   2.792444e+01
  -2.848262e+02  -2.483292e+02
   6.685308e+01  -1.222021e+02
   1.100766e+02   1.759623e+02
  -1.699734e+02   1.936383e+02
  -3.381121e+02  -5.089160e+01
  -1.247144e+02  -2.639289e+02
   1.902788e+02  -2.423949e+02
   3.089859e+02  -6.051268e+01
   1.688311e+02   8.702930e+01
  -6.805989e+00   2.177991e+02
  -1.904974e+02   3.181152e+02
  -3.704410e+02   2.706964e+02
  -3.883767e+02  -9.581340e+01
  -1.162855e+02  -5.091827e+02
   1.757640e+02  -4.793080e+02
   2.056129e+02  -1.351796e+02
   7.505157e+01  -2.937173e-01
   5.804295e+00  -7.830355e+01
   1.714089e+02  -1.255042e+02
   3.026069e+02   6.064925e+01
   1.900731e+02   2.589450e+02
  -4.093819e+01   2.911821e+02
  -2.696703e+02   4.940969e+01
  -2.166138e+02  -2.235269e+02
   1.458753e+01  -3.073894e+02
   2.521053e+02  -1.332407e+02
   3.460572e+02   1.816149e+02
   2.198885e+02   3.834077e+02
  -3.759408e+01   3.448402e+02
  -2.318952e+02   1.492210e+02
  -1.511083e+02  -1.147235e+01
  -1.144720e+02   3.616140e+01
  -2.607151e+02   6.615251e+01
  -4.150686e+02  -4.697719e+01
  -2.880928e+02  -3.590313e+02
   4.811939e+01  -4.928825e+02
   3.571739e+02  -4.128243e+02
   4.729607e+02  -1.689586e+02
   3.351936e+02   7.818987e+01
   2.886740e+01   2.810855e+02
  -1.528499e+02   2.820122e+02
  -1.484647e+02   3.635755e+01
   1.093167e+02  -1.247353e+02
   2.374935e+02  -1.064893e+01
   8.417946e+01   1.732697e+02
  -1.849255e+02   1.493136e+02
  -2.271843e+02  -6.874602e+01
  -4.377028e+01  -2.178526e+02
   2.112181e+02  -5.943254e+01
   2.211739e+02   1.952193e+02
   3.679339e+01   3.190651e+02
  -1.601771e+02   1.817582e+02
  -2.891406e+02  -1.564901e+01
  -2.668810e+02  -2.074327e+02
  -1.271308e+02  -2.328816e+02
   8.967357e+01  -1.959869e+02
   1.990092e+02  -2.165882e+01
   7.780618e+01   5.920791e+01
  -4.818033e+01  -2.731009e+01
  -2.616188e+01  -1.526900e+02
   1.138775e+02  -1.315858e+02
   1.542185e+02   9.979780e+00
   9.526302e+01   8.347578e+01
  -3.426961e+01   6.501329e+01
  -2.487496e+01  -2.507802e+01
   1.217392e+02  -6.768881e+01
   2.564670e+02   2.910390e+01
   2.374113e+02   1.669904e+02
   6.269432e+01   2.361584e+02
  -1.941400e+02   2.640887e+02
  -2.638271e+02   1.860862e+02
  -2.018633e+02  -3.719105e+01
   3.522186e+01  -1.399248e+02
   1.224508e+02  -2.264593e+01
   1.745279e+01   1.170844e+02
  -2.556580e+02   6.990128e+01
  -2.842710e+02  -1.022922e+02
  -6.874819e+01  -2.473588e+02
   1.257183e+02  -1.469279e+02
   1.655580e+02  -5.591174e+01
   1.000442e+02   4.203349e+01
  -2.278786e+01   1.480407e+01
  -4.685274e+01  -8.358749e+01
   3.232585e+01  -8.798525e+01
   1.889075e+02  -1.315999e+01
   2.001568e+02   1.853794e+02
   3.774802e+01   2.143150e+02
  -1.991718e+02   1.578739e+02
  -2.196751e+02   6.818678e+00
  -1.118202e+02  -1.232282e+02
   6.246965e+01  -1.313705e+02
   1.060778e+02  -6.106846e+01
   2.534946e+01  -1.338176e+01
  -6.699254e+01  -1.499717e+01
  -1.458735e+00   8.792652e+00
   5.431137e+01   3.265129e+01
   4.973024e+01   1.625328e+01
   2.783487e+01   1.273784e+02
  -8.718756e+01   1.204164e+02
  -2.198602e+02   6.706983e+01
  -1.962303e+02  -1.064449e+02
  -3.884895e+01  -2.165876e+02
   1.104812e+02  -2.131772e+02
   1.628563e+02  -8.254377e+01
   6.120166e+01   4.023121e+01
   1.288087e+01   2.770484e+01
   7.197021e+01  -2.624209e+01
   8.511993e+01   2.676308e+01
   4.062703e+01   8.258369e+01
  -1.982851e+01   9.181057e+01
  -1.244643e+02   3.962653e+01
  -8.374736e+01   1.638040e+01
  -1.008459e+01  -8.058406e+01
   1.198373e+02  -7.404052e+01
   1.600324e+02   9.594494e+00
   9.167777e+01   1.771435e+02
  -1.370734e+02   2.103300e+02
  -2.926149e+02   9.094944e+01
  -2.646061e+02  -9.141946e+01
  -8.422317e+01  -1.883331e+02
   5.169790e+01  -1.895019e+02
   8.698248e+01  -1.068419e+02
   3.310000e+01  -1.086247e+02
   9.143427e+01  -8.815954e+01
   1.199137e+02  -6.801076e+01
   1.626892e+02   9.507490e+00
   1.437236e+02   1.230215e+02
   3.478295e+01   2.058507e+02
  -9.100193e+01   1.884215e+02
  -1.621003e+02   3.487500e+01
  -1.054119e+02  -1.029061e+02
  -2.147549e+01  -1.353303e+02
   5.776666e+01  -8.465425e+01
   4.725039e+01   8.509482e+00
   2.916411e+00   5.015203e+01
  -6.134887e+00   1.106619e+01
   4.321578e+01   1.943600e+01
   1.063565e+02   1.170963e+01
   6.261553e+01   7.409402e+01
  -6.982774e+01   3.689701e+01
  -1.570383e+02   1.268166e+01
  -1.632801e+02  -5.089663e+01
  -6.673653e+01  -8.469223e+01
   6.554221e+01  -8.916837e+01
   1.201734e+02  -5.409467e+01
   5.211544e+01   6.629685e+01
  -4.810604e+01   2.692764e+01
  -3.170320e+01  -2.705136e+01
   3.731725e+01  -9.780169e+01
   7.288344e+01  -6.630109e+01
   4.054166e+01   1.232671e+01
   1.928397e+01   7.065810e+01
   7.316626e+01   1.654131e+01
   5.822610e+01  -2.868702e+01
   5.748138e+01   1.681969e+01
   4.278845e+01   6.493602e+01
  -4.167304e+01   1.561067e+02
  -1.300464e+02   1.659075e+02
  -1.486955e+02   1.748203e+01
  -9.608334e+01  -1.010725e+02
   2.720709e+01  -1.262934e+02
   1.315158e+02  -6.225087e+01
   6.309493e+01   5.677244e+01
  -6.738087e+01   4.983838e+01
  -1.749315e+02  -3.932029e+01
  -7.178490e+01  -1.151222e+02
   1.046874e+02  -1.200559e+02
   1.788783e+02  -4.899885e+01
   1.667975e+02   3.575094e+01
   5.771605e+01   9.710457e+01
  -8.208224e+01   6.770588e+01
  -6.477851e+01   3.386357e+01
   4.802243e+01  -3.290833e+01
   1.038736e+02  -8.642557e+00
  -7.768925e+00   8.165342e+01
  -7.721530e+01   1.510199e+02
  -1.581082e+02   5.943986e+01
  -1.069598e+02  -8.556539e+01
   1.649502e+01  -2.213523e+02
   8.018080e+01  -1.461281e+02
   1.083596e+02   3.995374e+01
   8.499234e+01   1.475485e+02
  -8.848411e+00   9.378861e+01
  -4.000557e+01   1.218773e+01
  -5.401871e+01  -4.037311e+01
  -1.988816e+01   1.054008e+00
   7.947704e+00   1.606139e+01
   1.398943e+01  -1.043684e+01
  -5.731537e+01  -3.175403e+01
  -8.812872e+01  -1.255389e+02
   3.624416e+01  -9.111427e+01
   1.609339e+02   2.325853e+01
   1.432851e+02   6.209213e+01
   2.941403e+01   8.103523e+01
  -7.597872e+01   2.569797e+01
  -1.034485e+02   9.307155e+00
  -8.968287e+00   8.268958e+00
   6.088953e+01  -4.799999e+01
  -1.309709e+01   1.155807e+01
  -2.970092e+01   3.911430e-01
  -2.377871e+01   2.070774e+01
   5.736065e+01  -3.712172e+01
   6.093612e+01  -3.589402e+00
   1.585061e+01   5.623769e+01
  -1.119401e+02   7.618041e+01
  -1.604466e+02   5.782119e+01
  -1.004603e+02  -8.458163e+01
   1.686874e+01  -1.269048e+02
   9.966286e+01  -1.419397e+02
   1.140549e+02  -4.023353e+01
   5.574922e+01   7.559815e+01
   4.907865e+00   5.769215e+01
   1.965235e+01  -2.518831e+01
  -1.413217e+01   7.790702e+00
   5.103857e+01   7.888909e+01
   1.541939e+01   7.584388e+01
  -3.942985e+01   9.123182e+01
  -8.767220e+01  -2.276438e+01
  -8.474220e+01  -1.320960e+02
   3.124127e+01  -8.773090e+01
   8.311181e+01   6.047753e+00
   9.524755e+01   8.407132e+01
  -3.269447e+00   9.759740e+01
  -4.596080e+01   7.944142e+01
  -1.059982e+02   6.951019e+00
  -3.612400e+01  -2.773673e+01
   5.620267e+01  -5.288917e+00
   4.205076e+01  -2.385847e+01
  -4.532750e+01   2.744342e+01
  -5.618932e+01   4.280366e+01
  -1.984952e+00   4.195543e+00
   8.083577e+01  -6.350046e+01
   8.855896e+01  -8.595622e+01
   6.500422e+01   5.270142e+00
   6.115010e+00   7.504430e+01
  -3.579264e+01   6.650851e+01
  -1.479330e+01  -1.293321e+01
   3.174591e+01  -5.321130e+01
   6.367714e-01  -1.677684e+01
   3.411095e+01   3.862505e+01
   6.019829e+01   5.319612e+01
   1.395687e+00   1.878597e+01
  -4.313750e+01  -4.172028e+01
  -7.742581e+01  -2.583379e+01
  -2.910707e+01   1.813034e+00
  -3.137615e+01   2.533915e-01
   7.601209e+00  -2.047476e+01
   2.069029e+01  -1.052391e+02
   5.181870e+00  -1.144482e+02
   3.852076e+01  -4.282931e+01
   4.803391e+01   3.634299e+01
   1.708865e+01   2.078611e+01
  -3.517869e+00   1.754625e+00
  -1.263775e+01  -1.225083e+01
   6.711920e+00  -5.405491e+01
   3.379483e+01  -6.168213e+01
   6.080299e+01   3.047506e+01
   7.921870e+01   4.767939e+01
  -1.641711e+01   2.922569e+01
  -6.497358e+01   6.396765e+01
  -2.784972e+01   1.315285e+01
  -5.641785e+00  -5.839436e+00
   5.181112e+01   4.768982e+01
  -5.408873e+01   2.830502e+01
  -8.026569e+01   1.657959e+01
