
 $NMID
 id='ANONYMOUS ', fmtdat='(2E16.6)'
 volume=1.0
 tramp=1.0
 $END
   4.412178e+03  -2.399362e+01
   2.707187e+03   2.824967e+03
  -1.017528e+03   2.863515e+03
  -2.514351e+03   8.050026e+02
  -9.536699e+02  -8.336655e+02
   8.304994e+02  -5.785225e+02
   1.009341e+03   4.823767e+02
  -2.874122e+00   1.248961e+03
  -9.287810e+02   8.047535e+02
  -9.413181e+02  -2.789924e+02
  -5.778075e+02  -9.591971e+02
   2.622173e+02  -9.083699e+02
   8.445873e+02  -1.020211e+02
   2.274428e+02   1.028855e+03
  -2.984756e+02   6.491831e+02
  -6.401703e+02  -1.773835e+02
  -1.091940e+02  -5.634763e+02
   3.557304e+02  -6.663710e+02
   7.007348e+02   2.821527e+01
   4.471304e+02   3.231571e+02
  -6.156919e+01   4.468289e+02
  -2.300418e+02   2.417113e+02
  -1.362699e+02   6.932353e+01
   1.401125e+02  -2.357605e+01
   5.478749e+02   9.055391e+01
   3.447236e+02   4.197564e+02
  -3.906189e+02   4.751273e+02
  -8.250380e+02   3.703845e+01
  -4.895690e+02  -6.784290e+02
   3.839240e+02  -6.535595e+02
   7.944027e+02  -1.087178e+01
   3.449883e+02   5.195369e+02
  -3.303431e+02   6.018839e+02
  -6.295712e+02   2.216631e+02
  -4.688499e+02  -1.893334e+02
  -7.244376e+01  -4.227092e+02
   2.558228e+02  -2.780004e+02
   2.285816e+02   2.135395e+02
  -1.503707e+02   4.696658e+02
  -4.892115e+02   1.230706e+00
  -3.241980e+02  -7.601869e+02
   3.780189e+02  -8.128768e+02
   6.510022e+02  -8.738983e+01
   2.761330e+02   5.850878e+02
  -3.027909e+02   3.987828e+02
  -3.685457e+02  -2.966046e+02
   1.061560e+02  -5.347094e+02
   5.765218e+02  -2.128769e+02
   5.846277e+02   3.685783e+02
   1.722854e+02   5.497733e+02
  -3.757659e+02   3.635260e+02
  -5.980699e+02  -9.813980e+01
  -3.923407e+02  -3.849554e+02
   1.426428e+02  -3.880107e+02
   4.702097e+02  -4.633103e+01
   2.290524e+02   2.057822e+02
  -1.013574e+02   1.158832e+02
  -1.441678e+02  -2.096341e+02
   2.082391e+02  -2.261505e+02
   3.317662e+02   1.698688e+01
   1.529414e+02   2.731972e+02
  -2.286984e+02   2.501226e+02
  -2.956871e+02   9.395397e+01
  -1.546059e+02  -8.505161e+01
   5.549579e+01  -2.448536e+02
   2.279028e+02  -3.096053e+02
   3.181809e+02  -1.670975e+02
   2.783846e+02   1.851514e+02
   5.810994e+01   4.215025e+02
  -1.258206e+02   3.712213e+02
  -1.328404e+02   9.871162e+01
  -2.368458e+01  -2.321135e+01
  -1.302930e+01   8.442633e+01
  -1.284209e+02   1.596650e+02
  -2.875775e+02   1.672707e+01
  -2.015157e+02  -2.488680e+02
   3.796525e+00  -3.191612e+02
   2.088372e+02  -6.600158e+01
   1.934473e+02   2.200764e+02
   3.069182e+01   3.504894e+02
  -2.715214e+02   1.246768e+02
  -4.031872e+02  -2.230909e+02
  -2.093586e+02  -4.519055e+02
   1.329423e+02  -3.184113e+02
   2.858351e+02  -9.445008e+01
   2.411069e+02   4.961485e+01
   1.269500e+02  -1.649113e+01
   2.109308e+02  -6.509868e+01
   3.839057e+02   4.827752e+01
   3.816106e+02   2.457705e+02
   5.668003e+01   4.331915e+02
  -3.544071e+02   4.396307e+02
  -5.535531e+02   2.548701e+02
  -4.141412e+02  -7.885674e+01
  -3.155903e+01  -3.374750e+02
   1.606130e+02  -2.950023e+02
   1.222668e+02  -4.001559e+01
  -1.367775e+02   1.617566e+02
  -1.822334e+02  -5.773334e+00
  -3.532320e+01  -1.916284e+02
   1.777867e+02  -2.170671e+02
   1.619933e+02   6.040816e+01
   9.063493e+00   2.011563e+02
  -1.892587e+02   4.635631e+01
  -1.675887e+02  -2.178815e+02
   4.152163e+00  -3.734525e+02
   2.131537e+02  -2.216725e+02
   2.780777e+02   2.739601e+01
   2.749515e+02   2.873744e+02
   1.084269e+02   2.841709e+02
  -7.817276e+01   1.954342e+02
  -2.194780e+02  -5.911352e+00
  -9.751319e+01  -5.493783e+01
   2.513021e+01   2.099003e+01
   2.533976e+01   1.402202e+02
  -1.241225e+02   1.148794e+02
  -1.770406e+02  -2.412918e+01
  -3.190307e+01  -8.092534e+01
   1.025964e+02  -6.615897e+01
   9.533443e+01   1.926833e+01
  -7.042843e+01   8.060173e+01
  -2.481465e+02  -8.411477e+00
  -2.535056e+02  -1.245670e+02
  -5.076502e+01  -2.421622e+02
   1.684266e+02  -2.536609e+02
   2.667805e+02  -1.309714e+02
   1.243744e+02   6.900994e+01
  -3.492336e+01   1.016926e+02
  -9.835934e+01   4.618421e+01
   5.417068e+01  -9.052632e+01
   1.644956e+02  -6.376494e+01
   1.597820e+02   4.890833e+01
   2.283262e+01   2.073491e+02
  -1.126694e+02   1.022655e+02
  -1.482104e+02   9.762722e-01
  -5.352532e+01  -6.651585e+01
   3.466935e+01  -3.008863e+01
   4.948522e+01   8.256493e+01
  -7.671961e+01   8.425279e+01
  -1.823730e+02   1.469115e+01
  -1.975210e+02  -1.312899e+02
  -1.787282e+01  -2.113147e+02
   1.723941e+02  -1.711406e+02
   2.514749e+02  -1.735641e+01
   1.110327e+02   1.170869e+02
  -4.127612e+01   1.060691e+02
  -8.412696e+01   5.629006e+01
   9.177998e+00  -1.916121e+01
   2.432262e+01  -5.692139e+00
  -8.132882e+00   1.285094e+01
  -7.583805e+01   1.022230e+00
  -7.584625e+01  -9.905562e+01
  -2.209507e+01  -1.801649e+02
   9.346863e+01  -1.798764e+02
   2.299908e+02  -4.050513e+01
   1.752875e+02   1.478567e+02
   3.834069e+01   1.873227e+02
  -1.276646e+02   1.729172e+02
  -1.155613e+02   2.469835e+01
  -2.044279e+01  -6.323009e+01
  -5.259143e+01  -3.506040e+01
  -3.279648e+01   4.081654e+01
  -9.047553e+01   2.013574e+01
  -3.435764e+01  -2.486393e+01
   4.772298e+01  -7.883922e+01
   7.944929e+01  -8.831678e+01
   4.778530e+01   1.399512e+01
  -2.279922e+01   8.421473e+01
  -1.001856e+02   9.151720e+01
  -2.048664e+02  -2.257061e+01
  -9.787089e+01  -2.007698e+02
   8.749210e+01  -2.624333e+02
   2.595266e+02  -1.060574e+02
   2.938230e+02   7.149111e+01
   1.143372e+02   1.760236e+02
  -2.143128e+01   1.647500e+02
  -1.017567e+02   1.031502e+02
  -7.089962e+01   8.617647e+01
  -8.813045e+01   6.153943e+01
  -6.437741e+01   6.733410e+01
  -1.101084e+02  -1.627982e+01
  -9.992656e+01  -1.572976e+02
  -3.075249e+01  -2.105156e+02
   1.058676e+02  -1.771690e+02
   1.677288e+02  -1.886088e+01
   1.468903e+02   1.264636e+02
  -5.627458e-01   1.133036e+02
  -1.084974e+02   6.482014e+01
  -5.810958e+01  -2.445359e+01
   2.156966e+01  -7.773924e+01
   7.718850e+00  -6.742569e+01
  -8.933282e+00  -3.749603e+01
  -9.927161e+01   9.942159e-01
  -3.221623e+01  -4.342245e+01
   8.381130e+01  -7.200207e+01
   1.498113e+02  -2.338330e+01
   1.452274e+02   4.515327e+01
   3.577798e+01   9.886202e+01
  -1.333537e+02   7.270968e+01
  -1.449521e+02   1.961339e+00
  -7.163338e+01  -7.680211e+01
   6.394513e+01  -4.007253e+01
   6.817349e+01   6.100884e+01
   1.109417e+01   1.166612e+02
  -6.840300e+01   7.083101e+01
  -6.285726e+01   1.644556e+01
  -2.995337e+01  -2.527334e+01
  -4.374562e+00  -5.000875e+01
  -4.235615e+01  -3.455406e+01
  -6.300890e+01  -1.250470e+01
  -2.267906e+01  -6.533556e+01
   5.638250e+01  -2.025901e+02
   1.567738e+02  -1.803758e+02
   1.890028e+02  -1.496117e+01
   1.243290e+02   7.438789e+01
  -1.240745e+01   1.373757e+02
  -9.815889e+01   9.573450e+01
  -5.564870e+01   3.541714e+01
   3.403808e+01  -2.800338e+01
   1.314275e+02   7.574533e+01
   6.179196e+01   7.573602e+01
  -8.744674e+01   9.184841e+01
  -1.509873e+02   5.136973e+01
  -1.427942e+02  -2.225225e+01
  -3.509890e+01  -6.790094e+01
   4.683330e+01  -7.397661e+01
   3.014673e+01  -5.506960e+00
  -4.770642e+01   9.527469e+00
  -8.858313e+01  -3.342424e+01
  -2.942309e+00  -1.221257e+02
   1.177518e+02  -1.434410e+02
   1.749023e+02  -4.172602e+01
   1.242411e+02   1.015040e+02
   1.993315e+01   2.166333e+02
  -6.722303e+01   1.034900e+02
  -1.057411e+02   3.660755e+01
  -6.535385e+01  -7.782950e+01
  -1.785579e+00  -1.292423e+02
   5.672612e+01  -2.332833e+01
   4.546261e+01  -3.739870e+00
   5.499735e+00   2.906075e+01
  -1.311147e+01  -1.445001e+01
   1.204601e+01   2.189750e+01
   5.743538e+01   1.276522e+02
   8.192564e+01   8.182950e+01
  -5.279110e+01   4.901758e+01
  -1.632587e+02  -2.918488e+01
  -1.476311e+02  -8.742783e+01
  -7.169394e+00  -1.935699e+01
   9.795814e+01   2.654271e+01
   8.392367e+01   3.128685e+00
  -7.510384e+00   5.498435e+00
  -6.613213e+01   8.636703e+00
  -5.470790e+01   3.762982e+01
   5.033133e-02  -8.168655e+00
  -3.722579e+01  -4.330246e+00
  -6.711426e+01  -3.107159e+01
  -7.732159e+01  -4.821482e+01
  -1.905491e-01  -7.356137e+01
   9.812976e+01  -1.002363e+02
   2.032502e+02  -5.357121e+01
   1.302482e+02   9.051571e+01
   6.596695e+01   1.718247e+02
  -6.106830e+01   1.832695e+02
  -1.207506e+02   3.790802e+01
  -9.806202e+01   1.176665e+01
  -2.685737e+01  -2.291216e+01
  -1.701358e+01  -3.977002e-01
  -5.251813e+00  -2.066970e+01
  -1.617205e+01  -8.790888e+01
  -2.290095e+01  -7.194785e+01
   9.963146e+00  -7.595755e+01
   9.004604e+01   1.106159e+01
   9.292974e+01   8.988336e+01
   2.455458e+00   9.615044e+01
  -9.190089e+01   5.646249e+00
  -1.178730e+02  -6.521394e+01
  -6.083921e+00  -1.189620e+02
   8.472912e+01  -2.821235e+01
   1.040192e+02   2.335924e+00
   5.015380e+01   4.839539e+01
  -1.589106e+01   8.723983e+01
  -1.932983e+01   8.804063e+01
   3.598142e+01  -2.089840e+01
   4.929052e+01  -7.159841e+01
  -2.136875e+00   4.744599e+01
  -5.261305e+01   5.398669e+01
  -9.938105e+01   5.268022e+01
  -7.598117e+01  -2.737679e+01
  -9.163505e+00  -1.035559e+02
   1.196507e+02  -3.632972e+01
   5.951569e+01  -4.523123e+00
  -1.678632e+01   9.164340e+01
  -7.151120e+01   1.919928e+01
  -4.797185e+01  -1.380785e+01
  -4.628081e+01  -8.838350e+01
   2.280722e+01  -5.502183e+01
   3.606443e+01   8.302272e-02
   6.335433e+01   1.019548e+01
  -1.335220e+01   1.757638e+01
  -1.266583e+00  -7.803754e+00
  -2.647723e+01   2.524677e-01
   2.993482e+00   3.726192e+01
  -1.975520e+01   7.127485e+01
  -4.896213e+01   7.079270e+01
  -5.401376e+01  -3.410007e+01
   6.332637e+00  -5.816164e+01
   4.102590e+01  -5.317904e+01
   3.406183e+01   2.231062e+00
   1.620196e+01   9.090322e+01
  -7.054605e+01   2.480705e+01
  -9.440047e+01   8.780384e+00
  -5.449974e+01  -3.534342e+01
  -7.326302e-01  -4.311958e+01
   1.627754e+01   2.022066e+01
   2.732500e+01  -2.238344e+01
  -4.509996e+01   1.392684e+01
  -2.896220e+01  -1.502275e+01
   3.198467e+01  -3.613166e+01
   7.571382e+01  -3.167216e+01
