
 $NMID
 id='ANONYMOUS ', fmtdat='(2E16.6)'
 volume=1.0
 tramp=1.0
 $END
   4.723707e+03   1.355110e+01
   2.677951e+03   2.901381e+03
  -9.844886e+02   2.877755e+03
  -2.317380e+03   7.560446e+02
  -8.256973e+02  -8.158959e+02
   7.401482e+02  -5.908764e+02
   9.590308e+02   6.744689e+02
  -1.971995e+02   1.213425e+03
  -8.489588e+02   7.672230e+02
  -1.004756e+03  -9.184185e+01
  -3.401034e+02  -9.568858e+02
   4.634357e+02  -9.338612e+02
   6.932567e+02  -5.707334e+01
   3.254946e+02   7.021527e+02
  -2.491857e+02   7.566881e+02
  -7.811633e+02  -1.121579e+01
  -8.937576e+01  -8.644321e+02
   1.925854e+02  -7.285840e+02
   4.809678e+02   2.425708e+01
   4.412562e+02   5.771287e+02
  -3.837192e+01   4.145139e+02
  -3.220274e+02   2.661239e+02
  -1.837813e+02  -6.798988e+01
   1.046701e+01  -1.454644e+02
   5.175205e+02   2.403080e+01
   2.672305e+02   4.753240e+02
  -5.439609e+02   3.138111e+02
  -8.118710e+02  -9.294100e+01
  -4.804489e+02  -7.566039e+02
   4.204748e+02  -5.871699e+02
   7.276904e+02   3.319335e+01
   3.371494e+02   6.601218e+02
  -2.978453e+02   5.016698e+02
  -6.507500e+02   1.990755e+02
  -4.253918e+02  -2.714463e+02
  -5.257790e+01  -4.251387e+02
   3.475903e+02  -3.471991e+02
   2.631560e+02   2.386647e+02
  -1.203971e+02   5.125792e+02
  -4.946440e+02   6.878235e+01
  -3.578787e+02  -6.955500e+02
   3.675955e+02  -7.137490e+02
   6.743158e+02  -1.135639e+01
   3.279166e+02   6.123046e+02
  -3.266290e+02   3.342747e+02
  -4.783820e+02  -3.161843e+02
   7.199904e+00  -5.447142e+02
   6.051567e+02  -1.742864e+02
   6.305389e+02   3.640743e+02
   1.821939e+02   5.868255e+02
  -3.930439e+02   4.096328e+02
  -6.669030e+02  -4.632898e+01
  -3.761604e+02  -3.953701e+02
   1.760072e+02  -4.392639e+02
   4.641141e+02  -1.152627e+02
   3.031803e+02   1.839784e+02
  -7.162846e+01   1.066488e+02
  -1.190800e+02  -1.439032e+02
   1.649717e+02  -1.633607e+02
   3.463294e+02   1.396932e+02
   1.597441e+02   3.574835e+02
  -1.901058e+02   2.901994e+02
  -3.363742e+02   7.505784e+01
  -2.072301e+02  -1.059477e+02
  -2.763391e+00  -2.142449e+02
   1.536002e+02  -3.254596e+02
   3.201328e+02  -2.311938e+02
   3.430311e+02   1.252821e+02
   1.381857e+02   4.335003e+02
  -1.223370e+02   4.010758e+02
  -1.785139e+02   1.177368e+02
  -3.487285e+01  -2.029037e+01
  -5.951277e+00   9.658135e+01
  -2.072453e+02   1.387584e+02
  -2.888289e+02  -6.387628e+01
  -1.586504e+02  -3.162644e+02
   1.072344e+02  -2.968334e+02
   2.877151e+02   3.639513e+01
   1.989634e+02   2.346423e+02
  -5.032854e+01   3.175815e+02
  -2.832123e+02   1.347734e+02
  -3.782352e+02  -2.000560e+02
  -1.774186e+02  -4.187754e+02
   1.252980e+02  -3.070382e+02
   2.394374e+02  -8.985995e+01
   1.360447e+02   1.669822e+01
   6.437732e+01  -4.361781e+01
   2.435816e+02  -7.250411e+01
   4.178709e+02  -1.421925e+01
   3.452418e+02   2.893136e+02
  -3.961689e+01   4.565655e+02
  -3.068718e+02   4.110014e+02
  -5.065399e+02   1.813589e+02
  -3.987613e+02  -1.461131e+02
  -3.956142e+01  -3.304541e+02
   2.250021e+02  -2.683220e+02
   1.337709e+02  -1.983136e+01
  -8.669482e+01   1.674856e+02
  -2.497628e+02  -1.339942e+01
  -7.024743e+01  -2.607708e+02
   1.774717e+02  -2.251960e+02
   2.504781e+02   7.398928e+01
  -1.453864e+01   1.969081e+02
  -2.009829e+02   2.608091e+01
  -1.161963e+02  -2.323358e+02
   6.237453e+01  -3.499085e+02
   2.103701e+02  -2.152242e+02
   3.262511e+02   6.400233e+01
   2.769301e+02   2.939337e+02
   1.577597e+02   3.236233e+02
  -1.098777e+02   2.003119e+02
  -2.292971e+02   1.862407e+01
  -1.033874e+02  -5.738799e+01
   8.420053e+01   4.125999e+01
  -3.385724e+00   1.476825e+02
  -1.516378e+02   1.032433e+02
  -1.920193e+02  -3.772877e+01
  -6.735229e+01  -9.108747e+01
   6.797745e+01  -7.572205e+00
   5.988179e+01   8.005570e+01
  -1.351050e+02   8.943888e+01
  -2.536259e+02  -1.619120e+01
  -2.224294e+02  -1.203913e+02
  -7.597390e+01  -2.526748e+02
   1.655449e+02  -2.778102e+02
   3.256436e+02  -1.220538e+02
   2.111423e+02   9.920543e+01
  -3.605224e+01   1.401434e+02
  -1.575382e+02   6.356554e+01
   1.629519e+01  -1.054365e+02
   2.170156e+02  -7.201942e+01
   2.019032e+02   9.083394e+01
   7.175239e+01   2.250680e+02
  -8.285718e+01   1.916150e+02
  -1.251753e+02  -2.970541e+01
  -3.311686e+01  -4.759424e+01
   6.705329e+01  -3.084911e+01
   8.003346e+01   1.139167e+02
  -4.902449e+01   1.594227e+02
  -1.864564e+02   5.980902e+01
  -2.210852e+02  -1.198303e+02
  -3.521271e+01  -2.601575e+02
   1.625670e+02  -1.693323e+02
   2.060998e+02  -1.324636e+01
   6.778443e+01   1.514876e+02
  -7.658589e+01   8.040502e+01
  -1.046247e+02  -4.320568e+00
   2.554605e+01  -1.919278e+01
   4.349938e+01   1.229712e+01
  -1.899630e+00   3.329816e+01
  -4.207000e+01   1.932299e+01
  -1.510957e+02  -6.832921e+01
  -2.894123e+01  -1.465365e+02
   1.055495e+02  -1.501161e+02
   2.184707e+02  -4.309393e+01
   2.180281e+02   1.246112e+02
   5.705540e+01   2.044559e+02
  -7.780377e+01   1.700422e+02
  -1.343152e+02   1.429595e+01
  -5.513358e+01  -6.633725e+01
  -4.668333e+01  -2.728160e+01
  -5.278877e+01   1.275740e+01
  -6.151573e+01  -7.658008e+00
  -3.467204e+01  -3.948180e+01
   7.091731e+01  -6.059216e+01
   8.643151e+01  -7.973979e+01
   1.116988e+02  -1.932696e+01
   4.187918e+01   1.071068e+02
  -1.161761e+02   1.375938e+02
  -1.896454e+02  -2.383274e+01
  -1.451783e+02  -1.802369e+02
   5.476518e+01  -2.719742e+02
   2.376840e+02  -1.078801e+02
   2.858518e+02   3.996820e+01
   1.373316e+02   1.737561e+02
  -5.647719e+01   1.042826e+02
  -1.251215e+02   5.824328e+01
  -9.611884e+01   6.715553e+01
  -4.104825e+01   8.171931e+01
  -6.232639e+01   9.991292e+01
  -9.642728e+01  -3.223302e+01
  -1.408070e+02  -1.496301e+02
  -3.484205e+01  -1.970903e+02
   8.531617e+01  -1.644798e+02
   1.780287e+02  -1.272477e+01
   1.476384e+02   1.142378e+02
   4.270738e+01   2.019631e+02
  -4.884244e+01   1.193050e+02
  -7.705527e+01   2.339882e+00
  -3.943000e+01  -1.568794e+01
   1.486952e+01  -4.065290e+01
  -4.936947e+01  -1.018274e+01
  -1.109738e+02  -5.278032e+01
  -6.792351e+01  -2.631929e+01
   9.362311e+01  -4.260251e+01
   1.847396e+02   3.276469e+01
   1.338424e+02   5.967531e+01
   9.597164e+00   9.598860e+01
  -1.166280e+02   1.007126e+02
  -1.469500e+02   3.760502e+01
  -1.194609e+02  -3.241290e+01
   6.796171e+01  -4.706453e+01
   3.764865e+01   4.730377e+00
   3.072438e+01   3.222205e+01
  -4.159294e+01   3.674686e+01
  -5.232962e+01  -5.419130e+01
  -5.985635e+01  -5.999070e+01
  -5.462009e+01  -2.090324e+01
  -7.442199e+00   7.846883e+00
  -7.436270e+01  -3.627085e+00
  -2.127170e+01  -8.019953e+01
   1.277730e+01  -1.329551e+02
   1.162202e+02  -1.200011e+02
   1.642011e+02  -7.127823e+00
   1.301256e+02   8.906124e+01
   4.500981e+01   9.622351e+01
  -6.292345e+01   5.378134e+01
  -6.811933e+01  -1.197506e+01
   8.267729e+01   1.450508e+01
   1.614858e+02   2.921095e+01
   6.767772e+01   9.826536e+01
  -6.109485e+01   1.272905e+02
  -2.235000e+02   6.184862e+01
  -1.888355e+02  -6.465075e+01
  -7.211667e+01  -9.157375e+01
   4.003838e+01  -8.628357e+01
   4.967337e+01  -5.570866e+01
  -1.857677e+01   2.246536e+01
  -6.464427e+01  -3.722773e+01
  -1.867813e+01  -1.099110e+02
   9.232147e+01  -1.615889e+02
   1.400127e+02  -7.316664e+01
   1.183297e+02   9.076360e+01
  -1.348941e+01   2.001514e+02
  -1.065610e+02   1.266529e+02
  -7.106429e+01  -2.997939e+01
  -1.119470e+01  -1.372419e+02
   1.860205e+01  -6.310362e+01
   1.954904e+01  -2.040000e+01
   3.308723e+01   4.477139e+01
   2.702508e+01   4.194297e+01
   4.537263e+00  -2.674796e+01
   1.888080e+01   1.065670e+01
   4.374111e+01   5.930217e+01
   5.344554e+01   7.766949e+01
  -6.544865e+01   3.682925e+01
  -1.343526e+02  -4.649589e+01
  -1.372171e+02  -8.472273e+01
  -2.208553e+00  -7.391628e+01
   1.067206e+02  -2.758534e+01
   6.590380e+01   8.361675e+00
   2.814268e+01   3.671445e+01
  -1.349720e+01   1.264236e+01
  -1.834325e+01   2.742394e+01
   3.169877e+00   2.484610e+01
  -1.668623e+01   1.684784e+00
  -7.812459e+01   1.471047e+01
  -8.180900e+01  -3.320828e+01
  -1.531698e+00  -4.536805e+01
   1.142793e+02  -1.167610e+02
   1.745713e+02  -5.730241e+01
   2.254045e+02   6.046651e+01
   4.352321e+01   1.833546e+02
  -9.131306e+01   1.164919e+02
  -1.505415e+02   8.429237e+01
  -7.346948e+01  -6.094041e+00
  -3.205770e+00  -5.586351e+01
   5.012441e+01  -3.865992e+01
   3.489590e+01  -1.588065e+01
  -5.900339e+01  -3.833782e+01
  -1.694139e+01  -9.413735e+01
   9.883567e+00  -8.481021e+00
   6.457646e+01   2.870760e+01
   7.476544e+01   8.991397e+01
  -1.533497e+01   8.218622e+01
  -3.437043e+01   1.739515e+01
  -5.194891e+01  -4.371145e+01
  -3.374273e+01  -1.047895e+02
   9.908596e+01  -2.812430e+01
   1.008024e+02   3.673025e+01
   6.859368e+00   5.140573e+01
  -7.812006e+01   1.749102e+01
  -4.615535e+01   3.061079e+00
   8.769052e+01  -2.778190e+01
   6.583700e+01  -8.344009e+00
  -2.653992e+01   1.976976e+01
  -8.132337e+01   6.085776e+01
  -1.296142e+02   5.444577e+01
  -6.322052e+01  -5.249523e+01
   4.518316e+01  -8.444206e+01
   5.847893e+01  -1.148835e+02
   4.521848e+01  -3.729347e+00
   3.684059e+01   6.241622e+01
  -1.878731e+01   4.620782e+01
  -3.539653e+01  -5.186902e+01
  -6.075670e+01  -5.376527e+01
   2.952027e+01  -3.309193e+01
   3.276989e+01  -3.318838e+01
   4.732694e+01  -2.660327e+01
   2.791728e+01   1.538814e+01
   1.646361e+00  -3.019784e+01
  -1.244478e+01  -2.722068e+01
   1.400853e+01   3.812268e+01
   1.655631e+01   4.298211e+01
  -4.400822e+01   4.052540e+01
  -2.200189e+01  -2.260647e+01
   8.654042e+00  -2.707254e+01
   6.429505e+01  -2.841114e+01
   3.301609e+01   3.450978e+01
   9.866726e+00   8.036692e+01
  -4.538912e+01   4.137228e+01
  -6.194670e+01   1.844325e+00
  -7.228186e+01  -5.004660e+01
   1.570124e+01  -4.543286e+01
   9.818122e+01  -3.858483e+01
   8.083873e+01   6.704636e-01
  -6.375619e+01  -2.689697e+01
  -4.912298e+01  -3.040322e+01
   3.997567e+01  -1.476226e+00
   7.266710e+01  -1.357975e+01
