
 $NMID
 id='ANONYMOUS ', fmtdat='(2E16.6)'
 volume=1.0
 tramp=1.0
 $END
  -4.307309e+03  -2.368877e+02
  -2.615631e+03  -2.520507e+03
   8.526249e+02  -2.805623e+03
   2.240247e+03  -7.939498e+02
   9.144105e+02   8.472842e+02
  -7.682151e+02   5.952747e+02
  -8.810085e+02  -5.380683e+02
   1.175780e+01  -1.105210e+03
   8.658569e+02  -7.857372e+02
   9.226621e+02   1.588730e+02
   3.245393e+02   9.132579e+02
  -1.053977e+02   7.773125e+02
  -9.081346e+02   9.186679e+01
  -4.125893e+02  -6.455625e+02
   2.971972e+02  -7.681409e+02
   5.641810e+02   2.715474e+02
   1.465527e+02   7.115291e+02
  -8.419842e+01   6.849089e+02
  -5.863270e+02  -1.658481e+01
  -3.125894e+02  -2.678255e+02
  -1.028142e+02  -4.002732e+02
   7.845577e+01  -2.406405e+02
   2.412836e+02  -2.531680e+01
  -1.450840e+02   1.318993e+02
  -5.478651e+02  -6.422115e+01
  -3.398940e+02  -3.508886e+02
   5.941777e+02  -4.619669e+02
   7.870782e+02   8.442534e+01
   3.903508e+02   5.889220e+02
  -3.935724e+02   5.595792e+02
  -7.643576e+02  -1.834042e+02
  -4.487567e+02  -4.347060e+02
   2.269067e+02  -6.068805e+02
   5.695050e+02  -4.848560e+01
   5.008128e+02   1.723382e+02
   6.422907e+01   4.877558e+02
  -2.558768e+02   2.892083e+02
  -1.695306e+02  -1.727789e+02
   1.070629e+02  -4.784399e+02
   3.805105e+02   7.975219e+00
   2.070198e+02   7.463985e+02
  -3.018816e+02   7.245025e+02
  -6.729338e+02  -9.947123e+00
  -2.879417e+02  -6.276526e+02
   3.015017e+02  -3.628078e+02
   3.948606e+02   3.503219e+02
  -4.452066e+01   5.632145e+02
  -5.953734e+02   1.613253e+02
  -6.688813e+02  -4.565795e+02
  -1.923529e+02  -6.294325e+02
   4.064171e+02  -3.979492e+02
   6.657875e+02   4.917936e+01
   3.973968e+02   3.613129e+02
  -1.280407e+02   3.862686e+02
  -4.154268e+02   6.366689e+01
  -2.088097e+02  -2.057861e+02
   1.229746e+02  -1.585418e+02
   1.154690e+02   1.630862e+02
  -1.688328e+02   1.778117e+02
  -3.680365e+02  -8.959643e+01
  -1.237882e+02  -3.145183e+02
   2.504560e+02  -2.706088e+02
   3.711724e+02  -1.909249e+01
   1.812545e+02   9.761633e+01
  -1.949484e+01   2.105914e+02
  -1.958520e+02   3.198443e+02
  -3.086983e+02   2.612867e+02
  -2.828207e+02  -5.517212e+01
  -1.009864e+02  -4.227609e+02
   1.101215e+02  -3.654076e+02
   1.418448e+02  -8.980564e+01
   5.656047e+01   1.081413e+02
   9.442936e+00  -9.481196e+01
   1.529102e+02  -2.108728e+02
   2.616307e+02   6.192625e+01
   1.458966e+02   3.007146e+02
  -1.380735e+02   3.081570e+02
  -3.100825e+02   5.179649e-01
  -2.226599e+02  -2.721143e+02
   4.709642e+01  -3.331314e+02
   2.963035e+02  -1.521407e+02
   3.846344e+02   1.475927e+02
   1.772552e+02   3.281997e+02
  -1.161809e+02   3.026998e+02
  -2.619353e+02   8.423337e+01
  -1.267017e+02  -2.032669e+01
  -4.340967e+01  -4.060103e+00
  -1.668636e+02   3.866682e+01
  -3.360451e+02  -5.315808e+01
  -2.790551e+02  -2.989710e+02
  -1.673415e+01  -4.439014e+02
   3.380726e+02  -4.161266e+02
   4.494478e+02  -1.949666e+02
   3.741039e+02   8.109412e+01
   6.735057e+01   3.352720e+02
  -1.449749e+02   2.705918e+02
  -1.081064e+02   1.070411e+01
   1.087887e+02  -1.202531e+02
   2.146735e+02  -8.281410e+00
   4.724645e+01   2.049555e+02
  -1.911283e+02   1.729375e+02
  -2.029850e+02  -5.409910e+01
  -1.183157e+01  -1.762216e+02
   1.729159e+02  -2.108110e+01
   1.204324e+02   2.242329e+02
  -2.381480e+01   3.167223e+02
  -2.556972e+02   1.921223e+02
  -3.445514e+02  -6.290754e+01
  -2.758626e+02  -2.151710e+02
  -6.395492e+01  -2.518257e+02
   1.391581e+02  -1.990637e+02
   1.592196e+02  -6.408309e+01
   3.983372e+01   3.811106e+01
  -6.399953e+01  -2.749861e+01
   1.399463e+01  -1.068193e+02
   1.700109e+02  -9.428846e+01
   1.794057e+02   2.407208e+01
   6.018279e+01   1.192045e+02
  -7.369419e+01   6.188627e+01
  -5.685302e+01  -4.891266e+01
   1.225525e+02  -6.474692e+01
   2.753450e+02   8.415995e-01
   2.258031e+02   1.429241e+02
   6.042276e+01   2.364781e+02
  -1.663395e+02   2.451652e+02
  -2.706024e+02   7.727242e+01
  -1.575364e+02  -1.113203e+02
   2.930362e+01  -1.224105e+02
   1.090134e+02   4.467256e+01
  -2.087987e+01   1.241004e+02
  -1.661074e+02   3.099849e+01
  -1.905899e+02  -1.367517e+02
  -7.608793e+01  -1.856568e+02
   1.178489e+02  -1.485959e+02
   1.301682e+02  -7.244402e+00
   8.463575e+01   3.980818e+01
  -4.153973e+01  -2.445237e+01
  -4.140157e+01  -1.146343e+02
   3.420410e+01  -1.333535e+02
   2.263255e+02  -4.145129e+01
   1.819276e+02   1.315390e+02
   1.882949e+00   2.396092e+02
  -1.913264e+02   1.747935e+02
  -2.365787e+02  -5.308484e+00
  -1.321093e+02  -1.211411e+02
   2.529723e+01  -1.968369e+02
   1.134348e+02  -5.701010e+01
   4.016859e+01  -2.444693e+00
  -1.725404e+01  -3.719365e+01
   2.819897e+01  -1.263468e+01
   8.409733e+01  -2.454970e+01
   7.987051e+01   5.363405e+01
   2.359598e+01   1.565222e+02
  -9.880652e+01   1.642666e+02
  -2.058864e+02  -1.229957e+01
  -1.995756e+02  -1.128149e+02
  -7.494945e+01  -2.417889e+02
   8.989102e+01  -1.546952e+02
   1.295736e+02  -3.434513e+01
   6.074550e+01   5.282549e+01
   6.017050e+01   1.180455e+01
   8.523650e+01   2.404490e+01
   5.041693e+01   3.665147e+01
   2.613455e+01   1.728481e+01
  -4.889794e+01   6.193523e+01
  -9.399297e+01   4.124301e+01
  -7.659252e+01  -6.713894e+01
   2.693785e+01  -1.306008e+02
   1.608979e+02  -9.020530e+01
   2.043270e+02   3.622132e+01
   1.111170e+02   1.870541e+02
  -4.067073e+01   2.074112e+02
  -2.271134e+02   9.586030e+01
  -2.314373e+02  -9.743609e+01
  -9.599917e+01  -1.775835e+02
   4.956380e+01  -1.518419e+02
   1.318208e+02  -5.563314e+01
   1.491631e+02  -7.469453e+01
   3.026037e+01  -9.130472e+01
   8.043747e+01  -6.064567e+01
   1.373942e+02  -4.505298e+00
   1.167659e+02   1.820371e+02
   2.882484e+01   2.286574e+02
  -1.023539e+02   1.664183e+02
  -1.692577e+02   7.157504e+01
  -1.612194e+02  -9.940391e+01
  -8.180127e+01  -1.714970e+02
   4.360349e+01  -1.143176e+02
   2.426163e+01  -4.094832e+00
  -2.581044e+00   4.197878e+01
   7.628343e-02   2.032335e+01
   6.480420e+01   1.694202e+01
   6.921288e+01   7.472833e+00
   7.059745e+01   3.970937e+01
  -5.888971e+01   3.794273e+01
  -1.620026e+02   3.321483e+01
  -1.287467e+02  -5.637034e+01
   2.816898e+00  -7.523746e+01
   1.494002e+02  -6.771060e+01
   1.455958e+02  -1.752728e+01
   7.296678e+01   5.718177e+01
  -3.535718e+01   1.503774e+01
  -7.166321e+01  -1.559078e+01
  -9.201241e+00  -8.334493e+01
   4.312124e+01  -2.683932e+01
   7.846269e+01   1.566958e+01
   7.567431e+01   2.764046e+01
   4.950001e+01   5.751703e+00
   6.312347e+01  -3.135284e+01
   6.803536e+01   4.208286e+01
   1.062646e+01   9.543608e+01
  -2.536916e+01   1.652047e+02
  -1.157510e+02   1.108249e+02
  -2.008840e+02   4.155106e+01
  -1.114240e+02  -1.024536e+02
   2.588538e+01  -1.455023e+02
   1.040322e+02  -6.288214e+01
   8.452838e+01  -4.363563e+00
  -6.973946e+01   2.662369e+01
  -1.334194e+02  -2.725610e+01
  -6.318444e+01  -8.918559e+01
   1.107788e+02  -1.336006e+02
   1.882397e+02  -8.737264e+01
   1.494841e+02   3.448177e+01
   4.038465e+01   8.725366e+01
  -6.707187e+01   6.971240e+01
  -5.708446e+01  -2.533312e+01
   5.944513e+01  -6.060433e+01
   1.184689e+02   1.337153e+00
   4.023450e+01   8.748525e+01
  -8.142774e+01   1.218270e+02
  -1.236267e+02   6.751972e+01
  -1.328678e+02  -7.141751e+01
  -4.492463e+01  -1.639693e+02
   5.896669e+01  -1.276856e+02
   7.724945e+01  -3.974679e+00
   7.596905e+01   1.048598e+02
   1.786367e-01   1.277462e+02
  -3.546880e+01   2.114549e+01
  -5.866240e+01  -3.323802e+01
  -4.638508e+00   5.318238e+01
   1.302219e+01   7.270522e+01
  -3.553225e+01   3.350616e+00
  -6.529381e+01  -6.971263e+01
  -2.688002e+01  -1.190524e+02
   3.582056e+01  -4.493745e+01
   1.143338e+02   3.518700e+01
   9.552710e+01   1.104810e+02
   1.665535e+01   5.965586e+01
  -6.838115e+01   5.376617e+01
  -8.161456e+01   2.593320e+01
  -1.770153e+01  -5.349993e+01
   4.427558e+01  -4.802417e+01
  -3.244487e+01  -1.214096e+01
  -4.189855e+01  -4.486157e+01
   2.041718e+01  -6.028358e-01
   9.439596e+01  -2.342057e+01
   8.827497e+01   1.637142e+01
   1.003025e+01   6.983563e+01
  -1.009674e+02   8.659474e+01
  -1.804394e+02   6.041297e+01
  -1.210235e+02  -7.040682e+01
  -5.415318e+01  -1.123843e+02
   4.836283e+01  -8.778404e+01
   1.109735e+02  -7.920101e+01
   1.141803e+02   2.815735e+01
   1.097003e+01   2.815218e+01
   3.991526e+00  -6.344280e+00
   2.520351e+01   5.893731e+00
   1.010137e+01   4.206726e+01
   1.373850e+01   9.176661e+01
  -2.468138e+01   9.088563e+01
  -8.912368e+01  -6.373869e-01
  -2.901932e+01  -8.338879e+01
  -1.398670e+01  -1.015744e+02
   7.118960e+01   3.150114e+01
   3.376838e+01   6.282158e+01
   1.073574e+00   1.137322e+02
  -7.622554e+01   2.408869e+01
  -1.005180e+02  -3.020982e+01
  -2.981264e+01  -5.626016e+01
   1.791569e+01  -1.134017e+02
   2.277575e+01  -3.190919e+01
  -9.011363e+00  -3.012001e+01
  -1.636800e+01  -8.882944e+00
   2.196439e+01  -1.717325e+01
   9.080141e+01  -3.734759e+01
   1.071810e+02   9.321835e+00
   9.085692e+01   1.481863e+01
  -5.858564e+01   8.279048e+01
  -8.113222e+00   7.507224e+01
  -4.884328e+01  -1.703521e+01
   3.053994e+00  -3.390482e+01
   5.067425e+00  -2.645645e+01
   2.755331e+01   1.573534e+01
   8.118829e+01   2.439923e+01
  -2.793184e+01   5.473510e+01
  -4.479264e+01  -2.679201e+01
  -6.227597e+01  -5.369155e+01
  -2.556768e+01   1.385715e+01
   1.722043e+01   2.962459e+01
  -2.782100e+01   3.078538e+01
   2.180084e+01  -4.655891e+01
  -5.575158e+00  -7.115673e+01
   5.050863e+01  -1.934413e+00
   8.895083e+00   2.174755e+01
  -4.561992e+01   4.725917e+01
  -4.898355e+01   3.547406e+01
  -4.191409e+01  -7.086805e+01
  -2.210890e+01  -5.420672e+01
   7.128257e+01  -6.375034e+01
   8.585181e+01  -1.498557e+01
   6.997809e+01   4.285519e+01
  -2.156026e+01   2.964636e+01
  -2.884370e+01   2.690530e+01
  -1.489146e+00   7.218702e+00
   3.361870e+01  -2.564041e+00
   1.986079e+01   3.025222e+01
  -4.071630e+01   2.032760e+01
  -9.518775e+01   2.797279e+00
