
 $NMID
 id='ANONYMOUS ', fmtdat='(2E16.6)'
 volume=1.0
 tramp=1.0
 $END
   4.661742e+03  -9.856384e+01
   2.652358e+03   2.923568e+03
  -9.573795e+02   3.224591e+03
  -2.435601e+03   6.858450e+02
  -1.068708e+03  -9.245820e+02
   8.499939e+02  -7.137226e+02
   1.038193e+03   6.440814e+02
   4.612366e+01   1.174011e+03
  -1.156680e+03   7.884849e+02
  -1.056490e+03  -1.965986e+02
  -5.948122e+02  -9.263596e+02
   3.247915e+02  -9.644181e+02
   7.201698e+02  -1.268238e+02
   3.641730e+02   8.780517e+02
  -2.531801e+02   5.693057e+02
  -7.771631e+02  -6.920670e+01
  -3.950697e+02  -5.908871e+02
   5.485302e+02  -7.270438e+02
   4.285530e+02   1.018735e+02
   3.242682e+02   5.035319e+02
   2.436420e+01   4.994673e+02
  -4.331752e+02   2.335588e+02
  -2.904881e+02   1.030382e+02
  -4.144088e+01  -4.103789e+01
   6.301791e+02   1.158300e+02
   9.082264e+01   4.175394e+02
  -5.681618e+02   3.089236e+02
  -9.815943e+02  -4.831876e+01
  -5.807515e+02  -6.257954e+02
   3.860997e+02  -6.959803e+02
   8.258274e+02  -1.532975e+01
   2.587850e+02   6.596149e+02
  -3.956316e+02   5.636347e+02
  -5.786999e+02   2.585910e+02
  -4.797387e+02  -1.789319e+02
  -9.345063e+01  -4.719885e+02
   2.121632e+02  -2.723735e+02
   1.429155e+02   3.309460e+02
  -2.665838e+02   4.418240e+02
  -4.335857e+02  -4.385368e+01
  -3.130048e+02  -7.605977e+02
   3.813459e+02  -7.363623e+02
   6.524314e+02   3.225745e+01
   2.931879e+02   6.089324e+02
  -3.527960e+02   3.802934e+02
  -4.761789e+02  -3.205106e+02
   9.755660e+01  -5.958722e+02
   5.337699e+02  -2.030219e+02
   5.919253e+02   4.391697e+02
   1.705854e+02   6.303433e+02
  -3.869788e+02   3.594999e+02
  -6.705628e+02  -1.124024e+02
  -4.030492e+02  -4.494956e+02
   1.594876e+02  -3.957764e+02
   5.066551e+02  -9.873492e+01
   2.607988e+02   1.979355e+02
  -1.246308e+02   1.091108e+02
  -1.645305e+02  -2.030536e+02
   2.014068e+02  -2.443927e+02
   4.132732e+02   5.224372e+01
   1.603889e+02   3.274372e+02
  -1.832437e+02   2.948173e+02
  -3.127709e+02   3.326251e+01
  -1.932280e+02  -1.311089e+02
   5.902680e+01  -2.570816e+02
   2.287079e+02  -3.397958e+02
   3.616825e+02  -2.124029e+02
   2.976948e+02   1.745788e+02
   1.004559e+02   4.662908e+02
  -6.417158e+01   4.311929e+02
  -9.711574e+01   1.488252e+02
  -7.649190e-01   1.935678e+01
  -5.791836e+01   1.280336e+02
  -2.281386e+02   1.374854e+02
  -2.772166e+02  -3.786865e+01
  -1.785333e+02  -2.853135e+02
   8.179079e+01  -2.744279e+02
   2.416779e+02  -4.075481e+01
   2.303855e+02   2.364619e+02
  -2.069361e+00   3.155567e+02
  -2.338361e+02   1.479600e+02
  -3.857783e+02  -1.793111e+02
  -2.436838e+02  -3.409041e+02
   1.057117e+02  -3.004965e+02
   2.609291e+02  -1.316836e+02
   1.318261e+02  -8.819838e+00
   1.092448e+02  -3.627789e+01
   2.120690e+02  -6.375792e+01
   4.181217e+02   4.822248e+01
   2.905527e+02   3.260556e+02
  -2.258621e+01   4.592075e+02
  -3.578788e+02   4.429186e+02
  -4.355330e+02   2.064520e+02
  -3.314341e+02  -9.847228e+01
  -4.869903e+01  -2.924757e+02
   1.299078e+02  -2.158312e+02
   9.167138e+01  -2.596588e+01
  -1.171232e+02   9.244260e+01
  -2.040862e+02  -3.446796e+01
  -5.051614e+01  -2.125747e+02
   1.194096e+02  -1.768366e+02
   1.685573e+02   7.312356e+01
  -4.225446e+01   2.054079e+02
  -1.637942e+02   1.543033e+01
  -1.166607e+02  -2.823471e+02
   3.534712e+01  -3.807171e+02
   2.464686e+02  -2.153716e+02
   3.855624e+02   5.010930e+01
   3.363322e+02   2.250993e+02
   1.423382e+02   3.087315e+02
  -9.289134e+01   2.262413e+02
  -2.319622e+02   7.539499e+01
  -1.115906e+02  -2.228374e+00
   3.835474e+01   7.250218e+01
   2.105876e+01   1.302042e+02
  -1.344237e+02   1.378412e+02
  -1.512874e+02  -4.113796e+00
  -5.102071e+01  -1.298372e+02
   7.291730e+01  -5.353870e+01
   7.689961e+01   6.565904e+01
  -8.544132e+01   4.648520e+01
  -2.709336e+02   1.472475e+01
  -2.727739e+02  -1.112990e+02
  -8.199497e+01  -2.631626e+02
   1.259593e+02  -3.054628e+02
   2.873136e+02  -1.570527e+02
   1.866764e+02   9.514528e+01
  -3.145838e+01   1.530090e+02
  -1.001069e+02  -1.486978e+00
   2.982821e+01  -1.141435e+02
   1.770252e+02  -9.536128e+01
   1.861736e+02   1.108450e+02
   7.046422e+01   1.988220e+02
  -4.394218e+01   1.588631e+02
  -7.904123e+01   4.362324e+01
  -7.729007e+01  -3.250926e+01
  -2.022474e+01   2.178816e+01
   4.038818e+00   8.751011e+01
  -9.663950e+01   8.645454e+01
  -2.226220e+02   3.284771e+01
  -2.004856e+02  -1.351852e+02
  -3.141852e+01  -2.361895e+02
   1.714447e+02  -1.890216e+02
   2.384150e+02  -4.668981e+01
   6.254702e+01   1.199343e+02
  -8.839393e+01   8.441674e+01
  -8.794805e+01   3.348571e+01
   1.425567e+00  -4.734997e+01
  -1.254483e+01   1.202839e+01
  -3.930338e+01   2.925360e+01
  -7.251696e+01  -2.006192e+01
  -7.469601e+01  -1.134541e+02
  -3.557827e+00  -1.809024e+02
   1.172568e+02  -1.529212e+02
   2.461591e+02  -1.865685e+00
   2.030327e+02   1.299940e+02
   8.354036e+01   2.698965e+02
  -1.202023e+02   1.829284e+02
  -1.323479e+02   5.163397e+00
  -7.010465e+01  -2.727822e+01
  -1.045372e+01  -3.515737e+01
  -7.698274e+01   2.043454e+01
  -8.067230e+01  -2.932194e+01
  -4.414252e+01  -5.598342e+01
   7.392784e+01  -1.361633e+02
   1.201943e+02  -3.718031e+01
   5.158333e+01   3.960922e+01
  -5.866439e+01   1.063287e+02
  -7.851593e+01   7.857980e+01
  -1.572091e+02  -4.798258e+01
  -9.197723e+01  -2.152214e+02
   8.120627e+01  -2.049965e+02
   2.550715e+02  -1.033586e+02
   2.581625e+02   9.798826e+01
   1.143409e+02   1.655195e+02
  -1.657367e+01   1.589959e+02
  -1.455720e+02   9.833869e+01
  -9.760600e+01   5.854008e+01
  -6.508667e+01   1.098484e+02
  -5.612583e+01   4.091716e+01
  -8.726555e+01  -5.631459e+01
  -9.554114e+01  -1.595447e+02
   1.755349e+01  -2.291645e+02
   6.532416e+01  -1.055084e+02
   1.529358e+02  -1.066908e+01
   1.417412e+02   1.143173e+02
   1.656563e+01   1.602353e+02
  -7.338904e+01   1.381805e+02
  -7.009595e+01   2.338089e+01
   1.670130e+00  -2.882555e+01
   2.213312e+00  -6.827204e+01
  -7.067203e+01  -1.035855e+01
  -7.519511e+01  -5.040396e+01
  -2.760790e+01  -3.370083e+01
   5.933311e+01  -3.726045e+01
   1.603721e+02   1.647536e+01
   1.158192e+02  -9.569941e+00
   1.758182e+01   9.625144e+01
  -1.065709e+02   7.728840e+01
  -9.888924e+01   1.344601e+01
  -2.827209e+01  -7.242535e+01
   9.612749e+01  -1.243054e+01
   1.010196e+02   7.080272e+00
   4.432776e+01   7.124670e+01
  -6.042938e+01   8.566659e+01
  -7.958198e+01  -4.822468e+00
  -4.877595e+01  -4.062380e+01
  -7.194371e+01  -4.805327e+01
  -8.473317e+01   1.465291e+00
  -3.914897e+01  -3.307035e+01
  -1.951543e+01  -9.365249e+01
   4.613110e+01  -1.968853e+02
   1.105116e+02  -1.494230e+02
   1.338438e+02  -8.158189e+00
   9.693202e+01   1.297714e+02
   3.979721e+01   1.727341e+02
  -1.096381e+02   8.041765e+01
  -1.055987e+02  -1.904920e+01
   3.411155e+01  -1.483901e+01
   1.227839e+02   3.665757e+01
   4.519126e+01   7.590042e+01
  -6.880403e+01   1.038677e+02
  -1.841098e+02   1.026705e+02
  -1.917872e+02  -8.238834e-01
  -3.077600e+01  -9.423777e+01
   1.039611e+02  -7.586078e+01
   4.599637e+01  -8.421125e+00
  -3.557657e+01   3.812699e+00
  -7.805279e+01   7.179912e+00
   1.254789e+00  -1.540891e+02
   6.788952e+01  -1.671399e+02
   1.772269e+02  -6.434050e+01
   1.225006e+02   1.360744e+02
   1.657179e+01   2.024515e+02
  -5.859303e+01   1.582959e+02
  -1.188720e+02  -1.091439e+01
  -3.788169e+01  -1.289369e+02
   3.941741e+00  -1.199135e+02
   4.856287e+01  -2.490148e+01
   7.956276e+01   4.897648e+01
   2.718000e+01   4.810568e+01
  -4.353375e+01  -2.164845e+01
  -9.186172e+00   1.081926e+01
   6.853742e+01   5.833362e+01
   4.222233e+01   1.014703e+02
  -5.969379e+01   3.560826e+01
  -1.436870e+02  -7.163171e+01
  -1.866706e+02  -1.300521e+02
  -6.582058e+00  -6.749056e+01
   1.296764e+02  -5.010728e+01
   1.322170e+02  -5.956415e+00
   5.127504e+01   4.515816e+00
  -2.364429e+01   8.260134e+01
  -5.593255e+01   2.559166e+01
  -4.122584e+01   2.479144e+01
  -1.995490e+00  -3.172044e+01
  -5.742715e+01  -4.380610e+00
  -9.356238e+01  -6.231684e+00
  -8.471456e+00  -8.097325e+01
   1.157961e+02  -8.701138e+01
   2.075931e+02  -8.511659e+01
   1.038106e+02   9.214881e+01
   2.619788e+01   1.798845e+02
  -9.073151e+01   1.143142e+02
  -9.523558e+01   6.698829e+01
  -6.209222e+01  -1.689798e+01
  -2.287942e+01  -4.808328e+01
   2.474155e+01  -4.086749e+01
  -2.138201e-02   3.129795e+01
  -3.034245e+01  -8.189515e-01
  -6.878507e+01  -8.557872e+01
   2.617456e+01  -7.950824e+01
   8.097927e+01  -3.686920e+01
   6.745723e+01   1.446565e+02
   3.440835e+00   1.052324e+02
  -1.043524e+02   1.556889e+01
  -1.024947e+02  -7.142879e+01
  -1.913250e+01  -1.453554e+02
   8.554363e+01  -7.078896e+01
   1.004561e+02   3.860215e+00
   6.531746e+01   8.987258e+01
  -5.809136e+01   4.490111e+01
  -1.435211e+01   1.956622e+01
  -2.624975e+01   2.244485e+01
   4.422772e+01   5.664605e+00
   4.036370e+01   2.001787e+00
  -1.011586e+02   4.064680e+01
  -1.072056e+02   5.368048e+01
  -6.866916e+01  -1.208006e+00
  -3.465135e+00  -7.265643e+01
   7.520688e+01  -4.759287e+01
   4.116138e+01  -1.590707e+01
  -2.402316e+00   6.303791e+01
  -4.510626e+01   8.267390e+01
  -3.462661e+01  -4.045740e+01
  -6.325094e+00  -5.863850e+01
  -1.467241e+01  -2.243396e+01
   4.060741e+01   2.828881e+01
   1.044583e+01   3.692022e+01
   3.891004e+01  -4.259947e+01
   1.525939e+01  -4.612989e+01
  -4.035886e+01  -5.183378e+00
  -1.913837e+01   2.634250e+01
   3.044715e+00   7.429444e+01
  -1.332222e+01   1.275846e+01
  -2.343343e+01  -5.232005e+01
  -1.149527e+01  -5.440020e+01
   4.887019e+01  -3.858329e+01
   9.817661e+01   6.688924e+01
   4.384558e+00   7.594778e+01
  -6.810122e+01   4.549900e+01
  -1.407123e+02  -5.728696e+01
  -8.872224e+01  -1.482882e+01
   3.931663e+01  -2.736464e+01
   4.817836e+01  -2.457605e+01
  -8.701924e-01   1.833142e+01
  -5.694860e+01  -1.745145e+01
  -6.973993e+01  -1.748371e+01
   8.867856e+01   8.051394e+00
   9.178240e+01  -7.756344e-01
