
 $NMID
 id='ANONYMOUS ', fmtdat='(2E16.6)'
 volume=1.0
 tramp=1.0
 $END
  -4.650116e+03   8.495029e+01
  -2.631311e+03  -2.870903e+03
   7.997104e+02  -3.016200e+03
   2.287324e+03  -8.841030e+02
   9.008699e+02   8.276395e+02
  -6.466366e+02   7.764874e+02
  -9.503037e+02  -5.908202e+02
  -5.640826e+01  -1.170336e+03
   9.678791e+02  -8.127665e+02
   1.097267e+03   1.327891e+02
   5.904707e+02   9.310445e+02
  -2.670102e+02   8.897491e+02
  -6.865726e+02  -1.073433e+02
  -4.437212e+02  -7.931164e+02
   1.307724e+02  -8.956702e+02
   5.399375e+02   9.916570e+01
   2.822616e+02   8.259181e+02
  -2.019500e+02   7.584943e+02
  -4.623570e+02  -7.499674e+01
  -5.056787e+02  -4.423100e+02
   1.870476e+01  -6.001983e+02
   3.190740e+02  -1.980412e+02
   2.727031e+02  -8.741009e+01
  -1.995667e+02   1.536312e+02
  -3.563454e+02  -6.798230e+01
  -1.801661e+02  -4.354823e+02
   6.178194e+02  -5.925843e+02
   9.148786e+02   2.789772e+01
   4.556865e+02   5.901395e+02
  -4.653910e+02   5.882141e+02
  -6.869798e+02   1.838944e+01
  -2.821042e+02  -6.478117e+02
   3.087197e+02  -4.782857e+02
   6.037700e+02  -1.905956e+02
   3.925274e+02   2.726504e+02
   8.646502e+01   4.745219e+02
  -1.942363e+02   2.459272e+02
  -1.721851e+02  -2.182603e+02
   1.338298e+02  -4.630562e+02
   5.478542e+02  -1.454531e+01
   2.771254e+02   6.529016e+02
  -3.277894e+02   7.082190e+02
  -6.046402e+02   2.265349e+01
  -2.655472e+02  -5.040609e+02
   3.018108e+02  -3.118984e+02
   4.098971e+02   3.429176e+02
  -8.173179e+01   6.112879e+02
  -5.877901e+02   1.621748e+02
  -6.065101e+02  -3.653528e+02
  -1.095779e+02  -5.843944e+02
   3.971686e+02  -3.442619e+02
   6.428835e+02   5.893804e+01
   3.864984e+02   4.196606e+02
  -1.491216e+02   4.028596e+02
  -4.806482e+02   1.323088e+02
  -2.792119e+02  -1.754156e+02
   9.667255e+01  -7.901193e+01
   1.495048e+02   1.586367e+02
  -1.726102e+02   2.078293e+02
  -3.411360e+02  -9.272652e+01
  -1.190487e+02  -3.342392e+02
   2.139427e+02  -2.468708e+02
   3.095584e+02  -1.513649e+01
   1.362278e+02   1.026232e+02
  -3.713856e+01   2.066297e+02
  -1.686373e+02   2.951052e+02
  -3.219292e+02   2.689111e+02
  -3.220940e+02  -7.373972e+01
  -9.826834e+01  -3.927725e+02
   1.454379e+02  -4.113534e+02
   1.839234e+02  -8.242634e+01
  -1.855587e+01   7.688240e+01
  -1.716052e+01  -7.868506e+01
   1.222549e+02  -1.827472e+02
   2.759768e+02   1.187512e+01
   1.898446e+02   2.737480e+02
  -7.473139e+01   2.562339e+02
  -2.277825e+02   3.259746e+01
  -1.649533e+02  -2.488894e+02
   6.121807e+01  -3.222099e+02
   2.974992e+02  -1.387622e+02
   4.233939e+02   1.817398e+02
   2.221123e+02   3.968918e+02
  -1.015256e+02   3.301434e+02
  -2.541845e+02   1.380671e+02
  -1.170456e+02   2.588296e+01
  -4.953042e+01   6.738640e+01
  -2.505396e+02   1.491901e+02
  -4.626596e+02  -4.514369e+01
  -3.565763e+02  -3.111052e+02
  -2.642044e+01  -4.875094e+02
   3.777002e+02  -4.093453e+02
   5.037689e+02  -2.048163e+02
   3.672908e+02   1.290202e+02
   7.269669e+01   3.307933e+02
  -1.463694e+02   2.668921e+02
  -1.193927e+02   4.592709e+01
   2.261296e+01  -1.198895e+02
   1.742225e+02  -3.407775e+01
   5.236206e+01   1.672733e+02
  -1.653914e+02   1.481606e+02
  -1.913789e+02  -1.083896e+02
   4.759757e+01  -2.168772e+02
   2.468379e+02  -4.484637e+01
   1.436417e+02   2.714960e+02
  -5.818423e+01   3.904308e+02
  -2.278314e+02   1.905014e+02
  -2.902188e+02  -3.619869e+01
  -2.797811e+02  -2.216558e+02
  -8.430885e+01  -2.918501e+02
   1.052944e+02  -1.750454e+02
   2.087841e+02   4.414006e+00
   9.386236e+01   8.079789e+01
  -8.254906e+01  -1.875948e+01
  -5.970723e+01  -1.623852e+02
   1.048921e+02  -1.255118e+02
   1.836190e+02  -2.423382e+00
   9.297205e+01   8.826860e+01
  -7.207213e+01   7.272314e+01
  -6.644238e+01  -9.566377e+01
   5.214262e+01  -1.296354e+02
   3.021442e+02  -3.415679e+01
   2.955767e+02   1.428110e+02
   6.040993e+01   2.829436e+02
  -1.631895e+02   2.837054e+02
  -3.011815e+02   7.874426e+01
  -1.808148e+02  -7.058560e+01
   2.217970e+01  -1.420089e+02
   1.395464e+02   7.512452e-01
   8.648324e+00   1.102923e+02
  -1.942654e+02   7.391995e+01
  -2.063389e+02  -1.049824e+02
  -3.670798e+01  -2.282386e+02
   1.054496e+02  -1.410485e+02
   1.793809e+02   1.150083e+01
   6.421151e+01   6.157189e+01
  -3.599993e+01   3.872598e+01
  -6.908953e+01  -8.811081e+01
   6.401579e+01  -9.695521e+01
   1.707148e+02  -6.332541e+01
   1.586605e+02   1.110060e+02
  -1.106454e+01   2.166010e+02
  -1.673033e+02   1.689712e+02
  -1.997292e+02  -1.666056e+01
  -5.282946e+01  -1.152207e+02
   4.529417e+01  -1.329276e+02
   1.206736e+02  -4.712094e+01
   2.519604e+01   3.087301e+01
  -2.812086e+00   2.687842e+01
  -8.090473e+00   5.635171e+00
   7.180213e+01   1.421447e+01
   1.052334e+02   7.018840e+01
   3.871597e+01   1.386326e+02
  -7.900360e+01   1.853425e+02
  -2.136727e+02   4.759181e+01
  -1.997124e+02  -1.010546e+02
  -8.087634e+01  -2.322476e+02
   8.930773e+01  -1.913714e+02
   1.518196e+02  -5.261098e+01
   1.017646e+02  -4.010629e+00
   4.267994e+01   8.303778e+00
   6.862301e+01   1.121853e+01
   4.358702e+01  -1.310996e+01
   2.016788e+01   4.224176e+01
  -5.013953e+01   8.667834e+01
  -1.194724e+02   5.675951e+01
  -1.011712e+02  -5.073090e+01
   3.945825e+01  -1.129960e+02
   1.514021e+02  -1.100261e+02
   2.166634e+02   5.404881e+01
   5.667954e+01   2.187272e+02
  -9.290259e+01   2.363936e+02
  -2.670418e+02   1.062115e+02
  -2.762869e+02  -1.112677e+02
  -1.154876e+02  -1.620287e+02
   3.240617e+00  -1.597957e+02
   9.702832e+01  -6.258754e+01
   7.341565e+01  -8.363406e+01
   1.018527e+02  -9.354492e+01
   1.302969e+02  -7.571416e+01
   1.158790e+02   3.771394e+00
   1.162092e+02   1.418735e+02
   3.396359e+01   2.222905e+02
  -7.369508e+01   1.485015e+02
  -1.002483e+02   6.538725e+00
  -1.373488e+02  -1.306258e+02
  -1.556397e+00  -1.252223e+02
   6.702379e+01  -6.113434e+01
   3.630570e+01   6.095277e-01
   1.471362e+01   7.284257e+01
   3.250124e+01   7.305402e+01
   4.558528e+01   2.237699e+01
   1.117472e+02   5.635739e+01
   5.206087e+01   3.570312e+01
  -4.710029e+01   2.984398e+01
  -1.610941e+02   8.980984e-01
  -2.002805e+02  -6.283432e+01
  -4.485438e+01  -1.117914e+02
   1.133312e+02  -6.130543e+01
   1.774969e+02   4.602567e+00
   1.278701e+01   6.573313e+01
  -8.352874e+01   4.726458e+01
  -7.619124e+01  -8.417807e+01
  -3.153083e+01  -6.825178e+01
   4.312725e+01  -4.444282e+01
   4.199154e+01   2.988149e+01
   5.179710e+01   7.442838e+01
   9.419333e+01   5.306175e+01
   6.392606e+01   9.189352e+00
   7.024962e+01   2.404160e+00
   8.263046e+00   4.773555e+01
  -6.158083e+01   1.916648e+02
  -1.474621e+02   1.553609e+02
  -1.575446e+02   6.022798e+01
  -1.370977e+02  -1.154045e+02
  -1.071628e+01  -9.861236e+01
   1.005819e+02  -6.563112e+01
   7.807678e+01   3.539339e+01
  -6.964928e+01   2.459651e+00
  -1.260029e+02  -3.847822e+01
  -1.013628e+02  -1.527030e+02
   7.360371e+01  -8.994737e+01
   1.919911e+02  -5.826428e+01
   1.490219e+02   9.332090e+00
   2.886032e+01   7.747011e+01
  -6.073971e+01   5.316382e+01
  -7.624114e+01  -2.612326e+01
   1.028646e+02  -3.928558e+01
   5.569805e+01   2.025295e+01
   3.255227e+01   1.313957e+02
  -1.157475e+02   1.880570e+02
  -1.578869e+02   9.142686e+01
  -1.124460e+02  -1.047853e+02
  -2.367059e+01  -2.433863e+02
   8.087788e+01  -1.617000e+02
   9.493562e+01   3.505829e+01
   4.473806e+01   1.481237e+02
  -7.283277e+00   1.212134e+02
  -7.532758e+01   5.632972e+01
  -6.288797e+01  -2.148818e+01
  -4.604263e+01  -4.416214e+01
  -3.533459e+01  -2.031402e+01
   1.814001e+00  -1.911791e+01
  -4.226681e+01  -1.104238e+02
  -3.633364e+01  -1.196583e+02
   5.054349e+01  -3.343103e+01
   1.388921e+02   1.005605e+02
   1.511448e+02   6.283324e+01
   4.046093e+01   4.434277e+01
  -7.014009e+01  -1.161978e+01
  -5.363702e+01   1.648445e+01
  -6.316373e+00   3.413028e+01
   1.233546e+01   3.796848e+00
   1.042121e+01   3.095422e+01
   3.834686e+01   1.240266e+01
  -1.287001e+01  -1.600543e+00
   8.414340e+01   8.360194e+00
   8.132798e+01   4.763619e+01
   3.317283e+01   7.244377e+01
  -1.202166e+02   1.233747e+02
  -1.852638e+02   6.249937e+01
  -1.291467e+02  -3.109255e+01
  -4.004404e+01  -1.486616e+02
   5.812930e+01  -1.365789e+02
   9.587071e+01  -8.113511e+01
   7.131799e+01   3.341933e+01
   3.607122e+00   5.565484e+01
   2.964633e+01   6.320470e+01
  -7.821497e+00   1.428018e+01
   5.501789e+00   2.341036e+01
  -1.535798e+00   8.389365e+01
  -2.635939e+01   8.973110e+01
  -2.688961e+01   1.951119e+01
  -8.518825e+01  -1.258519e+02
   2.221510e+01  -4.568723e+01
   1.168627e+02  -1.910923e+01
   8.209789e+01   1.308127e+02
   1.197251e+00   9.774557e+01
  -1.382926e+02   6.781141e+01
  -9.636481e+01  -4.239906e+01
  -1.796233e+01  -4.405350e+01
   2.156057e+01  -6.017899e+01
   7.442593e+01  -2.903905e+01
  -6.910927e+01  -1.041638e+01
  -5.182376e+01   1.333714e+01
  -1.088470e+01  -1.712057e+01
   1.003482e+02  -7.660577e+01
   1.175572e+02  -5.446029e+01
   2.606243e+01  -8.633600e+00
  -6.383329e+01   8.244021e+01
  -1.045062e+02   6.287422e+01
  -4.506195e+01   2.183899e+00
   1.351647e+01  -7.163409e+01
   5.327657e+01  -2.346966e+01
   3.219283e+01   4.261768e+01
   4.018883e+01   5.152404e+01
  -1.392024e+01   4.687378e+01
  -5.833326e+01   1.487313e+01
  -8.958417e+01  -1.210077e+01
   6.710503e+00  -1.163951e+01
   1.242852e+01   1.125877e+01
   2.674337e+01  -1.148662e+01
   5.964050e+01  -2.319366e+01
   3.275498e+01  -6.412342e+01
   1.591534e+01   1.463232e+01
  -2.668683e+01   1.208747e+02
   1.975736e+00   8.521992e+01
  -2.422510e+01   1.810517e+01
  -9.298185e+01  -3.719103e+01
  -2.035596e+01  -4.317669e+01
   1.096229e+01  -7.157975e+01
   1.101155e+02  -3.590492e+01
   4.516193e+01   3.508636e+00
   8.097519e+00   3.320297e+01
  -1.746521e+01   3.908092e+01
   4.757606e+01   3.415130e+01
   7.538270e+01   4.173487e+00
   5.355421e+01   4.477391e+00
  -4.060809e+01   8.117432e+01
  -8.640089e+01   4.382154e+01
