
 $NMID
 id='ANONYMOUS ', fmtdat='(2E16.6)'
 volume=1.0
 tramp=1.0
 $END
   4.665598e+03  -1.516308e+02
   2.581596e+03   2.892513e+03
  -8.020687e+02   3.121682e+03
  -2.397783e+03   8.287077e+02
  -1.002693e+03  -7.379663e+02
   7.612907e+02  -6.012418e+02
   9.947525e+02   5.931902e+02
  -9.267708e+01   1.084855e+03
  -9.882758e+02   8.058781e+02
  -1.034829e+03  -1.697373e+02
  -6.338878e+02  -8.253207e+02
   2.999495e+02  -1.045551e+03
   7.174503e+02  -1.763843e+02
   3.952746e+02   9.552505e+02
  -2.571380e+02   9.823634e+02
  -5.511136e+02  -1.192387e+02
  -1.319716e+02  -7.285536e+02
   2.735390e+02  -5.621595e+02
   7.296120e+02  -3.935513e+01
   2.752021e+02   4.824146e+02
   1.231323e+02   4.777391e+02
  -2.092705e+02   2.673276e+02
  -2.925809e+02   1.442163e+02
   1.840181e+02   2.765088e+01
   5.366650e+02   9.485863e+01
   2.227600e+02   6.392519e+02
  -3.997315e+02   4.525251e+02
  -9.393039e+02  -1.153298e+02
  -4.289439e+02  -6.921200e+02
   3.369407e+02  -6.635347e+02
   6.012552e+02  -1.506432e+01
   3.582750e+02   3.374657e+02
  -3.099552e+02   6.864670e+02
  -6.749210e+02   2.017140e+02
  -5.241039e+02  -1.307756e+02
  -3.544307e+01  -4.761856e+02
   2.684365e+02  -2.769614e+02
   2.430453e+02   3.367515e+02
  -2.332213e+02   4.484002e+02
  -5.921458e+02  -6.050501e+01
  -2.785491e+02  -8.333462e+02
   3.609728e+02  -8.866396e+02
   6.485838e+02  -2.910071e+00
   3.101790e+02   5.995677e+02
  -3.624015e+02   3.186718e+02
  -3.632240e+02  -3.708475e+02
   7.736692e+01  -6.124493e+02
   6.074599e+02  -1.687672e+02
   6.132669e+02   4.619394e+02
   1.355709e+02   6.293523e+02
  -4.663864e+02   3.466660e+02
  -6.601091e+02  -8.536514e+01
  -3.565657e+02  -4.571796e+02
   2.055653e+02  -3.527628e+02
   4.797711e+02  -5.197383e+01
   1.837092e+02   2.272341e+02
  -1.524451e+02   7.495549e+01
  -1.281241e+02  -2.221160e+02
   2.387500e+02  -1.920028e+02
   3.869849e+02   1.372900e+02
   1.563284e+02   3.504751e+02
  -2.078640e+02   2.483571e+02
  -2.933642e+02   6.886954e+01
  -1.636613e+02  -7.244688e+01
   4.557754e+01  -1.518312e+02
   2.315776e+02  -2.431247e+02
   3.407844e+02  -1.587106e+02
   2.733748e+02   1.521895e+02
   9.152088e+01   4.670132e+02
  -1.005515e+02   4.235158e+02
  -1.557226e+02   1.467530e+02
  -3.173365e+01  -2.816788e+01
  -5.927953e+01   5.342912e+01
  -1.445420e+02   1.483299e+02
  -2.763853e+02  -1.292143e+01
  -1.741351e+02  -2.326473e+02
   7.078710e+01  -2.892526e+02
   2.318374e+02  -2.685676e+01
   2.748262e+02   2.505898e+02
   1.758415e+01   3.102634e+02
  -2.818166e+02   1.548935e+02
  -3.902054e+02  -1.362386e+02
  -1.933082e+02  -3.454052e+02
   8.077660e+01  -3.138796e+02
   2.515429e+02  -1.738314e+02
   1.870449e+02  -3.149357e+01
   1.461343e+02  -8.034827e+00
   2.155082e+02  -5.404273e+01
   3.580004e+02   6.573875e+01
   3.114853e+02   3.237581e+02
  -4.461963e+01   4.394818e+02
  -3.943299e+02   3.824093e+02
  -5.447505e+02   1.828383e+02
  -3.930172e+02  -1.278693e+02
  -8.380395e+01  -3.264685e+02
   1.415789e+02  -3.106785e+02
   1.392383e+02  -6.088164e+01
  -8.145758e+01   9.700847e+01
  -2.065966e+02   1.375064e+01
  -3.480844e+01  -1.862624e+02
   1.771252e+02  -1.668911e+02
   1.781950e+02   5.855369e+01
  -3.979292e+01   1.692726e+02
  -2.121433e+02  -1.502335e+01
  -1.488243e+02  -2.627108e+02
   6.047489e+01  -3.576650e+02
   2.619235e+02  -1.753353e+02
   3.957897e+02   9.771242e+01
   2.900800e+02   2.516488e+02
   5.191939e+01   2.536160e+02
  -1.498380e+02   1.467496e+02
  -1.840043e+02   1.249936e+01
  -3.933262e+01  -4.456656e+01
   8.539579e+01   2.461237e+01
   1.573284e+01   9.967622e+01
  -1.523410e+02   7.091255e+01
  -2.453367e+02  -3.952879e+01
  -6.107046e+01  -8.819298e+01
   1.137385e+02  -4.339868e+01
   7.457782e+01   4.110681e+01
  -1.355161e+02   7.618309e+01
  -3.498129e+02   5.476215e+00
  -3.381087e+02  -1.483566e+02
  -4.573257e+01  -2.721220e+02
   2.178425e+02  -3.086358e+02
   3.136434e+02  -1.665653e+02
   1.854193e+02   3.488005e+01
  -3.722376e+01   1.235203e+02
  -7.732772e+01   4.247024e+01
   3.783448e+01  -1.210101e+02
   1.812890e+02  -8.586783e+01
   2.486880e+02   6.276414e+01
   4.867223e+01   2.470235e+02
  -8.500861e+01   1.986068e+02
  -1.215163e+02   3.240097e+01
  -1.999597e+01   1.942157e+01
   5.342409e+01   7.645072e+00
  -2.074542e+01   1.114172e+02
  -6.822354e+01   1.367377e+02
  -1.612263e+02   5.164659e+01
  -1.736456e+02  -1.086589e+02
   1.516784e+01  -1.657279e+02
   1.513579e+02  -1.982198e+02
   1.972057e+02  -2.741673e+01
   6.312625e+01   1.111513e+02
  -7.585228e+01   1.004234e+02
  -4.784015e+01   3.175336e+01
  -1.670401e+01  -3.903736e+01
   4.633663e+01  -2.428177e+01
   2.342633e+01  -1.614762e+01
  -8.508375e+01  -3.792061e+01
  -1.103033e+02  -7.474289e+01
   1.788059e+01  -1.854944e+02
   1.310044e+02  -1.437461e+02
   2.773075e+02  -5.126413e+01
   1.825957e+02   1.193218e+02
   1.188734e+00   2.318171e+02
  -1.354207e+02   1.101161e+02
  -1.939665e+02   2.060922e+01
  -5.994636e+01  -7.665703e+01
   2.026046e+01  -6.702962e+01
   1.608504e+00   1.374382e+01
  -7.881290e+01   1.293533e+01
  -1.579729e+01  -6.798585e+01
   6.716551e+01  -7.480605e+01
   1.341294e+02  -3.787737e+01
   1.128340e+02   4.328491e+01
  -1.658369e+01   1.280687e+02
  -1.700392e+02   9.755746e+01
  -2.371073e+02  -3.504850e+01
  -8.694096e+01  -1.920131e+02
   8.176950e+01  -2.701149e+02
   2.559193e+02  -7.287949e+01
   2.333374e+02   8.314041e+01
   1.037997e+02   1.646619e+02
  -5.638453e+01   1.375093e+02
  -1.034403e+02   5.549039e+01
  -6.961037e+01   4.975853e+01
  -4.699648e+01   6.857183e+01
  -8.757106e+01   5.824161e+01
  -1.104286e+02  -3.192505e+01
  -1.397788e+02  -1.425977e+02
  -8.006269e+01  -2.492049e+02
   1.148067e+02  -1.462851e+02
   1.724134e+02  -1.814675e+01
   1.558929e+02   7.532566e+01
   3.558018e+00   1.190702e+02
  -9.748177e+01   1.061141e+02
  -5.647152e+01   9.318058e+00
   2.479618e+00  -5.270737e+01
   3.155713e+01   2.494704e+01
  -1.337020e+01  -3.260203e+01
  -8.786871e+01  -1.319295e+00
  -8.346141e+01   1.642033e-02
   6.109215e+01  -3.318279e+01
   1.058258e+02  -6.916348e+00
   1.039121e+02   5.209995e+01
  -1.411939e+01   6.468045e+01
  -1.314173e+02   6.833648e+01
  -1.695136e+02  -1.229524e+01
  -3.482349e+01  -3.683102e+01
   6.593466e+01  -4.636530e+01
   6.557127e+01   2.175902e+01
  -3.002546e+01   6.315570e+01
  -8.156618e+01   5.261733e+01
  -4.664995e+01  -3.874127e+01
   7.076421e-01  -7.448655e+01
   8.416964e+00  -3.947540e+01
  -3.120930e+01   3.401062e+00
  -2.500951e+01  -2.034213e+01
  -4.968185e+01  -3.863444e+01
   5.189562e+01  -1.521652e+02
   1.465588e+02  -1.108763e+02
   1.586862e+02  -4.917393e+01
   1.166224e+02   8.857968e+01
   2.668235e+01   9.990271e+01
  -7.094509e+01   8.947127e+01
  -5.493776e+01  -5.294532e+01
   7.270001e+01  -1.512853e+00
   1.349000e+02   7.106612e+01
   5.914305e+01   1.487165e+02
  -8.379113e+01   1.628394e+02
  -2.051944e+02   6.741610e+01
  -2.027147e+02  -5.030959e+01
  -4.463305e+01  -8.951523e+01
   2.818624e+01  -9.027932e+01
   2.871051e+01  -1.633523e+01
  -4.299718e+01   6.357346e-01
  -8.083234e+01  -7.419553e+01
   1.227618e+01  -1.263314e+02
   1.466110e+02  -1.586162e+02
   1.455270e+02  -7.568633e+01
   8.848735e+01   1.287449e+02
   1.835683e+01   1.807993e+02
  -9.867344e+01   1.527380e+02
  -8.198338e+01   1.080312e+01
  -6.682767e+01  -9.732325e+01
  -2.402261e+01  -5.815206e+01
   9.376487e+00  -2.802246e+00
   2.533121e+01   4.746638e+01
   1.136462e+01  -1.423670e+01
  -2.402189e+01   1.464227e-01
  -1.115059e+01  -1.123055e+01
   3.864637e+01   5.730894e+01
   3.566131e+01   7.706513e+01
  -2.223733e+01   5.058128e+01
  -9.037974e+01  -4.509863e+01
  -9.951428e+01  -6.809345e+01
  -2.308432e+01  -4.836063e+01
   8.756407e+01   1.349384e+01
   6.149583e+01   9.857142e+00
   5.459152e+00   8.715163e+00
  -4.001526e+01   2.137043e+01
  -6.094256e+00   7.296938e+00
   7.873523e+00  -4.908585e+00
  -1.163683e+01   2.220723e+01
  -7.691393e+01  -1.443906e+01
  -8.891060e+01  -9.882476e+00
   1.071204e+01  -1.003910e+02
   1.309639e+02  -1.153856e+02
   1.867779e+02  -4.650594e+01
   1.499294e+02   1.108193e+02
   9.823562e+00   1.597261e+02
  -4.749731e+01   1.195398e+02
  -8.604087e+01   8.307050e+01
  -6.303259e+01   5.231477e+00
  -2.071960e+01  -1.918600e+01
   7.532298e+00  -8.060377e+00
  -1.990602e+01   7.370243e+00
  -3.239739e+01  -6.696188e+01
  -6.081304e+01  -8.123600e+01
   2.600578e+00  -9.775117e+01
   7.564086e+01  -2.310022e+01
   6.864631e+01   7.271213e+01
  -1.047363e+01   1.020844e+02
  -5.735341e+01   3.409240e+01
  -2.609408e+00  -9.723545e+01
  -3.204087e+01  -7.145867e+01
   6.317704e+01  -1.372815e+01
   5.974867e+01   2.691748e+01
  -1.484071e+01   5.990956e+01
  -4.738538e+01   7.381552e+01
  -4.676462e+01  -3.928896e+01
   1.283773e+01   8.083055e+00
   7.902740e+01  -1.613573e+00
  -3.856429e+01   3.230149e+01
  -6.662133e+01   5.303594e+01
  -9.524595e+01   6.465429e+01
  -7.078964e+01  -5.868892e+01
   2.911263e+01  -7.694486e+01
   5.537983e+01  -7.366682e+01
   3.968762e+01   6.274024e+00
  -2.308307e+01   7.644008e+01
   3.418639e+01   4.401523e+01
  -4.333207e+01  -1.459231e+01
  -2.927049e+01  -1.133257e+02
  -6.979803e+00  -2.504922e+01
   2.014011e+01  -1.011859e+01
   9.068929e+01   2.016541e+01
   1.168327e+01  -2.370297e+01
   3.129238e+01  -4.896073e+01
   2.176812e+01   3.135546e+01
  -2.886569e+01   2.170386e+01
  -1.927216e+01   6.186423e+01
  -4.826875e+01   1.686275e+00
   7.717537e+00  -9.713436e+01
   2.478808e+01  -3.989025e+01
   7.939916e+01  -2.851919e+01
   1.014792e+02   8.068003e+01
   3.641639e+00   7.600811e+01
  -2.370661e+01   6.326522e+01
  -1.068078e+02  -1.775753e+01
  -6.698713e+01  -4.194953e+01
  -4.350919e+00   2.329022e+00
   7.471435e+01  -1.240333e+01
   7.757215e+01  -2.201505e+01
  -2.001142e+01  -1.260783e+01
  -6.650336e+01  -4.514313e+00
   2.349189e+01  -4.417771e+01
   5.226191e+01  -3.271382e+01
