
 $NMID
 id='ANONYMOUS ', fmtdat='(2E16.6)'
 volume=1.0
 tramp=1.0
 $END
   4.737063e+03  -1.914124e+02
   2.699235e+03   2.749993e+03
  -1.018454e+03   3.028258e+03
  -2.482144e+03   9.573121e+02
  -9.267646e+02  -6.881256e+02
   8.085524e+02  -6.922700e+02
   1.019918e+03   3.810732e+02
   6.706332e+00   1.167696e+03
  -1.070520e+03   9.912456e+02
  -1.039763e+03  -5.303766e+01
  -4.617739e+02  -8.902819e+02
   2.792055e+02  -1.035618e+03
   7.102653e+02  -1.578549e+02
   4.100930e+02   8.515263e+02
  -2.632852e+02   8.220227e+02
  -6.053259e+02   4.225565e+01
  -1.528094e+02  -7.219810e+02
   2.196665e+02  -5.422419e+02
   4.952450e+02   1.604583e+02
   2.418852e+02   5.777394e+02
  -7.538440e+01   4.471462e+02
  -2.625396e+02   2.826218e+02
  -1.235186e+02   7.049307e+00
   1.521623e+02  -2.792986e+02
   4.011816e+02   6.817816e+01
   3.580450e+02   5.396498e+02
  -5.359703e+02   4.166350e+02
  -8.964514e+02  -8.942517e+01
  -4.485296e+02  -5.312912e+02
   4.231657e+02  -5.502988e+02
   7.564286e+02   2.319288e+01
   4.505752e+02   5.034884e+02
  -1.514815e+02   5.623451e+02
  -6.631870e+02   2.141890e+02
  -4.842194e+02  -2.101179e+02
  -8.128029e+01  -5.073987e+02
   2.601761e+02  -3.236195e+02
   2.263458e+02   2.172740e+02
  -9.799291e+01   4.896632e+02
  -5.205259e+02   7.615590e+01
  -2.815784e+02  -7.299432e+02
   3.906963e+02  -8.427485e+02
   6.745325e+02  -3.189869e+01
   2.681402e+02   6.154312e+02
  -3.644788e+02   4.073052e+02
  -4.965034e+02  -3.219924e+02
   5.871583e+01  -6.057132e+02
   5.741747e+02  -1.894940e+02
   6.122981e+02   3.992998e+02
   1.546624e+02   6.190290e+02
  -3.747792e+02   3.538881e+02
  -6.203486e+02  -6.298262e+01
  -4.248609e+02  -3.829589e+02
   1.214582e+02  -4.129006e+02
   4.237557e+02  -5.027216e+01
   2.469117e+02   2.491046e+02
  -1.407394e+02   1.263232e+02
  -1.284052e+02  -1.945752e+02
   2.195609e+02  -2.474905e+02
   3.885000e+02   6.434414e+01
   1.900259e+02   3.685320e+02
  -2.603059e+02   3.369939e+02
  -3.394199e+02   8.271738e+01
  -1.658123e+02  -7.596057e+01
   1.008170e+02  -2.280070e+02
   2.273545e+02  -3.321414e+02
   2.923842e+02  -1.800377e+02
   2.985221e+02   1.490861e+02
   9.831462e+01   4.762187e+02
  -1.359432e+02   4.221721e+02
  -1.674410e+02   9.547024e+01
  -8.583125e+01  -3.010390e+01
  -7.677250e+01   8.479796e+01
  -2.130454e+02   1.607233e+02
  -2.824751e+02  -9.491966e+01
  -2.157509e+02  -2.958728e+02
   7.678359e+01  -2.552286e+02
   2.293208e+02   4.881992e+01
   2.410743e+02   2.736981e+02
   5.080393e+01   3.202393e+02
  -2.821178e+02   1.343437e+02
  -4.104666e+02  -1.528572e+02
  -2.265860e+02  -3.435148e+02
   1.105714e+02  -2.623353e+02
   2.696860e+02  -8.583988e+01
   1.697377e+02   3.442140e+01
   9.531430e+01  -2.654977e+01
   2.093646e+02  -8.029120e+01
   3.458951e+02   1.101418e+01
   3.088239e+02   2.254561e+02
   3.537601e+01   4.180348e+02
  -3.385679e+02   3.969399e+02
  -4.623703e+02   2.237543e+02
  -3.267263e+02  -6.702117e+01
  -4.706976e+01  -3.163150e+02
   1.536270e+02  -2.909967e+02
   1.229265e+02  -1.796508e+01
  -1.135510e+02   1.438496e+02
  -1.785430e+02   2.093878e+01
  -4.755677e+01  -1.879750e+02
   1.647964e+02  -1.570723e+02
   1.678123e+02   1.179085e+02
  -4.052867e+01   1.868497e+02
  -1.641395e+02   3.636574e+01
  -1.399392e+02  -2.357446e+02
  -3.813516e+00  -2.823231e+02
   2.372889e+02  -1.412667e+02
   3.410536e+02   9.721844e+01
   2.923781e+02   2.322830e+02
   1.101079e+02   2.715563e+02
  -1.499417e+02   1.393205e+02
  -1.709120e+02  -2.638461e-01
  -5.416567e+01  -4.237673e+01
   1.272246e+02   7.262525e+00
   3.514470e+01   9.126042e+01
  -1.031819e+02   9.536610e+01
  -1.733756e+02  -1.049278e+01
  -4.085917e+01  -5.058444e+01
   7.448803e+01  -1.385892e+01
   4.869524e+01   6.753823e+01
  -1.010935e+02   6.043194e+01
  -2.927964e+02   5.423147e+01
  -2.757185e+02  -8.228583e+01
  -6.777427e+01  -2.437884e+02
   1.420646e+02  -2.515411e+02
   2.624188e+02  -1.553985e+02
   1.927223e+02   5.123049e+01
   1.124618e+01   1.005856e+02
  -2.530648e+01  -1.330908e+01
   4.079982e+01  -1.055138e+02
   1.800991e+02  -7.562246e+01
   2.277547e+02   1.105509e+02
   9.302835e+01   1.913243e+02
  -6.965622e+01   1.284037e+02
  -1.666269e+02   7.968816e+00
  -1.102617e+02  -4.249917e+01
   2.884839e+01  -1.863788e+00
   4.705820e+01   7.014443e+01
  -8.329308e+01   7.874263e+01
  -2.003002e+02   5.301979e+00
  -1.827977e+02  -1.502809e+02
  -4.747492e+01  -2.373352e+02
   1.455415e+02  -1.188471e+02
   1.739550e+02  -7.252126e+00
   8.511094e+01   1.039705e+02
  -2.521309e+01   1.206529e+02
  -8.397923e+01   3.242127e+01
  -4.625749e+01  -1.146905e+01
   2.982326e+01  -9.446782e+00
  -3.040374e+00   7.196896e+00
  -8.437707e+01  -4.910341e+01
  -7.626891e+01  -1.041412e+02
  -3.675020e+00  -1.760303e+02
   1.858706e+02  -1.516399e+02
   2.908194e+02  -2.176185e+01
   1.959850e+02   1.075165e+02
   5.171919e+01   2.426004e+02
  -1.177362e+02   1.193010e+02
  -1.484369e+02   3.067572e+01
  -4.362484e+01  -5.630220e+01
  -3.445888e+01  -3.429626e+01
  -4.082448e+01  -5.912459e+01
  -5.993973e+01  -2.173684e+00
   1.462811e+01  -7.039178e+01
   3.350771e+01  -1.039883e+02
   1.095985e+02  -5.651559e+01
   9.228956e+01   6.371428e+01
  -4.541290e+01   1.662786e+02
  -1.855468e+02   7.725446e+01
  -1.580090e+02  -7.851046e+01
  -1.059988e+02  -2.086556e+02
   7.465152e+01  -2.079286e+02
   2.717045e+02  -7.744636e+01
   3.035908e+02   1.087090e+02
   1.289739e+02   1.720214e+02
  -1.947219e+01   1.698228e+02
  -8.330179e+01   1.513305e+02
  -5.734331e+01   7.224718e+01
  -6.739018e+01   7.537340e+01
  -1.155706e+02   8.055887e+01
  -1.317316e+02  -4.091160e+01
  -1.692675e+02  -1.329067e+02
  -1.922088e+01  -2.265868e+02
   1.416037e+02  -1.703856e+02
   1.983968e+02  -3.779211e+01
   1.434439e+02   1.416655e+02
   2.717651e+01   1.118639e+02
  -6.104502e+01   8.193693e+01
  -5.730811e+01  -1.824655e+01
  -2.202234e+01  -2.624686e+01
  -5.462862e-01   2.270472e+01
  -5.366533e+01  -1.591259e+01
  -5.923877e+01  -3.864502e+01
  -3.165558e+01  -7.678460e+01
   6.932058e+01  -6.039739e+01
   1.640180e+02  -4.995729e+00
   1.613187e+02   8.998759e+01
   1.769863e+00   8.811800e+01
  -1.503078e+02   5.236174e+01
  -1.693316e+02  -4.616459e+01
  -3.116403e+01  -5.775807e+01
   6.325568e+01  -2.418529e+01
   8.906381e+01   6.154206e+01
   5.010967e+01   1.040540e+02
  -6.338512e+01   7.762082e+01
  -5.015193e+01  -1.919789e+01
  -8.519060e+01  -5.219959e+01
  -9.237691e+01  -2.637085e+01
  -6.843203e+01   3.063414e+00
  -5.364550e+01  -1.140886e+01
  -2.465754e+01  -7.889241e+01
   3.952733e+01  -1.471000e+02
   1.169184e+02  -1.358257e+02
   1.742482e+02  -4.842137e+01
   1.414659e+02   9.394325e+01
   1.507593e+01   1.147879e+02
  -5.474878e+01   3.468579e+01
  -5.869985e+01  -3.766952e+01
   5.091908e+01  -1.345520e+01
   1.463834e+02   3.843522e+01
   8.998478e+01   1.152952e+02
  -6.656809e+01   1.184166e+02
  -1.994000e+02   5.941899e+01
  -1.855983e+02  -4.094602e+01
  -5.670780e+01  -7.420757e+01
   6.181853e+01  -5.603658e+01
   3.820344e+01  -5.081038e+01
  -6.005561e+01   2.241096e+01
  -9.267350e+01  -2.759469e+01
  -3.015614e+01  -1.568822e+02
   7.152397e+01  -1.314752e+02
   2.074267e+02  -5.470355e+01
   1.397769e+02   1.181087e+02
   1.415358e+01   2.305470e+02
  -9.910678e+01   1.510181e+02
  -1.024098e+02   5.452273e+00
  -1.086692e+02  -1.198326e+02
  -4.581463e+01  -1.448065e+02
   3.600605e+01  -3.398080e+01
   8.293644e+01   2.208752e+01
   3.612451e+01  -1.980422e+01
  -6.759720e+00  -3.875611e+01
   3.943238e+01  -3.431816e+01
   5.235551e+01   8.874566e+01
   5.636537e+01   1.084889e+02
  -2.286746e+01   4.261969e+01
  -1.394168e+02  -3.957400e+01
  -1.307721e+02  -6.318084e+01
   4.561336e-01  -2.402685e+01
   1.075310e+02  -8.092334e-01
   1.187875e+02  -1.306172e+01
   1.258406e+01   2.932816e+01
  -6.406090e+01   4.536414e+01
  -5.279130e+01   9.930239e+00
  -1.801385e+01   2.056344e+01
  -5.876853e+00  -3.505608e+01
  -9.751680e+01  -3.437907e+01
  -1.173268e+02  -1.326542e+01
  -7.603421e+00  -7.777447e+01
   9.861904e+01  -1.235504e+02
   1.951266e+02  -8.924323e+01
   1.847437e+02   8.759899e+00
   4.761478e+01   1.622180e+02
  -3.762097e+01   1.680362e+02
  -1.253680e+02   3.680672e+01
  -1.158383e+02  -4.744988e+00
  -6.571715e+01  -2.618952e+01
  -1.312385e+01   5.547795e-03
  -4.670942e+00  -1.579074e+00
  -2.946493e+01  -6.304708e+01
  -1.363795e+01  -6.522967e+01
   3.739107e+01  -9.467681e+01
   5.245317e+01   5.900470e+00
   9.355079e+01   1.119186e+02
   1.259959e+01   1.288744e+02
  -6.456833e+01   3.173204e+00
  -1.070619e+02  -4.193454e+01
  -5.812290e+01  -9.962119e+01
   7.463105e+01  -3.917656e+01
   9.518117e+01   1.621350e+01
   5.089609e+01   1.969662e+01
  -3.118732e+01   6.542219e+01
  -8.556033e+01   4.209820e+00
   7.460742e+00  -2.572108e+01
   7.626763e+01  -4.324596e+01
   2.017246e+00  -2.518009e+01
  -9.838514e+01   3.157758e+01
  -8.265969e+01   4.317295e+01
  -5.254539e+01  -3.564305e+01
   3.559539e+01  -7.863012e+01
   6.760067e+01  -6.943995e+01
   5.753418e+01  -1.210041e+01
  -6.941963e+00   7.626574e+01
  -3.910496e+01   5.416342e+01
  -3.849374e+01   1.305511e+01
  -3.690849e+01  -1.294063e+01
  -2.565462e+01  -1.738398e+01
   4.607153e+01   2.619887e+01
   3.872098e+01   4.135149e+00
   2.975970e+01  -2.319106e+01
  -1.079602e+00  -3.915966e+01
  -2.480035e+01  -8.773229e+00
   1.395424e+00   2.258420e+01
  -6.847798e+00   3.090543e+01
   2.619972e+00  -1.016744e+01
   1.590032e+01  -3.168408e+01
  -3.196893e+01  -4.079207e+01
   5.361466e+01   3.085075e+00
   5.765736e+01   7.163982e+01
   4.842449e+01   3.120675e+01
  -5.453788e+01   6.276941e+01
  -8.646660e+01  -2.123100e+01
  -7.522831e+01  -3.215706e+01
  -2.530276e+01  -4.939115e+01
   8.031434e+01  -5.635707e+01
   1.123213e+01  -2.786695e+01
  -3.959037e+01   1.966701e+00
  -1.661241e+01   2.382015e+00
   3.546783e+01  -3.902163e+01
   7.780059e+01  -3.304049e+01
