
 $NMID
 id='ANONYMOUS ', fmtdat='(2E16.6)'
 volume=1.0
 tramp=1.0
 $END
   4.487784e+03  -3.699131e+01
   2.616102e+03   2.842956e+03
  -8.466638e+02   3.106270e+03
  -2.377013e+03   8.233525e+02
  -8.575558e+02  -5.199116e+02
   8.016868e+02  -6.060103e+02
   1.029690e+03   6.019290e+02
  -4.140737e+01   1.228445e+03
  -1.023281e+03   8.803581e+02
  -1.028715e+03  -1.696147e+02
  -4.609131e+02  -9.960758e+02
   2.357513e+02  -9.342632e+02
   7.421183e+02  -7.258834e+01
   2.844285e+02   6.174609e+02
  -3.711819e+02   8.519184e+02
  -6.763700e+02   1.436025e+02
  -1.511622e+02  -8.029734e+02
   1.663421e+02  -5.315887e+02
   5.370894e+02  -2.005730e+02
   2.942581e+02   4.321750e+02
  -1.862036e+02   5.585444e+02
  -3.271500e+02   4.512018e+01
  -2.599136e+02  -1.221385e+02
   1.343323e+02   1.633695e+01
   5.133992e+02   1.320087e+02
   2.640841e+02   4.056550e+02
  -4.896390e+02   4.876083e+02
  -9.134913e+02  -5.515950e+01
  -3.882006e+02  -5.862927e+02
   4.628362e+02  -6.677911e+02
   8.596917e+02   4.487124e+00
   4.041896e+02   4.541731e+02
  -3.095068e+02   6.127813e+02
  -5.801105e+02   2.209482e+02
  -4.958171e+02  -2.126788e+02
  -1.404533e+01  -5.228589e+02
   2.802405e+02  -3.394201e+02
   2.531132e+02   2.420878e+02
  -1.475346e+02   5.465175e+02
  -5.271859e+02  -4.373991e+00
  -3.092317e+02  -8.273826e+02
   3.232301e+02  -7.837298e+02
   7.063662e+02   7.149065e+01
   2.071162e+02   6.112817e+02
  -3.264617e+02   3.523773e+02
  -4.033566e+02  -3.372521e+02
  -1.785633e+00  -6.114929e+02
   5.505836e+02  -1.802908e+02
   5.459483e+02   3.962494e+02
   1.367533e+02   5.723483e+02
  -3.819535e+02   3.808458e+02
  -6.248274e+02  -7.732981e+01
  -4.514682e+02  -4.442609e+02
   1.212975e+02  -3.848418e+02
   4.737312e+02  -8.704946e+01
   2.069981e+02   1.764342e+02
  -1.742697e+02   9.442508e+01
  -1.849504e+02  -2.262531e+02
   1.702285e+02  -2.487690e+02
   3.483802e+02   1.238682e+02
   1.547037e+02   3.098416e+02
  -2.300328e+02   1.996143e+02
  -3.671347e+02   2.262119e+01
  -1.599634e+02  -1.102753e+02
   2.723600e+01  -1.917783e+02
   2.114281e+02  -2.940737e+02
   3.752937e+02  -2.295662e+02
   2.893457e+02   1.266184e+02
   1.028762e+02   4.503612e+02
  -9.762527e+01   4.214387e+02
  -1.733810e+02   8.945728e+01
  -8.221544e+01  -7.500540e+01
  -3.546656e+01   2.154602e+01
  -1.603963e+02   1.375938e+02
  -2.686182e+02   7.199493e-01
  -1.479015e+02  -3.115820e+02
   6.967515e+01  -3.141297e+02
   2.453904e+02  -5.673126e+01
   2.547249e+02   2.092040e+02
   3.967048e+01   3.357815e+02
  -2.431415e+02   1.638634e+02
  -3.971966e+02  -1.957543e+02
  -2.278137e+02  -4.094215e+02
   1.570797e+02  -2.775796e+02
   2.646268e+02  -1.064362e+02
   1.478387e+02  -2.444923e+00
   5.201609e+01  -6.589309e+01
   2.435779e+02  -1.077281e+02
   4.145216e+02   1.228294e+01
   3.699849e+02   2.493133e+02
   1.152130e+02   4.290951e+02
  -3.501788e+02   4.397187e+02
  -5.127284e+02   2.735850e+02
  -4.054402e+02  -1.111045e+02
  -5.962105e+01  -3.430130e+02
   1.368702e+02  -2.720871e+02
   7.181226e+01  -1.102728e+01
  -1.065095e+02   1.484732e+02
  -1.965312e+02   2.412339e+01
  -5.370102e+01  -2.269184e+02
   1.245583e+02  -1.929664e+02
   1.832255e+02   6.815341e+01
  -2.608112e+01   1.885028e+02
  -1.879141e+02   5.205392e+01
  -1.392204e+02  -2.332065e+02
   2.918133e+00  -3.485888e+02
   2.213109e+02  -2.067888e+02
   3.118801e+02   8.920327e+01
   2.643854e+02   2.299552e+02
   9.713078e+01   2.703253e+02
  -1.491405e+02   1.517848e+02
  -1.794077e+02  -1.446907e+01
  -1.729865e+01  -4.088748e+01
   1.288537e+02   2.747362e+01
   3.201671e+01   1.243461e+02
  -1.235530e+02   1.036985e+02
  -1.304468e+02  -1.436630e-01
  -3.976412e+01  -5.468938e+01
   4.774963e+01  -7.797859e+00
   6.196393e+00   6.402669e+01
  -1.663894e+02   7.852681e+01
  -2.551566e+02   1.755324e+00
  -1.947852e+02  -1.479516e+02
  -5.680387e+01  -3.171967e+02
   1.055823e+02  -2.837398e+02
   2.542055e+02  -1.655391e+02
   2.205990e+02   4.483686e+01
   2.213675e+01   7.486329e+01
  -8.608185e+01   2.011951e+01
  -3.458307e+01  -1.322913e+02
   1.361473e+02  -6.705084e+01
   2.350809e+02   1.241984e+02
   1.096538e+02   1.724794e+02
  -8.480309e+01   1.891730e+02
  -1.435181e+02   3.151627e+01
  -5.884237e+01  -3.042556e+01
   4.147642e+01  -9.946597e+00
   4.623323e+01   9.326688e+01
  -6.559596e+01   1.168638e+02
  -2.063389e+02   4.306029e+01
  -1.847460e+02  -8.834274e+01
  -4.797006e+01  -2.123999e+02
   1.129285e+02  -1.696624e+02
   1.334284e+02  -2.588086e+01
   1.083841e+02   1.020494e+02
  -2.794882e+01   1.295454e+02
  -6.864522e+01   5.941013e+01
  -1.402779e+01  -1.008455e+01
  -1.666711e+00  -5.670976e+01
   4.387448e+01   2.264081e+01
  -5.389971e+01   1.050245e+01
  -6.066769e+01  -8.799470e+01
  -1.934051e+01  -1.347527e+02
   8.751129e+01  -1.351924e+02
   2.553655e+02  -3.661236e+01
   2.426971e+02   1.257467e+02
   4.726654e+01   2.536689e+02
  -1.171564e+02   1.663994e+02
  -1.658432e+02   6.197088e+01
  -9.386122e+01  -2.113107e+01
   2.406033e+01  -2.859289e+01
  -2.262871e+01  -1.061724e+01
  -8.345525e+01  -4.873164e+01
  -1.480487e+01  -5.573915e+01
   2.263947e+01  -5.305180e+01
   7.350586e+01  -7.450233e+01
   1.067461e+02   3.584604e+01
   1.033987e+01   9.576708e+01
  -8.035525e+01   8.671679e+01
  -1.818743e+02  -2.990526e+01
  -1.037097e+02  -1.867069e+02
   2.636375e+01  -2.372521e+02
   2.283533e+02  -1.010909e+02
   2.515773e+02   7.440363e+01
   1.265852e+02   1.735556e+02
  -4.592552e+01   1.487376e+02
  -8.921435e+01   7.922160e+01
  -7.517814e+01   7.155929e+01
  -8.171473e+01   1.048567e+02
  -1.270720e+02   1.031769e+02
  -1.934048e+02  -4.007269e+01
  -1.211442e+02  -1.764971e+02
   2.471366e+01  -2.413268e+02
   1.075938e+02  -2.329176e+02
   1.915827e+02  -4.385122e+01
   1.557027e+02   1.456952e+02
  -2.292029e+00   2.200470e+02
  -6.475603e+01   1.215264e+02
  -7.507860e+01  -5.675662e+00
  -1.136375e+01  -7.153211e+01
   6.209026e+01  -6.220834e+01
   1.197587e+01   3.490786e+01
  -1.764182e+01  -1.157641e+01
  -2.542151e+01  -3.129929e+01
   3.708350e+01  -3.030392e+01
   1.551599e+02   9.667952e-01
   1.480530e+02   6.442830e+01
   1.950377e+00   1.030246e+02
  -1.145298e+02   6.489230e+01
  -1.497327e+02   7.759196e+00
  -4.909887e+01  -8.798646e+01
   6.892617e+01  -5.547688e+01
   5.923660e+01  -6.251992e-01
  -1.690237e+01   2.960827e+01
  -2.889314e+01   4.594272e+01
  -8.200466e+01  -3.893429e+01
  -1.696973e+01  -7.784837e+01
  -5.704252e+01  -9.517160e+01
  -1.060926e+01  -1.567279e+01
  -2.511900e+01   2.708013e+01
  -4.264874e+01  -5.495343e+01
   6.040978e+00  -1.450240e+02
   9.387570e+01  -1.445902e+02
   1.208001e+02  -3.228404e+00
   1.211540e+02   7.316642e+01
   2.673814e+01   1.575083e+02
  -6.758348e+01   3.535567e+01
  -4.742311e+01   1.592640e+01
   2.152866e+01   1.941018e+00
   5.081531e+01   9.856860e+01
   8.826952e+01   1.138002e+02
  -5.262827e+01   8.112085e+01
  -1.765054e+02   4.813455e+01
  -1.565798e+02  -2.990559e+01
  -3.963401e+01  -6.946498e+01
   3.445674e+01  -4.326136e+01
   4.024394e+01  -3.924625e+01
   2.267661e-02   3.017335e+00
  -1.042981e+02  -4.063540e+01
   4.985765e+00  -9.203070e+01
   8.970076e+01  -1.188440e+02
   1.630937e+02  -7.111160e+01
   1.330747e+02   1.050624e+02
  -1.031658e+01   1.669188e+02
  -9.018672e+01   1.220652e+02
  -9.114275e+01  -3.391656e+01
  -4.276056e+01  -1.174724e+02
   2.742711e+01  -9.783062e+01
   6.950617e+01  -4.124024e+01
   4.005778e+01   2.203555e+01
   4.041816e+01   3.007007e+01
   1.224016e+01  -3.992241e+01
   5.217449e+01  -5.188665e+00
   1.098541e+01   1.086467e+02
  -4.087234e-02   9.051722e+01
  -5.392616e+01   6.539480e+01
  -1.370371e+02  -8.075956e+01
  -1.472246e+02  -7.024012e+01
  -4.156772e+01  -6.617606e+01
   7.251449e+01  -6.786446e+00
   7.831938e+01  -2.266631e+01
   6.043498e+00   1.721761e+01
  -7.025826e+01   1.837393e+01
  -4.313964e+01   3.864085e+01
   2.894271e+01  -2.736565e+01
   2.272637e+01  -4.753886e+01
  -5.013691e+01  -4.905925e+01
  -1.140351e+02  -2.651275e+01
  -1.873277e+01  -7.408658e+01
   1.607575e+02  -1.350261e+02
   2.315936e+02  -8.426334e+01
   1.457834e+02   9.744603e+01
  -9.845763e+00   1.940591e+02
  -9.646854e+01   1.650499e+02
  -1.176906e+02   6.551280e+01
  -1.019552e+02  -1.688473e+00
  -6.892979e+01  -5.863431e+01
  -1.873224e+01  -5.540281e+01
   8.177056e+00  -1.098601e+01
  -5.926639e+00  -8.433177e+01
  -2.344603e+01  -7.459560e+01
  -1.550860e+01  -6.285242e+01
   6.932189e+01  -6.776751e+00
   9.479001e+01   9.616448e+01
   6.266414e-01   1.115901e+02
  -1.232185e+02   5.233240e+01
  -1.457389e+02  -7.778108e+01
  -8.254741e+01  -1.039973e+02
   9.224625e+01  -4.549481e+01
   1.112920e+02  -1.539079e+00
   3.272143e+01   3.649594e+01
  -4.351161e+00   4.096172e+01
  -1.102505e+01   7.009989e+01
   7.867954e+01   4.568110e+00
   8.337201e+01  -5.352368e+00
  -1.335898e+01   4.690547e+01
  -8.089658e+01   8.035964e+01
  -1.063651e+02   1.130481e+02
  -7.695321e+01   2.348580e+01
   2.986074e+01  -1.048354e+02
   5.152439e+01  -7.216162e+01
   4.086897e+01  -4.117608e+00
  -4.802261e+01   7.047688e+01
  -1.197213e+01   4.493145e+01
  -3.339616e+01  -4.854552e+01
  -2.491564e+01  -9.776593e+01
   2.796361e+00  -7.376045e+01
   7.084193e+01  -3.251347e+01
   4.350649e+01   4.314159e+01
   1.124565e+00  -1.163242e+01
  -3.687828e-01  -2.709492e+01
   2.945423e+01  -1.910886e+01
   5.127217e+00   3.618226e+00
   3.803075e+01   3.744839e+01
   2.554811e+01  -2.840789e+01
  -1.770379e+01  -7.104226e+01
  -2.170439e+01  -3.950643e+01
   1.861570e+01   4.774824e+01
   6.574902e+01   4.746955e+01
  -1.337080e+01   4.925766e+01
  -9.238171e+01   2.179335e+01
  -1.009193e+02  -1.982919e+01
  -6.185652e+01  -1.486786e+01
   1.375172e+01  -4.259747e+01
   1.951473e+01  -3.805288e+01
  -1.111472e+01  -2.151873e+01
  -4.782269e+01   2.167506e+01
  -3.137516e+01  -1.122076e+01
   4.745358e+01  -6.717067e+01
   1.078522e+02  -2.167194e+01
