
 $NMID
 id='ANONYMOUS ', fmtdat='(2E16.6)'
 volume=1.0
 tramp=1.0
 $END
  -4.531572e+03   6.251326e+01
  -2.596572e+03  -2.858073e+03
   8.142887e+02  -2.950301e+03
   2.279331e+03  -8.193679e+02
   8.489190e+02   7.317481e+02
  -6.332819e+02   5.908126e+02
  -9.020487e+02  -4.521211e+02
   1.241826e+02  -1.178078e+03
   1.027411e+03  -8.115328e+02
   1.105212e+03   7.560796e+01
   2.992230e+02   9.388419e+02
  -2.555394e+02   9.501052e+02
  -7.399151e+02   4.876749e+01
  -3.706095e+02  -6.618995e+02
   2.029761e+02  -8.194091e+02
   5.295016e+02  -1.037152e+02
   4.587671e+02   7.173243e+02
  -6.392015e+02   6.802517e+02
  -4.934366e+02   4.346975e+01
  -3.981390e+02  -5.746937e+02
   2.766108e+01  -5.962395e+02
   4.502774e+02  -2.537234e+02
   2.219820e+02  -1.144624e+02
  -1.999939e+02  -1.107981e+02
  -4.152563e+02  -3.002487e+01
  -3.283858e+02  -6.340609e+02
   4.224225e+02  -6.579689e+02
   9.245398e+02   7.698495e+01
   4.023221e+02   5.967684e+02
  -5.136325e+02   5.004968e+02
  -8.335136e+02   1.723254e+01
  -4.233635e+02  -5.691526e+02
   2.539993e+02  -6.428978e+02
   6.036411e+02  -3.085743e+02
   3.448365e+02   3.211396e+02
  -2.205993e+01   5.619067e+02
  -2.515714e+02   3.465427e+02
  -2.392988e+02  -1.601729e+02
   9.111066e+01  -4.811090e+02
   5.414568e+02  -1.175081e+02
   3.299167e+02   7.759329e+02
  -2.835199e+02   8.074496e+02
  -6.705142e+02   4.125553e+01
  -3.695774e+02  -5.926095e+02
   3.746709e+02  -3.595553e+02
   5.646250e+02   3.414883e+02
  -2.384587e+01   6.341048e+02
  -5.845882e+02   1.817876e+02
  -6.976501e+02  -4.087848e+02
  -1.766491e+02  -6.332905e+02
   4.343516e+02  -4.026044e+02
   7.260789e+02   6.855354e+01
   4.344209e+02   4.706370e+02
  -1.667498e+02   4.690195e+02
  -4.751512e+02   1.086361e+02
  -2.835504e+02  -2.385977e+02
   1.263303e+02  -1.529652e+02
   1.539141e+02   2.269280e+02
  -1.589072e+02   2.329725e+02
  -3.584668e+02  -8.995617e+01
  -1.953256e+02  -2.949035e+02
   1.463792e+02  -2.782098e+02
   3.150497e+02  -4.943757e+01
   2.441178e+02   4.407687e+01
   1.535020e+01   1.993651e+02
  -1.644913e+02   3.405988e+02
  -3.800313e+02   2.215369e+02
  -3.383749e+02  -1.319817e+02
  -9.813407e+01  -4.606182e+02
   1.692457e+02  -3.692665e+02
   1.605016e+02  -5.767020e+01
  -9.291256e+00   1.763113e+01
   8.336820e+00  -1.008376e+02
   2.136159e+02  -1.504686e+02
   2.887169e+02   3.869623e+01
   1.330404e+02   2.561735e+02
  -1.071413e+02   2.269997e+02
  -1.876905e+02   3.266729e+01
  -1.804631e+02  -2.021549e+02
   2.438577e+01  -2.801088e+02
   2.668185e+02  -1.563751e+02
   3.566439e+02   1.665529e+02
   2.041523e+02   3.651166e+02
  -1.024919e+02   3.434080e+02
  -2.382589e+02   1.175385e+02
  -1.809798e+02  -1.231514e+01
  -1.023197e+02   5.968697e+01
  -2.422040e+02   5.591741e+01
  -3.868586e+02  -2.651391e+01
  -3.502978e+02  -3.257544e+02
  -1.458567e+01  -4.453848e+02
   3.402220e+02  -4.163958e+02
   4.560510e+02  -1.969903e+02
   3.318261e+02   1.375558e+02
   8.270786e+01   2.997850e+02
  -1.062264e+02   2.712222e+02
  -9.910432e+01  -2.669033e+01
   8.134119e+01  -1.303382e+02
   2.301570e+02   5.790563e+01
   7.157772e+01   2.688679e+02
  -1.732202e+02   2.170091e+02
  -2.389890e+02  -8.965816e+01
   1.709247e+01  -2.102039e+02
   2.224693e+02  -4.485868e+01
   1.843860e+02   2.557905e+02
  -5.639905e+01   3.602501e+02
  -2.461797e+02   1.772120e+02
  -2.887062e+02  -4.563721e+01
  -2.463536e+02  -2.236038e+02
  -1.443093e+02  -2.266256e+02
   6.763739e+01  -2.060393e+02
   1.430100e+02  -8.996203e+00
   6.826338e+01   1.409512e+00
  -8.080307e+01  -4.231552e+01
  -2.474653e+01  -1.472085e+02
   9.874151e+01  -1.474468e+02
   1.971966e+02   1.323401e+00
   6.345373e+01   7.740314e+01
  -3.678538e+01   3.935870e+01
  -2.845544e+01  -9.846968e+01
   9.159450e+01  -9.092244e+01
   2.460272e+02  -1.327232e+01
   2.813007e+02   1.397151e+02
   1.154033e+02   2.783399e+02
  -1.180912e+02   2.943198e+02
  -3.024132e+02   1.844930e+02
  -1.986953e+02  -6.042627e+01
   1.817404e+00  -1.301283e+02
   7.018978e+01  -3.203252e+01
  -3.367777e+01   1.132332e+02
  -2.238067e+02   9.327090e+01
  -2.201986e+02  -1.047146e+02
  -1.011576e+02  -2.521323e+02
   1.381675e+02  -2.293543e+02
   2.096778e+02  -6.882839e+01
   1.153734e+02   2.992925e+01
  -2.703394e+01  -1.307747e+01
  -2.176586e+01  -7.508344e+01
   8.638375e+01  -1.065723e+02
   2.124243e+02   1.532718e+00
   2.253767e+02   1.340185e+02
   3.457207e+01   2.234205e+02
  -1.572525e+02   1.893973e+02
  -2.062876e+02   3.848650e+01
  -1.094557e+02  -1.064983e+02
   3.792713e+01  -1.494690e+02
   5.613209e+01  -4.970241e+01
   4.178965e+01  -2.202099e+01
   2.146513e+01   4.926848e+01
   4.556532e+01   9.994955e+00
   9.620762e+01   3.868252e+01
   3.030438e+01   6.567667e+01
  -1.642792e+01   1.697433e+02
  -1.621147e+02   1.482562e+02
  -2.199463e+02   3.697920e+01
  -1.519867e+02  -1.427990e+02
   3.775564e+00  -2.243008e+02
   6.246297e+01  -1.759304e+02
   1.044185e+02  -7.546387e+00
   6.077143e+01   5.788613e+01
   6.486833e+01   3.462792e+01
   2.582999e+01   1.857253e+00
   3.852907e+01   2.777957e+00
   2.102214e+01   3.474744e+01
  -6.242467e+01   1.161257e+02
  -7.111243e+01   7.847717e+01
  -4.389836e+01  -1.643746e+01
   5.646711e+00  -8.873646e+01
   1.502832e+02  -4.338760e+01
   1.720883e+02   6.335586e+01
   5.893445e+01   1.542477e+02
  -9.149472e+01   2.367918e+02
  -2.702120e+02   1.023511e+02
  -2.895317e+02  -5.317667e+01
  -1.198287e+02  -1.701829e+02
   2.801892e+01  -1.471061e+02
   1.242083e+02  -1.366350e+02
   1.004073e+02  -6.290641e+01
   9.328583e+01  -1.265860e+02
   6.122333e+01  -7.293985e+01
   1.206568e+02   6.498705e+00
   1.353039e+02   1.490026e+02
   6.172214e+01   2.430584e+02
  -6.475183e+01   1.717455e+02
  -1.404783e+02   3.502699e+01
  -1.210779e+02  -1.351219e+02
  -6.977290e+01  -1.195539e+02
   7.996679e+01  -7.334765e+01
   5.703293e+01   4.712598e+01
   2.286365e+01   5.825191e+01
  -4.854104e+01   4.740214e+01
   1.906292e+01   4.582650e+01
   3.965927e+01   2.690829e+01
   3.515982e+01   5.926993e+01
  -9.198399e+01   4.895348e+00
  -1.463083e+02  -4.104698e+01
  -1.215013e+02  -7.075578e+01
   1.967670e+01  -7.181467e+01
   1.178734e+02  -6.160454e+01
   1.361063e+02  -2.844364e+01
   4.437810e+01   1.532247e+00
  -1.035391e+02   2.004342e+01
  -6.886827e+01  -1.712622e+01
   1.300238e+01  -6.446228e+01
   1.028192e+02  -5.281069e+01
   5.389423e+01   3.570602e+00
   2.126323e+01   2.949671e+01
  -1.193350e+01   1.198904e+01
   5.450491e+01   1.131639e+01
   8.992119e+01   2.598433e+01
   2.126898e+01   7.454310e+01
  -5.196630e+01   1.205477e+02
  -1.385276e+02   1.632001e+02
  -1.516576e+02   1.023526e+01
  -1.289251e+02  -1.092749e+02
  -1.042918e+01  -1.137164e+02
   8.137564e+01  -4.086051e+01
   6.647502e+01   4.389488e+01
  -5.020143e+01   6.785414e+01
  -1.627721e+02  -5.765033e+01
  -1.253241e+02  -1.927802e+02
   3.650995e+01  -1.648215e+02
   1.570473e+02  -5.415233e+01
   1.376190e+02   3.904637e+01
   3.637242e+01   1.002810e+02
  -4.923478e+01   6.262642e+01
  -2.284231e+01  -1.465075e+01
   2.914380e+01  -1.486013e+01
   9.063454e+01  -4.834000e+00
   5.834804e+00   1.176824e+02
  -8.210045e+01   1.631540e+02
  -1.867600e+02   2.613845e+01
  -8.140025e+01  -1.364585e+02
  -2.356695e+01  -2.043145e+02
   1.099030e+02  -1.273672e+02
   1.411736e+02   1.451687e+01
   1.045076e+02   9.746568e+01
  -1.360365e+00   1.156995e+02
  -8.320388e+01   3.567146e+01
  -6.992711e+01   1.958148e+00
  -8.205656e+01   3.404477e+00
   2.994704e+01   3.526911e+01
  -4.947411e+00  -8.452215e+01
  -9.080263e+01  -3.750821e+01
  -5.910810e+01  -1.371198e+02
   6.414611e+01  -6.316813e+01
   1.612465e+02   3.032013e+01
   1.821407e+02   3.876136e+01
   3.968282e+01   7.799445e+01
  -1.188092e+02   3.949153e+01
  -1.124623e+02   2.365150e+01
  -2.213776e+01  -4.877890e+01
   4.467009e+01  -3.405058e+01
   3.469401e+01  -1.824833e+01
  -1.991078e+01  -5.146570e+00
  -3.625399e+01  -1.260089e+01
   8.944735e+01   3.799912e+01
   1.373878e+02   1.701999e+01
   1.258905e+01   5.442150e+01
  -1.081799e+02   1.305825e+02
  -2.406753e+02   3.790006e+01
  -1.460628e+02  -8.845338e+01
  -2.665100e+01  -1.956843e+02
   7.988161e+01  -1.071593e+02
   9.390640e+01  -3.822464e+01
   1.147834e+02   1.743569e+00
   6.069420e+01   3.638603e+01
   2.196373e+01  -1.126047e+00
  -2.752337e+00   1.186761e+01
   3.422014e+01   4.613565e+01
  -2.232200e-01   7.247720e+01
  -6.039398e+01   6.536178e+01
  -1.178341e+02  -2.098451e+01
  -9.152485e+01  -1.104993e+02
  -3.935645e-01  -9.612220e+01
   1.135497e+02  -3.341026e+01
   1.114524e+02   3.513843e+01
   7.262795e+01   9.175207e+01
  -6.838187e+01   6.482159e+01
  -7.836327e+01   3.759310e+01
  -4.571462e+01  -8.711166e+00
   5.430861e+01  -1.967571e+01
   3.512611e+01   1.190217e+01
  -2.022767e+01   1.205368e+01
  -5.504781e+01   1.875547e+01
  -3.636134e+01  -7.655271e+00
  -2.339003e+00  -6.366968e+01
   9.485051e+01  -7.442590e+01
   3.799645e+01  -8.206280e+00
  -3.190515e+01   7.909618e+01
  -5.748460e+01   5.973785e+01
  -5.156280e+01  -2.192873e+01
  -9.729936e+00  -7.071860e+01
   2.623738e+01  -1.341142e+01
   6.410399e+01   8.962387e+00
   3.602282e+01   6.499868e+01
  -2.019942e+01   6.630878e+01
  -5.828473e+01  -2.519524e+01
  -4.286912e+01   1.468706e+01
   2.897942e-01  -1.653233e+00
   2.646068e+01  -1.984844e+01
   5.159581e+01  -2.629068e+01
  -2.987523e+01  -3.051834e+01
  -1.103747e+01  -1.468983e+01
   5.067254e+00   2.937040e+01
   5.001664e+01   4.684932e+01
   3.739206e+01   1.361582e+01
  -1.958596e+01  -2.258912e+00
  -4.387449e+01  -9.595219e+01
  -1.762714e+01  -9.878360e+01
   7.997371e+01  -3.926416e+01
   6.036180e+01   4.662352e+01
   2.665731e+01   4.993448e+01
  -2.326591e+01   3.471225e+01
  -3.428443e+01   4.959341e+01
  -2.416819e+01  -7.650157e+00
   2.225958e+01   7.351581e-01
   3.269150e+01  -8.561016e+00
  -5.676098e+01   2.863880e+01
  -1.060650e+02   1.500530e+01
