
 $NMID
 id='ANONYMOUS ', fmtdat='(2E16.6)'
 volume=1.0
 tramp=1.0
 $END
  -4.589711e+03   1.283987e+02
  -2.619434e+03  -3.059129e+03
   9.164618e+02  -3.337891e+03
   2.404780e+03  -7.472462e+02
   8.792561e+02   7.377606e+02
  -8.381529e+02   6.574056e+02
  -1.025969e+03  -5.317801e+02
   1.031118e+02  -1.298641e+03
   1.040516e+03  -8.097991e+02
   1.162459e+03   2.459341e+02
   5.919970e+02   1.065025e+03
  -5.310457e+02   9.295148e+02
  -7.413647e+02   1.946175e+02
  -3.968271e+02  -7.234635e+02
   3.690043e+02  -8.517159e+02
   8.918503e+02  -5.140247e+01
   9.352902e+01   7.676838e+02
  -3.573891e+02   7.437724e+02
  -6.646388e+02  -4.419366e+01
  -4.854313e+02  -5.359386e+02
   5.695157e+01  -4.223360e+02
   2.840224e+02  -2.487300e+02
   2.981017e+02  -5.656165e+01
   1.505832e+02   2.191185e+02
  -3.923879e+02  -1.639988e+02
  -1.784184e+02  -4.222582e+02
   5.826612e+02  -4.445919e+02
   9.923047e+02   3.919343e+01
   4.075238e+02   6.997065e+02
  -3.190287e+02   4.367013e+02
  -7.785127e+02  -4.187319e+01
  -2.575498e+02  -5.789102e+02
   3.239657e+02  -4.015309e+02
   5.798688e+02  -1.408031e+02
   4.927938e+02   3.678468e+02
   5.641715e+01   4.226299e+02
  -2.424214e+02   3.860254e+02
  -2.075480e+02  -2.663087e+02
   1.927419e+02  -5.191935e+02
   5.250373e+02   3.626746e+01
   3.280860e+02   7.506044e+02
  -3.895587e+02   7.359602e+02
  -6.925431e+02  -4.393748e+01
  -2.909546e+02  -6.353360e+02
   3.607112e+02  -3.213838e+02
   4.528565e+02   3.942306e+02
  -5.058249e+01   5.528478e+02
  -6.010059e+02   1.921327e+02
  -6.110784e+02  -3.661857e+02
  -1.622153e+02  -5.789855e+02
   4.051277e+02  -4.029433e+02
   6.707576e+02   4.775581e+01
   4.002134e+02   4.178474e+02
  -1.920418e+02   4.664299e+02
  -5.390317e+02   1.204351e+02
  -2.884668e+02  -2.444685e+02
   9.258166e+01  -1.580928e+02
   1.445224e+02   1.446521e+02
  -2.026457e+02   1.973051e+02
  -3.891849e+02  -1.108412e+02
  -1.774171e+02  -3.635591e+02
   2.351480e+02  -3.167590e+02
   3.692624e+02  -6.887415e+01
   2.390811e+02   8.513819e+01
   6.884732e+00   2.345279e+02
  -2.124881e+02   3.852393e+02
  -3.309935e+02   2.415056e+02
  -3.151564e+02  -1.433055e+02
  -9.046467e+01  -4.792479e+02
   1.685108e+02  -4.079565e+02
   1.665593e+02  -3.612304e+01
   1.414690e+01   6.224981e+01
   3.753050e+01  -1.346409e+02
   1.760101e+02  -1.466976e+02
   3.124657e+02   5.483353e+01
   1.698255e+02   2.782869e+02
  -6.330661e+01   2.616841e+02
  -2.185585e+02   2.996832e+01
  -1.887867e+02  -2.179566e+02
  -1.433197e+01  -2.838763e+02
   2.623664e+02  -8.446066e+01
   3.533852e+02   1.626572e+02
   1.900325e+02   3.545836e+02
  -1.370973e+02   3.212985e+02
  -2.463716e+02   1.376190e+02
  -1.129109e+02  -1.160713e+01
  -9.277926e+01   1.097577e+01
  -2.541960e+02   5.478154e+01
  -4.327530e+02  -8.867921e+01
  -3.063071e+02  -2.892478e+02
  -8.077396e+00  -4.584179e+02
   3.509923e+02  -3.894758e+02
   4.386863e+02  -1.375931e+02
   3.150540e+02   9.499368e+01
   7.040739e+01   2.534479e+02
  -1.012395e+02   2.096422e+02
  -6.880418e+01  -1.407848e+01
   1.447413e+02  -1.189270e+02
   2.236733e+02   3.586600e+01
   4.898166e+01   2.147077e+02
  -1.406922e+02   1.599588e+02
  -1.589650e+02  -7.573101e+01
  -1.156031e+01  -1.960597e+02
   2.150268e+02  -7.178577e+00
   1.718890e+02   2.606828e+02
  -6.928005e+01   3.660821e+02
  -2.457379e+02   2.635675e+02
  -3.347455e+02  -2.670686e+01
  -2.705434e+02  -2.030321e+02
  -1.374935e+02  -2.956466e+02
   1.185718e+02  -1.731218e+02
   2.131368e+02  -2.094858e+01
   8.002953e+01   3.445855e+01
  -1.173319e+02  -7.029071e+01
  -3.207510e+01  -1.549385e+02
   1.548666e+02  -1.512625e+02
   2.156524e+02   2.743778e+01
   8.946527e+01   1.174366e+02
  -8.294683e+01   4.088498e+01
  -8.668905e+01  -7.279347e+01
   1.263578e+02  -1.066181e+02
   2.860726e+02  -2.361302e+01
   2.897610e+02   1.331060e+02
   5.327728e+01   2.481747e+02
  -2.028393e+02   2.854330e+02
  -3.044311e+02   1.750020e+02
  -1.677268e+02  -4.836980e+01
   3.475577e+01  -1.429639e+02
   6.684782e+01  -4.440748e+01
  -7.804140e+00   1.713677e+02
  -2.043929e+02   1.104994e+02
  -2.607252e+02  -8.907828e+01
  -1.429864e+02  -2.703562e+02
   8.276025e+01  -1.918386e+02
   1.521911e+02  -5.045342e+01
   8.816527e+01   5.563544e+01
   5.012283e+01   3.709394e+01
   4.247095e+00  -6.531706e+01
   3.555918e+01  -8.631173e+01
   1.522751e+02  -7.392918e+00
   1.567863e+02   1.431466e+02
   2.774384e+01   2.356867e+02
  -1.765594e+02   1.931679e+02
  -1.925574e+02   1.333583e-01
  -9.684213e+01  -1.133136e+02
   9.012576e+01  -1.506549e+02
   1.065240e+02  -5.775704e+01
   8.339209e+00   7.789621e+00
  -4.289437e+01   3.978525e+01
   2.674530e+01  -1.598656e+01
   2.549472e+01   6.196416e+00
   8.565142e+01   9.106230e+01
  -4.358780e+00   1.510545e+02
  -1.429945e+02   1.395614e+02
  -2.549423e+02  -7.768081e+00
  -1.906770e+02  -1.465728e+02
  -2.804974e+01  -3.041898e+02
   1.408365e+02  -1.890786e+02
   1.913724e+02  -1.089768e+01
   9.870939e+01   1.010380e+02
   2.264777e+01   4.434379e+01
   4.422697e+01   1.076154e+00
   7.822889e+01  -4.578941e+01
   2.933061e+01   4.180932e+01
  -4.384250e+01   6.893474e+01
  -1.279529e+02   5.620119e+01
  -6.611186e+01  -3.649959e+01
   2.681972e+01  -1.129398e+02
   1.399147e+02  -9.284364e+01
   2.060017e+02   7.923080e+01
   1.098609e+02   2.284063e+02
  -1.154784e+02   2.485200e+02
  -2.730833e+02   1.221603e+02
  -3.215116e+02  -1.080276e+02
  -9.181600e+01  -1.724475e+02
   5.122527e+01  -1.780786e+02
   1.158808e+02  -7.174851e+01
   9.000699e+01  -9.719591e+01
   7.162745e+01  -9.998196e+01
   8.355765e+01  -7.804828e+01
   1.985534e+02   3.545302e+01
   1.059906e+02   1.662165e+02
   2.638868e+01   2.702029e+02
  -1.257850e+02   1.968200e+02
  -2.133313e+02   6.828656e+01
  -1.786295e+02  -1.366401e+02
  -3.228658e+01  -1.670851e+02
   8.136882e+01  -4.441540e+01
   9.586955e+01   1.909057e+01
  -5.421822e+00   7.032474e+01
  -1.277189e+01  -2.562883e+00
   6.673691e+01  -1.069074e+00
   1.235324e+02  -1.179570e+00
   4.304277e+01   7.537410e+01
  -2.728074e+01   3.434294e+01
  -1.522972e+02   2.928674e+01
  -1.987121e+02  -8.152711e+01
  -6.662262e+01  -1.094648e+02
   1.127633e+02  -1.147821e+02
   1.665520e+02  -5.146937e+01
   7.951728e+01   5.357944e+01
  -3.790614e+01   5.058665e+01
  -5.665082e+01  -6.715949e+01
   5.226703e+01  -9.561651e+01
   3.448408e+01  -6.026983e+01
   7.237255e+01   9.130685e+00
   4.690657e+01   8.761526e+01
   5.046611e+01   1.669917e+01
   4.612559e+01   1.092382e+01
   8.152684e+01  -2.077387e+01
   3.598400e+01   6.934083e+01
  -1.579910e+01   1.058408e+02
  -1.415286e+02   1.596153e+02
  -1.654942e+02   4.611940e+01
  -1.323941e+02  -9.383047e+01
  -6.872838e+01  -1.087485e+02
   7.538877e+01  -4.739809e+01
   2.877066e+01  -2.653554e+01
  -8.381614e+01   2.851991e+01
  -1.900677e+02  -3.659482e+01
  -9.268119e+01  -1.349129e+02
   8.766745e+01  -1.039506e+02
   2.482261e+02  -7.432549e+01
   1.375474e+02   2.977117e+01
   5.990041e+01   1.041417e+02
  -5.996459e+01   7.000664e+01
  -3.832385e+01   3.434667e+01
   6.552633e+01   1.233406e+01
   1.146469e+02   7.534409e+00
   3.865955e+01   1.426959e+02
  -9.338081e+01   1.552342e+02
  -1.670103e+02   4.172720e+01
  -1.029100e+02  -9.930710e+01
   3.418358e+01  -2.044332e+02
   8.004110e+01  -1.027867e+02
   6.053802e+01   1.203356e+01
   4.294984e+01   1.066061e+02
   2.079002e+01   1.218228e+02
  -8.694924e+01   5.795535e+01
  -3.192667e+01  -6.761797e+01
  -6.856639e+00  -4.933008e+01
   1.022687e+01   1.315988e+01
  -5.080135e+01   4.972561e+01
  -6.472184e+01  -7.928745e+01
  -6.078054e+01  -1.645250e+02
   5.162746e+01  -9.250387e+01
   1.450673e+02   2.739904e+01
   1.417028e+02   8.282315e+01
  -6.911848e+00   4.806121e+01
  -9.946509e+01   2.166383e+01
  -1.202805e+02   3.150020e+01
  -1.544493e+01   1.986866e+01
   4.330394e+01  -3.536703e+01
  -1.985103e+01  -1.433915e+01
  -1.202200e+01  -1.600286e+01
   1.019966e+01   2.046257e+01
   1.006438e+02  -1.877520e+01
   8.158539e+01  -7.687849e-01
   1.649565e+01   7.731673e+01
  -1.053971e+02   7.842858e+01
  -1.626666e+02   9.418497e+01
  -1.047809e+02  -4.565738e+01
  -2.935476e+01  -1.587311e+02
   2.387599e+01  -1.904398e+02
   7.603305e+01  -2.341348e+01
   4.350001e+01  -3.444609e+00
   3.580714e+01   5.878465e+01
  -8.270350e+00   6.772565e+00
   7.655963e+00   1.724340e+01
   2.305066e+01   4.690174e+01
   2.065720e+01   1.347959e+02
  -3.312128e+01   4.801814e+01
  -6.986675e+01  -2.274620e+01
  -6.974516e+01  -1.200906e+02
   7.813604e+00  -1.022564e+02
   8.401320e+01   1.628857e+00
   1.044242e+02   1.215004e+02
   3.927874e+01   9.977579e+01
  -5.981866e+01   7.847621e+00
  -8.162166e+01  -2.904998e+01
  -4.153972e+01  -6.691204e+01
   6.003341e+01  -2.264488e+01
   2.023703e+01  -2.672030e+01
  -2.715351e+01   3.047100e+01
  -5.064671e+01  -1.754092e+01
  -1.685891e+01  -2.632600e+01
   4.372648e+01  -6.840356e+01
   1.309551e+02  -5.252843e+01
   7.174076e+01   2.393598e+01
  -6.415115e+00   1.160874e+02
  -7.418452e+01   6.453966e+01
  -3.245422e+01   2.250405e+01
   2.214162e+01  -5.997802e+01
   7.953824e+00  -8.094072e+01
  -1.377245e+01   6.941133e+00
   4.817664e+00   1.890925e+01
   1.574974e+01   2.895766e+01
  -4.629899e+00   1.699852e+01
  -4.767808e+01   5.011945e+00
  -6.825309e+00   1.222279e+01
   5.345418e+01   2.067859e+01
   2.720006e+01  -1.515567e+01
   1.010949e+01  -3.150402e+01
   5.760840e+01  -2.698194e+01
  -1.744090e+00  -1.171950e+00
  -1.503374e+01   6.554896e+01
  -4.536159e-01   8.487001e+01
  -4.460115e+01  -1.152982e+01
  -8.308693e+01  -8.006847e+00
  -7.983005e+00  -3.878011e+01
   4.758464e+01  -4.580902e+01
   9.738308e+01  -4.351932e+00
   1.030574e+01  -3.925867e+01
  -8.206024e+00   4.240224e+01
  -8.268070e+00  -1.739034e+01
   1.066967e+01  -1.292547e+01
   2.910984e+01  -1.968919e+01
   3.344109e+01   3.730929e+01
  -7.096147e+01   8.583406e+00
  -6.233936e+01   1.374529e+01
