
 $NMID
 id='ANONYMOUS ', fmtdat='(2E16.6)'
 volume=1.0
 tramp=1.0
 $END
   4.509507e+03  -3.820112e+01
   2.654978e+03   2.896596e+03
  -8.411787e+02   2.867876e+03
  -2.261901e+03   8.424937e+02
  -1.029541e+03  -6.834586e+02
   7.111121e+02  -7.054565e+02
   9.167470e+02   4.442964e+02
  -3.578913e+01   1.094982e+03
  -9.226711e+02   8.250116e+02
  -1.071503e+03  -1.255778e+02
  -4.678836e+02  -9.793350e+02
   1.834608e+02  -1.168227e+03
   7.573964e+02  -3.820982e+01
   4.350827e+02   6.401452e+02
  -2.789221e+02   8.146022e+02
  -6.554153e+02  -1.577993e+02
  -4.301681e+02  -8.027051e+02
   3.247802e+02  -6.357135e+02
   4.320144e+02  -7.670494e+01
   4.260508e+02   2.776149e+02
   8.369226e+01   5.993465e+02
  -3.924756e+02   2.127963e+02
  -3.688427e+02  -6.451769e+01
   2.510036e+02  -1.299838e+02
   6.498269e+02   9.010990e+01
   2.674084e+02   3.643797e+02
  -3.871085e+02   4.913058e+02
  -9.555938e+02  -1.583111e+02
  -5.198328e+02  -6.454804e+02
   4.245194e+02  -5.862336e+02
   8.884716e+02   3.906563e+01
   3.964181e+02   4.778518e+02
  -3.093646e+02   6.278684e+02
  -5.826827e+02   2.208615e+02
  -4.430637e+02  -2.838913e+02
  -6.311856e+01  -5.247351e+02
   2.491222e+02  -2.677785e+02
   2.683657e+02   2.781204e+02
  -1.944355e+02   5.119261e+02
  -4.354627e+02  -7.881119e+01
  -1.921850e+02  -7.955322e+02
   3.597737e+02  -8.049986e+02
   6.716898e+02   7.849658e-01
   3.196119e+02   5.932479e+02
  -2.948598e+02   4.235388e+02
  -4.199994e+02  -3.078561e+02
   5.850591e+01  -5.711325e+02
   5.769505e+02  -1.113047e+02
   6.395959e+02   4.708915e+02
   2.027086e+02   6.512180e+02
  -3.691869e+02   3.708947e+02
  -7.291252e+02  -8.004341e+01
  -4.455496e+02  -4.281851e+02
   1.798794e+02  -4.112170e+02
   5.118139e+02  -7.920432e+01
   2.733421e+02   2.203522e+02
  -1.464106e+02   1.410015e+02
  -1.662744e+02  -1.117049e+02
   2.130035e+02  -2.112532e+02
   4.004354e+02   2.246933e+01
   1.618633e+02   3.127037e+02
  -2.431075e+02   3.111685e+02
  -3.665821e+02   1.047783e+02
  -1.563114e+02  -1.364307e+02
   3.303330e+01  -2.466646e+02
   1.655658e+02  -3.370236e+02
   2.899170e+02  -2.229145e+02
   3.024372e+02   9.275867e+01
   1.442263e+02   4.022213e+02
  -4.993319e+01   3.916491e+02
  -1.335954e+02   1.206224e+02
  -6.780037e+01  -3.697377e+01
  -7.438911e+00   7.744999e+01
  -1.347556e+02   1.413807e+02
  -2.277366e+02  -1.684764e+01
  -1.831124e+02  -2.312207e+02
   5.905787e+01  -2.912630e+02
   2.276991e+02  -2.901124e+01
   2.208384e+02   2.665941e+02
   5.351545e+00   3.032090e+02
  -2.338532e+02   1.117690e+02
  -3.497557e+02  -1.789072e+02
  -2.058717e+02  -3.588790e+02
   7.564643e+01  -2.973481e+02
   2.130072e+02  -8.816918e+01
   1.504436e+02  -1.079802e+01
   9.445479e+01  -1.645724e+01
   2.503520e+02  -6.611651e+01
   3.975107e+02   6.302624e+01
   3.575374e+02   2.929275e+02
   4.004995e+01   4.813906e+02
  -4.030963e+02   4.244217e+02
  -5.848481e+02   2.111857e+02
  -3.543038e+02  -9.506570e+01
  -8.211195e+01  -2.930974e+02
   1.450141e+02  -2.771062e+02
   8.742240e+01  -5.791840e+01
  -1.148005e+02   8.327554e+01
  -2.130525e+02   1.444171e+01
   2.985869e+00  -1.841998e+02
   2.029685e+02  -1.943967e+02
   2.155515e+02   3.928772e+01
  -3.589150e+01   2.061211e+02
  -2.388788e+02   8.417234e+01
  -1.948256e+02  -2.405628e+02
  -7.281803e+00  -3.639785e+02
   2.343369e+02  -2.219700e+02
   3.320510e+02   1.235896e+02
   2.809791e+02   3.036542e+02
   1.045592e+02   2.712664e+02
  -9.414416e+01   1.252336e+02
  -1.911422e+02  -2.332495e+01
  -8.426967e+01  -4.584159e+01
   2.574814e+01   3.917218e+01
   2.429868e+01   1.186187e+02
  -1.460185e+02   8.627507e+01
  -2.043172e+02  -1.962958e+01
  -5.751292e+01  -6.457362e+01
   1.012762e+02  -2.972347e+01
   5.336082e+01   7.064877e+00
  -1.362566e+02   7.067308e+01
  -3.019886e+02  -1.261757e+01
  -2.630457e+02  -1.526169e+02
  -4.792706e+01  -2.512613e+02
   1.910223e+02  -2.643537e+02
   2.272660e+02  -1.524349e+02
   1.930962e+02   1.505587e+01
   5.514097e+00   1.617754e+02
  -6.271800e+01   4.238179e+01
  -2.220584e+00  -1.157328e+02
   1.772470e+02  -1.445170e+02
   2.465114e+02   1.037357e+02
   6.750977e+01   2.120081e+02
  -1.055448e+02   2.060427e+02
  -1.375072e+02   1.198538e+01
  -8.675523e+01  -4.791688e+01
   2.414287e+01   3.639682e+01
   6.212538e+01   1.050560e+02
  -8.155351e+01   1.017071e+02
  -1.900305e+02  -2.104975e+01
  -2.061673e+02  -1.773700e+02
  -9.520601e+00  -2.228017e+02
   1.566567e+02  -1.308039e+02
   1.995403e+02  -5.162500e+01
   1.005755e+02   1.354080e+02
  -7.294514e+01   1.438381e+02
  -1.451911e+02   3.384215e+01
  -7.479890e+01  -4.379190e+01
   4.632034e+01  -3.367240e+01
   1.486190e+01  -7.699553e+00
  -8.096195e+01  -3.562924e+01
  -7.750925e+01  -8.675280e+01
   3.488754e+01  -1.836805e+02
   1.508509e+02  -1.366680e+02
   2.108694e+02  -2.186026e+01
   1.881901e+02   1.683225e+02
   6.109361e+01   2.347223e+02
  -1.463509e+02   1.888232e+02
  -1.166518e+02   4.481401e+01
  -9.543296e+01  -1.046894e+02
  -3.842360e+01  -9.205712e+01
  -2.923335e+01  -3.033523e+01
  -6.801581e+01   3.966787e+01
  -4.802035e+01   2.801268e+01
   5.366283e+01  -4.174283e+01
   7.222842e+01  -5.205161e+01
   9.993541e+01   5.349655e+01
   2.062433e+00   7.446239e+01
  -1.394278e+02   5.502157e+01
  -2.044020e+02  -3.412745e+01
  -1.054562e+02  -1.642256e+02
   1.187468e+02  -2.038108e+02
   2.424714e+02  -9.094191e+01
   2.510072e+02   6.493025e+01
   9.737172e+01   1.752727e+02
  -8.234842e+01   1.743664e+02
  -1.159755e+02   8.385313e+01
  -8.912561e+01   5.240340e+01
  -6.239771e+01   6.817353e+01
  -1.082957e+02   5.844321e+01
  -1.147113e+02  -2.843745e+01
  -8.049740e+01  -1.638825e+02
  -1.284236e+01  -2.455145e+02
   1.374853e+02  -1.644372e+02
   1.955937e+02  -1.812238e+01
   1.073865e+02   1.049459e+02
   5.822070e+01   1.705911e+02
  -4.531228e+01   9.226712e+01
  -7.633115e+01  -4.061808e+00
  -1.301259e+01  -2.081166e+01
   3.380563e+01   3.582491e+01
  -4.727508e+01   2.076750e+01
  -8.595711e+01  -6.477020e+00
  -6.616638e+01  -5.567815e+01
   5.169343e+01  -4.566670e+01
   1.076003e+02  -2.743568e+01
   1.223240e+02   1.799329e+01
  -3.779330e+01   4.772541e+01
  -1.012788e+02   7.254232e+01
  -1.167110e+02   1.151417e+01
   7.843145e+00  -3.996494e+01
   5.614278e+01  -4.595974e+01
   6.892924e+01  -2.207136e+00
  -6.712733e+01   6.669404e+01
  -1.174904e+02   6.211506e+01
  -7.621921e+01  -8.579988e+00
  -1.354835e+01  -9.734056e+01
   2.668741e+01  -5.285999e+01
  -2.984295e+01  -5.263376e+01
  -2.575471e+01   1.525203e+00
  -2.708889e+00  -5.413503e+01
   4.599322e+01  -1.383960e+02
   6.325846e+01  -1.227749e+02
   1.900700e+02  -1.773075e+01
   1.405862e+02   1.172866e+02
   3.412894e+01   1.229713e+02
  -8.347124e+01   3.503075e+01
  -8.799297e+01  -7.609030e-01
   4.117194e+01  -7.370210e+00
   8.811057e+01   7.880784e+01
   6.364968e+01   1.261122e+02
  -3.113823e+01   1.481658e+02
  -1.910988e+02   4.506620e+01
  -1.744935e+02  -8.436445e+01
  -4.355593e+01  -9.696453e+01
   5.473927e+01  -8.798105e+01
   3.469404e+01  -4.867924e+01
  -4.673674e+00   1.733062e+01
  -1.115142e+02  -2.476539e+00
  -6.828519e+00  -1.327647e+02
   1.151501e+02  -1.760866e+02
   2.050347e+02  -5.241020e+01
   1.069397e+02   1.061641e+02
   1.520670e+01   2.224162e+02
  -9.204799e+01   1.862186e+02
  -1.323144e+02   5.843894e+00
  -6.958656e+01  -1.170167e+02
   9.638641e+00  -1.156074e+02
   5.607052e+01  -4.734524e+01
   8.790381e+01   5.668116e+01
   6.415288e+01   2.764909e+01
   2.266140e+01  -3.423106e+01
  -6.096918e+00   2.173564e+01
   2.597565e+01   6.839159e+01
   8.111103e+00   1.289031e+02
  -1.619482e+01   4.257849e+01
  -1.146491e+02  -1.503834e+01
  -9.949157e+01  -5.769198e+01
  -3.424167e+01  -1.100412e+01
   1.072736e+02  -8.073032e+00
   8.329452e+01   9.410794e+00
  -3.015683e+00   3.860472e+00
  -4.653781e+01   5.677029e+00
  -2.201536e+01   1.607019e+01
   2.761380e+01   1.806505e+01
  -1.870368e-01  -3.296438e+01
  -3.030588e+01  -3.283784e+01
  -9.755190e+01  -8.185774e+01
  -1.292416e+01  -9.391623e+01
   1.535866e+02  -6.036177e+01
   1.787358e+02  -7.974087e+01
   1.556806e+02   4.651068e+01
   2.323178e+01   1.138669e+02
  -9.892084e+01   1.616524e+02
  -1.291691e+02   5.910884e+01
  -7.923603e+01  -5.609521e+01
   6.393439e+00  -5.644701e+01
  -4.718903e+01   5.948846e+00
   9.379692e+00  -1.853650e+00
  -3.116014e+01  -1.808196e+01
   9.916738e+00  -7.482427e+01
   2.970814e+01  -9.361140e+01
   3.611982e+01   4.108515e+01
   4.723655e+01   1.363600e+02
   1.222474e+01   1.409844e+02
  -7.504816e+01   7.043029e+00
  -8.281807e+01  -8.450436e+01
  -2.910040e+01  -9.803804e+01
   5.245720e+01  -5.044844e+01
   1.015433e+02   5.793087e+01
   1.182185e+01   2.421982e+01
  -9.173411e+00   5.044038e+01
  -1.343352e+01   1.519784e+01
   8.584513e+01   1.586111e+01
   8.569485e+01   7.479163e+00
   3.082875e+01  -4.650382e+00
  -1.169831e+02   6.281868e+01
  -1.177383e+02   7.249122e+01
  -3.700368e+01   3.446370e+01
   7.243194e+01  -8.653630e+01
   5.907635e+01  -1.014606e+02
   5.470187e+01  -5.313120e+00
  -1.497795e+01   7.201717e+01
  -4.808850e+01   5.440285e+01
  -2.962320e+01  -3.486708e+01
  -5.348527e+01  -8.224769e+01
   1.245653e+01  -3.076016e+00
   4.325242e+01   1.213637e+01
   1.868566e+01   2.355002e+00
   1.502265e+01   1.185932e+01
  -3.758179e+01  -1.563123e+01
  -2.709837e+01   2.383946e+01
  -7.979685e+01   9.097060e+01
  -2.890640e+01   6.368972e+01
  -1.912874e+01  -1.506765e+01
   1.510739e+01  -4.511020e+01
  -1.220586e+01  -6.258025e+01
   3.761814e+01  -1.224459e+00
   1.786553e+01   1.918617e+01
  -1.454534e+01   7.393875e+01
  -6.155332e+01   6.132522e+00
  -7.120691e+01   1.818582e+01
  -7.161837e+01  -5.021336e+01
   3.045835e+01  -1.877363e+01
   7.768996e+01  -4.067601e+01
   3.263287e+01  -2.769115e+01
  -1.351995e+01   1.099633e+01
  -5.797697e+01   2.228754e+01
   2.027244e+01   2.017934e+01
   7.165102e+01  -2.461224e+01
