
 $NMID
 id='ANONYMOUS ', fmtdat='(2E16.6)'
 volume=1.0
 tramp=1.0
 $END
  -4.198658e+03   1.650770e+02
  -2.272368e+03  -2.533583e+03
   8.391128e+02  -2.573803e+03
   2.006132e+03  -6.882812e+02
   9.030375e+02   7.445747e+02
  -6.094197e+02   5.776525e+02
  -9.422253e+02  -3.225389e+02
   6.739770e+01  -9.618516e+02
   9.410550e+02  -7.608457e+02
   9.995540e+02   1.954012e+01
   3.916227e+02   8.018961e+02
  -3.894400e+02   9.299141e+02
  -6.024483e+02   1.878387e+02
  -4.667062e+02  -7.597558e+02
   1.425878e+02  -6.793935e+02
   5.913027e+02   1.966316e+02
   2.548419e+02   5.145876e+02
  -2.734306e+02   3.889445e+02
  -5.422953e+02   6.623020e+01
  -3.282595e+02  -3.943580e+02
  -2.287745e+02  -2.960318e+02
   1.765051e+02  -5.550596e+02
   3.037571e+02  -2.924637e+01
  -6.565332e+01   1.692071e+02
  -4.793881e+02  -8.785725e+01
  -2.668955e+02  -4.253403e+02
   3.090449e+02  -4.356716e+02
   8.452573e+02   2.435242e+01
   4.173646e+02   6.303078e+02
  -4.251806e+02   3.777152e+02
  -6.751033e+02   8.972620e+01
  -3.131529e+02  -4.585680e+02
   3.236316e+02  -5.035604e+02
   5.971164e+02  -3.048794e+02
   3.665177e+02   2.447993e+02
   8.228182e+01   3.859548e+02
  -2.191326e+02   3.036329e+02
  -2.698380e+02  -2.295110e+02
   1.645402e+02  -4.377304e+02
   4.031174e+02   5.462914e+00
   2.315847e+02   6.508145e+02
  -3.040533e+02   6.606773e+02
  -5.359886e+02   3.481142e+01
  -2.312287e+02  -5.461807e+02
   3.463069e+02  -2.579708e+02
   3.692589e+02   3.158278e+02
  -9.943629e+01   5.309594e+02
  -5.445558e+02   1.107745e+02
  -5.747187e+02  -3.867297e+02
  -1.461775e+02  -5.654314e+02
   3.378717e+02  -3.015245e+02
   5.925343e+02   6.386675e+01
   3.194924e+02   3.541863e+02
  -1.352689e+02   3.258775e+02
  -4.081252e+02   2.119427e+01
  -1.745601e+02  -2.139161e+02
   1.297151e+02  -1.535986e+02
   1.537122e+02   1.309422e+02
  -1.351761e+02   2.369464e+02
  -2.488137e+02   4.215524e+00
  -1.015120e+02  -2.549223e+02
   1.651283e+02  -2.592544e+02
   2.533441e+02  -7.179378e+01
   1.507802e+02   1.037779e+02
  -3.052557e+01   1.851387e+02
  -1.932052e+02   2.617924e+02
  -2.948927e+02   1.660098e+02
  -2.622478e+02  -1.019468e+02
  -2.066992e+01  -3.363856e+02
   1.212661e+02  -3.351426e+02
   1.748964e+02  -7.626109e+01
   1.153500e+01  -8.754992e+00
  -4.616555e+00  -5.103910e+01
   1.236617e+02  -9.882053e+01
   1.930877e+02   1.510313e+01
   1.499217e+02   2.000572e+02
   2.666879e+01   2.143635e+02
  -1.439593e+02   1.581508e+01
  -1.879841e+02  -1.990106e+02
  -2.227808e+01  -2.689763e+02
   2.235612e+02  -1.169564e+02
   3.493027e+02   1.635285e+02
   1.622462e+02   3.236656e+02
  -8.430340e+01   3.130328e+02
  -1.696148e+02   1.294135e+02
  -1.198767e+02  -1.566390e+01
  -1.027891e+02   1.263461e+00
  -2.127967e+02   8.069801e+01
  -3.712035e+02  -1.961239e+01
  -3.102589e+02  -2.583795e+02
  -1.408325e+00  -4.160913e+02
   2.909603e+02  -3.894985e+02
   4.595545e+02  -1.270117e+02
   2.982325e+02   1.021357e+02
   7.149891e+01   2.866306e+02
  -9.887884e+01   2.345501e+02
  -1.050159e+02   6.469059e+01
   3.500891e+01  -5.489954e+01
   1.620755e+02   1.993502e+01
  -3.853644e+01   1.435594e+02
  -1.654789e+02   1.232715e+02
  -1.680074e+02  -9.513250e+01
   2.084068e+01  -1.190586e+02
   1.500627e+02  -7.255159e+01
   1.277057e+02   1.897149e+02
   6.214142e+00   2.521612e+02
  -1.599954e+02   1.616432e+02
  -2.591196e+02  -3.329007e+01
  -2.338578e+02  -2.067937e+02
  -8.158989e+01  -2.080346e+02
   1.298166e+02  -8.154550e+01
   1.903767e+02   2.459645e+01
   2.640526e+01   1.100896e+01
  -7.542628e+01  -4.194638e+01
  -6.775874e+01  -1.347061e+02
   1.217802e+02  -1.103583e+02
   1.484328e+02   2.202565e+00
   2.005544e+01   8.238113e+01
  -5.431589e+01   8.726437e+00
  -4.836681e+01  -7.530621e+01
   1.120110e+02  -1.321428e+02
   2.779059e+02  -3.050956e+01
   2.573999e+02   9.099067e+01
   5.415343e+01   2.489404e+02
  -1.354616e+02   2.157901e+02
  -2.490129e+02   1.522873e+02
  -1.367076e+02  -3.576528e+01
   3.036147e+01  -9.599094e+01
   7.462848e+01  -1.107411e+01
  -5.817232e+01   8.969689e+01
  -1.986568e+02   7.502570e+01
  -2.355547e+02  -1.062583e+02
  -1.177960e+01  -1.961924e+02
   6.535072e+01  -1.382966e+02
   1.062973e+02  -7.425346e+00
   6.898925e+01   3.336385e+01
   1.599298e+01  -2.872571e+01
  -1.107779e+01  -9.702092e+01
   9.129068e+01  -1.436439e+02
   1.992186e+02  -3.647800e+01
   1.964395e+02   1.509217e+02
   4.564337e+01   2.062532e+02
  -1.462693e+02   1.342022e+02
  -2.036909e+02  -3.822785e+01
  -7.303211e+01  -9.585466e+01
   4.868495e+01  -9.785397e+01
   6.760000e+01  -4.243406e+01
  -2.005340e+01   1.106900e+01
  -1.492513e+01   5.406133e+00
   1.713035e+01  -2.072907e+01
   8.474741e+01  -1.504569e+01
   1.027631e+02   8.870264e+01
  -5.666978e+00   1.781263e+02
  -8.874365e+01   1.367802e+02
  -1.817658e+02   5.250348e+01
  -1.645571e+02  -1.639483e+02
  -1.800772e+01  -2.449609e+02
   8.215182e+01  -1.398153e+02
   1.630625e+02  -1.173511e+01
   6.045980e+01   6.956403e+01
   1.457252e+01   4.414973e+01
   2.084104e+01  -2.924068e+01
   7.086083e+01  -3.131683e+01
   2.297622e+01  -1.915609e+01
  -9.850623e+00   8.150396e+01
  -5.424925e+01   4.604928e+01
  -6.220999e+01  -8.410503e+00
   3.668176e+01  -5.389426e+01
   1.300771e+02  -3.955133e+01
   1.513494e+02   7.360764e+01
   8.457156e+01   1.850333e+02
  -1.173463e+02   1.970327e+02
  -2.284041e+02   5.911210e+01
  -2.655327e+02  -1.166090e+02
  -8.971132e+01  -1.691882e+02
   8.029744e-01  -1.296043e+02
   7.847805e+01  -2.953097e+01
   5.946329e+01  -1.221095e+02
   4.901500e+01  -7.783374e+01
   7.691808e+01  -5.184244e+01
   9.005779e+01   3.527939e+01
   6.403574e+01   1.871102e+02
   4.250072e+00   2.148415e+02
  -9.608804e+01   1.369415e+02
  -1.706324e+02   4.808249e+01
  -1.416801e+02  -1.236861e+02
  -1.692085e+01  -1.770370e+02
   4.274802e+01  -8.526407e+01
   1.003050e+02  -2.289803e+01
   3.076235e+01   6.324102e+01
  -2.382504e+01   4.673297e+01
   4.244986e+01  -2.556481e+01
   5.723082e+01   1.760400e-02
   2.002336e+01   2.902051e+01
  -2.570644e+01  -9.360718e+00
  -1.400239e+02  -1.784412e+01
  -7.977719e+01  -6.771546e+01
  -1.990662e+01  -8.835653e+01
   6.775791e+01  -1.808106e+01
   1.366117e+02  -1.247888e+00
   5.363813e+00   4.802825e+01
  -1.067572e+02   6.435039e+01
  -8.427384e+01  -8.258153e+00
  -1.658545e+01  -8.955320e+01
   8.140053e+01  -2.970591e+01
   8.932082e+01   4.412770e+00
   4.250063e+01   7.704796e+01
   2.094996e+01   4.412951e+01
   8.542256e+01   8.080212e+00
   9.141958e+01  -7.519196e-01
   3.713522e+01   8.622916e+01
  -3.815011e+01   1.344038e+02
  -1.100789e+02   1.245443e+02
  -1.159730e+02   3.752090e+01
  -1.569117e+02  -6.975827e+01
  -6.286928e+00  -8.732783e+01
   8.467739e+01  -3.813204e+01
   7.323659e+01   5.474251e+01
  -3.810380e+01   2.961277e+01
  -1.277049e+02  -1.894976e+01
  -4.818778e+01  -1.376253e+02
   3.503311e+01  -1.048292e+02
   1.671033e+02  -4.763076e+01
   1.601839e+02  -9.178887e+00
   4.429616e+01   9.571298e+01
  -2.617893e+01   8.345691e+01
  -9.484680e+01  -2.677062e+01
   7.494778e+00  -1.044705e+01
   4.972966e+01   2.598026e+01
  -2.741081e+01   1.192143e+02
  -1.175129e+02   1.420475e+02
  -1.337443e+02   5.391300e+01
  -8.845859e+01  -1.327520e+02
  -1.862708e+01  -1.898611e+02
   8.835205e+01  -1.142731e+02
   1.037708e+02   3.395172e+01
   1.293429e+01   1.237490e+02
  -4.477327e+01   1.188792e+02
  -6.701230e+01   1.423781e+01
   7.562422e-01  -4.547691e+01
  -8.437603e+00  -2.014317e+01
  -1.973399e+01   1.887136e+01
  -1.147578e+01  -1.839445e+01
   3.866562e+00  -6.253634e+01
  -3.923850e+01  -1.354069e+02
   1.363692e+01  -1.790874e+01
   1.156134e+02   2.619541e+01
   1.559637e+02   8.305101e+01
   5.367414e+01   6.454479e+01
  -9.830678e+01  -7.477263e+00
  -1.304764e+02  -4.642679e+01
   5.580330e+01  -2.163253e+00
   4.450255e+01  -5.208147e+01
   2.427843e+01   1.217103e+00
  -4.184108e+01  -1.146489e+01
   2.180030e+01  -2.903750e+00
   4.547809e+01   2.628863e+01
   1.013171e+02   2.579379e+01
   6.786893e+00   4.165669e+01
  -1.044668e+02   9.204872e+01
  -1.625981e+02   5.617638e+01
  -1.232878e+02  -1.004722e+02
  -7.170685e+00  -1.664611e+02
   1.317116e+02  -1.467239e+02
   9.096076e+01  -2.936918e+01
   1.024048e+02   7.760389e+01
   4.050346e+01   4.002255e+01
  -3.527735e+01   2.374919e+01
  -3.858026e+00  -3.170155e+00
   3.490378e+01  -1.033471e+00
   1.179857e+01   7.026187e+01
  -2.586752e-01   7.389405e+01
  -6.972515e+01  -3.295059e+01
  -8.607389e+01  -8.846586e+01
   9.349173e+00  -9.971161e+01
   4.902130e+01  -2.970751e+01
   7.315251e+01   3.107813e+01
   4.623091e+00   1.215543e+02
  -7.016414e+01   1.011649e+02
  -1.139608e+02   3.826970e+00
  -2.046614e+01  -7.363099e+01
   4.460004e+01  -6.797476e+01
   6.481779e+01  -5.736407e+01
  -1.329649e+01  -1.709995e+01
  -3.174061e+01  -2.622781e+01
   9.866704e+00  -1.325522e+01
   7.231058e+01  -8.098226e+01
   8.769888e+01  -9.338578e+01
   2.947351e+01  -1.092170e+01
   1.115390e+01   3.293731e+01
  -5.871286e+01   7.944870e+01
  -2.487728e+01   4.785801e+00
   2.322585e+01  -7.188087e+01
   3.092118e+01   1.344566e+01
   1.843945e+01   6.378611e+01
   2.737052e+01   6.295443e+01
   2.719904e+00   2.485712e+01
  -2.256326e+01  -2.367794e+01
   2.624858e-01  -5.478933e+00
  -3.129694e+01  -1.316704e+01
  -6.261960e+00   2.034338e+01
   3.873091e+00   4.116953e+00
  -1.095655e+01  -3.754103e+01
  -1.489849e+01  -6.445062e+01
   1.409167e+01   2.556175e+01
   2.079846e+01   2.884380e+01
  -3.084264e+01   3.617814e+01
  -4.672232e+00   4.371234e+01
  -3.229291e+01  -4.179008e+01
   1.256227e+01  -3.857150e+01
   2.166634e+01  -6.352921e+01
   8.999155e+01   8.356256e+00
   4.791595e+01   8.823267e+01
  -3.069214e+01   4.309931e+01
  -5.166488e+01   9.052974e+00
  -4.306045e+01  -1.401312e+00
   2.953226e+01  -1.235742e+01
   4.646584e+01   4.405147e+01
  -5.944605e+01   1.543048e+01
  -1.053654e+02   3.187357e+01
