
 $NMID
 id='ANONYMOUS ', fmtdat='(2E16.6)'
 volume=1.0
 tramp=1.0
 $END
   3.727674e+03  -1.163543e+02
   2.101805e+03   2.417347e+03
  -7.105358e+02   2.409701e+03
  -1.839535e+03   5.974895e+02
  -6.775622e+02  -7.373285e+02
   6.322646e+02  -5.323865e+02
   6.483679e+02   4.552054e+02
   1.263111e+01   9.744732e+02
  -7.262212e+02   7.177143e+02
  -9.385969e+02  -6.455009e+01
  -3.403757e+02  -6.965284e+02
   2.769118e+02  -6.888283e+02
   5.804397e+02   3.004692e+01
   3.101465e+02   4.680663e+02
  -1.324411e+02   6.160588e+02
  -7.654450e+02   1.496654e+00
  -2.067932e+02  -6.503575e+02
   2.531218e+02  -5.836548e+02
   5.662872e+02  -5.229920e+01
   3.150030e+02   2.481752e+02
  -5.703496e+00   1.950459e+02
  -3.494535e+02   1.412314e+02
  -9.752986e+01   2.046405e+02
   2.570071e-01  -2.100389e+02
   4.041063e+02   1.140677e+02
   5.458539e+01   2.527541e+02
  -4.025818e+02   3.474421e+02
  -7.520874e+02  -5.935755e+01
  -4.248628e+02  -5.688920e+02
   2.795296e+02  -3.264526e+02
   5.917569e+02   2.609374e+01
   3.634762e+02   3.674923e+02
  -2.420388e+02   5.032628e+02
  -5.287754e+02   2.000460e+02
  -4.251839e+02  -3.507803e+02
  -7.478165e+01  -4.189458e+02
   2.541336e+02  -2.880599e+02
   1.811026e+02   2.753338e+02
  -1.678698e+02   4.633570e+02
  -4.458224e+02  -5.001488e+01
  -2.602215e+02  -5.743985e+02
   3.257811e+02  -7.129666e+02
   5.156803e+02   3.159065e+01
   2.849096e+02   5.101329e+02
  -2.129133e+02   3.002202e+02
  -2.852324e+02  -2.575517e+02
   3.249551e+01  -4.599621e+02
   4.498659e+02  -1.196829e+02
   4.394832e+02   3.909971e+02
   1.837574e+02   5.121265e+02
  -3.071328e+02   3.311035e+02
  -5.400008e+02  -9.373906e+01
  -3.335089e+02  -4.209165e+02
   1.878148e+02  -3.732711e+02
   4.402558e+02  -2.628230e+01
   2.252482e+02   2.025203e+02
  -8.307443e+01   1.253150e+02
  -1.494086e+02  -1.380791e+02
   1.591756e+02  -1.381897e+02
   3.396563e+02   1.209317e+02
   1.741109e+02   2.981358e+02
  -2.040936e+02   2.294696e+02
  -3.052466e+02   6.590328e+01
  -2.056854e+02  -9.739732e+01
  -8.345748e+00  -1.680094e+02
   1.828877e+02  -2.589429e+02
   2.676967e+02  -1.786437e+02
   2.655426e+02   1.005893e+02
   9.916084e+01   3.430909e+02
  -6.447198e+01   3.370472e+02
  -1.436152e+02   7.544220e+01
  -6.861349e+01   2.972478e+01
  -5.864077e+01   3.188136e+01
  -1.345731e+02   1.438438e+02
  -2.294442e+02  -1.328676e+01
  -1.416538e+02  -2.091138e+02
   5.143724e+01  -2.609363e+02
   1.581253e+02  -6.238622e+01
   1.792377e+02   1.741245e+02
  -6.379439e+00   2.801416e+02
  -2.478558e+02   1.322219e+02
  -3.473224e+02  -1.503331e+02
  -1.720588e+02  -3.093959e+02
   6.830734e+01  -2.649765e+02
   2.162692e+02  -1.331664e+02
   1.751372e+02  -2.494050e+01
   9.629101e+01  -4.046549e+01
   1.521167e+02  -8.060385e+01
   3.291313e+02   3.206643e+01
   2.678846e+02   2.204385e+02
   3.962132e+01   3.899454e+02
  -2.351387e+02   3.605545e+02
  -4.449696e+02   1.489204e+02
  -3.445605e+02  -8.344389e+01
  -4.560184e+01  -2.532796e+02
   9.552604e+01  -2.182411e+02
   9.745226e+01  -4.333765e+01
  -7.768743e+01   6.881844e+01
  -1.491993e+02  -3.544949e+01
   1.254407e+01  -1.769748e+02
   1.767184e+02  -1.408359e+02
   1.323439e+02   3.535660e+01
  -3.145298e+01   1.650875e+02
  -2.049636e+02   5.636334e+01
  -1.204140e+02  -1.394484e+02
   1.528639e+01  -3.530731e+02
   2.000991e+02  -2.151646e+02
   2.802203e+02  -1.637387e+01
   2.511563e+02   1.367597e+02
   9.858572e+01   2.160177e+02
  -8.821980e+01   1.714430e+02
  -9.816355e+01  -6.562547e+00
  -3.316181e+01  -9.764937e+00
   9.050351e+01   7.577105e+01
   4.278442e+01   1.214513e+02
  -9.527235e+01   6.014897e+01
  -1.330669e+02  -5.136434e+00
  -4.749041e+01  -2.878354e+01
   3.029342e+01  -7.645312e-01
   2.114452e+01   6.787473e+01
  -9.561901e+01   4.338913e+01
  -2.225710e+02  -2.435411e+01
  -1.986555e+02  -1.427611e+02
  -4.715171e+01  -2.206508e+02
   1.744177e+02  -2.110805e+02
   2.317459e+02  -9.702965e+01
   1.705763e+02   8.855231e+01
   3.875181e+00   1.423499e+02
  -9.834822e+01   6.394276e+01
  -2.036510e+01  -7.677459e+01
   1.031741e+02  -4.870999e+01
   1.316081e+02   5.585720e+01
   6.513617e+01   1.812318e+02
  -7.543070e+01   1.397185e+02
  -1.681069e+02   4.593044e+01
  -7.358683e+01  -5.100958e+01
  -7.203503e+00  -5.360765e-01
   2.336801e+01   6.452512e+01
  -6.663942e+01   1.009867e+02
  -1.621369e+02   3.427708e+01
  -1.914077e+02  -1.432065e+02
   2.261481e+00  -1.919099e+02
   1.405002e+02  -1.540936e+02
   1.621051e+02   1.161480e+01
   6.863379e+01   1.013566e+02
   5.806097e+00   1.294208e+02
  -6.640245e+01   3.351303e+01
  -1.873986e+01   8.042375e+00
  -2.190782e+01  -6.047853e+00
  -3.466815e+01   1.917531e+00
  -7.160960e+01  -4.651173e-01
  -5.396825e+01  -4.559560e+01
   9.052453e+00  -9.204020e+01
   1.250709e+02  -9.938541e+01
   1.948203e+02  -3.067403e+01
   1.842477e+02   1.021905e+02
  -3.639598e+00   2.037961e+02
  -9.627936e+01   1.799495e+02
  -1.357140e+02   6.894687e+01
  -1.986552e+01  -6.606427e+01
  -2.774355e+01  -2.347346e+01
  -4.704618e+01   2.584575e+01
  -8.983799e+01  -1.543631e+01
  -3.658875e+01  -2.556525e+01
   2.396330e+01  -9.451803e+01
   5.846658e+01  -4.033221e+01
   7.715521e+01   5.078416e+01
   2.069873e+00   8.498656e+01
  -6.811273e+01   9.583851e+01
  -1.137664e+02  -1.810975e+01
  -1.188826e+02  -1.552559e+02
   2.331876e+01  -2.006303e+02
   1.594590e+02  -1.109100e+02
   2.201611e+02   7.211989e+01
   1.037551e+02   1.413545e+02
   1.128586e+00   1.361774e+02
  -5.257590e+01   3.958614e+01
  -6.812453e+01   2.258722e+01
  -5.708988e+01   6.935872e+01
  -4.217495e+01   4.643668e+01
  -1.241273e+02  -1.080034e+01
  -1.338797e+02  -1.551551e+02
  -2.039154e+01  -1.982829e+02
   6.445167e+01  -1.423827e+02
   1.015727e+02  -1.544663e+01
   1.126043e+02   6.825388e+01
   2.735216e+01   1.239801e+02
  -6.969633e+01   4.373084e+01
  -5.584154e+01  -2.315335e+01
  -1.395664e+01  -4.543466e+01
   2.148173e+01  -3.133290e+01
   1.000360e+01  -7.339304e+00
  -2.310864e+01  -6.480111e+01
  -3.131251e+01  -6.829463e+01
   1.620134e+01  -6.528515e+01
   9.428759e+01   9.864941e+00
   1.308756e+02   4.396226e+01
  -1.312822e-01   7.064631e+01
  -1.055151e+02   3.462403e+01
  -1.190872e+02   9.704958e+00
  -2.436137e+01  -4.550190e+01
   9.522175e+01  -9.558614e+00
   6.825242e+01   2.900597e+01
  -3.327960e+00   6.467325e+01
  -6.041372e+01   6.180447e+01
  -5.622177e+01   3.327126e+00
  -1.030846e+01  -4.785310e+01
   4.361528e+00  -3.717390e+01
  -6.320414e+01   6.333905e+00
  -4.891064e+01  -4.387652e+01
  -2.302501e+01  -9.864143e+01
   2.271070e+01  -7.640316e+01
   8.447726e+01  -8.788519e+01
   1.081430e+02  -1.404051e+00
   6.201891e+01   8.729033e+01
  -4.926033e+01   9.056306e+01
  -5.604748e+01   5.988487e+01
  -2.997160e+01  -1.589197e+01
   3.884012e+01  -5.784194e+01
   1.320564e+02  -2.056979e+01
   6.189607e+01   6.594848e+01
  -3.573697e+01   1.465313e+02
  -1.162464e+02   3.900236e+01
  -9.211559e+01  -1.897884e+01
  -3.316072e+00  -6.721750e+01
   2.502611e+01  -3.402653e+01
   2.061531e+01   2.474737e+01
  -2.335658e+01   2.885553e+01
  -8.322934e+01  -3.506993e+00
  -7.869556e+00  -8.854998e+01
   8.510750e+01  -6.045158e+01
   1.408868e+02  -3.254916e+01
   1.162711e+02   7.854043e+01
   2.912839e+01   1.446343e+02
  -5.272031e+01   1.256582e+02
  -1.191424e+02  -1.696568e+00
  -7.989238e+01  -7.725287e+01
  -1.163759e+01  -7.794541e+01
   6.544699e+01  -3.056434e+01
   3.510493e+01   2.625868e+00
   5.760332e+01   2.563703e+01
   3.092311e+01  -3.650713e+01
   1.611874e+01  -1.270563e+01
   4.184356e+01   8.892610e+01
   4.187830e+01   9.833150e+01
  -5.066444e+01   1.036600e+01
  -1.161670e+02  -1.646036e+01
  -1.071703e+02  -1.220547e+02
  -4.009154e+01  -2.491042e+01
   6.065853e+01  -3.564677e+01
   7.579562e+01  -1.861129e+01
  -1.081610e+01   9.526599e-01
  -4.201305e+01   2.472432e+00
   1.500909e+00  -6.895981e+00
   5.189272e+01  -6.513993e+00
   4.963607e+00  -2.262824e+01
  -4.954664e+01  -5.076481e+01
  -8.137645e+01  -3.454930e+01
  -1.163897e+01  -8.976734e+01
   9.610786e+01  -8.917638e+01
   1.603174e+02  -3.481083e+01
   1.338398e+02   4.715785e+01
   6.171970e+01   1.163540e+02
  -6.850609e+01   1.015485e+02
  -8.156655e+01   2.141006e+01
  -7.379909e+01  -1.487459e+01
   1.747475e+01  -4.066161e+01
   1.825151e+01  -1.777500e+01
   4.305585e+00  -2.753370e+01
  -4.914024e+01  -5.249788e+01
  -1.003239e+01  -7.671251e+01
   6.344349e+01  -4.600753e+01
   4.957929e+01   2.451805e+01
   4.501938e+01   5.656372e+01
  -2.282663e+01   7.397840e+01
  -9.171038e+01   1.330325e+01
  -6.385154e+01  -5.765551e+01
  -9.638887e+00  -9.551499e+01
   6.947443e+01  -2.405901e+01
   7.964274e+01   3.579278e+01
   2.237483e+01   4.932877e+01
  -6.261970e+01   2.404777e+01
  -4.220864e+01   2.075236e+01
  -1.922035e+00  -2.312905e+01
   5.907190e+01  -1.991420e+01
   2.355358e+00   2.503195e+01
  -3.521034e+01   1.486939e+01
  -9.541763e+01   5.150183e+01
  -2.486597e+01   6.204461e+00
   2.444305e+01  -7.509896e+01
   3.458574e+01  -4.889607e+01
   3.987531e+01   2.288149e+01
   5.267408e+01   4.003892e+01
   9.931765e+00   5.314720e+01
  -2.833118e+01  -1.790626e+01
   8.231046e+00  -3.142213e+01
   1.978069e+01   1.100188e+00
   2.327164e+01   2.535070e+00
   1.710857e+01   2.253596e+01
  -1.243026e+01  -5.833956e+00
  -1.946705e+01   1.943959e+01
  -6.902672e+00  -6.238748e+00
   1.276448e+01   5.242991e+01
  -3.088404e+01   7.435956e+00
  -4.232770e+01   5.405412e+01
  -2.346516e+01  -1.344912e+01
  -2.277333e+01  -5.762707e+01
   2.524470e+01   8.517865e+00
   3.673052e+01   2.820113e+01
   2.734717e+00   6.030565e+01
  -4.539129e+01   2.989173e+01
  -8.715881e+01  -2.622750e+01
  -3.990289e+01  -1.803982e+01
   4.066343e+00  -2.546299e+01
   4.747314e+01  -4.860526e+01
   4.378132e+01   1.912047e+01
  -3.292440e+01   1.538828e+01
  -5.002226e+00  -2.281395e+01
   5.172379e+01   1.525033e+00
   5.276260e+01  -1.212679e+01
