
 $NMID
 id='ANONYMOUS ', fmtdat='(2E16.6)'
 volume=1.0
 tramp=1.0
 $END
  -3.310889e+03   1.101119e+02
  -2.042094e+03  -2.157693e+03
   6.011346e+02  -2.153078e+03
   1.620697e+03  -6.814969e+02
   7.606839e+02   6.937553e+02
  -5.322087e+02   3.961328e+02
  -7.224664e+02  -3.067178e+02
   1.164621e+02  -7.278223e+02
   6.093523e+02  -6.952913e+02
   7.302061e+02   1.855204e+02
   4.834375e+02   7.579950e+02
  -2.439360e+02   6.293230e+02
  -6.136263e+02  -1.119515e+02
  -3.453054e+02  -5.847119e+02
   1.865750e+02  -5.977718e+02
   5.312621e+02  -7.514430e+01
   1.333305e+02   7.017861e+02
  -4.552881e+02   5.059290e+02
  -6.156229e+02   2.150452e+02
  -3.484871e+02  -3.147486e+02
   5.904605e+01  -1.980077e+02
   2.122590e+02  -1.279696e+02
   1.223222e+02  -7.569782e+01
  -6.423757e+01   9.250170e+01
  -3.180026e+02  -1.346328e+02
  -9.099104e+01  -3.428115e+02
   3.061640e+02  -1.626430e+02
   6.983723e+02   3.065698e+01
   2.822545e+02   4.660935e+02
  -1.873206e+02   3.437514e+02
  -6.382499e+02   1.801495e+00
  -3.057097e+02  -3.709726e+02
   2.509334e+02  -4.731582e+02
   5.297535e+02  -2.276601e+02
   4.665240e+02   3.072012e+02
   3.172464e+01   3.698400e+02
  -1.879613e+02   2.238385e+02
  -1.885925e+02  -2.865703e+02
   1.594920e+02  -3.263731e+02
   3.741178e+02   3.882820e+01
   2.496017e+02   4.921536e+02
  -2.586393e+02   4.911695e+02
  -5.058062e+02  -4.207281e+01
  -2.336228e+02  -4.575836e+02
   2.357748e+02  -2.233300e+02
   3.376352e+02   2.677701e+02
  -4.798560e+01   4.840336e+02
  -4.861704e+02   1.362996e+02
  -5.284557e+02  -2.860286e+02
  -1.832786e+02  -4.695502e+02
   3.049825e+02  -2.953619e+02
   5.399183e+02   7.450940e+01
   2.780419e+02   3.189400e+02
  -1.786161e+02   2.769801e+02
  -3.520916e+02   3.166496e+01
  -1.659858e+02  -1.783662e+02
   9.099086e+01  -8.338906e+01
   1.115571e+02   1.253567e+02
  -1.081390e+02   1.668488e+02
  -2.400875e+02  -4.261767e+01
  -6.927393e+01  -2.391215e+02
   1.818702e+02  -1.841485e+02
   2.242659e+02  -2.038250e+01
   1.405908e+02   1.101056e+02
  -4.360505e+01   1.860023e+02
  -1.824847e+02   2.179361e+02
  -2.605059e+02   1.437781e+02
  -2.576390e+02  -9.359316e+01
  -6.331424e+01  -3.983086e+02
   1.207725e+02  -3.393419e+02
   8.907019e+01  -1.202351e+02
   2.194162e+01  -4.565665e+00
   5.495545e+01  -2.944634e+01
   1.594756e+02  -4.591298e+01
   2.303704e+02   6.535151e+01
   1.227546e+02   1.943943e+02
  -3.771009e+01   2.259222e+02
  -2.334486e+02   4.087749e+01
  -1.980509e+02  -1.911812e+02
  -3.348358e+01  -2.622959e+02
   2.228285e+02  -1.076778e+02
   3.193874e+02   1.103193e+02
   1.612185e+02   3.388494e+02
  -8.191864e+01   2.309813e+02
  -1.888289e+02   1.051383e+02
  -1.036136e+02  -2.791139e+01
  -6.040342e+01   1.287782e+01
  -1.173151e+02   6.744332e+01
  -3.190234e+02  -3.638385e+01
  -2.482805e+02  -1.887462e+02
  -1.387541e+01  -2.798638e+02
   2.293387e+02  -3.334729e+02
   3.468709e+02  -1.904279e+02
   2.581214e+02   2.513871e+01
   7.559654e+01   1.981301e+02
  -9.720201e+01   2.038097e+02
  -1.147319e+02   2.982005e+01
   5.898222e+01  -9.334200e+01
   1.750864e+02  -1.820838e+01
   9.604924e+01   1.499106e+02
  -9.321957e+01   1.828905e+02
  -2.033069e+02  -1.305090e+01
  -3.312231e+01  -1.240100e+02
   1.024408e+02  -1.816257e+01
   1.043402e+02   1.883501e+02
  -3.156470e+01   2.614654e+02
  -2.055359e+02   1.199599e+02
  -2.309760e+02  -1.042755e+02
  -2.109218e+02  -2.140712e+02
  -4.876076e+01  -2.524042e+02
   1.686548e+02  -1.329627e+02
   1.880392e+02   1.918806e+01
   1.140852e+01   5.959868e+01
  -5.293591e+01  -3.669404e+01
  -4.356853e+01  -1.464921e+02
   1.223279e+02  -1.034231e+02
   1.534061e+02  -1.521521e+01
   3.373567e+01   6.499374e+01
  -5.755719e+01   3.495718e+01
  -8.559090e+01  -2.770576e+01
   9.401935e+01  -4.298654e+01
   2.114242e+02  -4.611761e+01
   2.018390e+02   8.271687e+01
   6.114099e+01   1.489770e+02
  -1.442525e+02   1.985064e+02
  -2.007419e+02   1.144503e+02
  -1.130330e+02  -1.490590e+01
   2.583578e+01  -1.090307e+02
   8.611364e+01  -4.514137e+01
  -1.418803e+01   3.571464e+01
  -1.540293e+02   4.740703e+01
  -1.169225e+02  -8.832570e+01
  -1.534856e+01  -1.206117e+02
   1.066503e+02  -9.811070e+01
   7.294110e+01   3.542602e+01
   3.536069e+01   4.751270e+01
  -2.686014e+01  -2.256727e+01
   6.778191e+00  -5.750358e+01
   5.770577e+01  -8.786121e+01
   1.165893e+02  -3.269436e+01
   1.525359e+02   4.940408e+01
   7.481923e+01   1.481322e+02
  -9.395022e+01   1.439558e+02
  -1.453682e+02   2.181969e+00
  -3.699619e+01  -7.081126e+01
   7.960477e+01  -9.139939e+01
   5.713733e+01  -4.807098e+00
   2.321009e+01   4.007640e+01
  -4.374715e+01   2.129185e+01
  -7.161158e+00   1.234676e+01
   2.021396e+01   2.557975e+01
   6.901302e+01   4.904876e+01
   5.451882e+00   6.194315e+01
  -1.087033e+02   9.688370e+01
  -1.795829e+02  -1.446087e+01
  -1.741091e+02  -1.083885e+02
  -6.038400e+01  -1.814589e+02
   8.983524e+01  -1.698463e+02
   1.189119e+02  -7.037606e+00
   7.185084e+01   4.950331e+01
   3.976622e+01   4.377086e+01
  -4.266913e-01  -2.760393e+01
   3.629125e+01  -7.601133e+00
   5.235985e+01   5.581187e+01
   6.264416e+00   9.707778e+01
  -9.005942e+01   2.646613e+01
  -7.587233e+01  -4.672310e+01
   1.313206e+01  -7.247419e+01
   7.284328e+01  -5.976826e+01
   1.215980e+02   1.720881e+01
   5.384264e+01   1.492531e+02
  -7.922342e+01   1.584127e+02
  -1.912332e+02   8.494012e+01
  -1.625576e+02  -7.842573e+01
  -5.552777e+01  -1.703858e+02
   2.302241e+01  -7.288893e+01
   8.790523e+01  -4.655893e+01
   6.029027e+01  -2.433046e+01
   5.581018e+01  -6.103589e+01
   3.042992e+01  -1.650269e+01
   6.265554e+01   5.420678e+01
   2.870008e+01   9.903039e+01
  -3.557112e+00   1.361404e+02
  -7.842286e+01   9.488979e+01
  -1.197932e+02   1.355999e+00
  -1.034984e+02  -7.259128e+01
   1.650021e+00  -5.751834e+01
   5.116099e+01  -8.479890e+01
   7.235631e+01  -2.887630e+01
   2.606254e+01   3.310283e+01
   2.372438e+01   4.220297e+01
   2.619487e+01   1.173233e+01
   3.721692e+01   7.011902e+01
  -4.629296e+00   5.064381e+01
  -7.277509e+01   1.055928e+01
  -8.387668e+01  -4.316542e+01
  -3.986450e+01  -8.116809e+01
   8.915654e-02  -6.336884e+01
   9.149198e+01  -6.610248e+01
   1.040335e+02  -4.689579e+00
   4.333917e+01   8.877743e+01
  -1.047705e+02   3.444974e+01
  -7.308789e+01  -2.399469e+01
  -1.198246e+01  -5.896392e+01
   5.405914e+01  -5.284690e+01
   3.918935e+01  -2.208693e+01
   4.857305e+01   4.055318e+01
   2.041724e+01   1.963681e+01
   6.220504e+01   2.926736e+01
   8.448126e+01  -3.067932e+00
   2.353624e+01   1.052203e+02
  -3.221718e+01   1.614333e+02
  -1.122064e+02   1.253667e+02
  -1.231299e+02  -1.087592e+01
  -1.237397e+02  -7.715847e+01
  -1.478194e+01  -5.450957e+01
   5.173563e+01  -5.116552e+01
   5.972903e+01   1.243672e+01
  -6.242197e+01  -4.540557e+01
  -9.997368e+01  -1.763056e+01
  -4.626982e+01  -1.002775e+02
   6.734852e+01  -1.195993e+02
   1.717065e+02  -3.732843e+01
   8.731091e+01  -1.880636e+00
   5.032103e+01   4.946655e+01
  -3.354585e+01   4.127043e+01
  -2.099274e+01  -1.766557e+01
   3.644474e+01   1.306144e+01
   1.085978e+02   1.539961e+01
   1.756351e+01   1.024251e+02
  -8.633802e+01   8.368681e+01
  -1.505125e+02   3.001551e+01
  -7.224426e+01  -6.876610e+01
  -8.689055e+00  -1.781473e+02
   8.543344e+01  -1.246090e+02
   9.016503e+01  -1.008842e+01
   7.114603e+01   6.601606e+01
   3.661395e+01   8.378931e+01
   3.261223e+01   5.558338e+01
  -5.458472e+00   2.522742e+01
  -1.189962e+01   4.344101e+00
  -2.239721e+00   1.371013e+01
   1.794281e+01  -1.866888e+00
  -7.022203e+01  -6.286548e+01
  -3.653006e+01  -1.025343e+02
   3.799058e+01  -3.530503e+01
   1.308071e+02   2.180535e+01
   7.398957e+01   6.184823e+01
   4.544444e+01   5.424070e+01
  -3.804907e+01   1.730714e+01
  -7.225845e+01   4.561298e+01
  -3.422635e+01   3.288884e+01
   1.872314e+01  -1.172844e+01
   3.142524e+00  -3.756851e+01
  -2.878245e+01   3.192875e+01
  -3.728795e+01   5.092195e+01
   6.520847e+01   2.369607e+01
   8.275569e-01   2.912659e+01
  -1.764919e+01   3.356589e+01
  -9.788709e+01   4.682648e+01
  -1.461910e+02   4.594578e+01
  -8.358971e+01  -3.458028e+01
  -3.625829e+01  -1.132618e+02
   8.612187e+01  -1.202827e+02
   8.928624e+01  -2.090190e+01
   6.032975e+01   5.087883e+01
   3.817692e+01   2.052275e+01
   1.211715e+01   3.884275e+00
  -1.292433e+01  -1.027553e+01
  -1.223340e+01   1.020165e+01
   3.422835e+01   5.119334e+01
   2.481224e+01   4.998998e+00
  -6.873150e+01  -3.398848e+01
  -4.312151e+01  -6.443958e+01
   2.494417e+01  -1.010289e+02
   9.776158e+01  -2.335669e+01
   8.414387e+01   3.389710e+01
   6.560703e+01   7.101465e+01
  -8.998830e+00   4.498020e+01
  -1.074579e+02   1.315190e+01
  -2.354415e+01  -3.647375e+01
   2.592621e+01  -3.284449e+01
   7.030265e+01  -2.884741e+01
  -1.617853e+01  -3.531050e+00
  -3.856262e+01   1.601539e+01
  -1.583058e+01  -6.013761e+00
   5.957989e+01  -1.459057e+01
   6.526637e+01  -1.562155e+01
   3.569784e+01   2.241773e+00
  -1.154764e+01   6.913577e+01
  -4.220994e+00   2.969108e+01
  -2.632340e+01   9.115621e+00
  -9.244050e+00  -4.317095e+00
  -1.375967e+01  -1.086791e+01
   4.654870e+01   3.426472e+01
   2.515172e+01  -1.804323e+01
  -3.376166e+00   2.877255e+01
  -2.765276e+01  -1.150793e+00
  -6.066261e+01   5.049728e+00
  -3.136480e+00   1.176899e+01
  -2.136789e+01   1.960193e+01
   7.716459e+00  -3.669226e+01
  -2.041730e+01  -6.813114e+01
   3.198876e+01  -2.675298e+01
   4.144717e+01   4.074425e+01
   1.248564e+01   2.536593e+01
  -1.815217e+01   1.334065e+01
  -4.115597e+01   1.702194e+01
  -9.200236e+00  -7.153682e+01
  -6.451155e+00  -3.519602e+01
   1.992225e+01  -4.341082e+01
   5.405638e+01   2.941814e+01
   1.756587e+01   2.829286e+01
  -2.382098e+01   2.904746e+01
  -2.698706e+01  -3.363887e+01
   1.752735e+01   9.348684e-02
   1.624593e+01   2.029314e+01
   1.816367e+01   6.699585e+01
  -5.925965e+01   3.579131e+01
  -8.305615e+01   7.403010e+00
