
 $NMID
 id='ANONYMOUS ', fmtdat='(2E16.6)'
 volume=1.0
 tramp=1.0
 $END
  -3.471991e+03  -5.682484e+01
  -2.059602e+03  -2.031166e+03
   5.886765e+02  -2.013026e+03
   1.712439e+03  -5.627101e+02
   8.282344e+02   4.787044e+02
  -6.166207e+02   4.971714e+02
  -7.501459e+02  -3.250121e+02
  -5.037451e-01  -8.460711e+02
   5.491286e+02  -5.105681e+02
   7.450123e+02   4.976045e+01
   5.502290e+02   8.156032e+02
  -1.731500e+02   7.101815e+02
  -4.470897e+02   4.757280e+01
  -1.898309e+02  -4.337294e+02
   2.265713e+02  -8.387153e+02
   5.437405e+02  -1.659734e+02
   1.437371e+02   4.992209e+02
  -3.044457e+02   4.304163e+02
  -5.582708e+02   1.184170e+02
  -3.571295e+02  -3.389112e+02
  -8.170068e+01  -4.033777e+02
   3.611831e+02   1.543908e+01
   2.055743e+02  -9.215939e+01
  -1.767639e+02   4.638145e+01
  -3.059837e+02  -4.366001e+01
  -1.923480e+02  -2.804611e+02
   3.113337e+02  -3.782676e+02
   7.222607e+02  -4.854105e+01
   4.437412e+02   4.069976e+02
  -3.641132e+02   4.728796e+02
  -5.067758e+02  -1.352791e+01
  -2.885966e+02  -3.043267e+02
   1.789063e+02  -4.788588e+02
   4.516470e+02  -1.631521e+02
   2.581441e+02   1.736416e+02
   1.087192e+02   3.944254e+02
  -1.591454e+02   2.604498e+02
  -1.962007e+02  -1.718218e+02
   1.318912e+02  -3.772618e+02
   3.511155e+02   1.711321e+00
   1.435377e+02   5.062217e+02
  -2.449557e+02   5.603682e+02
  -3.672201e+02  -3.948461e+01
  -2.062339e+02  -4.211973e+02
   2.058552e+02  -1.907643e+02
   2.282918e+02   2.583641e+02
  -7.784634e+01   4.430283e+02
  -4.196844e+02   1.060236e+02
  -4.331213e+02  -3.000294e+02
  -1.402245e+02  -4.653707e+02
   2.408830e+02  -2.999508e+02
   4.766949e+02   3.716236e+01
   3.528818e+02   3.024629e+02
  -1.015554e+02   2.424245e+02
  -3.425003e+02   3.506932e+01
  -1.992505e+02  -1.422452e+02
   1.227148e+02  -8.922981e+01
   1.073130e+02   9.387087e+01
  -1.308516e+02   1.663542e+02
  -2.845471e+02  -3.110858e+01
  -1.106872e+02  -2.414696e+02
   1.614980e+02  -2.409551e+02
   3.179520e+02  -6.539707e+01
   1.902231e+02   9.760573e+01
  -3.303020e+01   2.051336e+02
  -2.105609e+02   2.696445e+02
  -2.600973e+02   1.635341e+02
  -1.868596e+02  -1.301002e+02
  -2.448686e+01  -2.979643e+02
   8.686132e+01  -2.501019e+02
   6.132657e+01  -6.797953e+01
  -4.079528e+00  -1.177143e+01
   5.484438e+01  -2.380780e+01
   1.615480e+02  -9.713337e+01
   1.925823e+02   3.445681e+01
   1.007765e+02   1.665603e+02
  -9.696565e+01   2.013730e+02
  -1.835428e+02  -1.396791e+01
  -1.474143e+02  -1.669135e+02
   2.639539e+01  -2.042636e+02
   2.138596e+02  -6.373736e+01
   2.591879e+02   1.381219e+02
   1.253257e+02   2.660256e+02
  -6.985727e+01   1.785178e+02
  -1.675414e+02   6.961969e+01
  -7.328018e+01  -3.475684e+01
  -7.221970e+01   1.939163e+01
  -1.569716e+02   4.651154e+01
  -3.119877e+02  -7.278448e+01
  -2.092357e+02  -1.963922e+02
  -2.773964e+00  -3.038336e+02
   2.828745e+02  -2.863212e+02
   3.500647e+02  -1.199962e+02
   2.331394e+02   1.076569e+02
  -6.348878e+00   1.745796e+02
  -8.626749e+01   1.135234e+02
  -6.399402e+01   3.271406e+01
   9.017066e+01  -6.819280e+01
   1.139487e+02   2.446982e+01
   4.047286e+01   1.607955e+02
  -1.098535e+02   1.312442e+02
  -1.079987e+02  -3.878656e+01
  -1.139778e+01  -1.405234e+02
   1.059776e+02  -5.432916e+01
   9.658563e+01   1.384570e+02
  -4.284259e+01   2.592004e+02
  -1.817849e+02   1.173750e+02
  -2.118886e+02  -3.403567e+01
  -2.054100e+02  -1.745207e+02
  -4.695361e+01  -1.852248e+02
   1.302332e+02  -6.241256e+01
   1.047795e+02   2.583123e+01
   1.778442e+01   7.178590e+00
  -4.627952e+01  -1.503001e+01
  -3.947487e+01  -9.585335e+01
   7.338471e+01  -9.951758e+01
   1.520810e+02  -1.690590e+01
   4.201779e+01   1.168491e+02
  -6.348852e+01   4.850831e+01
  -7.540468e+01  -1.456392e+01
   9.009475e+01  -8.940504e+01
   1.619795e+02  -3.990494e+01
   1.770792e+02   5.059961e+01
   5.662433e+01   1.880809e+02
  -1.142805e+02   2.360198e+02
  -2.088819e+02   1.059952e+02
  -1.044143e+02  -2.183408e+01
   4.254023e+00  -8.435367e+01
   8.063557e+01  -1.972311e+01
  -3.882538e+01   2.607952e+01
  -1.132180e+02   2.673048e+01
  -1.591967e+02  -5.478198e+01
  -7.754359e+01  -1.583288e+02
   5.180645e+01  -1.110543e+02
   1.051093e+02   9.264124e-01
   7.257900e+01   3.644844e+01
   2.337531e+01   1.886048e+01
  -2.388070e+01  -3.405109e+01
   2.850081e+00  -7.058667e+01
   1.336083e+02  -3.043195e+01
   1.493927e+02   9.932763e+01
   2.425544e+01   1.588326e+02
  -1.270274e+02   1.222645e+02
  -1.721886e+02  -2.949059e+01
  -3.156796e+01  -9.326847e+01
   2.783797e+00  -1.016388e+02
   6.555781e+01  -5.315722e+01
   2.434745e+01   1.069908e+01
   1.771664e+01   2.934865e+00
  -8.043006e-01   1.794591e+01
   3.181877e+01   2.462888e+01
   2.876351e+01   6.922402e+01
   3.704492e+01   7.887456e+01
  -7.150844e+01   8.468380e+01
  -1.915053e+02  -1.683032e+01
  -1.524909e+02  -1.154548e+02
  -3.708949e+01  -1.878522e+02
   1.149284e+02  -1.423916e+02
   1.392458e+02   6.202604e+00
   5.108074e+01   1.020840e+02
  -1.400806e+01   8.424795e+01
   4.637858e+01  -4.078546e+01
   5.423954e+01  -1.836123e+01
  -3.946297e+00   4.017387e+01
  -7.980030e+01   4.244522e+01
  -6.063218e+01   5.036344e+01
  -4.599998e+01   5.838234e+00
   5.833442e+00  -9.080361e+01
   1.089211e+02  -8.528290e+01
   1.680693e+02   4.075905e+01
   7.565390e+01   1.713911e+02
  -8.282039e+01   1.845966e+02
  -1.740602e+02   6.513632e+01
  -1.854370e+02  -3.988538e+01
  -1.015257e+02  -1.403023e+02
  -6.537200e+00  -1.086846e+02
   8.872540e+01  -8.290808e+01
   5.499160e+01  -3.487712e+01
   4.718934e+01  -6.469296e+01
   8.944654e+01  -3.071236e+01
   9.793107e+01   1.361957e+01
   1.391710e+02   8.902579e+01
   5.564225e+01   1.787562e+02
  -9.317623e+01   1.328747e+02
  -1.417136e+02   2.167655e+01
  -9.044098e+01  -1.084855e+02
  -1.012829e+01  -1.475250e+02
  -2.437412e+00  -1.082300e+02
   3.030430e+01   3.846271e+00
  -1.122264e+01   5.478094e+01
  -9.848619e-01   4.911406e+01
   1.405863e+01  -1.738046e+01
   4.498466e+01   3.148659e+00
   2.944125e+01   1.767967e+01
  -5.618806e+01  -1.107358e+01
  -6.855403e+01  -2.087298e+01
  -9.022003e+01  -3.465858e+01
  -2.723862e+01  -3.686588e+01
   7.085768e+01  -4.668990e+01
   9.464852e+01   3.512182e+00
   2.325773e+01   7.784044e+01
  -7.148562e+01   5.940417e+01
  -6.807679e+01  -3.723253e+01
  -2.926400e+01  -6.256825e+01
   2.282563e+01  -4.094803e+01
   6.130654e+01   3.265363e+00
   2.672194e+01   3.059489e+01
   4.713413e+01   2.143849e+01
   3.104322e+01   1.384765e+01
   4.231486e+01   2.982026e+01
   2.438473e+01  -5.927890e+00
  -6.097444e+00   9.188935e+01
  -7.036945e+01   1.195427e+02
  -1.243527e+02   7.281761e+01
  -8.169614e+01  -7.718880e+01
  -2.534038e+01  -1.183917e+02
   8.075956e+01  -4.244175e-01
   7.039510e+01   4.649971e+00
  -2.169175e+01   2.102910e+01
  -9.396002e+01  -1.956337e+01
  -8.804567e+01  -1.084618e+02
   5.892868e+01  -1.040706e+02
   1.258491e+02  -6.904670e+01
   1.214790e+02  -1.667515e+01
   4.598663e+01   3.306172e+01
  -2.738461e+01   8.042201e+01
  -4.392965e+01   7.507247e+01
   5.993867e+01  -1.065975e+01
   1.067286e+02   7.311038e-02
   1.571292e+01   7.108129e+01
  -9.011442e+01   1.103975e+02
  -1.286426e+02   3.725104e+01
  -1.192560e+02  -7.071904e+01
  -3.606934e+01  -1.545047e+02
   8.611762e+01  -7.587374e+01
   1.102406e+02   5.289826e+00
   5.254786e+01   6.596768e+01
  -3.464757e+01   7.145554e+01
  -5.286180e+01   4.600319e+01
  -7.033704e+01  -3.946604e+00
  -4.094338e+01  -5.311702e+00
   1.661049e+01  -4.791117e+01
   1.741927e+01   1.503344e+01
  -9.308983e+01  -5.515129e+01
  -3.640628e+01  -9.284256e+01
   3.618271e+01  -3.396132e+01
   1.107103e+02   1.193917e+01
   1.077305e+02   4.286347e+01
   4.791681e+00   3.206589e+01
  -1.017798e+02   2.934840e+01
  -9.389723e+01   1.093215e+01
  -2.686017e+01   8.489353e-03
   1.366466e+01  -3.342523e+01
   7.958152e+00  -1.031224e+01
  -9.656723e+00  -6.591656e+00
  -4.473282e+00   1.458564e+01
   7.381471e+01  -3.618916e+01
   5.952425e+01  -1.787298e+01
  -2.735417e+01   3.815131e+01
  -9.921379e+01   6.254799e+01
  -1.241579e+02   3.274088e+01
  -1.179838e+02  -6.636717e+01
  -5.674931e+01  -1.268609e+02
   8.425062e+01  -1.004804e+02
   1.222074e+02  -3.889149e+01
   7.915428e+01   2.458062e+01
  -8.286258e+00   5.174142e+01
   1.121695e+01   1.186456e+01
  -8.513907e+00  -1.935703e+01
  -7.741868e+00  -3.151322e-01
   5.902199e+01   3.190399e+01
   2.759369e+01   1.078312e+02
  -6.181457e+01  -4.267752e+00
  -7.809703e+01  -7.377132e+01
   3.113021e+00  -8.715527e+01
   6.752153e+01   1.038167e+01
   1.101262e+02   5.147300e+01
   1.763165e+01   9.525691e+01
  -8.000606e+01   6.180791e+01
  -8.018666e+01  -1.449107e+01
  -5.453443e+01  -4.987396e+01
   1.765938e+01  -5.392295e+01
   2.192594e+01  -2.233298e+00
  -2.306028e+01  -3.390210e-01
  -2.377814e+01   3.885375e+01
  -4.269672e+01  -1.341055e+01
   5.096415e+01  -2.360309e+01
   8.625469e+01  -3.470662e+01
   6.336077e+01   2.010083e+01
  -3.817221e+01   6.558111e+01
  -7.170628e+01   3.828183e+01
   4.337407e+00  -7.280118e+00
   1.324578e+01  -7.412576e+01
   4.186413e+01  -4.134834e+01
   2.564990e+01  -2.875067e+01
   4.691848e+01   3.243910e+01
   3.828930e+01   2.305638e+01
  -5.779353e+01  -1.446011e+01
  -7.444106e+01   3.467629e+00
  -4.326202e+01  -3.661234e+00
   3.042635e+01   3.605943e+00
   1.678533e+01   2.566109e+00
   1.083658e+01  -3.433700e+01
   2.692034e+01  -5.320243e+00
   9.617450e+00  -2.201063e+01
   2.043871e+01   8.763409e+00
   1.533507e+01   1.817122e+01
   5.797182e+00   5.834635e+01
  -1.544792e+01  -1.743355e+01
  -8.584466e+00  -3.786457e+01
   6.498371e+00  -1.127618e+01
   5.006207e+01   5.959400e+00
   5.299960e+01   3.225284e+01
   1.903040e+01  -2.807600e+01
  -4.257235e+01   1.293077e+01
  -3.713017e+01   1.544453e+01
   2.690159e+01   2.006052e+01
   2.600448e+01   1.356262e+01
  -4.852091e+01   3.277636e+01
  -7.210810e+01   4.025656e+01
