
 $NMID
 id='ANONYMOUS ', fmtdat='(2E16.6)'
 volume=1.0
 tramp=1.0
 $END
   4.430975e+03   5.292592e+01
   2.817928e+03   2.612947e+03
  -8.974897e+02   2.655565e+03
  -2.147090e+03   9.175376e+02
  -1.129149e+03  -6.892839e+02
   6.847029e+02  -6.681617e+02
   9.976446e+02   3.839608e+02
   8.370910e+01   1.168530e+03
  -8.575403e+02   7.572956e+02
  -1.010826e+03  -4.085621e+01
  -5.221433e+02  -9.805772e+02
   2.658203e+02  -1.070402e+03
   4.697246e+02  -2.619176e+02
   6.024837e+02   8.433925e+02
  -1.193355e+02   8.456875e+02
  -5.441883e+02   6.192244e+01
  -3.346809e+01  -7.740701e+02
   3.975924e+02  -8.306171e+02
   5.221472e+02   3.130219e+01
   2.343218e+02   4.313074e+02
   1.334092e+02   3.895224e+02
  -1.620566e+02   3.355459e+02
  -2.384990e+02   3.654261e+01
   9.539442e+01  -1.347227e+02
   4.142033e+02   1.503790e+02
   1.918062e+02   4.616763e+02
  -3.087388e+02   5.494653e+02
  -9.287041e+02   7.824544e+01
  -4.809808e+02  -6.106799e+02
   4.477283e+02  -4.678627e+02
   8.173424e+02   2.713660e+01
   3.085974e+02   3.924222e+02
  -4.014400e+02   6.372248e+02
  -6.298447e+02   3.091386e+02
  -4.110303e+02  -1.750908e+02
  -4.192532e+01  -4.256927e+02
   2.664760e+02  -3.422236e+02
   2.641951e+02   1.752156e+02
  -2.091637e+02   4.894069e+02
  -5.004075e+02   7.150002e+01
  -3.376695e+02  -6.215489e+02
   2.951017e+02  -7.581917e+02
   6.536383e+02  -6.702675e+01
   2.904396e+02   6.013273e+02
  -3.387122e+02   3.757823e+02
  -4.410370e+02  -3.198394e+02
   6.994517e+01  -5.299884e+02
   5.865400e+02  -1.140066e+02
   5.748554e+02   4.106049e+02
   1.486329e+02   5.622584e+02
  -4.115586e+02   3.271342e+02
  -6.415505e+02  -1.018454e+01
  -3.704670e+02  -3.345651e+02
   1.670885e+02  -3.888556e+02
   4.840241e+02  -1.066046e+02
   2.397802e+02   1.630063e+02
  -1.803164e+02   1.154705e+02
  -1.717433e+02  -1.239764e+02
   2.051277e+02  -2.042860e+02
   3.875768e+02   4.232753e+01
   1.533581e+02   2.798624e+02
  -1.996656e+02   2.797470e+02
  -3.139797e+02   7.957874e+01
  -1.822985e+02  -1.005925e+02
   3.433572e+01  -2.236931e+02
   2.192108e+02  -3.349070e+02
   2.997333e+02  -2.184208e+02
   3.340772e+02   1.553907e+02
   1.260440e+02   4.403555e+02
  -1.443325e+02   4.096527e+02
  -1.504165e+02   1.140798e+02
  -3.420308e+01  -1.353746e+01
  -4.559087e+01   7.727675e+01
  -1.405011e+02   1.384775e+02
  -2.842164e+02  -4.295064e+01
  -1.972119e+02  -2.711682e+02
   5.060126e+01  -2.696429e+02
   2.702294e+02  -5.446843e+01
   2.403397e+02   2.116370e+02
   4.063392e+00   3.170290e+02
  -2.709589e+02   1.750747e+02
  -4.648084e+02  -1.663594e+02
  -2.255294e+02  -3.338884e+02
   7.564252e+01  -3.005011e+02
   2.132784e+02  -1.492187e+02
   1.600545e+02  -1.025872e+01
   1.289329e+02  -3.365393e+01
   1.838414e+02  -6.086869e+01
   3.610077e+02   6.076735e+01
   3.294883e+02   2.970266e+02
   4.730862e+01   4.352943e+02
  -3.146455e+02   4.127859e+02
  -5.152403e+02   2.288698e+02
  -3.815214e+02  -9.348911e+01
  -1.142635e+02  -3.098749e+02
   8.151807e+01  -2.356083e+02
   1.145422e+02  -3.092212e+01
  -7.069914e+01   8.096881e+01
  -2.226425e+02   2.578092e+01
  -9.334501e+01  -1.936748e+02
   1.247473e+02  -2.116419e+02
   1.942381e+02  -5.950692e+00
   1.856120e+01   1.555492e+02
  -1.891728e+02   3.373756e+01
  -1.964109e+02  -2.518120e+02
   9.194746e+00  -3.094160e+02
   2.280798e+02  -2.030092e+02
   3.789087e+02   4.943916e+01
   2.925427e+02   2.344300e+02
   7.219560e+01   2.709647e+02
  -1.547174e+02   2.078647e+02
  -1.920605e+02  -1.790027e+00
  -7.819125e+01  -9.034211e+01
   1.074237e+02  -1.097374e+00
   9.499416e+01   1.253771e+02
  -1.109091e+02   9.108013e+01
  -1.937222e+02  -2.278350e+01
  -7.637765e+01  -9.613259e+01
   1.044690e+02  -3.845721e+01
   6.808311e+01   8.444257e+01
  -9.613924e+01   1.238523e+02
  -2.359730e+02   5.290344e+01
  -2.498608e+02  -1.347074e+02
  -7.328326e+01  -2.174290e+02
   1.306610e+02  -2.720650e+02
   2.527561e+02  -1.872929e+02
   1.905605e+02   3.957847e+01
  -4.756718e+01   1.599890e+02
  -1.131449e+02   2.684438e+01
   1.505190e+01  -8.681308e+01
   2.270770e+02  -9.960641e+01
   2.617358e+02   1.055730e+02
   8.046013e+01   2.322927e+02
  -1.122710e+02   1.764523e+02
  -1.649423e+02   5.327029e+01
  -9.230761e+01  -7.475132e+01
   1.538799e+01  -2.241927e+01
   2.225045e+01   2.400256e+01
  -5.225490e+01   6.737516e+01
  -1.400809e+02  -4.251732e+00
  -1.758986e+02  -1.112251e+02
  -3.039834e+01  -1.825168e+02
   1.788583e+02  -1.188445e+02
   1.852428e+02  -4.479581e+00
   1.039203e+02   1.379485e+02
  -8.222422e+01   1.096476e+02
  -1.198640e+02   4.407416e+01
  -5.310564e+01   7.027494e+00
   3.167587e+01  -3.600603e+01
   1.695104e+01  -3.177941e+01
  -8.398572e+01  -5.063703e+01
  -8.444364e+01  -7.129141e+01
   7.630285e+00  -1.183704e+02
   1.171290e+02  -1.905676e+02
   2.267619e+02  -2.712434e+01
   1.788399e+02   1.073505e+02
   4.843999e+01   2.239160e+02
  -1.156019e+02   2.039893e+02
  -1.475218e+02   2.312973e+01
  -6.822331e+01  -6.443463e+01
   1.279789e+01  -4.887953e+01
  -7.078810e+00  -2.046988e+01
  -6.253345e+01   1.580775e+01
   7.378173e+00  -3.197366e+01
   2.000964e+01  -2.578196e+01
   6.084945e+01   1.139439e+01
   7.180600e+01   4.758705e+01
  -1.469764e+01   1.240243e+02
  -1.472720e+02   8.836235e+01
  -1.915641e+02  -4.630767e+01
  -8.548921e+01  -2.019238e+02
   1.036480e+02  -2.236914e+02
   2.473092e+02  -1.111918e+02
   2.456433e+02   8.165809e+01
   9.341469e+01   1.560575e+02
  -1.966413e+01   1.558644e+02
  -7.823336e+01   1.060988e+02
  -7.484612e+01   1.078206e+02
  -6.982031e+01   6.886542e+01
  -7.628387e+01   4.026030e+01
  -9.804653e+01  -8.082853e-01
  -1.300159e+02  -1.368579e+02
  -5.232413e+01  -1.961837e+02
   8.693815e+01  -1.323746e+02
   1.629513e+02  -2.977678e+01
   1.313999e+02   1.174195e+02
   2.941272e+01   1.580015e+02
  -6.171725e+01   7.189511e+01
  -5.292110e+01  -1.540550e+01
   3.476564e+00  -1.778494e+01
  -2.395960e+01  -3.103875e+01
  -2.935048e+01  -3.908491e+01
  -8.859207e+01   8.545834e+00
  -8.915152e+01  -5.469255e+00
   8.019663e+01  -3.693672e+01
   9.586911e+01  -1.073359e+01
   1.119710e+02   3.856769e+01
   1.001584e+01   7.384502e+01
  -1.329760e+02   8.346286e+01
  -1.579851e+02   6.579554e+00
  -2.646539e+01  -7.501816e+01
   5.431421e+01  -2.870791e+01
   6.703620e+01   2.123773e+01
  -3.933094e+01   6.057456e+01
  -6.628002e+01   6.186131e+01
  -7.484035e+01   2.088746e+00
  -3.709522e+01  -7.593456e+01
  -4.914008e+01  -7.977107e+01
  -4.888190e+01  -4.588419e+00
  -3.848268e+01  -6.871803e+01
  -2.451468e+01  -5.523676e+01
   5.688809e+00  -1.032353e+02
   1.216199e+02  -1.190291e+02
   1.933511e+02  -1.255009e+01
   1.139742e+02   1.290523e+02
  -1.847606e+01   9.549243e+01
  -1.129563e+02   4.894545e+01
  -3.227625e+01  -4.271432e+01
   9.097640e+01   1.097790e+01
   7.545232e+01   2.625856e+01
   8.625400e+01   1.259572e+02
  -8.089917e+01   1.374233e+02
  -2.336800e+02   4.084056e+01
  -1.232570e+02  -7.152510e+01
  -3.195607e+01  -9.133060e+01
   4.897411e+01  -9.090154e+01
   3.769034e+01  -2.167790e+01
  -1.457303e+01   4.323025e+01
  -9.099507e+01  -3.611742e+01
  -6.402338e+01  -1.132704e+02
   1.008412e+02  -1.084332e+02
   1.625460e+02  -3.634992e+00
   8.263655e+01   8.943880e+01
  -4.929169e+00   1.751084e+02
  -8.461675e+01   1.205877e+02
  -7.874079e+01  -1.232687e+01
  -7.541812e+00  -1.116089e+02
  -2.578365e+01  -7.559984e+01
   4.368354e+00  -3.066393e+01
   6.662687e+01   1.791046e+01
  -5.581309e+00   1.796315e+01
  -3.416795e+01   1.670858e+01
   2.763947e+01  -1.462716e+01
   5.085701e+01   5.599723e+01
   2.879720e+01   1.075455e+02
  -8.189305e+01   4.306945e+01
  -1.546200e+02  -2.728413e+01
  -9.802545e+01  -7.885787e+01
   2.061215e+01  -6.721141e+01
   1.200725e+02  -4.350673e+01
   6.953226e+01  -9.243073e+00
   3.892276e+00   3.989621e+01
   3.349045e+00   4.928631e+00
  -9.298072e+00  -1.296090e+01
   2.504977e+01   2.758993e+01
  -9.797851e+00  -2.548451e+01
  -5.614440e+01   6.576244e+00
  -5.748715e+01  -1.774131e+01
   1.392621e+01  -6.291431e+01
   9.022218e+01  -5.270070e+01
   1.650251e+02  -3.406527e+01
   1.431266e+02   1.032783e+02
   1.423839e+01   1.621931e+02
  -9.619547e+01   1.270815e+02
  -1.086186e+02   5.838660e+01
  -7.860695e+01  -3.089568e+00
  -2.867767e+01  -5.908188e+01
  -3.143158e+01  -2.806728e+01
  -1.205287e+01   1.580609e+01
  -2.527491e+01  -4.962008e+01
  -2.942793e+01  -7.487593e+01
   4.274020e+01  -7.587564e+01
   1.041359e+02   4.131304e+01
   7.714318e+01   7.156285e+01
   1.126843e+01   1.076595e+02
  -7.490313e+01   4.558247e+01
  -1.263767e+02  -6.904291e+01
  -3.298648e+01  -1.283865e+02
   8.424316e+01  -5.366438e+01
   1.169774e+02   5.778478e+01
   4.439509e+01   5.092122e+01
  -6.561740e+00  -1.430419e+01
  -3.626256e+01   4.168273e+01
   1.951589e+01  -2.198591e+01
   9.269233e+01   2.731733e+01
   5.163404e+01   8.644748e+01
  -7.789686e+01   8.036617e+01
  -7.915502e+01   6.530958e+01
  -6.922353e+01  -4.354171e+01
   1.639450e+00  -1.098067e+02
   5.573588e+01  -6.334937e+01
   3.814909e+01  -1.695351e+01
   1.221067e+01   5.116732e+01
  -3.377132e+01   3.402169e+01
  -6.379440e+01   3.271957e+00
  -1.500984e+01  -5.782673e+01
  -1.373182e+00  -9.032244e+00
   3.359457e+01   3.896038e-01
   1.966890e+01   3.271258e+01
   1.132934e+01   3.549961e+00
  -8.770527e+00  -3.779841e+01
  -7.412032e+00  -2.947204e+01
   6.404424e+00   1.633445e+01
   2.663780e+01  -2.729871e+01
  -9.474640e-02  -1.830846e+01
   2.145326e+01  -5.162026e+01
   1.224889e+01  -3.441390e+01
  -1.962326e+00  -1.533215e+01
   6.119735e+01   4.595379e+01
  -9.223002e+00   5.984542e+01
  -5.587972e+01   7.784365e+01
  -1.050000e+02  -5.095564e+00
   5.225095e+00  -2.935986e+01
   4.642265e+01  -5.087471e+01
   5.429486e+01  -3.441710e+01
   9.576775e+00   1.475968e+01
  -2.369720e+01   1.624598e+01
  -3.993092e+01  -2.181248e+01
   2.839635e+00  -2.161334e+01
   8.598685e+01   1.039813e+01
