
 $NMID
 id='ANONYMOUS ', fmtdat='(2E16.6)'
 volume=1.0
 tramp=1.0
 $END
   4.475715e+03  -4.498222e+00
   2.708380e+03   2.708819e+03
  -8.873713e+02   2.940448e+03
  -2.034001e+03   8.871942e+02
  -9.780984e+02  -8.196578e+02
   7.795749e+02  -7.624026e+02
   9.738618e+02   4.451046e+02
   1.072740e+02   1.073437e+03
  -8.148709e+02   8.466816e+02
  -1.042619e+03  -1.214916e+02
  -4.426470e+02  -7.867696e+02
   1.787852e+02  -1.027923e+03
   7.212075e+02  -1.715626e+02
   2.681423e+02   7.098476e+02
  -1.826303e+02   7.210399e+02
  -6.032499e+02   1.328682e+02
  -3.915561e+02  -6.288746e+02
   2.441478e+02  -5.110818e+02
   7.714144e+02  -1.440833e+02
   4.522402e+02   2.683960e+02
   7.941848e+01   5.670555e+02
  -1.957847e+02   1.825968e+02
  -2.533558e+02   8.849344e+01
   2.348479e+02  -3.587573e+02
   5.070211e+02   2.860349e+01
   3.400504e+02   4.511669e+02
  -4.851511e+02   5.343919e+02
  -8.010002e+02  -1.481318e+02
  -4.322346e+02  -5.574255e+02
   3.413051e+02  -4.943752e+02
   8.008666e+02   1.871939e+01
   4.873410e+02   5.735647e+02
  -1.217893e+02   3.989302e+02
  -4.949733e+02   2.268928e+02
  -4.182817e+02  -2.553823e+02
  -7.055540e+01  -4.650692e+02
   2.574887e+02  -1.581880e+02
   2.188395e+02   3.126178e+02
  -1.732027e+02   4.575042e+02
  -5.828489e+02  -7.298423e+01
  -2.482292e+02  -5.918079e+02
   3.643408e+02  -7.232977e+02
   7.154376e+02   4.266892e+01
   2.350095e+02   5.419094e+02
  -3.992845e+02   3.549428e+02
  -4.531488e+02  -3.129328e+02
   2.118184e+01  -5.757958e+02
   5.746482e+02  -1.598864e+02
   6.132740e+02   4.103941e+02
   1.628587e+02   5.867565e+02
  -4.341061e+02   3.353499e+02
  -6.381948e+02  -1.180449e+02
  -3.579307e+02  -4.113014e+02
   2.002670e+02  -3.664525e+02
   4.313085e+02  -4.056762e+01
   2.074490e+02   2.342725e+02
  -1.099911e+02   1.295453e+02
  -1.311044e+02  -1.593630e+02
   1.882059e+02  -2.086224e+02
   3.761317e+02   7.715082e+01
   1.827049e+02   3.069607e+02
  -2.044084e+02   3.028915e+02
  -3.354879e+02   8.258276e+01
  -1.910273e+02  -9.228318e+01
   3.480458e+01  -2.265144e+02
   2.317136e+02  -2.815588e+02
   3.500299e+02  -1.839397e+02
   3.092902e+02   1.045741e+02
   1.025665e+02   4.060133e+02
  -1.413278e+02   4.172023e+02
  -1.709123e+02   1.709510e+02
  -4.013916e+01   5.081712e+01
  -1.034175e+01   1.055781e+02
  -1.788902e+02   1.312252e+02
  -2.955043e+02  -3.119785e+01
  -2.454971e+02  -2.621515e+02
   8.466246e+00  -2.775131e+02
   2.133404e+02  -7.854104e+01
   2.114273e+02   1.835442e+02
  -5.590785e+00   2.667919e+02
  -2.737189e+02   1.340806e+02
  -3.454963e+02  -1.321184e+02
  -1.674795e+02  -3.481127e+02
   1.048216e+02  -2.577668e+02
   1.943023e+02  -6.705592e+01
   1.563718e+02   8.939759e+00
   1.250863e+02   1.857911e+01
   2.761157e+02  -9.186159e+01
   4.047920e+02   2.372744e+01
   3.056490e+02   2.440720e+02
  -1.708222e+01   4.732839e+02
  -3.913872e+02   4.696468e+02
  -4.897914e+02   1.970323e+02
  -3.586632e+02  -1.327546e+02
  -7.549345e+01  -3.608613e+02
   1.691791e+02  -2.698588e+02
   9.475659e+01  -3.159999e+01
  -9.545102e+01   1.058966e+02
  -2.189036e+02   3.130621e+01
  -1.008074e+02  -1.630637e+02
   1.800500e+02  -1.786970e+02
   2.138221e+02   3.699555e+01
   2.779128e+01   1.517343e+02
  -2.108684e+02   4.065004e+01
  -1.872147e+02  -2.529327e+02
  -1.311550e+01  -3.278517e+02
   2.332176e+02  -1.782451e+02
   3.001991e+02   6.551221e+01
   2.358728e+02   2.196510e+02
   4.111390e+01   2.262706e+02
  -1.202795e+02   1.395969e+02
  -1.538492e+02   2.122277e+01
  -1.147035e+01  -3.846358e+01
   7.365759e+01   2.970148e+01
   2.345270e+01   1.285472e+02
  -8.476622e+01   1.181805e+02
  -1.372875e+02  -2.565485e+00
  -4.967522e+01  -6.692925e+01
   6.790250e+01  -1.296910e+01
   6.071863e+01   4.787092e+01
  -9.709793e+01   1.252100e+02
  -3.073655e+02   1.983350e+01
  -3.020851e+02  -1.212514e+02
  -9.371308e+01  -2.538935e+02
   1.930220e+02  -2.685064e+02
   2.528697e+02  -1.215122e+02
   1.750393e+02   4.329937e+01
  -4.460804e+01   9.384725e+01
  -1.107282e+02  -3.343899e+00
   5.511581e+01  -1.293234e+02
   2.132763e+02  -1.216511e+02
   2.880440e+02   1.028878e+02
   6.927243e+01   1.796052e+02
  -1.455101e+02   1.510859e+02
  -1.931259e+02   2.077404e+01
  -7.440078e+01  -8.438750e+01
   7.937806e+01  -1.568537e+01
   5.010466e+01   9.799014e+01
  -4.378194e+01   1.441629e+02
  -2.058684e+02   7.625569e+01
  -1.996686e+02  -1.105368e+02
  -4.491484e+01  -1.985689e+02
   9.542894e+01  -1.468895e+02
   1.561261e+02  -1.493010e+01
   4.336722e+00   1.048003e+02
  -7.040851e+01   9.522393e+01
  -7.358116e+01   1.116682e+01
  -4.293730e+01  -1.345814e+00
   3.115657e+01  -3.373116e+01
  -2.259152e+01   9.808912e+00
  -7.246518e+01   4.403369e+00
  -8.266824e+01  -7.918127e+01
  -2.325807e+01  -1.505764e+02
   1.162200e+02  -1.370757e+02
   2.356510e+02  -2.121870e+01
   1.812216e+02   1.225290e+02
  -1.133682e+01   2.097114e+02
  -1.018675e+02   1.574423e+02
  -1.044116e+02  -2.636344e+01
  -2.363545e+01  -3.632307e+01
  -1.738067e+01  -1.881096e+01
  -5.352588e+01   8.260841e+00
  -9.850696e+01   1.547436e+01
  -5.219964e+01  -4.192771e+01
   5.570061e+01  -9.124935e+01
   7.128821e+01  -9.670890e+00
   9.511125e+01   4.108944e+00
  -6.687079e+00   8.833705e+01
  -1.028509e+02   4.898092e+01
  -1.977386e+02  -3.189088e+01
  -1.225989e+02  -2.010035e+02
   9.740107e+01  -2.578362e+02
   2.925806e+02  -8.978006e+01
   2.988709e+02   1.103633e+02
   1.072840e+02   1.751325e+02
  -3.865757e+01   1.787453e+02
  -1.150596e+02   1.057859e+02
  -9.462270e+01   7.987478e+01
  -6.600744e+01   9.811832e+01
  -8.096256e+01   6.751289e+01
  -1.391612e+02  -1.881838e+01
  -1.723065e+02  -1.421523e+02
  -5.404695e+01  -2.450044e+02
   8.184696e+01  -2.094826e+02
   2.088654e+02  -5.397451e+01
   1.793077e+02   1.076090e+02
   2.243315e+01   1.444614e+02
  -7.603434e+01   1.087729e+02
  -1.180256e+02  -9.502924e+00
  -6.534305e+00  -9.928665e+01
   2.644500e+01  -7.416728e+01
   6.471785e+00  -4.431160e+01
  -5.444739e+01   2.324064e+01
  -6.419452e+00  -4.546182e+01
   6.792414e+01  -7.071395e+01
   1.500977e+02  -1.528183e+01
   1.139144e+02   4.587046e+01
  -1.421282e-01   9.840689e+01
  -1.114351e+02   5.358775e+01
  -1.474940e+02  -9.753932e+00
  -8.859603e+01  -5.236979e+01
   6.267680e+01  -2.515807e+01
   5.044076e+01   2.078085e+00
  -6.812433e+00   3.713254e+01
  -3.712650e+01   7.413873e+01
   5.133334e+00  -2.277322e+01
  -3.280591e+01  -2.591429e+01
  -4.678785e+00  -3.187019e+00
  -5.066562e+01   1.404195e+01
  -1.023510e+02   3.985069e+01
  -5.803010e+01  -5.548297e+01
   1.766018e+01  -1.504630e+02
   1.059592e+02  -1.465940e+02
   2.110860e+02  -5.864143e+01
   1.558778e+02   9.806539e+01
  -1.456885e+01   1.222549e+02
  -8.387072e+01   4.632319e+01
  -9.991216e+00  -1.741279e+01
   7.139391e+01  -2.008070e+01
   1.290098e+02   1.922081e+01
   4.197940e+01   8.928338e+01
  -7.400853e+01   8.440043e+01
  -1.462430e+02   5.163934e+01
  -1.204586e+02  -5.600258e-01
  -5.585894e+01  -5.673793e+01
  -2.231199e+01  -6.589249e+01
   2.966484e+01  -1.565336e+01
  -4.696087e+01   3.585949e+01
  -7.861533e+01  -6.085540e+01
   2.699421e+01  -1.065502e+02
   6.965868e+01  -1.879958e+02
   2.318179e+02  -3.670948e+01
   1.163486e+02   1.331193e+02
  -1.692487e+01   1.431513e+02
  -9.585586e+01   1.398940e+02
  -9.497683e+01  -4.504942e+01
  -7.581734e+01  -9.181926e+01
   3.054061e+01  -8.841095e+01
   4.563667e+01  -3.991137e+01
   6.126339e+01   2.174476e+01
  -1.469813e+01  -4.261664e+00
  -2.126757e+01  -3.549987e-02
   5.203091e+01   1.150064e+01
   6.437441e+01   5.592088e+01
   8.985948e+00   9.538984e+01
  -1.002672e+02   5.403781e+01
  -1.255712e+02  -5.972017e+01
  -9.082672e+01  -7.152621e+01
  -6.339973e+01  -6.240080e+01
   1.106567e+02  -3.178287e+01
   7.518287e+01   2.475641e+01
   2.408772e+01   3.128011e+01
  -3.499297e+01   1.594637e+00
  -2.247725e+01  -2.265144e+01
   2.904158e+01   1.102557e+01
  -1.550882e+01   3.640668e+00
  -8.739656e+01   2.778396e+01
  -1.242165e+02  -3.122529e+01
  -1.360654e+01  -1.082849e+02
   1.197709e+02  -1.317062e+02
   1.916264e+02  -5.554934e+01
   1.566053e+02   5.988118e+01
   5.879880e+00   1.603807e+02
  -5.288445e+01   1.800207e+02
  -1.008859e+02   3.718464e+01
  -5.552157e+01  -3.694720e+01
  -1.044594e+00  -3.823760e+01
  -5.628225e+01  -1.882193e+01
  -3.298135e+01   2.522670e+01
  -2.942900e+01  -6.081910e+01
  -1.041978e+01  -6.676822e+01
   7.560163e+01  -6.790497e+01
   8.142682e+01   2.292321e+01
   7.197809e+01   1.026282e+02
   1.735678e+01   1.026161e+02
  -8.770184e+01  -1.082437e+00
  -9.914452e+01  -5.791719e+01
   6.141507e+00  -1.068922e+02
   6.078819e+01  -6.027543e+01
   1.143996e+02  -1.578843e+01
   2.533409e+01   5.250731e+01
  -4.817857e+01   5.514242e+01
  -1.380073e+01   3.572786e+01
  -2.359221e+01  -5.320294e+00
   4.288794e+01   4.893694e+01
   5.065894e+01   1.933356e+01
  -4.849433e+01   4.111071e+01
  -8.594413e+01   1.808414e+01
  -8.971908e+01   4.406484e+01
  -4.241502e+01  -5.385057e+01
   5.108595e+01  -7.764413e+01
   3.832060e+01   6.400122e+00
  -2.321072e+01   7.835733e+01
  -4.396792e+01   6.480373e+01
  -7.894498e+01  -1.564008e+01
  -4.040855e+01  -6.527074e+01
  -1.523060e+01  -6.827361e+01
   4.572747e+01  -1.976922e+01
   6.592923e+01   2.560426e+01
   3.518843e+01  -2.384266e+01
   2.266146e+01   4.413338e+01
   5.807548e+00  -4.071036e+01
  -6.264634e+00   7.182389e+01
  -4.913307e+01   4.604908e+01
  -1.218243e+01  -9.214953e+00
  -5.178692e+01  -1.830178e+01
  -3.193259e+01  -2.428097e+01
   6.507927e+01   2.174382e+00
   3.963026e+01   6.411565e+00
   4.226596e+01   3.726897e+01
  -6.506016e+01   2.704196e+01
  -6.084818e+01   9.266173e+00
  -4.024991e+01  -5.706776e+01
   6.501328e+00  -4.165276e+01
   6.094252e+01   2.992839e+00
   2.275446e+01  -1.283264e+00
  -6.507131e+01  -1.930208e+01
  -5.664467e+01  -3.859898e+01
   5.807705e+01  -2.362332e+01
   7.221132e+01  -1.435274e+01
