
 $NMID
 id='ANONYMOUS ', fmtdat='(2E16.6)'
 volume=1.0
 tramp=1.0
 $END
   4.266730e+03  -5.204880e+01
   2.497282e+03   2.524916e+03
  -9.024321e+02   2.533270e+03
  -1.923682e+03   7.942401e+02
  -1.020165e+03  -6.581340e+02
   6.471868e+02  -5.114579e+02
   8.653369e+02   4.171525e+02
   9.294300e+01   1.041454e+03
  -9.142947e+02   8.101466e+02
  -9.303674e+02  -2.058138e+02
  -3.769066e+02  -9.163509e+02
   2.116244e+02  -8.306476e+02
   4.190384e+02  -1.749095e+02
   2.768008e+02   7.009317e+02
  -3.043784e+02   7.161000e+02
  -4.893033e+02   2.237436e+02
  -3.640266e+02  -7.512639e+02
   3.519262e+02  -6.975956e+02
   8.903588e+02  -2.563997e+02
   1.300756e+02   2.666922e+02
   4.371262e+01   4.504069e+02
  -2.926616e+02   3.265677e+02
  -2.550466e+02  -8.287188e+01
   1.900114e+02  -9.087551e+01
   3.288605e+02   1.311613e+02
   1.755094e+02   3.788811e+02
  -4.806066e+02   4.433921e+02
  -8.432766e+02  -3.335317e+01
  -5.172454e+02  -6.384485e+02
   4.904862e+02  -4.025256e+02
   7.845986e+02  -1.597150e+01
   4.191000e+02   3.322211e+02
  -2.997326e+02   5.615606e+02
  -5.443333e+02   2.031332e+02
  -2.528580e+02  -2.400233e+02
  -1.209453e+02  -4.219457e+02
   1.985468e+02  -3.108905e+02
   1.534439e+02   1.928131e+02
  -1.267384e+02   4.404822e+02
  -4.971833e+02  -2.707688e+01
  -2.243199e+02  -6.733536e+02
   2.768421e+02  -6.778446e+02
   6.164834e+02   3.858839e+01
   3.069364e+02   5.366778e+02
  -2.776007e+02   3.325435e+02
  -2.999776e+02  -3.279900e+02
   7.845462e+01  -4.748686e+02
   4.779689e+02  -5.668396e+01
   5.148773e+02   3.255969e+02
   1.110616e+02   4.693880e+02
  -3.341342e+02   2.852647e+02
  -5.918975e+02  -2.425776e+00
  -3.527145e+02  -3.256848e+02
   1.177238e+02  -3.712870e+02
   4.526199e+02  -1.265984e+02
   2.401098e+02   1.708527e+02
  -7.910442e+01   5.896757e+01
  -1.466746e+02  -1.769648e+02
   1.922329e+02  -1.808353e+02
   3.459968e+02   1.025821e+02
   1.840415e+02   2.977873e+02
  -1.621110e+02   2.176589e+02
  -2.825887e+02   6.875500e+01
  -1.749940e+02  -4.341592e+01
   1.487981e+01  -1.947993e+02
   2.209909e+02  -2.855672e+02
   3.253470e+02  -1.870059e+02
   2.710451e+02   1.813330e+02
   4.622255e+01   4.150860e+02
  -1.181960e+02   3.109380e+02
  -1.167193e+02   7.045367e+01
  -9.868101e-01   1.137804e+01
  -1.143200e+01   9.532932e+01
  -1.543475e+02   1.418678e+02
  -2.699849e+02  -8.534624e+01
  -1.818543e+02  -2.328016e+02
   2.763118e+01  -2.275523e+02
   1.914284e+02   2.166562e+00
   1.983602e+02   2.083284e+02
   2.523262e+01   2.596875e+02
  -2.393789e+02   1.250947e+02
  -3.689866e+02  -1.389340e+02
  -1.803284e+02  -3.689252e+02
   8.143622e+01  -3.049200e+02
   2.414659e+02  -8.933822e+01
   1.391001e+02   4.196657e+01
   4.947825e+01  -2.813492e+01
   2.237448e+02  -9.997773e+01
   3.352805e+02   6.661732e+01
   2.597167e+02   2.849248e+02
  -4.703001e+01   4.197620e+02
  -3.056740e+02   3.765877e+02
  -4.249473e+02   1.401966e+02
  -2.790308e+02  -9.704561e+01
  -2.826357e+01  -3.169949e+02
   1.644894e+02  -2.628363e+02
   1.199018e+02   2.927063e+01
  -1.012790e+02   1.633152e+02
  -2.180070e+02   4.793303e+01
  -1.154330e+02  -1.541671e+02
   1.357309e+02  -2.114390e+02
   1.253890e+02   5.592146e+01
  -5.393460e+01   1.838988e+02
  -1.984528e+02   5.890333e+00
  -1.405508e+02  -2.540478e+02
   4.903108e+01  -3.412439e+02
   2.160794e+02  -1.306518e+02
   2.770255e+02   5.682012e+01
   2.241935e+02   2.240814e+02
   7.847972e+01   1.905201e+02
  -8.017049e+01   1.035464e+02
  -1.389500e+02   3.529842e+01
  -6.484204e+01  -1.670499e+01
   7.266291e+01   2.092610e+01
   5.835275e+01   9.334317e+01
  -8.063895e+01   1.177090e+02
  -1.635687e+02   3.077155e+01
  -5.436680e+01  -7.983297e+01
   5.707630e+01  -3.444493e+01
   8.577479e+00   3.709034e+01
  -1.307754e+02   5.940668e+01
  -2.486128e+02   1.110040e+01
  -2.076680e+02  -1.447802e+02
  -8.833780e+01  -2.362606e+02
   1.301154e+02  -1.758105e+02
   2.231031e+02  -1.040527e+02
   1.320420e+02   3.509458e+01
  -2.168092e+01   1.090772e+02
  -7.911640e+01   7.670739e+01
  -9.438401e+00  -1.087776e+02
   1.346972e+02  -9.320175e+01
   1.748559e+02   4.493663e+01
   7.135007e+01   1.759202e+02
  -6.904449e+01   1.346365e+02
  -1.154526e+02   4.168797e+01
  -7.869661e+01  -7.247487e+01
  -1.331340e+01  -2.346940e+01
   5.668885e+01   7.131857e+01
  -3.205485e+01   1.147736e+02
  -1.515273e+02   3.000137e+01
  -1.947124e+02  -6.348321e+01
  -5.712086e+01  -1.690083e+02
   1.194685e+02  -1.513246e+02
   1.886573e+02   1.163119e+01
   8.540702e+01   1.231048e+02
  -5.700486e+01   1.447160e+02
  -1.047770e+02   5.527175e+01
  -5.416211e+01   3.478782e+00
  -3.226020e+01  -2.669260e+01
   1.014488e+01  -1.209320e+01
  -4.448618e+01  -2.470695e+01
  -6.351840e+01  -1.130708e+02
  -2.615471e+00  -1.598074e+02
   1.220445e+02  -1.457043e+02
   2.444042e+02  -7.196933e+01
   1.686944e+02   1.140896e+02
   2.141293e+01   1.860891e+02
  -1.041641e+02   1.228077e+02
  -1.804481e+02   6.609123e+00
  -5.637460e+01  -8.000665e+01
  -1.158310e+01  -4.484626e+01
  -4.525455e+01   1.627840e+01
  -7.379485e+01  -1.108917e+00
   5.463818e+00  -3.334948e+01
   4.449915e+01  -5.503941e+01
   9.546499e+01  -2.812173e+01
   6.204117e+01   6.062222e+01
  -2.363891e+01   1.221131e+02
  -1.041359e+02   8.219331e+01
  -1.472935e+02  -2.861931e+01
  -1.160656e+02  -1.699085e+02
   7.438909e+01  -1.500062e+02
   2.062032e+02  -9.213431e+01
   2.152517e+02   3.399374e+01
   1.060721e+02   1.492824e+02
  -4.619166e+01   1.621933e+02
  -7.226686e+01   7.731632e+01
  -9.299508e+01   5.031625e+01
  -8.509792e+01   9.972376e+01
  -8.916557e+01   4.466303e+01
  -1.322649e+02  -2.664183e+01
  -1.295201e+02  -1.099045e+02
  -3.642565e+01  -1.833776e+02
   5.372360e+01  -1.748322e+02
   1.316700e+02  -2.561576e+01
   7.265579e+01   1.032409e+02
   8.839775e+00   1.531361e+02
  -5.189472e+01   9.281243e+01
  -6.934380e+01  -6.672491e+00
   9.234831e+00  -6.545932e+01
   2.661016e+01  -3.653748e+01
  -1.225901e+01  -2.112300e+01
  -6.056326e+01   4.134565e+00
  -4.294649e+01  -2.006508e+01
   4.404436e+01  -3.723376e+01
   1.312966e+02  -2.224284e+01
   1.661823e+02   3.267550e+01
   2.740658e+01   5.982217e+01
  -8.363862e+01   1.116311e+02
  -1.080061e+02   9.592161e+00
  -9.484353e+01  -2.868683e+01
   8.850894e+00  -6.505094e+01
   6.340141e+01  -1.889136e+00
   1.226487e+01   3.959147e+01
  -4.516122e+01   3.596350e+01
  -5.803360e+01  -4.049129e+00
   1.758060e+01  -2.802982e+01
  -5.613130e+01  -7.734598e+01
  -8.306852e+01   4.573007e+01
  -1.053454e+02   2.281477e+01
  -6.000956e+01  -9.736702e+01
   3.094928e+01  -1.208181e+02
   9.361920e+01  -1.057357e+02
   1.578000e+02  -7.779190e+00
   6.543975e+01   1.138901e+02
  -3.797318e+01   8.949752e+01
  -1.275304e+02   7.535017e+01
  -6.207494e+01  -7.603778e+00
   7.168119e+01  -7.572443e+00
   1.129278e+02   1.009592e+01
   6.345552e+01   1.325308e+02
  -2.874294e+01   1.232497e+02
  -1.683214e+02   3.873420e+01
  -1.421523e+02  -4.005259e+01
  -3.751678e+01  -9.590729e+01
   9.093964e+01  -7.656270e+01
   6.676808e+01  -3.062738e+01
  -9.488837e+00   2.527886e+01
  -5.814823e+01   2.494796e+00
  -1.655349e+01  -1.127166e+02
   5.780482e+01  -8.815108e+01
   1.242931e+02  -2.424483e-01
   8.115637e+01   1.043368e+02
   6.575924e+00   1.497223e+02
  -1.146845e+02   9.875473e+01
  -1.124901e+02   1.215154e+01
   1.785448e-01  -7.433147e+01
   2.866295e+01  -1.190566e+02
   3.807786e+00  -2.819147e+01
   2.670405e+01   3.109713e+01
   6.560193e+01  -2.523082e+01
   3.357539e+01  -4.089316e+01
  -1.285947e+00  -1.280861e+01
   4.314594e+01   5.308559e+01
   2.045575e+01   7.605353e+01
  -3.699520e+01   3.903077e+01
  -9.389464e+01  -2.488826e+01
  -1.135833e+02  -4.422369e+01
  -6.330649e+01  -6.703946e+01
   9.004144e+01  -2.561341e+01
   5.491590e+01  -5.001516e+01
   3.191796e+00   1.606332e+01
  -4.189535e+01   3.616576e+01
   4.946482e+00   1.103153e+01
   1.536477e+01  -1.632142e+01
  -8.850778e+00   4.819423e+00
  -9.647933e+01  -2.784784e+01
  -7.420517e+01  -3.324803e+01
  -2.959291e+00  -4.893095e+01
   1.053136e+02  -1.174362e+02
   1.314380e+02  -2.125751e+01
   7.996912e+01   6.671484e+01
   5.727951e+01   1.188478e+02
  -4.433549e+01   8.508008e+01
  -1.153085e+02   2.132698e+01
  -8.754840e+01   9.635297e+00
  -1.555830e+01  -2.409974e+01
  -6.285445e-01  -5.784562e+01
   6.406363e+00  -1.849373e+01
  -2.420178e+01  -6.445638e+01
  -3.973304e+00  -7.714995e+01
   4.916497e+01  -4.964918e+01
   9.054181e+01  -1.185300e+01
   7.911522e+01   7.586628e+01
   1.509446e+01   8.396822e+01
  -3.600376e+01   1.787979e+01
  -8.714537e+01  -3.076759e+01
  -6.339588e+01  -8.785599e+01
   5.996009e+01  -5.237164e+01
   3.428688e+01   1.112822e+01
   6.493508e+01   4.002484e+01
   2.890667e+01   4.870948e+01
   9.288653e+00   1.421099e+01
   3.038882e+01  -3.104764e+01
   1.549420e+01  -1.018863e+01
   3.275574e+00   5.072779e+01
  -6.040844e+01   7.750928e+01
  -9.388894e+01   7.974223e+01
  -6.344446e+01  -2.934255e+01
   5.506234e+00  -9.655768e+01
   8.510259e+01  -3.436545e+01
   5.520898e+01  -1.045655e+01
  -4.891932e+00   8.197513e+01
  -3.642569e+01   3.556315e+01
  -3.569223e+01  -3.488119e+01
  -2.044780e+01  -6.356177e+01
   3.389074e+00  -1.486917e+01
   4.534964e+01  -3.291958e+01
   5.815165e+01  -1.596006e+01
   5.459568e+00  -2.051209e+01
  -1.032942e+01   1.577382e+01
  -4.344530e+01   1.370088e+01
   9.600619e+00   3.338717e+01
  -3.432844e+01   2.664549e+01
  -2.417635e+01   2.887890e+01
  -3.949456e+01  -6.358666e+00
   1.749526e+01  -2.881019e+01
   3.911307e+01   5.776496e+00
   1.325678e+01  -6.430218e+00
   1.863221e+01   6.176565e+01
  -4.227983e+01   1.496479e+01
  -8.396599e+01  -2.941888e+01
  -3.253753e+01  -5.067708e+01
   6.841824e+01  -4.681940e+01
   3.070438e+01   8.449184e+00
   4.065824e+01  -2.078451e+01
  -7.910432e+00   2.388948e+00
  -2.445825e+01  -3.251906e+01
  -5.756075e+00  -1.785523e+01
   7.873164e+01   2.105841e+01
