
 $NMID
 id='ANONYMOUS ', fmtdat='(2E16.6)'
 volume=1.0
 tramp=1.0
 $END
  -4.242239e+03  -5.326391e+01
  -2.621557e+03  -2.489695e+03
   7.548911e+02  -2.720931e+03
   2.157405e+03  -9.679586e+02
   9.140236e+02   7.036362e+02
  -8.407610e+02   6.357593e+02
  -1.042091e+03  -3.957934e+02
  -6.265213e+01  -1.094502e+03
   8.886902e+02  -8.016528e+02
   8.974844e+02   1.442433e+02
   4.475365e+02   8.786925e+02
  -2.509457e+02   8.745156e+02
  -6.288431e+02   2.184395e+01
  -4.853852e+02  -7.350968e+02
   3.386175e+02  -6.743385e+02
   7.956322e+02  -3.363660e+01
   4.006593e+02   7.493713e+02
  -3.454197e+02   4.788897e+02
  -6.100078e+02   9.982529e+01
  -3.412204e+02  -2.693224e+02
   1.363900e+01  -4.934513e+02
   2.505514e+02  -3.139509e+02
   2.616798e+02   7.109320e+01
  -1.104172e+02   7.171226e+01
  -4.335975e+02  -1.431211e+02
  -2.131028e+02  -4.297495e+02
   4.337793e+02  -5.062945e+02
   9.424045e+02   9.703138e+01
   4.448716e+02   5.685474e+02
  -3.849074e+02   5.464088e+02
  -7.740768e+02  -9.185726e+00
  -2.915221e+02  -6.158747e+02
   3.244345e+02  -4.557046e+02
   5.777178e+02  -1.978882e+02
   4.397819e+02   1.997613e+02
   8.699437e-02   5.152451e+02
  -1.796411e+02   3.222006e+02
  -2.094156e+02  -2.529825e+02
   2.051361e+02  -5.424111e+02
   5.003635e+02   3.344059e+01
   2.968313e+02   7.997076e+02
  -3.736382e+02   8.219693e+02
  -7.005869e+02   4.197424e+01
  -3.166922e+02  -6.136230e+02
   3.132846e+02  -4.259009e+02
   4.809703e+02   2.852640e+02
  -2.621796e+01   6.229365e+02
  -5.562750e+02   1.739206e+02
  -6.354550e+02  -3.627282e+02
  -2.082020e+02  -6.186888e+02
   3.927687e+02  -3.894667e+02
   6.293335e+02   2.920022e+01
   3.887996e+02   4.240731e+02
  -1.638617e+02   4.466223e+02
  -4.243685e+02   4.255600e+01
  -1.973865e+02  -2.036671e+02
   1.039148e+02  -1.350388e+02
   1.311045e+02   2.381435e+02
  -1.940157e+02   2.728005e+02
  -3.500086e+02  -7.196188e+01
  -1.577338e+02  -2.948053e+02
   1.788156e+02  -2.697849e+02
   3.446250e+02   1.301038e+00
   1.420911e+02   1.103589e+02
  -6.124580e+01   2.251409e+02
  -2.778630e+02   3.278079e+02
  -3.547404e+02   1.947738e+02
  -2.719270e+02  -1.630737e+02
  -7.787409e+01  -4.584412e+02
   1.554262e+02  -3.535023e+02
   1.052986e+02  -4.839217e+01
  -2.121980e+00   9.211998e+00
   1.649468e+01  -9.151966e+01
   2.092417e+02  -1.288697e+02
   3.007690e+02   7.899359e+01
   1.302823e+02   3.106146e+02
  -7.264082e+01   2.502101e+02
  -2.400091e+02   2.768977e+01
  -2.091487e+02  -2.251033e+02
   7.327044e+00  -2.796090e+02
   2.488489e+02  -1.116934e+02
   3.904065e+02   1.999329e+02
   1.911205e+02   3.815975e+02
  -1.636306e+02   3.069161e+02
  -3.030302e+02   1.221765e+02
  -2.105093e+02  -5.276607e+01
  -6.756043e+01   3.791073e+01
  -2.010277e+02   2.108773e+01
  -4.038920e+02  -7.691336e+01
  -3.415817e+02  -2.799819e+02
  -2.983072e+01  -4.404451e+02
   3.224451e+02  -4.140537e+02
   4.742608e+02  -2.245062e+02
   3.830978e+02   3.622053e+01
   6.106551e+01   2.655229e+02
  -1.365681e+02   2.515409e+02
  -1.063953e+02   1.762896e+01
   1.046194e+02  -1.394403e+02
   2.416084e+02  -6.053396e+00
   1.075968e+02   2.044300e+02
  -1.454478e+02   1.819657e+02
  -1.953791e+02  -5.011592e+01
  -2.683791e+01  -2.121692e+02
   1.884283e+02  -1.434357e+01
   1.777777e+02   2.737728e+02
  -6.813985e+01   3.743874e+02
  -2.503712e+02   1.924147e+02
  -3.539447e+02  -7.851494e+01
  -3.293395e+02  -2.651173e+02
  -1.178142e+02  -3.025496e+02
   1.350533e+02  -2.275950e+02
   1.832369e+02  -4.870251e+01
   4.934201e+01   5.835315e+01
  -6.440560e+01  -5.185745e+01
  -1.058177e+01  -1.433881e+02
   1.927736e+02  -1.292756e+02
   1.886063e+02   1.799528e+01
   5.717039e+01   1.233399e+02
  -1.023156e+02   7.673470e+01
  -8.779286e+01  -2.926565e+01
   9.629865e+01  -7.965314e+01
   2.629286e+02  -4.917470e+01
   2.365382e+02   1.426638e+02
   4.308051e+01   2.157810e+02
  -1.999001e+02   2.291142e+02
  -3.003631e+02   1.100523e+02
  -1.516691e+02  -7.566912e+01
   5.701022e+00  -1.186772e+02
   1.190164e+02  -2.310050e+01
  -4.066015e+01   1.125281e+02
  -2.063691e+02   9.177240e+00
  -1.876439e+02  -1.165226e+02
  -1.016949e+01  -2.061697e+02
   1.294584e+02  -1.357478e+02
   1.419520e+02   3.849303e+00
   1.025974e+02   4.453009e+01
   2.325013e+00   4.230829e+01
  -1.278218e+00  -5.098362e+01
   2.772056e+01  -8.353108e+01
   1.681999e+02  -4.546142e+01
   1.961654e+02   1.557728e+02
   4.238098e+01   2.088461e+02
  -1.676311e+02   1.764648e+02
  -1.855732e+02  -2.478448e+01
  -9.716189e+01  -1.234834e+02
   6.207477e+01  -6.058696e+01
   6.422686e+01  -2.684265e+01
  -3.283511e+00   1.531336e+01
  -5.006667e+01  -2.245338e+01
   1.319674e+01  -1.929628e+01
   5.705218e+01   2.165766e+00
   8.555491e+01   1.034146e+02
   2.126538e+01   1.237981e+02
  -1.147902e+02   1.512771e+02
  -2.043762e+02  -4.896812e-01
  -1.867160e+02  -1.076958e+02
  -4.837916e+01  -2.420379e+02
   1.457855e+02  -1.865945e+02
   1.805684e+02  -4.416765e+01
   7.892736e+01   6.616471e+01
   3.147213e+01   4.463929e+01
   7.781409e+01  -3.386421e+00
   1.119284e+02  -2.007081e+01
   2.654249e+01   4.297669e+01
  -4.350633e+01   6.367262e+01
  -1.054090e+02   8.455230e+01
  -7.927113e+01  -1.506027e+01
   2.389622e+01  -1.024677e+02
   1.180247e+02  -9.699700e+01
   1.913113e+02  -6.419233e+00
   6.258883e+01   1.629084e+02
  -9.960405e+01   2.143631e+02
  -2.606743e+02   1.208087e+02
  -2.252783e+02  -6.466316e+01
  -8.014012e+01  -1.735692e+02
   3.581671e+01  -1.503761e+02
   8.027642e+01  -1.131189e+02
   4.618547e+01  -6.395441e+01
   5.390989e+01  -1.008607e+02
   9.949314e+01  -5.700048e+01
   9.943889e+01   1.322377e+01
   1.119500e+02   1.529468e+02
   5.971567e+01   1.831523e+02
  -9.100380e+01   1.602413e+02
  -1.758542e+02   1.313254e+01
  -1.673062e+02  -1.009473e+02
  -6.082421e+00  -1.588735e+02
   7.569306e+01  -9.729018e+01
   7.036204e+01  -2.639808e+01
   4.262595e-01   6.309810e+01
  -4.109019e+01  -5.278832e+00
   4.734650e+01   2.189830e+01
   6.890992e+01   5.212235e+01
   4.022542e+00   6.961802e+01
  -7.899035e+01   9.169579e+01
  -1.763325e+02   1.506498e+00
  -1.190071e+02  -4.118246e+00
  -2.351337e+01  -8.827343e+01
   1.232379e+02  -6.976296e+01
   1.424371e+02   1.289090e+01
   3.947696e+01   3.800681e+01
  -5.069487e+01   4.701454e+01
  -9.287864e+01  -2.484607e+01
  -3.009301e+01  -4.492674e+01
   3.764505e+01  -4.210272e+01
   7.467269e+01  -2.577742e+01
   6.146018e+01   1.028105e+01
   3.861369e+01   1.810915e+00
   7.194443e+01   1.203640e+01
   7.950919e+01   1.731195e+01
   2.336686e+01   5.368453e+01
  -8.622140e+00   1.439402e+02
  -8.891900e+01   1.187678e+02
  -1.496686e+02   2.573961e+01
  -1.270239e+02  -9.726180e+01
   1.646830e+01  -6.927345e+01
   6.602968e+01  -2.223147e+01
   2.232270e+01   1.802685e+01
  -6.021837e+01  -3.494754e+01
  -1.556021e+02  -4.943534e+01
  -2.122270e+01  -1.017494e+02
   8.666538e+01  -1.480845e+02
   1.991768e+02  -5.539359e+01
   1.376009e+02   4.695057e+01
   4.224514e+00   1.067993e+02
  -3.604872e+01   8.051950e+01
  -6.322155e+01   1.826826e+01
   3.594896e+01  -1.247973e+01
   4.268522e+01   2.260500e+01
   1.523575e+01   9.018918e+01
  -1.203083e+02   1.266595e+02
  -1.515431e+02   3.630665e+01
  -1.057631e+02  -5.548749e+01
  -4.003044e+01  -1.914939e+02
   9.525040e+01  -1.214927e+02
   1.316329e+02  -3.622786e+01
   5.726952e+01   9.373477e+01
   1.031181e+01   6.391834e+01
  -3.231560e+01  -2.373693e+01
  -5.323665e+01  -4.498866e+01
  -1.126889e+00  -1.173401e+01
   3.572072e+01   3.163307e+01
   5.070721e+00   1.299247e+00
  -4.299851e+01  -7.303198e+01
  -2.486142e+01  -1.107724e+02
   5.397104e+01  -6.955967e+01
   1.502272e+02   2.807487e+01
   1.552486e+02   6.376898e+01
   5.737337e+00   4.616538e+01
  -8.108702e+01   2.938053e+01
  -7.172732e+01   1.214113e+00
  -4.023739e+00  -1.934693e+01
   3.108092e+01  -5.654658e+01
   1.665475e+01  -3.115192e+01
  -2.122654e+01  -1.591897e+01
   2.846129e+01   1.322871e+01
   7.399728e+01   1.684425e+01
   1.013205e+02   5.175687e+01
  -4.403436e+00   4.746089e+01
  -1.163226e+02   5.847080e+01
  -1.399482e+02   3.778637e+01
  -1.533579e+02  -5.367539e+01
   4.507162e-01  -1.897781e+02
   7.177583e+01  -1.089490e+02
   1.162688e+02  -5.559248e+01
   4.804193e+01   2.810149e+01
   2.780910e+00   5.487005e+01
  -1.882615e+01   1.712942e+01
   2.565149e+01   1.735590e+01
  -1.363777e+01  -2.051754e+00
   2.689775e+00   6.600259e+01
  -7.605300e+01   4.650925e+01
  -7.581755e+01  -5.213364e+01
  -7.497290e+01  -6.024776e+01
  -2.017858e+01  -9.843147e+01
   6.117157e+01  -1.347422e+01
   1.233763e+02   2.913536e+01
   4.913958e+01   5.569551e+01
  -9.624677e+01   4.406103e+01
  -5.748157e+01   1.205732e+01
  -2.652364e+01  -2.373794e+01
   1.770509e+01  -4.598356e+01
   1.223617e+01  -3.537521e+01
  -3.774158e+01  -1.911929e+01
  -5.160587e+01  -2.115270e+01
  -3.780341e+01  -3.158438e+01
   9.218652e+01  -5.839967e+01
   3.084458e+01  -2.913303e+01
  -2.404079e+00  -1.179601e+01
  -1.380314e+01   7.233967e+01
  -4.394774e+01   7.624385e+01
  -2.052191e+01  -1.278774e+00
   3.898218e+01  -2.997730e+01
   3.193948e+01  -4.201309e+01
  -8.698374e+00   2.398535e+01
  -2.871270e+01   5.820110e+01
   1.023675e+01   6.352431e+01
  -2.580750e+01  -1.934717e+01
  -4.928181e+01  -3.663602e+01
  -9.728049e+00   9.681838e+00
  -3.010442e+00  -2.427075e+01
  -2.927749e+01  -1.376459e+01
  -1.207122e+01  -1.964876e+01
   5.400971e+01  -5.277090e+01
   4.185191e+01  -1.450010e+01
   5.306804e+01   2.705074e+01
   1.457184e+00   6.137846e+01
  -7.406997e+01   1.632595e+00
  -6.965743e+01  -7.885572e+01
  -2.066754e+01  -8.004812e+01
   9.316152e+01  -3.712669e+01
   9.869702e+01   3.771031e+01
   2.145485e+01   9.557617e+01
  -2.467408e+01   6.461170e+01
  -7.020530e+01   2.933857e+01
  -1.881968e+01  -3.502154e+01
   1.195739e+01  -1.608799e+01
   1.432823e+01   3.577750e+01
  -5.402449e+01   1.988529e+01
  -1.007620e+02   3.375390e+01
