
 $NMID
 id='ANONYMOUS ', fmtdat='(2E16.6)'
 volume=1.0
 tramp=1.0
 $END
   4.339845e+03  -4.746174e+00
   2.766265e+03   2.626024e+03
  -7.334030e+02   2.829578e+03
  -2.134468e+03   7.563861e+02
  -1.013308e+03  -6.931293e+02
   6.261610e+02  -6.623623e+02
   9.735900e+02   3.902418e+02
   8.937812e+01   1.064524e+03
  -7.947685e+02   8.309377e+02
  -9.386676e+02  -1.176372e+02
  -4.917101e+02  -9.191197e+02
   2.991955e+02  -8.716443e+02
   5.974800e+02  -7.510530e+01
   3.168976e+02   8.336412e+02
  -2.224310e+02   7.151457e+02
  -6.590055e+02  -3.483776e+01
  -2.779451e+02  -7.736341e+02
   3.509645e+02  -6.002397e+02
   6.706716e+02  -2.019939e+02
   4.497108e+02   3.874222e+02
   1.789797e+01   3.318817e+02
  -2.301228e+02   5.456915e+02
  -1.837850e+02  -4.531607e+01
   1.335578e+02  -2.020438e+02
   3.478237e+02   2.360945e+01
   1.583745e+02   3.696748e+02
  -6.272483e+02   3.605497e+02
  -8.906191e+02  -1.210880e+02
  -4.306971e+02  -5.785506e+02
   3.643633e+02  -4.625548e+02
   8.306052e+02   3.278334e+01
   4.822822e+02   5.405044e+02
  -2.004125e+02   4.828544e+02
  -5.653430e+02   1.846995e+02
  -5.030735e+02  -2.345415e+02
  -8.791149e+01  -4.413813e+02
   2.844192e+02  -2.314320e+02
   2.204018e+02   2.954353e+02
  -9.791317e+01   4.510404e+02
  -4.838228e+02   1.479409e+01
  -2.634944e+02  -6.642194e+02
   3.136972e+02  -7.464595e+02
   6.133239e+02  -8.817539e+01
   2.858800e+02   6.093585e+02
  -3.082325e+02   3.609999e+02
  -4.088004e+02  -2.646935e+02
   6.994225e+01  -6.413747e+02
   5.975355e+02  -2.102559e+02
   6.037215e+02   4.711033e+02
   1.320633e+02   6.659461e+02
  -4.318881e+02   3.734397e+02
  -6.719459e+02  -1.247740e+02
  -3.217223e+02  -4.332806e+02
   2.248964e+02  -3.485285e+02
   4.389029e+02  -1.554786e+01
   2.100740e+02   1.915905e+02
  -1.000209e+02   6.915430e+01
  -1.390940e+02  -1.951446e+02
   2.337854e+02  -2.078063e+02
   3.509199e+02   8.376769e+01
   1.006795e+02   2.870252e+02
  -2.002561e+02   2.463882e+02
  -3.076025e+02   8.414855e+01
  -1.354405e+02  -1.038346e+02
   6.741951e+01  -2.302435e+02
   2.455333e+02  -2.550839e+02
   3.569062e+02  -1.599320e+02
   2.631099e+02   2.090508e+02
   2.908760e+01   4.417659e+02
  -1.472193e+02   3.634404e+02
  -1.003181e+02   9.845264e+01
   3.410792e+01  -4.809347e+00
  -8.321276e+00   1.216511e+02
  -1.834951e+02   1.726293e+02
  -3.467662e+02  -5.143113e+01
  -2.057770e+02  -2.798488e+02
   7.414751e+01  -3.035515e+02
   2.367983e+02  -3.138767e+01
   2.189176e+02   2.704184e+02
  -2.251738e+01   3.275499e+02
  -2.437021e+02   1.514470e+02
  -3.519845e+02  -1.862562e+02
  -1.842076e+02  -3.892099e+02
   9.923734e+01  -3.101798e+02
   2.157490e+02  -9.759178e+01
   1.878048e+02   3.622057e+01
   1.106031e+02  -1.100579e+00
   2.241820e+02  -6.393062e+01
   3.832261e+02   3.631943e+01
   3.113490e+02   2.979293e+02
   2.316248e+01   4.582487e+02
  -3.666027e+02   4.218939e+02
  -5.011724e+02   2.011811e+02
  -3.364465e+02  -1.001509e+02
  -5.789029e+01  -3.245905e+02
   2.021050e+02  -2.399733e+02
   8.984333e+01  -2.609583e+01
  -1.267269e+02   1.511266e+02
  -2.307852e+02   1.188336e+01
  -7.729040e+01  -1.891613e+02
   1.847048e+02  -1.859338e+02
   2.033527e+02   5.530086e+01
  -1.493926e+01   1.654829e+02
  -2.054951e+02   3.430236e+01
  -1.760901e+02  -2.458926e+02
   3.249755e+01  -3.268930e+02
   2.272089e+02  -1.704045e+02
   3.255753e+02   6.432250e+01
   2.607142e+02   2.334388e+02
   8.005285e+01   2.326820e+02
  -1.365862e+02   1.433829e+02
  -1.645927e+02  -1.523215e+01
  -2.514052e+01  -3.556214e+01
   7.908163e+01   7.286410e+01
   4.034785e+01   1.410919e+02
  -1.372495e+02   6.343055e+01
  -1.642945e+02  -1.953024e+01
  -2.613803e+01  -8.654894e+01
   7.288318e+01  -2.563424e+00
   5.774385e+01   3.987692e+01
  -1.183705e+02   8.591149e+01
  -2.579267e+02   1.615709e+01
  -2.699881e+02  -1.157906e+02
  -5.657102e+01  -2.384144e+02
   2.183316e+02  -2.799271e+02
   3.005203e+02  -1.276839e+02
   1.721774e+02   8.100938e+01
  -7.359415e+01   1.214758e+02
  -1.240764e+02   2.062130e+01
   8.992757e+00  -1.329889e+02
   1.924616e+02  -4.357208e+01
   2.366876e+02   1.114722e+02
   7.711638e+01   2.013606e+02
  -1.345551e+02   1.447537e+02
  -1.792481e+02   7.558824e+00
  -1.136542e+02  -2.972459e+01
   3.678249e+01  -2.240788e+01
   6.646566e+01   8.623543e+01
  -2.986443e+01   1.206022e+02
  -2.239036e+02   2.231341e+01
  -2.095392e+02  -1.166795e+02
   1.010254e+01  -2.347869e+02
   1.590438e+02  -1.880799e+02
   1.805637e+02   4.103984e+00
   6.996262e+01   1.075648e+02
  -7.527974e+01   9.995924e+01
  -7.512399e+01   5.750501e+01
  -1.799843e+00  -9.906834e+00
  -1.095275e+01   1.529334e+01
  -2.907612e+01   1.387128e+01
  -7.655272e+01   5.955749e+00
  -8.223818e+01  -1.195581e+02
  -2.923856e+01  -1.570779e+02
   8.123981e+01  -1.414709e+02
   1.735628e+02  -4.515916e+01
   2.059754e+02   8.961396e+01
   1.793751e+01   1.825978e+02
  -1.114164e+02   1.623674e+02
  -8.972004e+01   2.951453e+01
  -5.160293e+01  -2.229971e+01
  -5.521254e+01  -2.003894e+01
  -6.697085e+01  -1.453075e+01
  -5.559976e+01  -2.468244e+01
  -3.647466e+01  -5.321073e+01
   6.721447e+01  -9.962176e+01
   1.328072e+02  -2.422838e+01
   6.648194e+01   1.750136e+01
  -5.635696e+01   1.459798e+02
  -1.414748e+02   9.475518e+01
  -1.670395e+02  -7.900914e+01
  -7.305743e+01  -2.378753e+02
   1.215675e+02  -2.006426e+02
   2.969787e+02  -5.971410e+01
   2.858461e+02   1.286161e+02
   7.985305e+01   1.700353e+02
  -4.340930e+01   1.367059e+02
  -8.480798e+01   7.249308e+01
  -9.828489e+01   5.201900e+01
  -1.181711e+02   8.695039e+01
  -5.292519e+01   8.230069e+01
  -1.209663e+02  -8.703995e+00
  -1.772457e+02  -1.716599e+02
  -3.319530e+01  -1.830573e+02
   9.503024e+01  -1.836333e+02
   1.452779e+02  -5.580635e+01
   1.285829e+02   1.332713e+02
   2.600597e+01   1.554819e+02
  -8.545231e+01   5.833212e+01
  -7.239126e+01  -3.316909e+01
  -1.678524e+01  -6.123382e+01
   4.779780e+01  -3.645253e+01
   1.071174e+00  -2.721513e+01
  -7.124796e+01  -4.878967e+00
  -1.544316e+01  -3.123361e+01
   1.288512e+02  -3.262279e+01
   1.599420e+02   1.333092e+01
   1.535501e+02   4.751549e+01
   1.299138e+01   1.065529e+02
  -1.331722e+02   7.254309e+01
  -1.359405e+02   3.340687e+01
  -3.041105e+01  -6.171426e+01
   1.137415e+02  -7.041821e+01
   6.264250e+01  -1.885388e+00
  -3.280760e+01   5.801213e+01
  -6.665929e+01   6.809281e+01
  -9.006919e+01   5.383915e+01
  -3.866020e+01  -2.361131e+01
  -5.673042e+01   2.836513e+01
  -8.164467e+01   1.000316e+01
  -9.343657e+01  -1.132032e+01
  -4.043323e+01  -9.643484e+01
   6.939955e+00  -1.448109e+02
   6.529746e+01  -1.434797e+02
   1.534912e+02  -4.543102e+01
   1.220697e+02   5.900119e+01
   5.541294e+01   9.690250e+01
  -7.943389e+01   3.577449e+01
  -6.589634e+01  -2.540649e+01
   8.151847e+01  -3.914197e+01
   1.689837e+02   8.830736e+01
   1.073315e+02   1.028343e+02
  -7.211506e+01   6.920374e+01
  -1.788481e+02   3.652212e+01
  -1.452371e+02  -3.218898e+01
  -6.527502e+01  -8.825371e+01
   3.619294e+01  -6.127328e+01
   4.830504e+01   4.790659e+01
  -3.147247e+01  -1.863837e+01
  -9.016618e+01  -4.576640e+00
  -4.177981e+01  -1.042735e+02
   9.326891e+01  -1.488676e+02
   1.418557e+02  -6.176599e+01
   1.602556e+02   7.072804e+01
   1.664473e+01   1.895669e+02
  -1.072422e+02   1.428886e+02
  -1.293506e+02   1.487309e+01
  -7.078659e+01  -9.019716e+01
  -2.188425e+01  -5.730451e+01
   6.002572e+01  -3.327163e+01
   7.456435e+01  -4.841379e+00
   5.463542e+01  -3.302037e+01
   3.428678e+01  -5.507914e+01
   4.171735e+01   1.851229e+01
   7.608260e+01   1.030933e+02
   5.211972e+01   1.273790e+02
  -6.234203e+01   9.608218e+01
  -1.441901e+02  -5.805592e+01
  -1.506920e+02  -8.022555e+01
  -1.806486e+01  -3.398957e+01
   8.387507e+01  -6.677950e+01
   8.621073e+01  -3.478993e+01
  -5.277539e+00  -1.305234e+01
  -4.476953e+00   6.459610e-01
  -7.435883e+00   1.043368e+01
   4.799613e+01  -4.235305e+00
  -5.056258e+00  -1.989295e+00
  -6.233756e+01   1.296341e+01
  -1.052224e+02  -2.954794e+01
   1.894063e+01  -6.369184e+01
   1.393775e+02  -1.176900e+02
   1.612127e+02  -4.028559e+01
   1.365674e+02   9.735010e+01
   2.948443e+01   1.880759e+02
  -1.005524e+02   1.064363e+02
  -7.775140e+01   1.854815e+01
  -6.887894e+01  -4.967901e+01
  -3.915513e-01  -3.429990e+01
  -6.789047e+00   2.130278e+01
  -3.131307e+01   1.179821e+01
  -3.580986e+01  -3.570713e+01
  -1.396836e+01  -9.973709e+01
   2.984009e+01  -1.245520e+02
   5.520485e+01   1.466203e+01
   9.415473e+01   1.435052e+02
   5.403128e+01   6.861814e+01
  -1.135268e+02  -4.946551e+00
  -1.557133e+02  -7.764275e+01
  -8.008696e+01  -1.049996e+02
   5.937480e+01  -3.781740e+01
   1.514124e+02   2.033056e+01
   5.530000e+01   2.050794e+01
  -2.781472e+01   3.527082e+01
  -4.816524e+01   6.151456e+00
   3.047412e+01   2.513044e+01
   6.788521e+01   3.747302e+00
   5.388304e+00   3.123369e+01
  -1.015455e+02   4.847854e+01
  -1.444317e+02   6.157838e+01
  -1.370914e+01  -2.346454e+01
   5.547461e+01  -1.328738e+02
   6.136997e+01  -9.149073e+01
   5.848833e+01   2.149740e+01
  -4.553627e+00   6.358393e+01
  -3.264129e+01   8.395339e+01
  -8.253536e+01  -1.585039e+01
  -3.152185e+01  -7.395952e+01
   1.859170e-01  -5.348168e+01
   1.756613e+00  -2.140592e+01
   5.017432e+01  -6.174676e+00
  -1.545388e+01  -1.929288e+01
  -9.983946e+00  -6.867338e+00
   2.728094e+01  -1.836006e+00
   1.676709e+01   4.695425e+01
  -1.276669e+01   5.007583e+01
  -7.880764e+01   2.375933e+01
   2.205713e+01  -4.080082e+01
  -2.624668e+01  -7.341840e+01
   1.798636e+01  -4.412275e+00
   5.564771e+01   4.272219e+01
   3.678943e+01   4.569833e+01
  -5.918128e+01   4.071464e+01
  -8.657568e+01   5.586658e+00
  -4.031937e+01  -7.261972e+01
   3.199972e+01  -4.079402e+01
   8.184758e+01  -1.413201e+01
   3.216476e+01   8.978392e+00
  -3.632190e+01  -5.945744e+00
  -5.117778e+01   3.020184e+00
  -1.213076e+01  -3.535391e+01
   5.813738e+01  -5.659291e+01
