
 $NMID
 id='ANONYMOUS ', fmtdat='(2E16.6)'
 volume=1.0
 tramp=1.0
 $END
   4.355406e+03   9.791223e+01
   2.694858e+03   2.402381e+03
  -6.540812e+02   2.867622e+03
  -2.121564e+03   9.626274e+02
  -1.037652e+03  -5.645057e+02
   6.030863e+02  -6.530629e+02
   8.429864e+02   3.099254e+02
   1.967561e+01   9.471364e+02
  -9.176029e+02   7.373567e+02
  -1.012836e+03  -1.006358e+02
  -4.981492e+02  -8.627715e+02
   2.462711e+02  -9.857142e+02
   8.197397e+02  -2.597120e+02
   3.435823e+02   7.343576e+02
  -3.637367e+02   6.874552e+02
  -4.986271e+02  -8.523949e+01
  -3.732625e+02  -6.021635e+02
   2.433498e+02  -6.598317e+02
   5.736542e+02  -2.937296e+02
   4.956524e+02   5.130356e+02
  -2.417339e+01   6.350648e+02
  -2.733244e+02   1.155935e+02
  -3.034916e+02   1.502323e+02
   1.469248e+02   1.144922e+01
   4.170842e+02   1.872078e+01
   4.237587e+01   2.385243e+02
  -5.296715e+02   3.740718e+02
  -9.355183e+02  -2.102013e+02
  -3.323602e+02  -5.491461e+02
   5.511577e+02  -4.144510e+02
   7.807754e+02   7.649061e+01
   2.549327e+02   4.820229e+02
  -3.931031e+02   5.724801e+02
  -5.947586e+02   2.309561e+02
  -3.485356e+02  -2.201692e+02
  -5.752301e+01  -4.877690e+02
   1.517043e+02  -2.282387e+02
   1.561119e+02   1.978470e+02
  -2.545937e+02   4.795447e+02
  -3.884228e+02   3.731258e+01
  -1.868789e+02  -6.935271e+02
   2.501180e+02  -7.492162e+02
   5.788583e+02   4.824560e+01
   2.218092e+02   5.439000e+02
  -3.174662e+02   3.218909e+02
  -3.695062e+02  -3.077054e+02
   6.650595e+01  -5.751280e+02
   5.492781e+02  -1.450871e+02
   5.949610e+02   4.551511e+02
   1.341745e+02   6.156683e+02
  -3.970208e+02   3.090703e+02
  -6.332462e+02  -1.048090e+02
  -3.933281e+02  -3.937241e+02
   1.235183e+02  -4.015360e+02
   4.508369e+02  -1.283869e+02
   3.135728e+02   1.469895e+02
  -6.218870e+01   1.385054e+02
  -1.703087e+02  -8.152993e+01
   1.116572e+02  -1.339683e+02
   3.280734e+02   5.862117e+01
   1.448878e+02   2.509728e+02
  -2.217530e+02   2.748701e+02
  -3.623449e+02   1.042933e+02
  -2.585848e+02  -1.327873e+02
   3.058371e+01  -3.391236e+02
   2.877900e+02  -3.193230e+02
   3.967066e+02  -1.210690e+02
   2.719715e+02   1.817540e+02
   6.111551e+01   3.927042e+02
  -1.126604e+02   3.453188e+02
  -1.228273e+02   1.179599e+02
  -6.505934e+01   9.731370e-01
  -7.728086e+01   9.615678e+01
  -1.792543e+02   1.401374e+02
  -2.267826e+02  -6.430194e+01
  -1.693164e+02  -2.939622e+02
   3.151060e+01  -2.986168e+02
   2.409480e+02   2.016053e+01
   2.078506e+02   2.843950e+02
  -2.654898e+01   3.136229e+02
  -2.863352e+02   1.224021e+02
  -3.762794e+02  -1.971120e+02
  -2.032127e+02  -3.979539e+02
   7.308083e+01  -3.157034e+02
   2.303014e+02  -1.102900e+02
   2.169526e+02  -3.822870e+01
   1.254004e+02  -4.590194e+01
   2.056617e+02  -4.323564e+01
   3.611859e+02   7.710141e+01
   3.484709e+02   2.953143e+02
   7.532001e+00   4.312454e+02
  -3.851595e+02   4.216964e+02
  -5.101417e+02   2.049501e+02
  -3.395815e+02  -1.171130e+02
  -5.692209e+01  -3.263358e+02
   1.744332e+02  -2.452120e+02
   1.183297e+02   2.629388e+01
  -9.624723e+01   1.235773e+02
  -2.136507e+02  -2.089468e+01
  -7.681247e+01  -1.725201e+02
   1.413374e+02  -1.503743e+02
   2.143334e+02   4.809647e+01
   5.737248e+00   2.464379e+02
  -1.856763e+02   4.525598e+01
  -1.924313e+02  -2.306653e+02
  -1.893746e+01  -3.709533e+02
   2.298246e+02  -2.046919e+02
   3.529646e+02   7.817623e+01
   2.780437e+02   2.449306e+02
   6.489671e+01   2.947117e+02
  -1.744871e+02   1.605296e+02
  -1.697360e+02  -4.298180e+01
  -2.901307e+01  -6.378656e+01
   1.013753e+02   7.059369e+00
   4.954325e+01   1.505731e+02
  -1.245863e+02   9.131239e+01
  -1.924466e+02   9.972295e+00
  -4.481514e+01  -8.900412e+01
   9.842702e+01  -4.211938e+01
   7.510392e+01   6.299746e+01
  -1.401565e+02   1.079323e+02
  -2.908253e+02  -2.889769e+00
  -2.620695e+02  -1.839564e+02
  -3.214768e+01  -2.520616e+02
   1.694752e+02  -2.459569e+02
   3.002578e+02  -9.487610e+01
   1.822189e+02   3.983683e+01
  -3.386406e+01   6.701535e+01
  -6.996626e+01  -2.885765e+01
   3.449838e+01  -1.027062e+02
   1.919906e+02  -3.763590e+01
   2.140223e+02   8.934136e+01
   9.722499e+01   2.103981e+02
  -7.716956e+01   1.449939e+02
  -1.448496e+02   4.304649e+01
  -5.872621e+01  -3.606684e+01
   5.159621e+01   7.267482e+01
   4.986336e+00   1.246777e+02
  -7.849409e+01   1.309182e+02
  -2.592253e+02   1.068952e+01
  -2.094743e+02  -9.490039e+01
  -2.368636e+01  -2.113605e+02
   1.681891e+02  -1.888417e+02
   2.037793e+02  -5.500704e+00
   5.217514e+01   1.025634e+02
  -9.324249e+01   1.307994e+02
  -1.172085e+02   3.636520e+00
  -1.296010e+00  -5.767644e+01
   2.898822e+01  -4.618733e+01
   4.397985e+01   3.630750e+01
  -5.655563e+01   3.049409e+01
  -8.065218e+01  -1.036202e+02
  -1.892881e+01  -1.812774e+02
   1.328248e+02  -1.230055e+02
   2.422853e+02   1.048924e+01
   2.097753e+02   2.091026e+02
   3.296901e+01   2.307016e+02
  -1.355952e+02   1.314207e+02
  -1.689791e+02   2.015721e+01
  -7.771086e+01  -5.706096e+01
   3.795731e+00  -2.861396e+01
  -2.680395e+01  -2.216350e+01
  -8.149395e+01  -2.039290e+01
  -6.154772e+01  -1.822113e+01
   1.514911e+01  -8.086612e+01
   1.514890e+02  -7.441539e+01
   1.252620e+02   1.370484e+01
  -4.853526e-02   1.237688e+02
  -1.762552e+02   1.319222e+02
  -2.387062e+02   6.898981e+00
  -8.938730e+01  -1.896573e+02
   1.370549e+02  -2.596910e+02
   3.010723e+02  -1.129634e+02
   2.305543e+02   1.082697e+02
   9.271164e+01   1.732201e+02
  -5.383468e+01   1.644263e+02
  -7.788981e+01   9.997091e+01
  -7.434590e+01   9.643998e+01
  -6.197260e+01   1.197541e+02
  -1.278556e+02   3.891947e+01
  -1.550482e+02  -5.813953e+01
  -1.003986e+02  -1.714161e+02
  -1.321110e+01  -2.416549e+02
   1.164054e+02  -1.883283e+02
   2.200493e+02   2.530671e+00
   1.528654e+02   1.299830e+02
   5.045815e+01   1.845953e+02
  -7.689206e+01   9.096233e+01
  -1.034723e+02  -2.577836e-02
  -1.148706e+00  -5.137875e+01
   1.689023e+01  -4.947750e+01
  -3.805924e+01  -3.554530e+01
  -6.660174e+01  -2.346356e+01
  -6.532796e+01  -3.687895e+01
   7.496324e+01  -6.367341e+01
   2.171175e+02   9.113208e-02
   1.530867e+02   6.885114e+01
  -5.255014e+01   1.110779e+02
  -1.337156e+02   9.239503e+01
  -1.671620e+02   4.154283e+01
  -3.807206e+01  -6.219252e+01
   4.249110e+01  -4.021351e+01
   4.996342e+01  -5.786732e+01
  -6.667698e+00   3.477516e+01
  -3.353196e+01   4.682480e+01
  -3.477249e+01   1.068049e-01
  -2.932208e+01  -4.410408e+01
  -3.361294e+01  -2.711503e+01
  -3.840939e+01   2.484423e+01
  -5.215953e+01   1.628590e+01
  -4.279759e+01  -3.941014e+01
   1.981049e+01  -1.340611e+02
   1.100448e+02  -1.162789e+02
   1.614179e+02   1.153433e+00
   1.542547e+02   1.064574e+02
   7.684278e+00   1.131149e+02
  -8.770852e+01   5.814469e+01
  -1.048374e+02  -1.954563e+01
   4.684157e+01   2.808773e+00
   1.575890e+02   6.975803e+01
   1.020359e+02   9.266137e+01
  -1.018753e+02   1.417077e+02
  -2.033495e+02   1.882669e+01
  -1.596034e+02  -4.518245e+00
  -8.021101e+00  -8.632750e+01
   7.096289e+01  -6.243042e+01
   8.308867e-01  -2.465840e+01
  -4.203993e+01   6.444864e+00
  -1.177036e+02   7.354322e+00
  -5.487265e+01  -1.243175e+02
   1.065362e+02  -1.793848e+02
   1.593739e+02  -1.277479e+02
   1.346793e+02   4.137197e+01
   7.852939e+00   2.058892e+02
  -9.592531e+01   1.718712e+02
  -6.617280e+01  -9.667228e+00
  -6.707885e+01  -1.437907e+02
  -1.518132e+01  -1.329734e+02
   7.227613e+01  -5.118891e+01
   7.190306e+01   2.513230e+01
   6.811520e+01  -1.652245e+01
   3.068185e+01  -3.100710e+01
   2.905336e+01   5.079046e+01
   5.065923e+01   1.242481e+02
   5.939512e+01   1.280165e+02
  -8.023892e+01   6.907685e+01
  -1.410299e+02  -4.744034e+01
  -1.579591e+02  -8.037999e+01
  -2.099561e+01  -3.398562e+01
   9.161422e+01  -6.996860e+01
   8.757100e+01   4.583572e+00
  -1.092995e+01   1.022179e+00
  -4.709252e+01   1.136704e+01
   2.154422e+01   2.855996e+01
   7.206453e+00  -7.167069e+00
   2.713720e+01   3.362840e+00
  -1.070178e+02   1.042962e+00
  -9.866046e+01  -2.869422e+01
  -1.354610e+01  -1.088250e+02
   1.554351e+02  -1.792202e+02
   1.859636e+02  -6.563425e+01
   1.229811e+02   7.298766e+01
   1.172900e+01   1.970099e+02
  -9.630334e+01   1.518942e+02
  -1.342619e+02   5.489245e+01
  -6.760071e+01  -3.202774e+01
  -7.093182e+00  -1.937274e+01
   2.025716e+01   4.850667e+00
  -3.070146e+00   1.794761e+01
  -6.797440e+01  -1.965716e+01
  -2.410511e+01  -1.221896e+02
   1.308215e+01  -1.085058e+02
   1.091706e+02   2.654638e+01
   8.530161e+01   1.229221e+02
   1.806181e+01   1.440100e+02
  -9.187554e+01   3.277262e+01
  -1.300712e+02  -8.719993e+01
  -3.518724e+01  -8.654019e+01
   1.058234e+02  -7.338689e+01
   1.329870e+02   2.214801e+01
   6.850944e+01   4.538873e+01
  -6.729424e+01   7.510558e+01
  -2.763101e+01   5.198963e+01
   4.952512e+01   4.980891e+00
   8.181481e+01  -2.218185e+01
   3.557864e+01   3.510550e+01
  -6.542488e+01   5.576554e+01
  -7.758790e+01   9.793061e+01
  -5.385308e+00  -6.973278e+00
   3.809948e+01  -9.220329e+01
   7.907720e+01  -7.537743e+01
   1.667524e+01   3.845133e+01
  -2.221984e+01   9.361449e+01
  -8.018456e+01   9.260804e+01
  -4.932073e+01  -3.311121e+01
  -3.391545e+01  -9.364017e+01
   2.234600e+01  -5.812429e+01
   5.952803e+00  -7.210717e+00
   1.172730e+01   4.674436e+01
   2.142939e+01  -1.941469e+01
  -2.935030e+00  -4.327308e+01
   2.677313e+01  -2.761314e+01
   9.129628e+00   8.760941e+01
   2.121055e+01   5.825037e+01
  -3.675403e+01  -2.526830e+00
   3.804536e+00  -5.607747e+01
  -3.019735e+01  -6.777905e+01
   2.669756e+01  -7.712251e+00
   7.691859e+01   6.720261e+01
   2.770321e+01   9.979093e+01
  -2.543841e+01   2.417753e+01
  -1.041712e+02  -3.974293e+00
  -8.279062e+01  -5.837835e+01
   3.291540e+01  -5.313094e+01
   4.821115e+01  -3.043652e+01
   2.777811e+01   5.307042e+00
  -5.672657e+01  -1.213495e+01
  -1.013531e+01  -4.061325e+01
   4.777513e+01  -6.892354e+01
   9.533434e+01  -8.751612e+00
