
 $NMID
 id='ANONYMOUS ', fmtdat='(2E16.6)'
 volume=1.0
 tramp=1.0
 $END
   4.098318e+03   1.308773e+02
   2.630740e+03   2.238463e+03
  -5.905102e+02   2.584626e+03
  -2.018030e+03   8.796689e+02
  -1.035205e+03  -5.828307e+02
   6.467597e+02  -5.339545e+02
   8.890149e+02   3.863723e+02
   1.758493e+02   1.012476e+03
  -6.383456e+02   7.876559e+02
  -9.001728e+02   5.183674e+01
  -4.776425e+02  -8.701830e+02
   2.902660e+02  -9.396238e+02
   4.508766e+02  -1.551332e+02
   3.567982e+02   5.813876e+02
  -1.575440e+02   8.167805e+02
  -8.060332e+02   8.325702e+01
  -3.672345e+02  -7.181133e+02
   2.869653e+02  -5.862154e+02
   5.267281e+02  -1.060336e+02
   5.266296e+02   9.138903e+01
  -1.552463e+02   6.902465e+02
  -2.077562e+02   1.996539e+02
  -1.197475e+02  -7.785790e+00
   2.320882e+02  -1.146553e+02
   4.977253e+02   1.913261e+02
   1.430458e+02   4.979750e+02
  -4.069565e+02   3.016888e+02
  -7.447610e+02  -1.457340e+02
  -3.884075e+02  -5.308796e+02
   2.925349e+02  -2.790508e+02
   7.421182e+02   8.034315e+01
   3.297286e+02   4.752251e+02
  -2.207998e+02   4.436416e+02
  -4.825496e+02   2.091019e+02
  -4.641164e+02  -2.538352e+02
  -1.120156e+02  -4.030702e+02
   1.643599e+02  -2.986931e+02
   1.314892e+02   1.781106e+02
  -2.145500e+02   4.313423e+02
  -3.698658e+02   3.125092e+00
  -1.511194e+02  -6.476833e+02
   3.427929e+02  -6.738106e+02
   5.436921e+02   3.143589e+01
   1.360587e+02   5.281204e+02
  -2.407686e+02   3.234977e+02
  -3.982923e+02  -3.554016e+02
   6.697768e+01  -5.688263e+02
   5.595105e+02  -8.029452e+01
   6.039384e+02   4.473505e+02
   1.296682e+02   5.932882e+02
  -4.268691e+02   3.330300e+02
  -6.353544e+02  -9.568323e+01
  -3.442988e+02  -3.884275e+02
   1.615957e+02  -3.251562e+02
   4.220937e+02  -1.315982e+01
   2.195940e+02   1.718507e+02
  -1.269825e+02   8.965401e+01
  -2.018436e+02  -1.331906e+02
   1.122671e+02  -1.737028e+02
   2.861244e+02   6.002475e+01
   1.642713e+02   2.313253e+02
  -1.977854e+02   2.613844e+02
  -3.117757e+02   9.397314e+01
  -2.088185e+02  -1.019899e+02
   2.873724e+01  -2.593925e+02
   2.309228e+02  -3.166112e+02
   3.304491e+02  -1.443680e+02
   2.844527e+02   1.949987e+02
   5.011670e+01   4.573776e+02
  -1.129483e+02   3.382809e+02
  -1.098073e+02   6.929880e+01
  -3.644843e+01  -1.292687e+01
  -3.921911e+01   1.000900e+02
  -2.057186e+02   1.558962e+02
  -2.141605e+02  -1.207205e+01
  -1.042690e+02  -2.148840e+02
   9.028004e+01  -2.201711e+02
   1.621931e+02  -1.647451e+01
   1.007851e+02   2.180436e+02
  -5.521430e+01   3.065343e+02
  -2.392318e+02   1.629325e+02
  -3.340671e+02  -1.774766e+02
  -2.085440e+02  -3.665223e+02
   9.119022e+01  -3.128216e+02
   2.322466e+02  -1.039743e+02
   1.333487e+02   4.672529e+01
   3.662781e+01  -2.469646e+01
   1.932827e+02  -9.315684e+01
   4.000473e+02   2.015822e+01
   3.324083e+02   2.935241e+02
   2.291681e+01   4.603389e+02
  -3.363770e+02   3.992964e+02
  -4.444202e+02   1.830490e+02
  -3.191479e+02  -8.447573e+01
  -5.622101e+01  -2.659924e+02
   9.845938e+01  -2.105267e+02
   6.310400e+01  -3.184932e+01
  -8.720776e+01   1.038456e+02
  -1.944335e+02  -1.421488e+01
  -4.740829e+01  -2.286347e+02
   1.408815e+02  -1.993005e+02
   1.827652e+02   3.665502e+01
   3.130634e+01   2.248166e+02
  -1.756655e+02   6.030345e+01
  -1.602929e+02  -2.205092e+02
  -7.166011e+00  -3.018587e+02
   1.878313e+02  -1.608665e+02
   2.398540e+02   1.116138e+02
   1.996226e+02   1.946164e+02
   2.386311e+01   1.822701e+02
  -9.910173e+01   9.695528e+01
  -1.533787e+02  -5.929630e+00
  -5.682287e+00   9.951938e+00
   8.332434e+01   8.966422e+01
   1.391153e+01   1.371352e+02
  -1.503413e+02   1.111766e+02
  -1.878662e+02  -1.473404e+01
  -2.810115e+01  -9.815568e+01
   5.484827e+01  -9.037189e+00
   3.944849e+01   7.958141e+01
  -9.461088e+01   5.777954e+01
  -2.772821e+02   9.499688e+00
  -2.375326e+02  -1.112726e+02
  -5.263849e+01  -2.119771e+02
   1.836198e+02  -2.193919e+02
   2.328569e+02  -6.850352e+01
   1.143751e+02   6.024950e+01
  -5.070285e+01   1.103731e+02
  -1.214285e+02  -3.240231e+01
   5.402323e+01  -1.184669e+02
   1.296223e+02  -2.462419e+01
   1.950845e+02   9.093630e+01
   7.035396e+01   2.387080e+02
  -7.924624e+01   1.760525e+02
  -1.500733e+02   2.346461e+01
  -9.793811e+01  -6.864629e+01
   3.362443e+01  -4.593776e+01
   3.387430e+01   8.336445e+01
  -6.096215e+01   9.906044e+01
  -2.137943e+02   5.395254e+01
  -1.989341e+02  -1.446166e+02
  -1.990461e+01  -2.616219e+02
   1.020443e+02  -1.596436e+02
   1.958043e+02  -5.562142e+01
   8.400534e+01   6.205834e+01
  -5.473681e+01   2.895255e+01
  -8.341900e+01  -1.489728e+01
   3.461786e+00  -6.675211e+01
   2.039096e+01   1.620113e+01
   1.754554e+01   4.712502e+01
  -4.890010e+01   2.784358e+01
  -8.137335e+01  -3.636989e+01
  -5.069027e+00  -1.268409e+02
   1.030774e+02  -1.220243e+02
   1.704492e+02  -2.473092e+01
   1.401446e+02   1.503855e+02
   4.502161e+01   2.151757e+02
  -8.860717e+01   1.335617e+02
  -8.579585e+01   4.807345e+01
  -8.918767e+01  -3.701117e+01
  -5.412985e+01  -5.245588e+01
  -2.165004e+01  -8.444907e-01
  -9.425929e+01   3.429499e+00
  -6.058453e+01  -6.206476e+01
   3.485298e+00  -4.211308e+01
   8.200092e+01  -9.035762e+01
   1.142822e+02   4.130494e+01
  -1.332696e+01   6.802142e+01
  -1.404731e+02   6.379618e+01
  -2.035908e+02  -6.304630e+01
  -3.792821e+01  -1.777803e+02
   9.952452e+01  -1.910565e+02
   2.279078e+02  -9.107167e+01
   2.106598e+02   1.007335e+02
   9.252612e+01   1.386722e+02
  -7.343724e+01   1.380534e+02
  -4.737631e+01   6.831861e+01
  -8.871326e+01   6.083719e+01
  -6.250883e+01   8.322342e+01
  -8.831256e+01   8.825684e+01
  -1.721714e+02  -7.898180e+00
  -1.542554e+02  -1.340059e+02
  -3.408381e+01  -2.364220e+02
   9.880237e+01  -2.178669e+02
   1.433500e+02  -2.744477e+01
   1.082889e+02   1.375663e+02
   1.206392e+01   2.023948e+02
  -7.632311e+01   1.237362e+02
  -4.094536e+01  -4.850201e+01
  -2.635373e+01  -5.451383e+01
   2.090009e+01  -4.373264e+01
  -6.603848e+01  -5.079001e+01
  -6.714643e+01  -1.334264e+01
  -3.450667e+01  -2.878946e+01
   6.829789e+01  -6.090094e+01
   1.757446e+02  -3.271768e+00
   1.084751e+02   6.144980e+01
   4.884345e+01   9.414945e+01
  -1.240574e+02   1.034071e+02
  -1.715654e+02   4.451302e+01
  -1.977601e+01  -5.395542e+01
   5.299118e+01  -4.296268e+01
   3.316886e+01  -5.207238e-01
   6.157006e+00   7.924928e+01
  -3.669773e+01   5.042854e+01
  -2.398411e+00   8.297913e+00
  -5.085689e+00  -3.196901e+01
  -7.924756e+01  -4.551616e+01
  -7.619496e+01   2.234584e+01
  -8.615074e+01  -1.109182e+00
  -4.959012e+01  -4.484930e+01
   2.622926e+01  -1.660446e+02
   1.083140e+02  -1.634361e+02
   1.602281e+02  -5.238312e+01
   1.358953e+02   9.754916e+01
   8.131243e+00   1.086383e+02
  -4.661377e+01   7.559980e+01
  -4.770755e+01   1.349652e+01
   4.599467e+01  -5.872564e+01
   8.417289e+01   4.106326e+01
   4.450082e+01   1.294400e+02
  -4.668922e+01   1.466001e+02
  -1.872961e+02   7.061384e+01
  -1.256632e+02  -3.456791e+01
  -4.098099e+01  -9.642020e+01
   1.728392e+01  -6.693571e+01
   2.170886e+01   2.341715e+01
  -1.935703e+00   1.309851e+01
  -6.472558e+01  -3.256643e+01
  -2.584096e+01  -9.402214e+01
   5.822425e+01  -7.699682e+01
   1.392938e+02  -1.072017e+02
   1.311761e+02   6.747716e+01
   1.191078e+01   1.795704e+02
  -5.029336e+01   1.033388e+02
  -9.192781e+01   1.343232e+01
  -5.971923e+01  -1.232811e+02
  -4.538761e+00  -9.623757e+01
   4.669384e+01  -3.142831e+00
   5.592250e+01   1.569298e+01
   4.591260e+01  -7.528466e+00
   3.996445e+01  -1.367736e+01
  -3.279434e+01   7.090537e+00
   3.494418e+01   8.397693e+01
   1.369716e+01   1.356873e+02
  -5.608045e+01   3.994568e+01
  -1.298763e+02   2.624508e+01
  -1.430090e+02  -6.767739e+01
  -1.600031e+01  -3.663316e+01
   3.880154e+01  -2.905058e+01
   9.221350e+01  -4.968322e+01
   1.606787e+00  -2.718028e+01
  -2.494925e+01   1.300506e+01
   2.396951e+01   1.822566e+01
   4.333555e+01  -2.353258e+01
  -5.775887e+01   8.017284e-01
  -7.949272e+01   1.962678e+01
  -9.361625e+01  -1.115029e+01
   1.058158e+01  -5.260991e+01
   1.127223e+02  -1.067810e+02
   2.132726e+02  -5.597460e+01
   1.179541e+02   4.235580e+01
   2.148873e+01   1.375373e+02
  -6.337631e+01   1.292855e+02
  -1.204279e+02   7.936905e+01
  -6.323929e+01  -3.203688e+01
   1.699012e+01  -6.211008e+01
   3.714133e+01   5.427026e-01
  -1.369541e+01  -1.638769e+01
  -1.476715e+01  -2.594576e+01
  -3.985020e+01  -8.680832e+01
   7.232626e+00  -7.300964e+01
   6.509278e+01   1.348911e+01
   5.056126e+01   9.695561e+01
   1.033425e+01   8.878095e+01
  -6.185170e+01   3.017463e+01
  -7.042348e+01  -5.311910e+01
   1.655197e+00  -1.049377e+02
   3.893971e+01  -4.372699e+01
   7.980898e+01   6.135713e+01
   6.487252e+00   7.331067e+01
  -3.351711e+01   6.351047e+01
  -5.485271e+01   2.140651e+01
   1.164385e+01   4.585524e+01
   2.024609e+01  -4.538481e+01
   2.960398e+01  -3.246750e+00
  -5.269054e+01   6.070973e+01
  -9.450794e+01   4.195538e+01
  -5.929169e+01  -1.326161e+01
   1.594795e+01  -4.364868e+01
   3.258356e+01  -6.655298e+01
   6.093288e+01  -8.604798e+00
   2.656089e+00   4.561552e+01
  -5.983209e+01   5.291383e+00
  -3.621276e+01  -3.797816e+01
  -4.526020e+01  -9.542052e+01
   2.118209e+01  -6.841499e+01
   6.953959e+01  -1.513446e+01
   7.594457e+01   5.841591e+01
  -3.652933e+00  -1.537496e+00
  -1.464415e+00   4.332908e+00
   2.450008e+01   3.223502e+01
   7.916998e+00   4.603289e+01
  -4.640621e+01   4.912050e+01
  -2.456378e+01   1.917508e+01
  -7.155386e+01  -9.070168e+01
  -2.753894e+01  -4.699799e+01
   5.867782e+01  -3.200587e+01
   8.191228e+01   5.430213e+01
   4.119182e+01   5.288364e+01
  -2.082536e+01   9.393922e+00
  -8.874209e+01   1.942617e+00
  -4.533109e+01  -3.949611e+01
   1.329065e+01  -6.072514e+01
   6.038129e+01  -2.103836e+01
   4.769857e+01   1.028896e+01
  -1.727173e+01  -3.492364e+01
  -3.249097e+01  -3.275325e+00
   2.518338e+00  -4.356799e+01
   7.470735e+01  -2.062993e+01
