
 $NMID
 id='ANONYMOUS ', fmtdat='(2E16.6)'
 volume=1.0
 tramp=1.0
 $END
  -3.023352e+03   4.615629e+01
  -1.941730e+03  -1.581053e+03
  -2.999940e+01  -2.007364e+03
   1.165831e+03  -1.201046e+03
   9.000403e+02  -1.742659e+02
   1.548428e+01   2.790588e+02
  -4.624850e+02   4.733535e+01
   3.676608e+01  -5.542689e+02
   4.501286e+02  -5.205060e+02
   6.465080e+02  -1.427762e+02
   3.637118e+02   5.541482e+02
   7.417868e+01   7.151110e+02
  -3.888535e+02   1.929900e+02
  -2.629456e+02  -3.155425e+02
   9.849825e+01  -4.730152e+02
   4.579851e+02  -2.318479e+01
   4.147202e+02   6.091908e+02
  -1.264985e+02   7.252634e+02
  -3.388507e+02   3.576803e+02
  -5.360039e+02  -3.482883e+02
  -1.457010e+02  -3.577379e+02
   1.744719e+02  -1.705842e+02
   1.266576e+02  -2.732501e+02
   8.004934e+01  -1.174067e+02
  -2.210230e+02  -4.731576e+02
   4.952395e+01  -3.434148e+02
   4.797776e+02  -6.251690e+00
   4.698428e+02   1.136369e+02
   2.596832e+02   2.952507e+02
  -2.643019e+02   1.987185e+02
  -4.600110e+02  -5.856841e+01
  -1.560076e+02  -3.924966e+02
   2.383171e+02  -2.878780e+02
   4.808851e+02  -1.283619e+02
   3.417233e+02   2.095296e+02
   9.932515e+01   3.669253e+02
  -1.296309e+02   1.937995e+02
   4.201244e+01  -9.990457e+01
   1.706761e+02  -1.051705e+02
   1.972003e+02   2.105364e+02
   7.365840e+01   3.716008e+02
  -2.284758e+02   3.841938e+02
  -2.523428e+02  -3.896886e+01
  -7.933154e+01  -2.801400e+02
   1.676289e+02  -8.737967e+01
   2.055365e+02   2.047249e+02
  -1.141012e+02   3.416270e+02
  -3.878955e+02   6.838765e+01
  -4.332357e+02  -2.890034e+02
  -1.229373e+02  -4.833988e+02
   2.793292e+02  -3.281394e+02
   4.856261e+02   5.480352e+01
   3.055942e+02   2.504647e+02
  -3.631762e+01   2.582991e+02
  -2.411032e+02   1.136615e+02
  -1.958799e+02   2.811465e+00
  -1.123881e+01  -1.676451e+01
   1.796374e+01   4.852571e+01
  -1.208750e+02   2.216464e+01
  -2.377102e+02  -8.426925e+01
  -1.391713e+02  -2.185032e+02
   1.659623e+02  -2.612113e+02
   3.679296e+02  -7.168820e+01
   2.728866e+02   1.031823e+02
   8.302533e+00   3.025637e+02
  -2.584948e+02   3.112050e+02
  -3.258678e+02   1.347028e+02
  -2.229387e+02  -1.077697e+02
  -4.460925e+01  -2.547993e+02
  -2.980377e+01  -2.447017e+02
  -1.903171e+01  -1.668494e+02
   5.665769e+01  -1.272518e+02
   1.468136e+02  -1.289996e+02
   2.294250e+02  -5.472571e+01
   2.607513e+02   1.108613e+02
   8.471851e+01   2.735101e+02
  -8.907760e+01   1.659522e+02
  -2.433520e+02   2.364594e+01
  -1.997842e+02  -2.297055e+02
   2.242218e+01  -2.177917e+02
   2.524520e+02  -7.391490e+01
   2.762018e+02   1.734550e+02
   1.295930e+02   2.646889e+02
  -1.276661e+01   2.833097e+02
  -1.421361e+02   2.047255e+02
  -1.008667e+02   5.920508e+01
  -1.782471e+02   6.353463e+01
  -2.955096e+02   1.136678e+01
  -4.188551e+02  -9.473089e+01
  -2.772466e+02  -2.523392e+02
   3.850723e+01  -4.104766e+02
   3.351673e+02  -4.033758e+02
   3.784721e+02  -1.805821e+02
   2.268668e+02   6.122992e+01
   4.807575e+01   2.703701e+02
  -8.102168e+01   2.183222e+02
   8.741886e+00   7.364139e+01
   8.051797e+01  -2.678938e+01
   7.463095e+01   3.696072e+01
  -2.743726e+01   9.282517e+01
  -8.637943e+01   5.245763e+01
  -6.447242e+01  -2.338211e+01
  -2.430989e+00  -1.173362e+02
   1.743478e+02  -2.735940e+01
   1.827141e+02   2.223205e+02
  -4.053836e+01   3.208486e+02
  -2.511732e+02   1.679936e+02
  -3.602623e+02  -5.259277e+01
  -2.642869e+02  -2.174903e+02
  -3.162933e+01  -2.621238e+02
   1.132583e+02  -1.582278e+02
   1.367229e+02  -7.161301e+00
  -2.249222e+00   2.558740e+01
  -8.029372e+01  -4.252824e+01
  -1.049986e+01  -1.244606e+02
   1.193567e+02  -8.334826e+01
   1.497279e+02   3.342241e+01
   8.171733e+01   7.468648e+01
  -6.094628e+01   1.044628e+01
  -4.670930e+01  -7.999796e+01
   1.211010e+02  -7.695697e+01
   2.379799e+02  -4.090165e+01
   2.369606e+02   1.495193e+02
   3.433235e+01   2.235810e+02
  -1.674942e+02   1.982820e+02
  -2.092393e+02   6.573226e+01
  -1.513155e+02  -4.652687e+01
  -7.951132e+00  -6.955654e+01
   6.640498e+01   5.178560e+01
  -4.155928e+01   1.228902e+02
  -8.020400e+01   3.433131e+01
  -1.578628e+02  -2.703443e+01
  -4.522601e+01  -1.630330e+02
   1.015546e+02  -1.589283e+02
   7.580559e+01  -1.943922e+01
   3.503728e+01   1.271028e+01
  -5.273108e+01   9.449565e+00
  -3.444864e+00  -1.067280e+02
   9.795750e+01  -1.186139e+02
   2.183315e+02  -3.724909e+00
   1.953147e+02   1.032564e+02
   1.499859e+01   2.262231e+02
  -1.664369e+02   1.871367e+02
  -1.736678e+02   5.414173e+01
  -6.020886e+01  -6.980461e+01
   9.718556e+01  -9.376112e+01
   1.000185e+02  -5.472335e+01
  -2.234800e+01   2.093202e+01
  -2.134350e+01   3.585020e+01
   1.001765e+01   7.291244e+00
   4.911361e+01  -2.549475e+01
   1.144720e+02   5.057355e+01
   2.524066e+01   1.374790e+02
  -1.324489e+02   1.977618e+02
  -2.280261e+02   3.139046e+01
  -1.937532e+02  -1.633571e+02
  -4.931507e+01  -2.252996e+02
   8.406647e+01  -1.715070e+02
   1.285386e+02  -5.598852e+01
   8.438109e+01   7.385568e+01
   6.776029e+01   5.834734e+01
   7.827103e+01   4.964202e+01
   5.622833e+01   3.128483e+00
   2.364257e+01  -1.809530e+01
  -3.833052e+01   5.883453e+01
  -9.471193e+01   4.298603e+01
  -1.038085e+02  -5.525684e+01
   1.646013e+01  -1.052317e+02
   1.798651e+02  -4.142268e+01
   2.001084e+02   7.676633e+01
   7.301311e+01   1.612884e+02
  -1.396103e+02   2.177646e+02
  -2.819707e+02   1.307563e+02
  -2.557468e+02  -8.017702e+01
  -7.304636e+01  -1.642028e+02
   5.505269e+01  -1.472424e+02
   9.389883e+01  -6.640540e+01
   6.462193e+01  -6.205773e+01
  -1.171669e+00  -1.034364e+02
   8.483714e+01  -9.304630e+01
   1.335409e+02   8.598553e+00
   1.038316e+02   1.466910e+02
   1.276481e+01   2.232825e+02
  -8.345767e+01   1.589516e+02
  -1.526787e+02   4.791774e+01
  -9.477130e+01  -9.841213e+01
   9.371114e+00  -1.557432e+02
   5.102336e+01  -6.487993e+01
   6.577011e+01  -2.531263e+01
   1.225211e+01   1.325141e+01
   1.547991e+01   2.617358e+01
   4.050396e+01  -3.088105e+01
   9.916673e+01  -1.865964e+01
   8.699017e+01   4.337317e+01
  -4.583504e+01   8.112367e+01
  -1.825429e+02   1.708012e+01
  -1.421869e+02  -4.892122e+01
  -6.997737e+00  -7.906327e+01
   1.418164e+02  -4.245906e+01
   1.732451e+02   2.405384e+01
   7.603972e+01   2.456548e+01
  -6.574094e+01   1.558979e+01
  -2.445009e+01  -3.373657e+01
  -2.996234e+01  -1.327716e+02
   4.472691e+01  -7.472733e+01
   9.869583e+01  -3.066818e+00
   1.003377e+02   1.099765e+02
   6.533406e+01   5.818295e+01
   2.425859e+00  -1.298034e+01
   6.680513e+01   8.335271e+00
   3.318779e+01   6.211565e+01
  -2.270869e+01   1.386373e+02
  -9.769196e+01   1.515844e+02
  -1.540332e+02   4.635261e+01
  -1.098881e+02  -8.926708e+01
   3.933229e+01  -1.355644e+02
   1.327864e+02  -5.494051e+01
   8.681151e+01   8.417701e+00
  -7.730079e+01   4.844963e+01
  -1.533611e+02  -4.648499e+01
  -8.677609e+01  -9.161995e+01
   7.762674e+01  -1.072531e+02
   1.853599e+02  -1.472248e+01
   1.544327e+02   6.062707e+01
   3.597810e+01   9.434210e+01
  -2.774171e+01   9.674519e+01
  -7.208466e+01   2.315220e+00
  -1.856687e+01  -4.978298e-01
   5.245262e+01   2.737143e+01
   3.251288e+01   1.172523e+02
  -6.195436e+01   1.745056e+02
  -1.355934e+02   7.376112e+01
  -1.626133e+02  -7.648011e+01
  -1.277398e+01  -1.725984e+02
   7.547085e+01  -1.542673e+02
   8.839867e+01  -3.139585e+00
   7.611333e+01   7.045596e+01
  -3.695546e+01   1.107782e+02
  -7.164237e+01   2.423471e+01
  -5.015061e+01  -1.374263e+01
   2.849275e+01   4.740404e+00
  -2.775792e+01   3.334682e+01
  -1.497935e+01  -2.873232e+01
  -7.207922e+01  -9.939801e+01
  -1.244276e+01  -1.018666e+02
   6.437931e+01  -1.652479e+01
   1.106737e+02   1.634495e+01
   8.974906e+01   6.792301e+01
  -3.929366e+01   8.976034e+01
  -9.058710e+01   4.917534e+01
  -8.134140e+01  -5.215984e+00
  -3.218957e+01   1.110857e+01
   2.648533e+01   5.977006e+00
  -3.850707e+00   6.408852e+00
  -4.590382e+00  -2.098981e+01
   7.914986e-01   9.067739e+00
   6.149441e+01   1.914284e+01
   8.286801e+01   2.465434e+01
   2.727648e+01   5.917859e+01
  -1.065273e+02   9.385100e+01
  -1.901809e+02   5.181993e+01
  -1.149164e+02  -4.829894e+01
  -7.917255e+00  -1.461247e+02
   9.097643e+01  -1.629899e+02
   1.105269e+02  -3.374782e+01
   9.279536e+01   1.451632e+01
   1.155852e+01   3.042557e+01
  -2.674586e+01   4.291357e+00
  -1.384899e+01   3.615273e+01
   5.853682e+01   4.185138e+01
   4.427234e+01   8.296743e+01
  -1.565455e+01   5.770005e+01
  -1.082208e+02   6.580057e+00
  -6.770151e+01  -9.224457e+01
  -9.048815e+00  -1.296033e+02
   6.670419e+01  -7.073665e+01
   1.125703e+02   2.334359e+01
   5.262905e+01   9.698249e+01
  -4.404838e+01   1.142240e+02
  -1.044077e+02   4.491737e+00
  -3.409278e+00  -7.805837e+01
   7.095818e+01  -2.983233e+01
   5.233633e+01  -2.901792e+01
  -9.772996e+00  -5.603812e+00
  -7.996667e+01   4.584420e+01
  -3.185903e+01  -3.426481e+01
   7.276779e+01  -2.196672e+01
   7.069648e+01  -3.365968e+01
   3.642192e+01  -1.083572e+00
  -1.587604e+00   6.825839e+01
  -5.775908e+01   5.446556e+01
  -4.262506e+01  -3.392039e+00
  -2.169176e+01  -6.351824e+01
  -2.895431e+01  -4.425251e+01
   4.161108e+01  -3.400102e+01
   5.515801e+01   3.639012e+01
  -8.121142e-01   2.989529e+01
  -1.953319e+01   2.520509e+01
  -3.234158e+01  -2.262367e+01
   1.899330e+01  -1.697563e+01
  -5.166603e+01   4.927530e+01
  -2.991406e+01  -4.000376e+00
  -1.487236e+01   1.138729e+00
  -1.365198e+00  -9.025760e+01
  -3.352683e+00  -6.579426e+00
   4.643678e+01   4.817969e+01
   7.929157e+00   9.258072e+01
  -3.819076e+01   1.795367e+01
  -6.269510e+01  -2.757824e+01
  -2.390067e+01  -3.623600e+01
   3.700197e+01  -5.751530e+01
   7.210691e+01  -6.988914e+00
   2.078002e+01   1.503506e+01
  -3.067438e+01   3.752377e+01
  -4.678873e+01  -2.337414e+01
  -3.050443e+01   3.215621e+01
   4.720377e+01   6.674095e+00
   6.574588e+01  -1.029309e+01
   1.262899e+01   2.318309e+01
  -7.121871e+01   1.487639e+01
