
 $NMID
 id='ANONYMOUS ', fmtdat='(2E16.6)'
 volume=1.0
 tramp=1.0
 $END
  -3.808508e+03   2.148431e+00
  -2.276870e+03  -2.074743e+03
   4.138958e+02  -2.336049e+03
   1.710137e+03  -1.090165e+03
   9.865764e+02   2.292619e+02
  -3.060426e+02   4.083578e+02
  -6.991685e+02  -3.612930e+02
   2.875174e+01  -8.820224e+02
   6.653830e+02  -6.625531e+02
   6.772382e+02   1.030078e+02
   3.707758e+02   6.140509e+02
  -1.901107e+02   7.483476e+02
  -5.386124e+02   1.719108e+02
  -2.505263e+02  -5.023422e+02
   1.326042e+02  -7.125981e+02
   5.633434e+02   1.398348e+02
   2.994766e+02   5.481710e+02
  -3.325171e+02   5.287666e+02
  -3.860253e+02   3.445972e+02
  -4.486533e+02  -1.087095e+02
   1.515712e+02  -3.544317e+02
   2.515337e+02  -1.050814e+02
   1.186394e+02   1.196683e+01
  -3.269527e+01  -3.799819e+01
  -4.052507e+02  -1.537107e+02
   4.300618e+01  -4.509621e+02
   3.999116e+02  -2.113392e+02
   6.139476e+02   2.922481e+02
   3.236699e+02   5.455775e+02
  -3.548487e+02   2.665010e+02
  -6.053810e+02  -4.907393e+01
  -1.796282e+02  -3.821757e+02
   3.561968e+02  -4.713433e+02
   5.300029e+02  -2.344902e+02
   3.580518e+02   2.704680e+02
   1.601723e+02   4.093851e+02
  -1.002919e+02   2.073318e+02
  -8.187918e+01  -1.340408e+02
   1.739571e+02  -1.886430e+02
   2.508909e+02   1.501952e+02
   1.279343e+02   5.882057e+02
  -2.819167e+02   5.546715e+02
  -4.516939e+02  -5.136367e+01
  -2.082502e+02  -4.273759e+02
   1.041184e+02  -2.340434e+02
   2.607148e+02   2.482772e+02
  -8.208474e+01   4.696489e+02
  -4.969864e+02   1.315402e+02
  -5.457606e+02  -4.248667e+02
  -1.492033e+02  -6.010312e+02
   3.728133e+02  -3.533287e+02
   5.654767e+02   4.419726e+01
   3.769682e+02   3.713113e+02
  -8.815241e+01   3.335181e+02
  -3.096768e+02   1.381197e+02
  -2.193014e+02  -7.378923e+01
  -1.031432e+01  -5.822925e+00
   3.324467e+01   8.991538e+01
  -1.914461e+02   1.059929e+02
  -2.502521e+02  -4.442298e+01
  -1.410245e+02  -2.288740e+02
   1.664971e+02  -2.700868e+02
   3.364289e+02  -1.199381e+02
   2.396147e+02   5.539280e+01
  -1.206376e+01   2.721344e+02
  -2.777410e+02   3.651105e+02
  -4.160977e+02   2.057722e+02
  -2.400226e+02  -1.362857e+02
  -1.010527e+02  -4.226994e+02
   8.713118e+01  -2.634434e+02
   5.291424e+01  -1.601775e+02
   1.715216e+01  -6.113259e+01
   1.493950e+02  -1.325323e+02
   2.245655e+02  -1.368571e+02
   2.707442e+02   9.884581e+01
   1.566044e+02   2.866993e+02
  -1.070871e+02   2.277258e+02
  -2.321633e+02   1.516664e+01
  -1.445352e+02  -2.676052e+02
   6.423164e+01  -2.033146e+02
   2.445810e+02  -5.782763e+01
   2.677103e+02   1.396991e+02
   1.589071e+02   3.079909e+02
  -8.059683e+01   2.235063e+02
  -1.399343e+02   1.283261e+02
  -1.586979e+02   7.145429e+00
  -1.142344e+02   4.058511e+01
  -2.311808e+02  -2.063269e+01
  -3.029610e+02  -6.818967e+01
  -2.755566e+02  -2.726994e+02
   3.968051e+01  -4.010530e+02
   4.003854e+02  -3.590692e+02
   4.602578e+02  -1.509009e+02
   2.664698e+02   1.367258e+02
   4.507004e+01   2.457172e+02
  -1.198145e+02   1.723576e+02
  -3.653467e+01   5.512877e+01
   9.605425e+01  -5.130002e+01
   1.336519e+02   4.912664e+01
   4.503288e+01   1.656062e+02
  -1.625692e+02   6.902459e+01
  -1.034785e+02  -3.932288e+01
   1.793423e+01  -1.792971e+02
   1.913643e+02   2.116815e+01
   1.653674e+02   2.727042e+02
  -1.190097e+01   3.622242e+02
  -2.783524e+02   2.541771e+02
  -3.906793e+02  -7.067982e+01
  -3.125363e+02  -2.673178e+02
  -7.677657e+01  -2.837473e+02
   1.594653e+02  -1.379826e+02
   1.565773e+02  -7.592950e+00
   3.473977e+01   5.549878e+01
  -4.798303e+01  -3.870654e+01
  -7.303977e+00  -1.255400e+02
   1.164436e+02  -6.808327e+01
   1.716103e+02   8.361254e+00
   1.357891e+01   7.767215e+01
  -5.939212e+01  -2.902638e+01
  -9.420805e+01  -6.609502e+01
   1.490212e+02  -9.082726e+01
   3.009657e+02  -9.588967e+00
   2.453811e+02   1.715103e+02
   8.775707e+01   2.917090e+02
  -2.527415e+02   2.841495e+02
  -2.744873e+02   1.134902e+02
  -1.293920e+02  -8.699076e+01
  -1.236736e+01  -7.999398e+01
   7.478725e+01  -2.993310e+00
  -6.249396e+01   4.143123e+01
  -1.815848e+02   6.833742e+01
  -2.028904e+02  -1.217887e+02
  -2.535130e+01  -1.994060e+02
   1.260740e+02  -1.709813e+02
   1.206955e+02  -3.801346e+01
   7.451330e+01   6.702499e+01
  -4.838055e+01   2.490010e+01
  -3.049772e+01  -1.191137e+02
   9.065701e+01  -9.630413e+01
   2.466114e+02  -5.300488e+01
   1.849371e+02   1.185247e+02
   2.212136e+01   2.275055e+02
  -9.565942e+01   1.878933e+02
  -1.725808e+02   1.139818e+01
  -9.846151e+01  -1.027852e+02
   3.287536e+01  -9.980830e+01
   8.586863e+01  -1.962821e+01
   1.894528e+01   2.691990e+01
  -1.350143e+01   8.493470e+00
   2.551176e+01  -1.076268e+01
   6.511026e+01  -2.519832e+01
   1.175733e+02   1.163384e+02
   2.169646e+01   2.015394e+02
  -1.353536e+02   1.823263e+02
  -2.825260e+02   1.268936e+01
  -1.914077e+02  -1.420204e+02
  -1.881097e+01  -2.411717e+02
   9.816498e+01  -1.733155e+02
   1.426706e+02  -1.588676e+01
   9.601725e+01   6.366640e+01
   2.798531e+01   9.714823e+01
   7.484182e+00   2.532789e+01
   7.120964e+01  -2.226877e+01
   5.538120e+01   3.634975e+01
  -3.919624e+01   9.030239e+01
  -1.173408e+02   6.435627e+01
  -8.332237e+01  -7.368811e+01
   2.816433e+01  -1.443341e+02
   1.454636e+02  -9.055857e+01
   1.964395e+02   3.902303e+01
   1.100819e+02   2.291390e+02
  -9.960936e+01   2.302404e+02
  -2.534607e+02   8.678732e+01
  -2.830628e+02  -1.003497e+02
  -8.319596e+01  -1.695994e+02
   3.299549e+01  -1.032371e+02
   7.311598e+01  -5.162668e+01
   9.217510e+01  -4.411512e+01
   4.079776e+01  -8.491561e+01
   9.489668e+01  -6.004688e+01
   1.541120e+02   1.488835e+01
   1.323151e+02   1.956980e+02
   1.879677e+01   2.186552e+02
  -1.208369e+02   1.523810e+02
  -2.362900e+02   1.241386e+01
  -1.211866e+02  -1.601122e+02
   2.944900e+00  -1.608292e+02
   9.386349e+01  -7.352673e+01
   7.180244e+01   3.785282e+01
   1.051919e+01   5.661794e+01
  -3.605504e+01   5.037207e+01
   1.840928e+01   4.021328e+01
   6.953854e+01   4.806976e+01
   8.020194e+01   4.591341e+01
  -6.631030e+01   4.515670e+01
  -1.483571e+02  -2.492103e+01
  -1.284623e+02  -6.225938e+01
   3.537477e+01  -6.185041e+01
   1.429081e+02  -4.242911e+01
   1.407479e+02   1.096607e+01
   4.539404e+01   8.192129e+01
  -8.200096e+01   4.329194e+01
  -1.120765e+02  -4.512230e+01
  -1.379591e+01  -9.025187e+01
   5.407326e+01  -8.138272e+01
   4.661353e+01  -1.860342e+01
   4.498068e+01   5.596180e+01
   7.109397e+01   4.340707e+01
   4.882713e+01  -4.923018e+00
   9.068363e+01   2.047061e+01
   5.465406e+01   8.307750e+01
  -8.421374e+01   1.663213e+02
  -1.369463e+02   1.775184e+02
  -1.779620e+02   5.660750e+01
  -1.000259e+02  -1.192091e+02
   3.243165e+00  -1.408298e+02
   8.745107e+01  -6.848539e+01
   7.134626e+01   4.064810e+01
  -7.397340e+00   2.448801e+01
  -1.069586e+02  -4.774847e+01
  -8.345883e+01  -9.188859e+01
   3.370337e+01  -8.986644e+01
   1.745621e+02  -4.313597e+01
   1.473371e+02   4.750243e+01
  -9.545802e-01   6.264120e+01
  -5.742721e+01   4.483244e+01
  -4.441272e+01   1.886391e+01
   4.652726e+01  -1.231095e+01
   1.107058e+02   3.364119e+01
   4.031917e+01   1.756421e+02
  -9.893943e+01   1.686616e+02
  -1.411080e+02   3.069909e+01
  -1.402934e+02  -1.012079e+02
  -3.500282e+01  -1.789732e+02
   7.023405e+01  -1.679814e+02
   9.945420e+01   2.148304e+01
   5.443484e+01   1.318780e+02
   1.876328e+01   7.360608e+01
  -3.343071e+01  -1.262432e+01
  -7.529455e+01  -3.224308e+01
   4.150392e-01   2.462823e+01
   1.331037e+01   4.310744e+01
  -4.253504e+01   1.503703e+01
  -7.063661e+01  -8.431652e+01
  -2.118108e+01  -9.323354e+01
   3.109723e+01  -1.569467e+01
   1.025054e+02   1.778708e+01
   1.582918e+02   8.258843e+01
   2.915017e+01   6.439679e+01
  -1.004794e+02   7.965608e+01
  -1.341853e+02  -1.537955e+00
   3.636878e+00  -1.747901e+01
   4.639967e+01   1.429591e+01
  -1.769163e+01  -1.377609e+01
  -1.471808e+01  -2.115617e+00
   2.370384e+01  -2.616634e+01
   4.467808e+01  -2.406788e+01
   9.425777e+01   2.691033e+01
   9.512422e-02   5.782053e+01
  -1.227800e+02   9.127148e+01
  -2.315861e+02   6.976764e+01
  -1.510438e+02  -4.529286e+01
  -3.182290e+01  -1.533465e+02
   8.207473e+01  -1.332762e+02
   1.067636e+02  -6.475419e+01
   8.234211e+01   3.848629e+00
   1.691130e+01   3.858019e+01
  -6.859075e+00  -1.742588e+01
   2.378094e+01   1.583858e+01
  -1.427567e+00   2.578335e+01
   1.255654e+01   8.649351e+01
  -4.612505e+01   5.714311e+01
  -4.832145e+01  -7.214347e+01
  -6.838339e+01  -1.046763e+02
   2.648513e+00  -1.156616e+02
   4.037121e+01  -1.438094e+01
   9.094761e+01   4.513969e+01
   6.710606e+01   1.465323e+02
  -6.084021e+01   5.832675e+01
  -7.076449e+01  -4.042720e+01
  -1.069407e+01  -1.191761e+02
   5.290653e+01  -3.265200e+01
   3.862511e+01   3.043842e+01
  -3.016381e+01  -1.558946e+00
  -8.201828e+01   1.192646e+01
  -8.142043e+00  -1.333950e+01
   6.114962e+01  -6.658920e+01
   1.263786e+02  -6.514830e+01
   6.116857e+01   1.312538e+01
  -4.288583e+01   9.439730e+01
  -9.521505e+01   7.239657e+01
  -2.454164e+01   3.234410e+01
  -4.108992e+00  -4.619882e+01
   4.735824e+01  -4.981013e+01
   5.929336e+01  -1.601807e+00
   2.722732e+01   6.939264e+01
   5.684648e+00   8.641191e+00
  -5.990131e+01  -3.809269e+01
  -2.920189e+01  -4.108063e+01
  -6.757850e+00  -2.425810e+00
   9.361516e+00   2.026956e+01
   4.122622e+01  -6.184078e+00
   1.014824e+01  -5.071806e+01
   9.801684e+00  -4.869354e+01
   2.065613e+01  -2.854030e+01
   6.852875e+01   4.103963e+01
   2.962081e+01   9.067109e+01
  -5.385571e+01   3.018207e+01
  -7.452833e+01  -2.982781e+01
  -7.037570e+00  -7.806577e+01
   6.765554e+01  -2.946592e+01
   5.470961e+01   1.638262e+01
   2.444000e+01   2.242646e+01
  -2.436971e+01   8.135904e+01
  -5.423833e+01   3.728584e+01
  -4.522287e+01   2.244900e+01
   6.411570e+01   1.646503e+01
   6.453057e+01  -2.418205e+01
  -4.875484e+01   2.540837e+01
  -1.206801e+02   3.241355e+01
