
 $NMID
 id='ANONYMOUS ', fmtdat='(2E16.6)'
 volume=1.0
 tramp=1.0
 $END
   3.396090e+03   1.084851e+02
   2.054136e+03   1.698985e+03
  -2.695189e+02   2.134487e+03
  -1.384037e+03   1.198474e+03
  -9.430720e+02  -1.148243e+02
   2.464045e+02  -2.715943e+02
   5.580994e+02   2.485267e+02
   2.468355e+01   7.921666e+02
  -5.420799e+02   5.769892e+02
  -6.351777e+02   1.500014e+02
  -4.592864e+02  -6.094819e+02
   3.341214e+01  -7.562134e+02
   3.799006e+02  -1.737325e+02
   3.150115e+02   4.512570e+02
  -1.402134e+02   6.921294e+02
  -4.928421e+02  -6.423678e+01
  -1.187591e+02  -5.428889e+02
   4.045841e+01  -6.459128e+02
   5.061291e+02  -1.164222e+02
   3.354358e+02   1.249722e+02
  -2.444941e+01   3.764907e+02
  -2.567117e+02  -1.790599e+00
  -7.414913e+01   3.981109e+01
   7.591452e+01   1.955900e+02
   3.530580e+02   2.223892e+02
   2.680582e+01   3.100532e+02
  -4.715607e+02   1.614171e+02
  -6.494670e+02  -1.349066e+02
  -2.335622e+02  -3.083523e+02
   3.244828e+02  -2.286228e+02
   4.777503e+02   1.421061e+02
   2.069203e+02   4.251705e+02
  -2.612577e+02   3.119992e+02
  -4.473453e+02   1.243650e+02
  -3.133687e+02  -1.095048e+02
  -1.002396e+02  -2.872886e+02
   2.669123e+01  -1.084345e+02
   2.652829e+01   1.716975e+02
  -1.448093e+02   1.899068e+02
  -1.919673e+02  -1.309808e+02
  -7.079316e+01  -4.916444e+02
   2.224950e+02  -4.673668e+02
   2.734240e+02   5.118884e+01
   5.970882e+01   2.924918e+02
  -1.529096e+02   1.976941e+02
  -1.094283e+02  -2.365900e+02
   1.322309e+02  -3.996123e+02
   4.424469e+02  -1.110754e+02
   5.000067e+02   3.833763e+02
   1.625256e+02   5.730693e+02
  -2.807290e+02   3.321663e+02
  -5.212535e+02  -4.559507e+01
  -3.834095e+02  -2.809533e+02
  -7.177307e+00  -2.314728e+02
   2.759381e+02  -1.008246e+02
   2.270838e+02   3.480375e+01
   9.517483e+00  -1.398108e+00
  -2.421990e+01  -6.389758e+01
   1.140583e+02  -2.121418e+01
   2.175288e+02   1.118032e+02
   1.070431e+02   2.300247e+02
  -1.702553e+02   2.360614e+02
  -3.659319e+02   1.341484e+02
  -2.428279e+02  -1.364863e+02
   4.143709e+01  -3.191520e+02
   2.832424e+02  -3.343734e+02
   3.299798e+02  -1.308651e+02
   2.027809e+02   1.562182e+02
   4.421093e+01   3.848017e+02
  -7.492940e+01   2.982709e+02
  -5.631401e+01   1.580566e+02
  -4.491928e+01   9.283864e+01
  -1.423384e+02   1.015053e+02
  -2.217629e+02   8.355104e+01
  -2.356488e+02  -8.558194e+01
  -1.167252e+02  -2.188903e+02
   4.354531e+01  -2.173230e+02
   1.588593e+02   2.759589e+01
   1.202170e+02   2.247453e+02
  -5.788758e+01   2.369658e+02
  -2.317130e+02   3.147896e+01
  -3.324518e+02  -2.081241e+02
  -1.608154e+02  -3.665473e+02
   4.993487e+01  -2.848338e+02
   1.793058e+02  -1.151083e+02
   1.409606e+02  -6.242728e+01
   1.470538e+02  -2.480688e+01
   2.618882e+02  -1.851086e+01
   4.046330e+02   7.797736e+01
   3.277198e+02   2.690960e+02
   1.778274e+01   4.326642e+02
  -3.386628e+02   3.812293e+02
  -4.417244e+02   1.823758e+02
  -3.149643e+02  -1.023967e+02
  -8.243603e+01  -2.432962e+02
   9.730624e+01  -1.939055e+02
   5.101834e+01   2.006681e+01
  -9.163873e+01   4.031553e+01
  -1.356593e+02  -3.516544e+01
   1.189685e+01  -1.298684e+02
   9.895384e+01  -7.651227e+01
   1.063537e+02   6.863544e+01
  -2.900233e+01   1.400473e+02
  -1.536931e+02   8.655384e+00
  -1.820340e+02  -2.335935e+02
   1.244909e+01  -3.550465e+02
   2.289015e+02  -2.191152e+02
   3.229936e+02   7.841448e+01
   2.772313e+02   2.420664e+02
   5.783173e+01   2.764017e+02
  -1.426491e+02   1.466184e+02
  -1.180666e+02  -8.042398e+00
  -1.481217e+01  -5.383349e+01
   5.466791e+01   7.256789e+00
   1.171583e+01   9.874172e+01
  -9.550577e+01   6.098174e+01
  -1.019840e+02   3.709075e+01
   7.549530e+00  -3.902992e+01
   1.112399e+02   5.166220e+01
   3.524495e+01   1.226157e+02
  -1.480464e+02   1.293256e+02
  -2.881916e+02   7.369318e-01
  -2.872392e+02  -1.591437e+02
  -4.961450e+01  -2.738397e+02
   1.647588e+02  -2.058344e+02
   2.584897e+02  -3.718374e+01
   1.326995e+02   5.322891e+01
  -2.683908e+01   5.672812e+01
  -9.784546e+01  -1.558705e+01
   2.423591e+01  -1.025185e+02
   1.831341e+02  -4.327431e+01
   2.294414e+02   9.905204e+01
   7.950545e+01   1.946663e+02
  -8.119940e+01   1.262144e+02
  -1.218640e+02   3.978080e+01
  -6.230081e+01  -2.075470e+01
  -1.199239e+01  -8.674066e+00
   2.867122e+01   1.378915e+02
  -7.073673e+01   1.664929e+02
  -1.983934e+02   6.770457e+01
  -1.858966e+02  -1.135390e+02
  -5.143680e+01  -1.889940e+02
   1.190252e+02  -1.580134e+02
   1.315135e+02  -3.047711e+01
   6.293956e+01   8.576155e+01
  -5.585021e+01   1.043069e+02
  -4.473708e+01   1.322189e+01
   2.593518e+01  -4.003447e+01
   5.469821e+01  -1.932650e+01
   6.491690e+00   7.968623e+00
  -9.110888e+01  -1.285117e+00
  -1.013605e+02  -7.919122e+01
   2.463661e+01  -1.972517e+02
   1.221702e+02  -1.363310e+02
   1.856808e+02   3.461727e+01
   1.749786e+02   2.010806e+02
   7.484495e+01   2.123658e+02
  -9.685311e+01   1.492528e+02
  -1.605269e+02   3.164263e+01
  -8.238323e+01  -4.330557e+01
  -2.707641e+01  -1.436940e+01
  -4.686686e+01   2.570168e+01
  -5.862463e+01   6.960154e+00
  -8.132144e+01  -4.629861e+01
   2.185847e+01  -8.308161e+01
   1.155966e+02  -1.503809e+01
   1.196512e+02   5.107209e+01
  -1.355521e+01   1.022251e+02
  -1.344767e+02   6.169988e+01
  -1.673977e+02  -5.866243e+01
  -5.076644e+01  -2.090889e+02
   1.364985e+02  -2.136625e+02
   2.429215e+02  -9.129840e+01
   1.880807e+02   3.049780e+01
   1.351693e+01   1.435849e+02
  -6.920822e+01   1.340901e+02
  -7.142550e+01   6.067477e+01
  -4.176703e+01   6.076558e+01
  -3.576094e+01   7.247608e+01
  -4.420536e+01   1.099635e+02
  -1.226656e+02  -1.477940e+01
  -1.115779e+02  -1.283311e+02
  -2.462542e+01  -1.898850e+02
   9.782465e+01  -1.224326e+02
   1.451224e+02   1.887208e+01
   9.914700e+01   1.292962e+02
   1.602283e+01   1.283070e+02
  -7.090642e+01   5.634874e+01
  -7.444722e+01  -1.147242e+01
  -1.970678e+00  -3.861099e+01
   5.415374e+01  -5.785699e+01
   7.168630e+00  -2.561920e+00
  -7.620856e+01  -2.637055e+01
  -4.339353e+01  -5.658827e+01
   5.322016e+01  -4.236406e+01
   1.146781e+02  -1.949619e+01
   1.086170e+02   6.626320e+01
  -1.206595e+01   5.842512e+01
  -1.247156e+02   9.126536e+01
  -1.262583e+02   3.127699e+01
  -4.189035e+01  -1.803745e+01
   4.048115e+01  -4.295293e+01
   8.176683e+01   2.955024e+01
   3.651661e+01   1.002984e+02
  -4.637409e+01   1.021096e+02
  -5.467502e+01   5.042490e+00
  -4.576397e+01  -6.560209e+01
  -3.826821e+01  -3.894235e+01
  -4.240736e+01   2.522475e+01
  -6.149801e+01   9.429296e+00
  -1.395593e+01  -7.511740e+01
   6.545289e+00  -1.670023e+02
   6.739473e+01  -1.407400e+02
   1.553661e+02  -2.199382e+00
   1.246889e+02   9.434578e+01
   1.457459e+01   1.364438e+02
  -7.413717e+01   6.126307e+01
  -7.690750e+01  -7.893446e+00
   4.814239e+01  -6.382470e+00
   8.803115e+01   4.308487e+00
   7.298914e+01   8.512697e+01
  -8.554611e+01   9.435948e+01
  -1.580360e+02   1.031035e+02
  -1.412636e+02  -2.060264e+01
   6.820388e+00  -7.194040e+01
   9.662728e+01  -8.614733e+01
   4.247562e+01  -2.260079e+00
  -3.407794e+01   3.379954e+01
  -9.304675e+01   4.066546e+01
  -3.824383e+01  -7.530737e+01
   5.721859e+01  -1.301253e+02
   9.246117e+01  -5.470097e+01
   8.917792e+01   6.904292e+01
  -3.962357e+00   1.693604e+02
  -7.225741e+01   1.340005e+02
  -9.518962e+01  -2.448774e+01
  -5.423344e+01  -1.361421e+02
   3.740134e+01  -9.042871e+01
   8.208709e+01  -1.652517e+01
   1.106226e+02   5.908657e+01
   3.856492e+01   1.963658e+01
   1.393914e+01  -1.212867e+00
  -7.327167e+00   3.218794e+01
   4.615460e+00   9.494683e+01
   7.924461e+01   8.472839e+01
  -3.392722e+01   3.315485e+01
  -8.078216e+01  -3.811467e+01
  -1.078921e+02  -6.297795e+01
  -2.500743e+00  -4.085710e+01
   7.572730e+01  -2.207083e+01
   1.066586e+02  -1.039562e+01
  -3.597031e+00   1.264309e+00
  -3.321405e+01   1.533101e+01
  -2.913312e+01   9.340773e+00
  -1.991714e+00   4.301083e+01
  -9.269520e+00   1.759319e+01
  -7.482509e+01  -5.924821e+00
  -1.025636e+02  -2.134427e+01
   1.833637e+01  -7.563409e+01
   1.320067e+02  -1.169383e+02
   1.611079e+02  -6.656731e+01
   1.365362e+02   5.731022e+01
   1.604401e+01   1.748180e+02
  -8.252530e+01   1.618195e+02
  -1.200596e+02   8.562078e+01
  -6.940962e+01  -7.395132e+01
  -7.719172e+01  -1.300094e+02
  -7.071773e+00  -4.374871e+00
   2.756580e+00   2.854965e+00
   1.189890e+01  -4.939857e+01
  -1.436171e+01  -7.492663e+01
   7.185680e+01  -3.726543e+01
   7.714127e+01   4.373589e+01
   8.718109e+01   1.274319e+02
   7.283526e-01   1.403183e+02
  -4.460913e+01   6.319623e+01
  -8.113601e+01  -7.057697e+01
  -4.988800e+01  -1.092019e+02
   4.925506e+01  -3.983476e+01
   1.300336e+02   5.064238e+01
   6.583429e+01   5.558918e+01
  -2.477935e+01   8.441649e+01
  -1.757414e+01   7.685674e+00
   3.248884e+01  -3.428180e+01
   4.576702e+01  -3.928850e+00
   3.976995e+01   2.307564e+01
  -3.306797e+01   5.903509e+01
  -1.129268e+02   5.614318e+01
  -6.030693e+01  -9.888399e+00
   1.296896e+01  -8.753481e+01
   5.639391e+01  -7.192356e+01
   4.784915e+01  -2.438320e+01
   1.166657e+01   3.814077e+01
  -3.079663e+01   6.990782e+01
  -1.990813e+01  -6.026545e+00
  -2.959480e+01  -3.441817e+01
  -2.704490e+01  -7.394139e+01
   6.095224e+01   1.108833e+00
   6.120880e+01   1.746600e+01
   1.028651e+01   1.285618e+01
  -1.078390e+00  -1.167934e+01
   2.203501e+01   1.218740e+01
   8.110111e+00   2.474236e+01
  -2.089213e+01   6.394710e+01
  -2.696165e+01   2.655518e+01
  -5.390587e+01  -5.317576e+00
   2.962841e+00  -2.917728e+01
   3.736646e+01  -1.147937e+01
   5.252047e+01   3.929300e+01
   4.987672e+00   7.522742e+01
  -4.330179e+01   5.087007e+01
  -9.815034e+01   3.040216e+01
  -4.854654e+01  -1.405147e+01
   9.279466e+00  -3.514760e+01
   4.325459e+01  -2.365100e+01
   3.134791e+01  -2.027111e+01
   2.062367e+00   5.708388e+00
   1.127377e+00   1.017581e+01
   4.385527e+00  -2.695820e+01
   6.561649e+01  -2.276411e+01
