
 $NMID
 id='ANONYMOUS ', fmtdat='(2E16.6)'
 volume=1.0
 tramp=1.0
 $END
   3.182574e+03   7.622075e+01
   1.898874e+03   1.676984e+03
   1.300018e-01   1.911311e+03
  -1.204415e+03   1.236320e+03
  -1.021344e+03   3.330906e+01
  -2.720422e+01  -1.198504e+02
   4.703997e+02   1.179052e+02
  -3.342214e+01   5.355237e+02
  -3.984865e+02   5.440161e+02
  -6.419551e+02   1.213347e+02
  -3.854717e+02  -5.593256e+02
   7.819834e+01  -5.980527e+02
   2.234461e+02  -2.861907e+02
   3.481874e+02   6.183362e+02
  -1.023285e+02   4.713419e+02
  -3.555171e+02  -4.430467e+01
  -1.615175e+02  -5.339501e+02
   8.778930e+01  -5.770811e+02
   4.322538e+02  -1.903336e+02
   4.009571e+02   2.101306e+02
   2.515084e+02   2.603288e+02
   1.307986e+02   8.316070e+01
   1.813001e+01   2.196256e+02
   1.592153e+02   7.685541e+01
   2.178122e+02   1.764154e+02
   1.081978e+01   3.238919e+02
  -4.614549e+02   1.319035e+02
  -6.232421e+02  -4.776897e+01
  -2.060685e+02  -3.597829e+02
   3.233269e+02  -2.457173e+02
   5.757058e+02   9.687162e+01
   2.195248e+02   5.364977e+02
  -2.361251e+02   2.034218e+02
  -3.970221e+02   1.266779e+02
  -2.994940e+02  -1.722996e+02
  -1.057590e+02  -2.916361e+02
   1.949271e+01  -2.087736e+02
  -3.828951e+01   1.530422e+02
  -1.496211e+02   8.309973e+01
  -2.146033e+02  -1.203325e+02
   3.407975e+01  -4.728656e+02
   2.599262e+02  -4.309372e+02
   3.306656e+02   4.890822e+01
   1.483795e+02   2.947826e+02
  -1.295151e+02   8.188399e+01
  -1.076172e+02  -3.032485e+02
   9.075036e+01  -3.831313e+02
   4.434334e+02  -1.159845e+02
   4.551157e+02   3.288908e+02
   2.263614e+02   4.495730e+02
  -1.926566e+02   2.438174e+02
  -4.167136e+02  -2.392739e+00
  -2.939561e+02  -2.090969e+02
   6.168598e+01  -1.418712e+02
   2.984851e+02  -4.988170e+01
   1.950396e+02   4.413393e+01
  -9.862560e+00  -2.083401e+00
  -5.142006e+01  -3.419163e+01
   1.024862e+02   1.172397e+00
   2.320959e+02   9.156471e+01
   1.399853e+02   2.419475e+02
  -1.658100e+02   2.118749e+02
  -3.478415e+02   1.057113e+02
  -2.705376e+02  -1.382305e+02
  -1.466094e+01  -3.248781e+02
   2.776339e+02  -3.012370e+02
   3.662924e+02  -1.533219e+02
   2.755364e+02   1.536238e+02
   5.413276e+01   3.392981e+02
  -4.763864e+01   3.188770e+02
  -5.500493e+01   1.453038e+02
  -5.739601e+01   1.101903e+02
  -6.206109e+01   1.322324e+02
  -2.414755e+02   1.100752e+02
  -2.373807e+02  -7.959977e+01
  -7.945281e+01  -2.188353e+02
   9.143073e+01  -1.649910e+02
   1.853566e+02   8.475969e+01
   8.751493e+01   2.326994e+02
  -7.393721e+01   2.994807e+02
  -2.135323e+02   5.106627e+01
  -2.770001e+02  -1.522548e+02
  -1.632050e+02  -3.240105e+02
   3.316858e+01  -2.251260e+02
   1.353167e+02  -1.366878e+02
   1.369429e+02  -4.483359e+01
   1.818270e+02  -4.349505e+01
   3.001590e+02  -6.303420e+01
   3.916109e+02   4.372419e+01
   3.069855e+02   3.022880e+02
  -1.955433e+01   4.349771e+02
  -3.579319e+02   4.399729e+02
  -4.451568e+02   1.324093e+02
  -2.781747e+02  -9.666072e+01
  -2.616566e+00  -2.551893e+02
   9.709542e+01  -1.746046e+02
   1.455268e+01  -6.267485e+01
  -1.052135e+02   5.995198e+01
  -1.224793e+02  -6.348535e+01
   7.632487e-01  -1.427709e+02
   1.381701e+02  -1.261576e+02
   1.347528e+02   4.664637e+01
  -3.737550e+01   1.572384e+02
  -2.200158e+02  -1.668773e+01
  -1.224394e+02  -2.139399e+02
   2.493978e+01  -3.543302e+02
   2.733694e+02  -2.309737e+02
   3.185085e+02   4.627338e+01
   2.490206e+02   2.237796e+02
   5.521325e+01   2.386666e+02
  -1.233311e+02   1.829351e+02
  -1.193501e+02   1.261067e+01
  -2.325082e+01  -6.840826e+00
   1.023495e+01   4.121372e+01
  -2.596517e+01   1.211678e+02
  -1.520221e+02   4.103568e+01
  -1.437113e+02  -7.695655e+01
  -7.828292e+00  -4.787930e+01
   1.091320e+02  -2.109312e+01
   7.561671e+01   1.045570e+02
  -7.251791e+01   7.543654e+01
  -2.460510e+02  -2.877599e+01
  -2.290683e+02  -1.677463e+02
  -9.046107e+01  -2.417362e+02
   1.860805e+02  -2.256649e+02
   2.530312e+02  -5.843878e+01
   1.465905e+02   6.644724e+01
  -6.276993e+01   1.284854e+02
  -1.126560e+02  -5.438905e+01
   3.970693e+01  -1.235945e+02
   2.162309e+02  -3.109617e+01
   2.057829e+02   6.234608e+01
   7.723578e+01   1.652487e+02
  -9.634410e+01   8.292942e+01
  -7.490214e+01  -3.428939e-01
  -2.266139e+01  -3.105943e+01
   6.078205e+01   6.078934e+01
   4.677671e+01   1.369982e+02
  -1.198560e+02   1.059218e+02
  -1.952871e+02   1.507012e+01
  -1.805321e+02  -9.292142e+01
  -5.857989e+01  -1.687870e+02
   1.625468e+02  -1.345813e+02
   1.474885e+02   6.087682e+00
   1.061408e+02   1.165592e+02
  -3.233698e+01   8.556566e+01
  -7.472379e+01   2.615334e+01
  -1.568788e+01  -2.805164e+01
   7.360751e+00  -2.775987e+01
   1.106257e+01  -2.795009e+00
  -5.711393e+00   1.740042e+00
  -3.726091e+01  -7.723709e+01
  -1.142168e+01  -1.577063e+02
   1.409653e+02  -1.449992e+02
   2.194867e+02   2.026647e+01
   1.666349e+02   1.328600e+02
   3.698897e+01   2.332377e+02
  -1.362735e+02   1.600674e+02
  -1.349834e+02  -3.103119e+00
  -6.938271e+01  -6.793754e+01
  -9.626232e+00  -7.715571e+01
   1.063385e+01  -3.119384e+00
  -7.069835e+01  -1.555441e+01
  -1.573082e+01  -1.368353e+01
   4.928183e+01  -6.151875e+01
   1.002641e+02  -3.286213e+01
   9.054436e+01   8.150048e+00
  -1.764205e+01   1.255306e+02
  -2.056557e+02   1.014900e+02
  -1.735064e+02  -9.638735e+00
  -7.628698e+01  -1.876180e+02
   9.493372e+01  -2.165051e+02
   1.437682e+02  -6.693792e+01
   1.962642e+02   9.767050e+01
   4.873891e+01   1.088922e+02
  -2.712131e+01   7.933096e+01
  -5.483265e+01   4.212108e+01
  -1.114592e+02   8.032287e+01
  -8.836206e+01   6.564439e+01
  -1.193320e+02   9.628880e+01
  -9.958111e+01   2.130305e+00
  -4.723955e+01  -1.346414e+02
  -2.936817e+01  -2.254146e+02
   7.024156e+01  -1.464965e+02
   1.087933e+02   3.169755e+01
   1.061725e+02   1.015196e+02
   1.293765e+01   1.344918e+02
  -9.749086e+01   5.954332e+01
  -8.919739e+01  -1.757674e+01
  -1.424716e+01  -2.932745e+01
   8.511353e+01  -6.965324e+00
  -1.183990e+00  -4.339389e+00
  -6.102745e+01  -7.963448e+00
  -5.354247e+01   6.158949e+00
   3.093664e+01  -2.594251e+01
   1.601740e+02   9.547890e+00
   1.455252e+02   5.663050e+01
   2.688235e-01   6.295386e+01
  -1.415292e+02   8.628049e+01
  -1.527682e+02   8.507795e+00
  -9.840376e+00  -5.897856e+01
   7.456298e+01  -9.768313e+00
   3.896496e+01   3.818915e+00
   6.572189e+00   8.767655e+01
  -5.706211e+01   9.259581e+01
  -4.370288e+01  -4.747970e+00
  -3.084624e+00  -6.294697e+01
  -3.204356e+01  -5.277694e+01
  -3.372523e+01   3.092617e+01
  -5.548715e+01   3.350316e+01
  -5.920113e+00  -6.803409e+01
   5.562543e+01  -1.042726e+02
   3.696636e+01  -1.683762e+02
   1.518334e+02  -7.288304e+01
   1.324744e+02   1.102147e+02
  -4.079313e+01   1.034186e+02
  -9.558101e+01   5.953766e+01
  -2.049936e+01  -4.019537e+01
   3.761584e+01   7.288755e+00
   1.287334e+02   3.498908e+01
   5.983680e+01   6.647119e+01
  -3.719765e+01   7.372918e+01
  -1.748611e+02   5.140055e+01
  -1.338739e+02  -1.853082e+01
  -5.325585e+01  -8.315700e+01
   4.422396e+00  -9.270026e+01
   4.277126e+01  -5.710806e+01
  -5.430212e+01   1.511187e+01
  -8.095765e+01  -6.175260e+00
  -4.121993e+01  -8.376473e+01
   7.517155e+01  -1.726773e+02
   1.246269e+02  -8.781570e+01
   9.050082e+01   9.051324e+01
   6.497385e+00   1.914875e+02
  -3.152676e+01   1.116406e+02
  -6.227798e+01  -2.576977e+01
  -4.091507e+01  -1.419346e+02
   5.950921e+00  -9.302155e+01
   3.824553e+01  -1.406076e+01
   6.174733e+01   1.302304e+01
   3.607875e+01  -1.611812e+01
  -3.677979e+01  -2.231484e+01
   5.371304e+00   2.772887e+01
   1.103803e+01   1.171106e+02
   2.124010e+01   8.172034e+01
  -1.598776e+01   2.563876e+01
  -1.508236e+02  -6.175034e+01
  -1.077941e+02  -8.393212e+01
   9.331699e-03  -2.690724e+01
   8.453053e+01  -1.686965e+01
   7.699646e+01   8.099989e+00
   6.030390e+00   8.220544e+00
  -9.583174e+00  -2.020839e+00
  -6.929510e+00   4.932201e+01
   5.033857e+00  -2.038073e+01
   7.601995e+00  -5.670339e+01
  -5.373427e+01  -1.377839e+01
  -5.358393e+01  -2.457314e+00
  -2.384613e+01  -7.353418e+01
   1.403533e+02  -7.615948e+01
   1.783926e+02  -6.288285e+01
   1.139508e+02   6.619246e+01
  -9.397582e-01   1.542731e+02
  -5.077459e+01   1.511799e+02
  -1.170480e+02   4.814352e+01
  -2.965889e+01  -8.489833e+00
  -4.617963e+01  -5.101740e+01
  -5.324186e+00  -1.408962e+00
   1.725910e+01  -2.153350e+01
  -1.076261e+01  -4.693169e+01
  -4.669671e+01  -9.083793e+01
  -8.134271e+00  -3.998225e+01
   3.306192e+01   2.565288e+01
   1.088301e+02   1.036068e+02
   1.371435e+01   8.221218e+01
  -9.824682e+01   5.573954e+00
  -1.166147e+02  -3.132228e+01
  -3.043258e+01  -8.902232e+01
   7.950836e+01  -1.837363e+01
   7.678337e+01   8.128977e+00
   4.704437e+01   5.247467e+01
  -3.698096e+00   6.328109e+01
  -1.391662e+01   5.905597e+01
   7.355730e+00   1.307487e+01
   7.156846e+01  -3.277272e+01
  -2.346081e+01   9.017905e+00
  -1.044564e+02   7.587583e+01
  -8.897925e+01   6.558314e+01
  -6.471620e+01  -3.037845e+00
  -1.190436e+01  -8.547541e+01
   2.705992e+01  -7.686258e+01
   3.800459e+01   7.111019e+00
   3.219048e+01   6.308259e+01
  -2.775191e+01   6.656192e+01
  -2.480507e+01  -3.601344e+01
  -2.143862e+01  -3.354348e+01
   2.288093e+01   3.453620e+00
   2.676639e+01   3.461035e+00
   6.222848e+01   5.926800e+01
  -3.652791e+00   3.862969e+00
  -5.050399e+00   3.595170e+01
   2.105565e+00  -1.645508e+01
  -2.870801e+01   2.741909e+01
  -1.870896e+01   3.618976e+01
  -9.923025e+00   1.806689e+01
  -4.468142e+01  -6.680917e+01
  -1.410063e+01  -4.961592e+01
   3.631203e+01  -2.485832e+01
   9.082939e+01   1.484894e+01
   6.971746e+01   8.448997e+01
  -5.637554e+01   2.040971e+01
  -4.808199e+01   8.950412e+00
  -7.616981e+01  -1.131511e+01
  -8.409234e+00  -6.144166e+01
   2.130753e+01  -1.260898e+00
   1.619330e+01  -1.200512e+01
  -3.297173e+01   1.008115e+01
  -1.459147e+01  -1.029846e+01
   1.153237e+01  -1.424592e+01
   4.415621e+01  -1.182738e+01
