
 $NMID
 id='ANONYMOUS ', fmtdat='(2E16.6)'
 volume=1.0
 tramp=1.0
 $END
  -3.591807e+03  -8.775564e+01
  -2.234301e+03  -1.825560e+03
   2.695175e+02  -2.151709e+03
   1.546744e+03  -1.216988e+03
   1.117103e+03   1.633124e+02
  -7.309161e+01   2.805475e+02
  -5.859389e+02  -2.432693e+02
  -5.759079e+01  -7.768836e+02
   5.411136e+02  -6.830520e+02
   6.830487e+02   9.637143e+00
   6.148642e+02   6.354515e+02
  -1.272414e+02   7.255436e+02
  -5.853781e+02   1.481566e+02
  -3.131049e+02  -5.799536e+02
   2.172911e+02  -6.738289e+02
   4.401598e+02  -1.265051e+02
   2.582013e+02   3.924074e+02
  -2.731685e+02   6.114871e+02
  -5.190625e+02   4.948742e+01
  -5.226459e+02  -3.275855e+02
  -3.823797e+01  -2.948675e+02
  -3.895894e+01  -4.253957e+02
   1.857469e+02  -1.655466e+02
  -7.517056e+01   9.458230e+00
  -2.449276e+02  -2.573648e+02
  -8.305309e+01  -3.978035e+02
   5.046771e+02  -2.190252e+02
   8.086759e+02   2.343288e+02
   3.517663e+02   4.804324e+02
  -3.482392e+02   2.887365e+02
  -6.462717e+02  -9.781352e+01
  -2.508885e+02  -4.123390e+02
   2.214173e+02  -3.253074e+02
   3.859395e+02  -2.051611e+02
   3.407698e+02   1.186852e+02
   1.265700e+02   3.068836e+02
  -3.222072e+01   2.137454e+02
  -4.190466e+01  -1.580972e+02
   9.990727e+01  -2.723562e+02
   2.624820e+02   5.682676e+01
   5.775710e+01   4.510749e+02
  -2.756630e+02   5.213317e+02
  -4.487711e+02   3.929525e+01
  -1.054414e+02  -3.984793e+02
   2.032225e+02  -2.173553e+02
   2.663842e+02   2.371270e+02
  -8.325750e+01   4.035671e+02
  -4.396379e+02   1.205063e+02
  -4.844985e+02  -3.281798e+02
  -1.432854e+02  -5.282745e+02
   3.505041e+02  -3.109044e+02
   5.497893e+02   3.865695e+01
   3.866500e+02   3.101111e+02
  -3.884822e+01   2.950475e+02
  -3.259197e+02   1.042057e+02
  -2.226948e+02  -5.211656e+01
  -2.835979e+01  -3.766788e+01
   2.171305e+01   7.488784e+01
  -1.641918e+02   1.022444e+02
  -2.640451e+02  -3.260758e+01
  -1.274656e+02  -2.596215e+02
   1.882394e+02  -3.382899e+02
   3.634692e+02  -1.761093e+02
   2.754810e+02   1.014990e+02
   1.426697e+00   3.285593e+02
  -2.636620e+02   3.732718e+02
  -3.614214e+02   1.958010e+02
  -2.822031e+02  -1.520737e+02
  -5.717357e+01  -3.610332e+02
   2.396003e+01  -3.300846e+02
   5.598890e+01  -1.621564e+02
   5.702643e+01  -9.693098e+01
   1.133671e+02  -1.175169e+02
   2.329074e+02  -1.092713e+02
   2.310757e+02   1.228370e+02
   1.280472e+02   2.976192e+02
  -7.603217e+01   2.375794e+02
  -2.086213e+02  -1.928864e+01
  -1.753684e+02  -2.479408e+02
   5.543233e+01  -2.560772e+02
   2.769661e+02  -1.042334e+02
   3.508310e+02   1.655198e+02
   1.535860e+02   3.154017e+02
  -7.091335e+01   2.628033e+02
  -1.681488e+02   1.289033e+02
  -1.987734e+02   7.700642e+01
  -1.616056e+02   4.166588e+01
  -2.576586e+02   3.034590e+01
  -3.686789e+02  -1.528198e+02
  -3.409598e+02  -3.294494e+02
   1.566558e+01  -3.991770e+02
   3.747239e+02  -3.605070e+02
   5.131689e+02  -1.709359e+02
   3.309360e+02   2.995904e+01
   6.239364e+01   2.437619e+02
  -1.177684e+02   2.364424e+02
  -6.232022e+01   5.647349e+01
   5.151132e+01  -5.012431e+01
   1.266765e+02  -6.671657e+00
   5.034549e+01   9.368135e+01
  -1.210732e+02   8.427012e+01
  -1.052025e+02  -1.043897e+01
   1.563052e+01  -8.801782e+01
   1.794825e+02  -4.232440e+00
   1.376283e+02   2.183213e+02
  -2.723622e+01   3.136158e+02
  -2.242616e+02   2.081148e+02
  -3.897103e+02  -1.885936e+01
  -2.901063e+02  -2.232191e+02
  -5.709325e+01  -2.926893e+02
   1.659483e+02  -1.892366e+02
   1.698841e+02  -2.614371e+01
   9.550132e+01   3.142313e+01
  -6.329994e+01  -2.441174e+01
  -3.901489e+00  -1.207574e+02
   1.387959e+02  -6.624246e+01
   2.054346e+02   1.001950e+01
   3.918957e+01   4.830032e+01
  -1.042988e+02   4.097027e+01
  -5.930205e+01  -7.501814e+01
   1.503837e+02  -7.216611e+01
   3.165183e+02  -5.696368e+00
   2.485395e+02   1.544095e+02
   6.576162e+01   2.165618e+02
  -1.468828e+02   2.537436e+02
  -2.501925e+02   1.100878e+02
  -1.445404e+02  -1.596018e+01
   6.042864e+00  -3.491827e+01
   5.828116e+01   8.543892e+00
  -9.609692e+01   4.237293e+01
  -2.013888e+02   1.095435e+01
  -1.791965e+02  -9.919945e+01
  -5.656850e+01  -2.000993e+02
   1.015313e+02  -1.482366e+02
   1.294308e+02  -9.476784e+00
   2.709401e+01   4.637927e+01
  -4.711895e+01  -1.852872e+01
  -4.743531e+01  -3.338246e+01
   9.830626e+01  -1.101201e+02
   1.970164e+02  -4.621214e+01
   1.280288e+02   1.220303e+02
   1.735193e+00   1.888942e+02
  -1.046120e+02   1.445095e+02
  -1.727075e+02  -5.305438e+00
  -7.238308e+01  -1.057588e+02
   7.621830e+01  -9.558189e+01
   7.744598e+01  -4.684946e+01
  -1.124835e+01   1.928999e+01
  -2.301790e+01   6.623584e+00
   3.909702e+01   8.974338e-01
   8.840114e+01  -2.074603e+00
   8.931233e+01   8.348808e+01
   2.183615e+01   1.608484e+02
  -1.633293e+02   1.525664e+02
  -2.269366e+02   1.660137e+00
  -1.795527e+02  -1.590992e+02
  -2.857997e+01  -2.444957e+02
   9.853820e+01  -1.671948e+02
   1.293224e+02  -1.870774e+00
   3.198988e+01   5.398023e+01
   6.236743e+01   5.378834e+01
   3.873492e+01  -2.266669e+00
   7.738259e+01  -4.297543e+00
  -1.346366e+00   3.953884e+01
  -4.812970e+01   1.072652e+02
  -1.416423e+02   2.403686e+01
  -9.592559e+01  -6.878943e+01
   2.568955e+01  -1.644800e+02
   1.740080e+02  -8.487184e+01
   2.059998e+02   5.539334e+01
   6.791881e+01   2.448472e+02
  -1.115751e+02   2.355428e+02
  -2.604193e+02   8.207575e+01
  -2.821341e+02  -9.194609e+01
  -1.341512e+02  -1.469162e+02
   1.420344e+01  -1.485230e+02
   8.454418e+01  -8.993645e+01
   7.991289e+01  -5.090461e+01
   8.197142e+01  -6.849635e+01
   1.158881e+02  -8.787785e+01
   9.981223e+01   7.446614e+01
   1.133809e+02   1.445523e+02
   4.840267e+00   2.163436e+02
  -1.163071e+02   1.313922e+02
  -1.638808e+02  -1.685381e+01
  -9.167347e+01  -1.059092e+02
   8.472292e+00  -1.439763e+02
   7.446274e+01  -1.009654e+02
   6.195778e+01  -5.387009e+00
  -2.257359e-01  -1.261902e+01
  -6.733315e+00   4.080518e+01
   5.607806e+01  -9.917390e+00
   8.252148e+01  -1.302550e+00
   5.011688e+01   4.420019e+01
  -9.833639e+01   3.187823e+01
  -1.790210e+02  -4.705934e+00
  -1.129983e+02  -6.676584e+01
   6.055578e+00  -8.508862e+01
   1.331259e+02  -8.605775e+01
   1.251400e+02   3.520701e+01
   2.421908e+01   8.281910e+01
  -3.953623e+01   2.923527e+01
  -4.465305e+01  -3.476915e+01
  -5.459279e+01  -3.806004e+01
   5.672612e+00  -5.492545e+01
   5.683410e+01  -1.864271e+00
   3.884487e+01   6.461599e+01
   4.845268e+01   3.212259e+01
   6.192241e+01  -1.438093e+01
   3.616301e+01  -4.364971e+00
   5.032188e+01   1.107533e+02
  -1.573185e+00   1.673887e+02
  -1.193036e+02   1.370101e+02
  -1.507547e+02   2.686602e+01
  -1.183157e+02  -9.035953e+01
  -1.307943e+01  -1.345195e+02
   7.058000e+01  -1.969754e+01
   6.487385e+01  -3.057484e+00
  -4.911307e+01   5.021855e+00
  -1.097384e+02  -5.882609e+01
  -6.754867e+01  -7.760349e+01
   9.475480e+01  -1.229783e+02
   1.941205e+02  -4.792952e+01
   1.421684e+02   8.564007e+01
   1.845456e+01   6.317931e+01
  -1.074401e+02   4.468019e+01
  -6.809924e+01  -1.590552e+01
   2.745752e+01  -4.989787e+01
   1.047388e+02   4.681954e+01
   5.910117e+01   1.227178e+02
  -9.919261e+01   1.742390e+02
  -1.481828e+02   7.132330e+01
  -1.825055e+02  -8.960428e+01
  -5.314046e+01  -1.668782e+02
   5.510963e+01  -1.610186e+02
   1.127532e+02  -2.629918e+01
   6.141642e+01   1.199155e+02
   2.808376e+01   8.336879e+01
  -5.323611e+01   5.165562e+01
  -5.358854e+01   4.345754e-01
   4.487979e-01  -1.220422e+00
   1.425476e+01   3.091789e+01
  -6.276871e+01  -8.727559e-02
  -4.760116e+01  -8.644821e+01
  -1.039606e+01  -9.934492e+01
   4.598725e+01  -4.899134e+00
   1.275699e+02   4.301978e+01
   1.084192e+02   8.859913e+01
  -3.576789e+01   8.669566e+01
  -1.184834e+02  -1.746534e+01
  -8.812711e+01  -4.437938e+01
  -5.185640e+00  -2.609766e+01
   4.467901e+01  -3.638715e+01
   4.999273e+01  -7.224572e+00
  -2.078784e+01  -1.714426e+01
  -3.156563e+01  -2.664336e+01
   3.794378e+01   6.315927e+00
   8.064584e+01   4.473066e+00
   4.249368e+01   4.696216e+01
  -8.789424e+01   9.482125e+01
  -1.392513e+02   3.866025e+01
  -1.307051e+02  -5.208845e+01
  -6.400585e+01  -1.269035e+02
   7.802940e+01  -1.497560e+02
   1.059318e+02  -7.080237e+01
   8.196423e+01  -2.822294e+01
  -2.314951e-01   3.161782e+01
   2.798265e+01  -3.171587e+01
   2.209558e+01  -7.374933e-01
   8.053689e+01   5.558479e+01
  -1.826463e+00   5.291398e+01
  -3.642486e+01   3.887057e+01
  -7.452406e+01  -4.776432e+01
  -5.867547e+01  -1.006921e+02
   3.689671e+01  -1.178960e+02
   1.020460e+02  -1.770793e+01
   9.654002e+01   8.359920e+01
   1.538469e+01   8.163135e+01
  -9.080579e+01   7.702440e+01
  -1.154532e+02  -6.400396e+01
  -2.757636e+01  -9.235793e+01
   7.849469e+01  -7.211672e+01
   1.062375e+01  -1.274674e+01
   1.174098e+00  -2.012110e+00
  -6.870351e+01   5.333151e+01
  -3.619357e+01  -1.720110e+01
   9.837077e+01  -1.021736e+02
   1.070704e+02  -6.127475e+01
   6.189671e+01   4.399718e+01
   2.256104e+01   1.208557e+02
  -7.610725e+01   1.293829e+02
  -5.503523e+01  -1.536792e+01
  -5.949768e+01  -4.201922e+01
   6.287673e+00  -4.064369e+01
   5.567125e+00  -4.447953e+00
  -6.914822e-01   6.536238e+01
  -2.665088e+01   2.860537e+01
  -4.276710e+01  -2.222846e+01
  -5.831077e+01  -1.226026e+01
  -1.396173e+01   2.794397e+01
  -4.513320e+01   1.433093e+01
   2.660819e+01   6.095702e+00
   1.710678e+00  -9.607259e+01
  -1.811534e+01  -5.632031e+01
   2.322866e+01  -3.417370e+00
   5.436869e+01   5.316536e+01
  -1.369842e+00   8.800182e+01
  -5.744794e+01   7.115606e+01
  -7.473145e+01  -5.401947e+00
  -2.485151e+01  -3.984200e+01
   3.330119e+01  -6.436510e+01
   7.266188e+01  -1.542154e+01
   8.590700e+01   6.704986e+01
   9.327159e+00   6.287362e+01
  -6.518657e+01   6.231582e+00
  -1.815881e+01   3.012236e+01
   1.373883e+01  -1.124024e+01
  -1.381217e+01   2.044806e+01
  -2.381533e+01   5.089519e+00
  -6.044161e+01  -3.030814e+01
