
 $NMID
 id='ANONYMOUS ', fmtdat='(2E16.6)'
 volume=1.0
 tramp=1.0
 $END
  -2.709402e+03   4.680217e+01
  -1.501812e+03  -1.675602e+03
   1.130503e+02  -1.744102e+03
   1.001088e+03  -8.636653e+02
   7.958250e+02  -8.420852e+01
  -7.498867e+01   1.490770e+02
  -3.234820e+02  -1.965183e+02
   1.547714e+02  -5.650223e+02
   4.214665e+02  -5.076482e+02
   5.185564e+02   2.223972e+01
   3.384052e+02   3.979048e+02
  -2.267219e+02   6.162891e+02
  -2.557632e+02   2.613316e+02
  -1.282491e+02  -3.837670e+02
   8.702457e+01  -5.455883e+02
   4.193899e+02   2.033839e+02
   1.272131e+01   3.786624e+02
   5.490988e+01   5.579949e+02
  -4.217250e+02   5.078580e+01
  -2.714828e+02  -1.923839e+02
  -2.199799e+02  -3.941695e+02
  -6.087105e+01  -3.072680e+02
   1.791269e+02  -1.096259e+02
   3.395564e+01  -1.363623e+02
  -7.783483e+01  -1.671198e+02
  -3.153895e+01  -3.357900e+02
   3.937408e+02  -8.526964e+01
   5.518239e+02   1.840426e+02
   3.711494e+02   3.924239e+02
  -2.133619e+02   4.021291e+02
  -4.465467e+02   3.790722e+01
  -1.697741e+02  -3.755777e+02
   1.925297e+02  -2.165411e+02
   3.602170e+02  -1.366190e+02
   2.329748e+02   9.222318e+01
   9.676735e+01   2.780393e+02
  -9.999357e+01   1.583186e+02
  -1.400397e+01  -1.663884e+02
   1.003449e+02  -1.553593e+02
   2.073139e+02   9.273709e+00
   6.949275e+01   3.676238e+02
  -1.388095e+02   3.052333e+02
  -2.478613e+02   2.312885e+01
  -3.482021e+01  -1.982600e+02
   2.145469e+02  -1.048918e+02
   1.979358e+02   2.496052e+02
  -5.345477e+01   3.063250e+02
  -3.514916e+02   6.443031e+01
  -3.630404e+02  -2.735687e+02
  -8.449972e+01  -3.351678e+02
   2.527843e+02  -1.628214e+02
   4.324720e+02   9.520287e+01
   2.630545e+02   2.401411e+02
  -3.624747e+01   1.795011e+02
  -2.558107e+02   6.648941e+01
  -1.554707e+02  -1.247128e+01
  -1.946455e+01  -2.839979e+01
   4.457615e+01   6.501507e+01
  -9.785380e+01   9.097698e+01
  -1.877510e+02  -4.920142e+01
  -8.375716e+01  -2.305136e+02
   1.853728e+02  -2.488315e+02
   2.955400e+02  -8.022584e+01
   2.144948e+02   1.408485e+02
  -2.931115e+01   3.062021e+02
  -2.451404e+02   2.738120e+02
  -3.001163e+02   1.194839e+02
  -1.712738e+02  -1.358143e+02
  -3.550131e+01  -3.031352e+02
   4.282126e+01  -2.459108e+02
   3.318097e+01  -8.352395e+01
   4.510790e+01  -4.617478e+01
   1.100828e+02  -1.042123e+02
   1.798456e+02  -5.358933e+01
   1.404342e+02   1.127666e+02
   6.568456e+01   2.107126e+02
  -6.461794e+01   1.535181e+02
  -1.365593e+02  -5.243834e+01
  -1.403943e+02  -2.178128e+02
   4.922065e+01  -1.889335e+02
   1.810203e+02  -5.266334e+01
   2.315284e+02   1.242008e+02
   1.125791e+02   2.266805e+02
  -1.914271e+01   1.759035e+02
  -1.524148e+02   1.109597e+02
  -1.490857e+02   5.313025e+01
  -1.182849e+02   3.388503e+01
  -1.843931e+02  -2.190064e+01
  -2.864800e+02  -1.145563e+02
  -2.243598e+02  -2.406731e+02
   6.200330e+01  -2.976622e+02
   3.156247e+02  -2.639037e+02
   3.791600e+02  -1.106557e+02
   2.138312e+02   1.107911e+02
  -3.894189e+00   2.212143e+02
  -9.031396e+01   1.926871e+02
  -3.458191e+01   3.050813e+01
   6.831961e+01  -7.671510e+01
   8.930256e+01  -1.738198e+01
  -1.707421e+00   1.033825e+02
  -1.097364e+02   8.541664e+01
  -4.783436e+01  -3.251321e+01
   7.766334e+01  -1.209056e+02
   1.579275e+02  -3.382172e+01
   1.296627e+02   1.976074e+02
  -3.683539e+01   3.066829e+02
  -1.932511e+02   1.952029e+02
  -2.631670e+02  -2.224463e+01
  -2.326047e+02  -2.238057e+02
  -9.907533e+01  -1.959628e+02
   4.330273e+01  -1.474048e+02
   9.484920e+01  -3.050455e+01
   4.430231e+01  -1.613957e+01
  -8.077490e-01  -8.178050e+01
   1.292477e+01  -1.040264e+02
   1.053506e+02  -3.398060e+01
   1.365380e+02   2.297843e+01
   7.522209e+01   6.840436e+01
  -6.995195e+01  -3.435131e+00
  -3.448581e+01  -7.778701e+01
   1.276562e+02  -1.577618e+01
   1.964883e+02   2.888438e+01
   1.863268e+02   1.055750e+02
   1.264919e+01   1.473998e+02
  -1.530107e+02   1.497185e+02
  -2.024522e+02   6.554527e+01
  -1.039906e+02  -3.121824e+01
   1.759736e+01  -3.660379e+01
   9.993237e+01   4.872622e+00
  -2.609278e+01   7.273765e+01
  -1.889725e+02   2.395638e+01
  -1.550111e+02  -9.107260e+01
  -1.712110e+01  -1.613805e+02
   7.671479e+01  -7.553564e+01
   4.014921e+01   2.347314e+01
  -1.449424e+01   3.003365e+01
   3.356241e-01  -2.158407e+01
   7.886483e+00  -1.220400e+02
   7.215422e+01  -1.452652e+02
   1.841572e+02  -1.407232e+01
   1.386423e+02   9.660539e+01
   4.878711e+01   1.761806e+02
  -1.015059e+02   1.534661e+02
  -1.173813e+02  -9.018193e-01
  -5.285167e+01  -8.820478e+01
   4.084842e+01  -4.497675e+01
   1.335152e+01  -1.990127e+01
   1.501285e+01  -2.066970e+01
  -1.320385e+01  -3.549807e+01
   2.060562e+01  -6.163400e+00
   1.008238e+02   3.762385e+01
   1.212052e+02   7.211388e+01
  -2.510478e+00   1.109682e+02
  -1.052044e+02   9.490874e+01
  -2.097522e+02   4.757016e+01
  -1.443485e+02  -1.257632e+02
  -4.799576e+01  -2.034018e+02
   1.176163e+02  -1.399566e+02
   1.273240e+02  -1.776118e+01
   5.696854e+01  -6.200575e+00
   4.039436e+01   4.445162e+01
   4.594522e+01  -4.313224e+00
   6.246644e+01  -6.173873e+00
   8.831551e-01   7.643016e+01
  -2.654193e+01   7.843939e+01
  -7.375498e+01   3.566151e+01
  -8.548585e+01  -1.584536e+01
  -5.850823e+00  -6.446568e+01
   6.970117e+01  -1.052179e+02
   1.216204e+02   2.106555e+01
   6.899235e+01   1.609146e+02
  -8.470337e+01   1.493636e+02
  -1.522298e+02   6.595765e+01
  -1.549902e+02  -4.515250e+01
  -4.972814e+01  -1.287698e+02
   1.305966e+00  -4.774160e+01
   2.522888e+01  -8.240202e+01
   4.234410e+01  -4.178096e+01
   4.584100e+01  -8.988760e+01
   8.169223e+01  -4.629097e+01
   1.085516e+02   4.841769e+00
   1.160745e+02   1.306049e+02
   1.788216e+01   1.844251e+02
  -9.387036e+01   1.491938e+02
  -1.350093e+02   4.359085e+00
  -8.979596e+01  -8.221484e+01
  -3.427101e+01  -8.233503e+01
   4.952141e+01  -6.785784e+01
   3.764847e+01   1.337620e+01
   3.685332e+00   3.170261e+01
  -2.672956e+01   2.392234e+00
   3.478940e+00   3.747645e+01
   6.050864e+01  -1.597845e+01
   3.912598e+01   2.896881e+01
  -8.428928e+01   9.240777e+00
  -1.404700e+02  -1.606431e+01
  -1.005368e+02  -6.568548e+01
  -4.842873e-01  -1.106685e+02
   1.027588e+02  -3.073644e+01
   1.179744e+02  -1.914506e+00
   2.109306e+01   4.924165e+01
  -7.781341e+01  -3.194499e+00
  -4.002123e+01  -1.935705e+01
   2.313148e+01  -4.542007e+01
   6.265296e+01  -3.952002e+01
   8.623926e+00   3.202275e+01
   2.598131e+01   3.107946e+01
   3.980536e+01   4.536899e+01
   3.124888e+01   8.128088e-01
   2.707007e+01   5.750068e+00
   1.068647e+01   2.250886e+01
  -2.844116e+01   1.389815e+02
  -1.196013e+02   1.066927e+02
  -8.772665e+01   5.715347e+01
  -1.198866e+02  -5.470787e+01
  -2.568642e+01  -1.166156e+02
   6.186550e+01  -2.419590e+01
   3.012047e+01   3.872687e+01
   5.023871e+00  -6.457457e+00
  -7.433527e+01  -6.527312e+00
  -8.696330e+01  -7.236084e+01
   6.840266e+01  -9.463177e+01
   1.228240e+02  -5.240261e+01
   1.210974e+02   4.599581e+01
   1.601002e+01   7.336470e+01
  -3.015345e+01  -2.153432e+00
  -7.403774e+01   7.871045e+00
   2.439188e+01  -3.849032e+01
   9.908569e+01   2.893221e+01
   4.239052e+01   8.056959e+01
  -4.914098e+01   1.226604e+02
  -1.090922e+02   2.586493e+01
  -7.932048e+01  -8.804548e+01
   1.548598e+01  -1.307252e+02
   8.710631e+01  -5.908830e+01
   6.673301e+01   2.122418e+01
   1.924784e+01   1.549461e+02
  -4.208108e+01   6.529089e+01
  -2.208560e+01  -1.204049e+01
  -7.015451e+01  -3.683664e+01
   1.765633e+01  -1.898240e+01
  -1.017398e+01   6.991830e+01
  -8.834763e+00  -4.461753e+01
  -5.229729e+01  -4.954799e+01
  -2.475607e+01  -7.380292e+01
   6.987839e+00  -9.194575e-01
   8.270363e+01  -8.137064e+00
   8.024337e+01   1.034813e+02
  -1.107541e+00   2.951550e+01
  -5.294201e+01   2.149523e+01
  -9.161323e+01  -8.314925e-01
   1.182414e+01  -2.638205e+01
   7.668307e+01  -5.195987e+01
   3.461123e+01   2.053164e+01
  -3.797207e-01  -4.493593e+00
  -1.044755e+01  -1.267422e+01
   1.496609e+01  -8.018204e+00
   3.340782e+01   1.358922e+00
   3.292011e+01   2.134469e+01
  -3.730589e+01   7.974957e+01
  -1.135806e+02   3.378250e+01
  -8.967923e+01  -3.807367e+01
  -1.007180e+00  -1.606196e+02
   1.040297e+02  -1.356472e+02
   6.849503e+01  -5.034992e+01
   6.457125e+01   4.625397e+01
   1.618975e+01   5.875077e+01
   5.138645e+00  -3.298302e+01
   2.221309e+01  -1.975235e+01
   5.811024e+01   3.597348e+01
   4.479312e+01   1.331495e+01
   1.524019e+01   6.331679e+01
  -6.149402e+01  -1.306545e+01
  -2.945928e+01  -9.554117e+01
   2.105223e+00  -1.016323e+02
   6.174047e+01   9.493826e+00
   3.755434e+01   6.416343e+01
   2.543593e+01   8.858206e+01
  -4.393942e+01   8.222786e+01
  -1.125202e+02  -1.925597e+01
  -6.827362e+01  -7.311099e+01
  -9.586396e+00  -6.815790e+01
   6.926592e+01  -3.022487e+01
   1.663230e+01  -1.165165e+01
  -7.595325e+01  -2.220481e+00
  -1.625715e+01  -3.716086e+01
   2.840963e+01  -5.086741e+01
   7.730416e+01  -4.323033e+01
   4.186984e+01   3.018432e+01
   4.041245e+01   5.409389e+01
  -6.245636e+01   7.594276e+01
  -3.894747e+01  -1.522634e+01
  -5.088444e-01  -8.508689e+01
   4.443031e+01  -4.673237e+01
   6.640061e+01  -1.502810e+01
   1.100408e+01   5.138212e+01
  -5.196582e+00   1.585985e+00
  -2.963686e+01  -1.537735e+01
  -1.519177e+01  -3.214561e+01
   3.158291e+01  -1.069221e+01
   3.913520e+01  -1.389002e+00
   1.350309e+01   1.254264e+01
  -2.318463e+01  -2.766575e+01
   9.367391e+00  -8.428983e+01
   3.689868e+01   2.990312e+00
   2.856897e+01  -7.888051e+00
  -1.379755e+01   3.672590e+01
  -6.055439e+01   3.702524e+01
  -4.283191e+01  -2.418363e+01
  -2.369622e+01  -4.208357e+01
   5.433580e+01   1.473382e+01
   8.529288e+01  -2.377828e+01
   1.571251e+01   8.298970e+01
  -2.300389e+01   4.012560e+01
  -2.668047e+01  -1.265989e+01
  -4.800085e+01   8.205444e+00
   3.769388e+01  -1.200116e+01
   4.386739e+01   6.008874e+01
  -4.072541e+00   6.062510e+01
  -4.948561e+01   4.454679e+01
