
 $NMID
 id='ANONYMOUS ', fmtdat='(2E16.6)'
 volume=1.0
 tramp=1.0
 $END
  -1.909353e+03  -6.141228e+01
  -1.122900e+03  -1.117150e+03
  -1.706063e+02  -1.256671e+03
   6.210911e+02  -9.615412e+02
   5.901285e+02  -2.171760e+02
   1.839455e+02   1.350483e+02
  -1.347514e+02  -1.832834e+01
  -4.769708e+01  -4.263880e+02
   3.453542e+02  -3.540911e+02
   3.940649e+02  -4.859013e+01
   2.209867e+02   2.803481e+02
   5.963732e+01   3.194887e+02
  -1.799838e+02   9.371186e+01
  -1.431739e+02  -2.450012e+02
   6.285894e+01  -1.770583e+02
   2.438915e+02  -2.160978e+02
   2.766800e+02   4.525675e+01
  -4.067523e+01   5.679535e+02
  -3.813552e+02   2.507346e+02
  -4.266505e+02   3.568249e+01
  -2.591707e+02  -3.613204e+02
  -7.735227e+01  -1.403947e+02
  -1.072471e+02  -1.912053e+02
  -1.592251e+02  -1.967840e+02
  -1.215715e+02  -2.611267e+02
   4.347471e+01  -2.768705e+02
   1.726541e+02  -6.221363e+01
   4.605683e+02   1.713235e+02
   1.749988e+02   2.012667e+02
  -1.902689e+02   4.855392e+01
  -1.621708e+02  -1.950398e+02
  -1.238358e+02  -1.629672e+02
   1.131474e+02  -2.474275e+02
   3.252279e+02   4.366269e+01
   1.826950e+02   1.348140e+02
   6.840625e+01   1.957320e+02
   4.709579e+01   3.128230e+01
  -3.874239e+01  -8.235495e+01
   5.136819e+01  -9.794342e+01
   9.872894e+01   8.093315e+01
  -1.747131e+01   2.669314e+02
  -9.126292e+01   2.412292e+02
  -1.153858e+02  -7.848410e+00
  -6.793309e+01  -7.805201e+01
   5.450718e+01  -6.660939e+01
   4.791069e+01   2.384640e+02
  -9.712614e+01   1.663894e+02
  -2.435057e+02   3.041527e+01
  -2.884215e+02  -2.297278e+02
  -1.112594e+02  -3.040618e+02
   1.648533e+02  -1.429565e+02
   3.210703e+02   4.653118e+01
   2.348873e+02   7.202209e+01
  -1.531339e+01   7.769907e+01
  -1.561904e+02   1.597570e+01
  -1.237466e+02   5.626714e+01
  -1.078814e+01   1.278565e+01
   4.114510e+01   2.430395e+01
  -1.753444e+01  -1.238004e+01
  -8.392637e+01  -4.764819e+01
  -4.774662e+01  -1.345263e+02
   7.446791e+01  -1.371559e+02
   2.195261e+02  -5.453768e+01
   1.785744e+02   1.547974e+02
   5.474003e+00   2.359280e+02
  -1.943754e+02   2.697143e+02
  -2.520012e+02   8.762766e+01
  -1.476230e+02  -1.250842e+02
  -1.994094e+01  -2.368105e+02
  -3.340355e+01  -2.122138e+02
  -4.749643e+01  -1.362095e+02
   1.551436e+01  -5.373348e+01
   1.284872e+02  -5.188664e+01
   2.134295e+02  -3.378455e+01
   1.713217e+02   4.025520e+01
   6.984491e+01   1.610821e+02
  -1.026693e+02   1.066839e+02
  -1.603954e+02  -1.944819e+01
  -1.029271e+02  -1.401937e+02
   5.124637e+01  -1.351453e+02
   1.961322e+02  -7.045464e+01
   2.009061e+02   1.305735e+02
   1.128945e+02   1.982880e+02
  -3.968753e+01   2.043655e+02
  -9.708283e+01   1.085345e+02
  -1.189266e+02   8.240448e+01
  -1.470300e+02   7.719495e+01
  -2.373258e+02   3.495310e+01
  -2.991605e+02  -5.239185e+01
  -2.354851e+02  -2.310706e+02
   6.797964e+00  -3.197757e+02
   2.852217e+02  -3.183275e+02
   3.248384e+02  -1.348977e+02
   2.176912e+02   7.464543e+01
   2.005975e+01   1.717807e+02
  -4.913793e+01   1.161817e+02
  -1.805240e+01   3.236924e+01
   1.003468e+02   1.377140e+01
   9.491289e+01   4.940655e+01
  -5.883716e+00   1.224841e+02
  -9.196735e+01   5.402216e+01
  -8.354686e+01  -3.724479e+01
   2.601327e+01  -9.981026e+01
   8.216961e+01  -1.322080e+01
   1.010594e+02   1.595910e+02
  -1.837246e+01   2.588227e+02
  -1.511057e+02   1.698360e+02
  -2.389129e+02  -5.240057e+01
  -2.094765e+02  -1.914756e+02
  -4.335356e+01  -1.877726e+02
   8.408018e+01  -1.108905e+02
   8.979393e+01  -1.050042e+01
  -2.386683e+01   4.420910e+00
  -4.195922e+01  -6.033694e+01
   2.798007e+01  -9.446259e+01
   9.117881e+01  -6.903171e+01
   1.340190e+02  -9.751420e+00
   4.588470e+01   2.449579e+01
  -9.831924e+01  -2.702420e+01
  -5.096249e+01  -4.316689e+01
   9.904007e+01  -3.516510e+01
   2.160064e+02  -8.555856e+00
   1.917324e+02   1.446390e+02
   1.396580e+01   1.994393e+02
  -1.416714e+02   1.469999e+02
  -1.838297e+02   5.157929e+01
  -9.418950e+01  -2.068767e+01
   1.301871e+01  -1.914546e+01
   2.926094e+01   2.798758e+01
  -2.188321e+01   2.102963e+01
  -1.374126e+02   3.108092e+01
  -1.291004e+02  -7.784248e+01
  -4.949249e+01  -1.235742e+02
   7.142810e+01  -8.697157e+01
   1.041886e+02  -4.964360e+01
   4.220923e+01   2.181494e+00
  -3.933901e+01  -6.009094e+01
   1.703421e+01  -8.680649e+01
   8.857796e+01  -7.450359e+01
   1.430877e+02   3.893425e+01
   1.262294e+02   1.208985e+02
  -2.117458e+01   1.472145e+02
  -1.078925e+02   7.684625e+01
  -1.077295e+02  -1.276003e+01
   4.329581e+00  -7.469863e+01
   3.535602e+01  -5.146426e+01
   2.035133e+01   2.011347e+01
  -5.406325e+01   3.206011e+01
  -5.754197e+01   1.805987e+01
  -6.203636e+00  -7.560030e+01
   8.671984e+01  -3.581617e+01
   8.670508e+01   4.270095e+01
   3.181441e+01   1.228700e+02
  -1.029793e+02   1.069966e+02
  -1.722336e+02   1.676167e+01
  -1.094443e+02  -1.347717e+02
  -1.853169e+01  -1.629738e+02
   9.386105e+01  -9.944897e+01
   8.722078e+01  -8.166098e+00
   6.453671e+01   5.536424e+01
   4.020188e+01   1.772162e+01
   5.596240e+01  -7.171731e+00
   4.379734e+01  -3.107429e+00
   5.928129e+01   6.323024e+01
  -5.047276e+01   8.122830e+01
  -9.195590e+01   7.173684e+01
  -9.629238e+01  -7.518653e+01
   1.750097e+01  -1.054218e+02
   1.141083e+02  -4.091751e+01
   1.284143e+02   8.466849e+01
   4.017399e+01   1.700580e+02
  -1.224858e+02   1.698890e+02
  -1.936914e+02   4.266136e+01
  -1.520830e+02  -7.694112e+01
  -5.421021e+01  -1.139253e+02
   3.220388e+01  -9.961380e+01
   7.036526e+01  -6.655510e+01
   4.498977e+01  -7.546164e+01
   5.138237e+01  -5.153313e+01
   9.675083e+01  -9.060578e+01
   1.167247e+02   1.094521e+01
   8.049248e+01   1.018604e+02
  -1.836116e+01   1.256452e+02
  -8.461702e+01   1.364891e+02
  -1.593736e+02   4.329987e+01
  -7.692291e+01  -8.066758e+01
  -7.926196e+00  -1.230081e+02
   4.730004e+01  -9.661374e+01
   2.087299e+01   1.214324e+01
   7.308204e+00   4.188397e+01
  -1.469192e+00   5.292530e+01
   3.761811e+01   3.635609e+01
   7.243243e+01   5.058280e+01
   8.523320e+00   5.527219e+01
  -9.515257e+01   2.815486e+01
  -1.243567e+02  -2.040068e+01
  -4.914060e+01  -6.123599e+01
   4.183737e+01  -6.700514e+01
   1.288263e+02  -3.729764e+01
   1.098702e+02  -5.380754e+00
   3.281627e+01   3.334242e+01
  -3.093009e+01   1.750179e+01
  -7.579475e+01  -2.502639e+01
  -3.051531e+01  -3.091443e+01
   2.507550e+01  -3.559006e+01
   5.580574e+01   8.951882e+00
   2.596467e+01   2.364826e+01
   4.533728e+01  -1.626617e+01
   6.627601e+01   3.914306e+00
   8.286101e+00   2.881306e+01
   5.593640e+00   4.195214e+01
  -2.878356e+01   1.304075e+02
  -1.045390e+02   1.413086e+02
  -1.588209e+02   9.014680e+00
  -8.582906e+01  -6.596593e+01
   1.641139e+01  -7.644645e+01
   5.877046e+01  -5.238743e+01
   5.723406e+01   2.331534e+01
  -5.361183e+01   3.297686e+00
  -1.088467e+02  -6.597630e+01
  -6.590109e+01  -6.083421e+01
   8.004351e+01  -7.101087e+01
   1.300992e+02  -4.019893e+01
   1.330302e+02   2.087182e+00
   1.457788e+01   8.687094e+01
  -4.745599e+01  -5.310623e-01
  -3.036829e+01  -2.688634e+01
   2.516300e+01  -2.649468e+01
   6.520486e+01   1.646609e+01
   2.204706e+01   1.005550e+02
  -6.984390e+01   1.089994e+02
  -1.085988e+02   6.274892e+01
  -8.760249e+01  -6.978428e+01
  -2.924798e+01  -1.038340e+02
   6.224268e+01  -1.083687e+02
   8.142642e+01   1.796902e+01
   6.772897e+01   5.772425e+01
  -2.099985e+00   5.261514e+01
   4.937493e+00  -1.841962e+01
   3.171473e+01  -4.967304e+01
  -6.578033e+00   1.582262e+01
  -2.268770e+01   2.493964e+01
  -3.939224e+01  -9.534527e+00
  -5.093458e+01  -7.864032e+01
  -4.322788e+00  -8.125399e+01
   5.393903e+01  -7.491346e+01
   9.220220e+01   4.173823e+00
   8.256675e+01   5.217921e+01
   1.514467e+00   8.884803e+01
  -5.255297e+01   2.943289e+01
  -7.026137e+01  -3.577490e+00
   8.137960e-01  -1.166163e+01
   2.097306e+01  -4.364524e+01
   2.692530e+01   3.773292e+00
   2.876802e+01  -2.203903e+00
   1.149783e+01   2.488336e+01
   8.518845e+00   2.048705e+01
   5.573558e+01   5.662883e+01
  -7.437864e+00   5.690694e+01
  -3.452751e+01   7.085566e+01
  -1.166795e+02   1.456010e+01
  -8.888777e+01  -5.881168e+01
  -1.419229e+01  -1.300744e+02
   5.365886e+01  -1.207187e+02
   6.916054e+01  -2.987057e+01
   4.978421e+01  -1.305177e+01
   3.781938e+01   3.529450e+01
  -5.339376e+00  -2.316505e+00
   3.740880e+01  -1.571758e+01
   1.979275e+01   1.301313e+00
   3.962292e+01   6.050552e+01
  -5.342197e+01   5.078569e+01
  -6.361529e+01  -1.107348e+01
  -6.777398e+01  -2.544932e+01
  -3.483609e+01  -2.721208e+01
   3.971976e+01   6.060082e+00
   7.111030e+01  -9.278867e-01
  -2.739052e+00   7.374146e+01
  -2.521606e+01   6.468107e+01
  -8.213309e+01  -1.336151e+01
  -2.684102e+01  -7.145140e+01
   5.909855e+01  -3.236035e+01
   4.871400e+01  -2.158400e+01
   8.452335e+00  -1.551833e+01
  -1.228393e+01   4.562463e+01
   2.844528e+00   1.010917e+01
   3.535586e+01  -4.611319e+01
   7.036512e+01  -6.852414e+01
   4.983397e+01   4.019126e+01
   8.013869e+00   4.540353e+01
  -8.265658e+01   5.807493e+01
  -3.366929e+01  -2.659651e+01
  -1.572945e+01  -3.924354e+01
   9.070665e+00  -4.417086e+01
   6.823741e+01  -1.606073e+00
   3.779029e+01   3.995370e+01
  -2.285414e+01   2.647691e+01
  -3.421733e+01   6.532958e+01
  -8.646952e+00  -2.635231e+01
  -1.663238e+00   5.095867e+00
  -2.665888e-01  -1.145357e+01
  -1.499371e+01   9.595675e+00
   1.619755e+00  -2.811697e+01
  -1.537232e+01  -3.954218e+01
   1.436211e+01  -2.891096e+01
   2.693872e+01   1.724094e+01
  -1.132664e+01   2.932510e+01
  -3.535872e+00   3.409176e+01
  -3.720067e+01  -1.174853e+01
   2.914149e+01  -8.764070e+01
   1.891342e+01   1.787996e+01
   4.942210e+01  -1.000315e+01
   1.995998e+01   5.333277e+01
  -1.370512e+01   3.037098e+01
  -8.052956e+00   1.023910e+01
  -2.632034e+01  -6.193958e+00
   1.233962e+01   6.578302e+00
   4.604095e+00   1.373177e+01
  -8.768724e+00   2.400170e+01
  -1.058502e+02   2.330644e+01
