
 $NMID
 id='ANONYMOUS ', fmtdat='(2E16.6)'
 volume=1.0
 tramp=1.0
 $END
  -1.806012e+03  -9.242180e+01
  -1.026193e+03  -8.028867e+02
  -1.526775e+02  -1.035990e+03
   6.317851e+02  -8.329143e+02
   5.453976e+02  -3.942555e+02
   1.206803e+02   1.702890e+01
  -8.438927e+01   6.254858e+01
   9.010309e+01  -1.239377e+02
   3.848537e+02  -2.667276e+02
   3.411889e+02  -4.142225e+01
   1.848712e+02   1.033418e+02
   6.711446e+01   2.708480e+02
  -9.845614e+01   8.887081e+01
  -1.495567e+02  -2.109361e+02
   2.058783e+02  -3.817137e+02
   2.592830e+02   8.463325e+01
   1.035253e+01   1.867346e+02
   1.211999e+02   3.225185e+02
  -4.321676e+02   1.766691e+02
  -2.075664e+02   1.151889e+02
  -9.171851e+01  -1.440049e+02
  -6.186316e+01  -1.875701e+02
  -1.071361e+02   4.003914e+01
  -1.529981e+02  -3.176827e+02
  -1.085054e+02  -2.369272e+02
   2.240811e+02  -2.421102e+02
   4.705727e+02   1.518956e+00
   3.487615e+02   1.105457e+02
   2.698897e+01   1.482032e+02
  -2.628955e+02   2.224001e+01
  -3.132302e+02  -1.166897e+02
   3.712253e+00  -5.119800e+01
   2.413753e+02  -2.411453e+02
   2.249787e+02  -9.336315e+01
   9.484206e+01   6.542648e+01
   2.011540e+01   1.729654e+02
   7.599426e+01   1.609769e+02
   1.686516e+02  -5.117217e+01
   1.047004e+02  -6.210836e+01
  -1.809126e+01   2.680813e+01
  -5.164199e+01   3.117944e+02
  -6.328688e+01   1.533126e+02
  -8.188251e+01   4.511360e+00
  -1.404671e+01  -1.217171e+02
   3.165164e+01  -4.602165e+01
  -2.440079e+01   1.782034e+02
  -8.202738e+01   1.743227e+02
  -2.338350e+02   3.349281e+01
  -2.371641e+02  -2.332233e+02
  -8.099944e+01  -2.489643e+02
   1.017014e+02  -8.642746e+01
   2.327589e+02   6.416190e+01
   1.985196e+02   6.313030e+01
   2.800972e+00   1.917223e+00
  -1.351307e+02   2.980744e+01
  -1.207977e+02   6.251396e+01
   1.069083e+01   1.361995e+01
   4.087399e+01  -2.560250e+01
  -4.697880e+01  -1.747843e+01
  -1.247260e+02  -9.524494e+00
  -8.188108e+01  -7.835646e+01
   5.214597e+01  -1.652971e+02
   1.910869e+02  -1.026684e+02
   1.591589e+02   4.692532e+01
   1.315549e+01   1.866679e+02
  -1.539769e+02   2.551442e+02
  -2.039349e+02   1.279908e+02
  -1.101535e+02  -5.701413e+01
  -3.740942e+01  -1.813113e+02
  -3.335873e+01  -1.937412e+02
  -2.285651e+01  -1.432064e+02
   1.673209e+01  -1.037713e+02
   8.862175e+01  -7.383195e+01
   1.304723e+02  -3.219859e+01
   1.455909e+02   3.062675e+01
   3.637542e+01   1.074937e+02
  -3.974432e+01   6.272148e+01
  -1.089964e+02  -1.068417e+01
  -6.743347e+01  -1.361575e+02
   1.778149e+01  -1.457416e+02
   9.479482e+01  -4.920876e+01
   1.534365e+02   6.223850e+01
   1.205230e+02   1.460116e+02
   4.941535e+01   1.341378e+02
  -2.185206e+01   9.316178e+01
  -8.419605e+01   7.022963e+01
  -6.423890e+01   4.112944e+01
  -1.417424e+02  -1.582218e+01
  -2.219562e+02  -5.842191e+01
  -1.697705e+02  -1.702531e+02
   4.213590e+01  -2.302786e+02
   2.353229e+02  -1.628625e+02
   2.497434e+02  -8.154039e+01
   1.372298e+02   4.852714e+01
  -2.090687e+01   8.622519e+01
  -6.436586e+01   1.081696e+02
  -1.144423e+01   1.535333e+01
   7.669386e+01  -4.099135e+01
   1.139988e+02   3.009124e+01
   5.857135e+01   6.924247e+01
   9.375100e+00   4.357168e+01
  -2.705794e+01  -9.179137e+00
   2.501123e+01  -2.989145e+01
   3.469725e+01   6.490642e+01
   2.347380e+01   1.402434e+02
  -2.332945e+01   1.966340e+02
  -1.457014e+02   9.465071e+01
  -2.059090e+02  -6.692836e+01
  -2.204638e+02  -1.638631e+02
  -4.954903e+01  -1.701971e+02
   9.174599e+01  -9.565132e+01
   1.215582e+02  -1.439460e+01
   5.733027e+01  -1.161086e+00
   2.052397e+01   1.331191e+01
   5.566531e+00  -5.185721e+01
   5.577104e+01  -1.503432e+01
   5.735270e+01   2.584260e+01
  -1.232496e+01   2.168712e+01
  -3.950338e+01  -7.632418e+00
  -7.226050e+00  -3.877359e+01
   9.646071e+01  -4.861715e+01
   1.422557e+02   5.710808e+00
   9.234122e+01   1.327067e+02
  -6.057069e+00   1.210312e+02
  -1.087411e+02   8.362865e+01
  -1.597968e+02   1.979902e+01
  -6.730172e+01  -1.480150e+01
   2.393575e+01  -6.044023e+01
   5.365428e+01   9.116497e+00
   1.050910e+01   6.818330e+01
  -1.159679e+02   3.163373e+01
  -1.081428e+02  -5.870645e+01
  -2.944390e+01  -8.657750e+01
   5.764595e+01  -8.631987e+01
   4.503176e+01   4.746493e+00
   2.218791e+01   6.806853e+00
  -4.926781e+01  -2.650667e+01
  -1.149335e+01  -8.286431e+01
   3.657270e+01  -6.289606e+01
   1.230674e+02   1.057252e+01
   8.524735e+01   7.372350e+01
   4.016979e+01   9.333318e+01
  -6.973698e+01   9.071906e+01
  -9.155677e+01  -1.197115e+01
  -7.141685e+00  -4.863184e+01
   5.500555e+01  -3.753889e+00
   3.032807e+00  -9.377406e+00
   9.591392e-02   2.810361e+01
  -4.948245e+01   1.769985e+01
   2.138378e+01  -8.778286e-01
   4.747555e+01   5.630452e+00
   4.470674e+01   6.692002e+01
  -4.159924e+01   9.050448e+01
  -7.036506e+01   5.063143e+01
  -1.265997e+02  -4.849094e+01
  -8.239637e+01  -1.036440e+02
   3.819895e-01  -9.826585e+01
   5.640331e+01  -9.616871e+01
   6.634315e+01   1.147231e+01
   5.321800e+01  -4.614089e+00
   2.143477e+01  -4.237313e+00
   4.402784e+01   4.651579e+00
   2.898457e+01   4.443695e+01
   4.634146e+01   4.391026e+01
  -3.161533e+01   5.896664e+01
  -1.005165e+02   3.403633e+01
  -5.584174e+01  -4.765338e+01
  -2.103953e+01  -9.336190e+01
   1.060258e+02  -6.468882e+01
   1.436323e+02   2.885700e+01
   9.125294e+01   1.159219e+02
  -3.587644e+01   1.208632e+02
  -1.429529e+02   4.817632e+01
  -1.038935e+02  -6.088886e+01
  -2.228019e+01  -5.646694e+01
   1.466266e+01  -6.865958e+01
   4.361043e+01  -5.692040e+01
   1.653483e+01  -6.324145e+01
   4.430729e+01  -8.339047e+01
   4.249294e+01  -4.751268e+01
   7.363485e+01   3.810892e+01
   9.063798e+01   7.135192e+01
   4.267614e+01   1.717715e+02
  -3.974786e+01   9.547544e+01
  -1.599881e+02  -8.099027e+00
  -8.138140e+01  -1.224670e+02
  -1.193162e+00  -1.293872e+02
   5.661594e+01  -3.560354e+01
   4.237061e+01   1.349564e+01
   5.861078e+00   3.526684e+01
   7.061673e+00   3.986912e+01
   1.856623e+01  -2.646967e+01
   3.757811e+01  -3.209526e+01
   1.787675e+01   2.457255e+01
  -8.008342e+01  -1.190498e+01
  -9.361054e+01  -2.558774e+01
  -7.198485e+01  -5.541076e+01
   4.260535e+01  -1.000323e+02
   9.218713e+01  -4.613334e+01
   9.349245e+01   2.838144e+01
   6.196052e+00   5.746267e+01
   1.507361e+01   3.476378e+01
  -3.230588e+01  -4.081193e+01
  -2.023710e+01  -3.248734e+01
   1.800433e+01  -2.352150e+01
   2.759623e+01  -1.036066e+01
   3.060196e+01   3.905053e+01
   2.539287e+01   1.742129e+01
   8.060846e+01  -3.539640e+01
   1.193054e+01   3.471586e+00
   1.455308e+01   3.888308e+01
  -2.815251e+01   1.044102e+02
  -5.790573e+01   7.441900e+01
  -8.871030e+01   1.573020e+01
  -7.276578e+01  -4.468034e+01
   7.596273e+00  -8.421884e+01
   5.880676e+01  -6.286870e+01
   2.573793e+01  -2.248024e+00
  -5.122390e+01  -9.008892e+00
  -1.009101e+02  -5.456577e+01
  -1.186039e+01  -1.524093e+01
   1.038611e+02  -4.639075e+01
   9.875807e+01   3.074298e+00
   6.936722e+01   5.180163e+00
   1.593015e+01   4.881548e+01
  -3.536368e+01   5.683583e+01
  -5.830815e+01  -2.229338e+01
   8.162677e+00  -6.875316e+00
   8.480699e+01   3.799809e+01
   1.963968e+01   4.666791e+01
  -3.149776e+01   9.248571e+01
  -9.446469e+01   2.557476e+01
  -1.089058e+02  -5.155853e+01
  -2.863204e+01  -1.216501e+02
   4.036992e+01  -7.361321e+01
   4.932030e+01   1.335444e+01
   3.106895e+01   7.848450e+01
   4.202359e+00   4.616439e+01
  -5.675568e+01   5.265700e+00
  -6.445388e+01  -6.031529e+01
   2.763567e+01   1.433854e+01
   2.167082e+01   8.247179e+00
   7.745793e+00  -3.210768e+00
  -1.186657e+01  -6.189978e+01
  -3.745031e+01  -1.812061e+01
   6.197156e+01   7.968639e+00
   4.590229e+01   3.206977e+01
   7.496130e+01   4.792537e+01
   2.349098e+01   4.853140e+01
  -7.220485e+01   2.674979e+01
  -4.170761e+01   3.629529e-02
   3.704138e+00   1.455106e+01
  -7.951866e+00   1.793803e+00
  -1.393861e+00   1.522217e+01
  -2.407854e+01   6.041526e+00
  -2.276166e+01  -1.267405e+01
   2.919196e+01  -5.953153e+01
   5.816189e+01   3.562438e+01
   2.846976e+00   6.150753e+01
  -6.371032e+01   6.152279e+01
  -1.214199e+02   1.838887e+01
  -6.420719e+01  -7.207133e+01
  -4.770029e+00  -1.095917e+02
   4.568403e+01  -8.306944e+01
   5.717784e+01  -4.933858e+01
   3.650439e+01   3.471204e+01
   9.520292e+00   5.992790e+01
  -1.754334e+01   2.005364e+00
  -3.925146e+01   1.901918e+01
   3.583303e+00   3.504890e+01
   5.977681e+00   6.187896e+01
   1.114220e+01   1.158306e+01
  -5.048538e+01  -2.042612e+01
  -3.781505e+01  -5.774020e+01
  -2.599087e+01  -6.425987e+01
   4.281334e+01  -1.652918e+01
   6.796216e+01   3.527359e+01
   4.192195e+01   4.022908e+01
  -1.719338e+01   5.251414e+01
  -2.955858e+01  -8.725625e+00
  -7.401722e+01  -4.477847e+01
  -1.341184e+01  -5.005341e+01
  -2.025874e+00  -1.962937e+01
  -1.151560e+01   1.531768e+01
  -2.465669e+01  -2.888166e+00
   1.227027e+01  -2.056944e+01
   5.277946e+01  -1.440701e+01
   7.245826e+01  -1.676568e+01
  -2.300557e+00   1.379456e+01
  -2.164633e+01   4.437547e+01
  -4.808825e+01   5.446115e+01
  -4.768594e+01  -2.276273e+01
   4.627119e+00   3.500525e+00
   4.119143e+01  -9.578799e+00
   2.136409e+01   1.589007e+01
   4.875404e+01   4.232549e+01
  -6.592966e+00   2.958982e+01
  -3.716862e+01  -4.654851e+00
  -5.020471e+01  -9.677015e+00
  -1.019515e+01  -1.343692e+01
  -6.103175e+00   3.365321e+01
   7.395703e+00  -9.659633e+00
   5.853373e+00  -4.871243e-01
  -2.566913e+01  -6.298798e+01
  -2.082094e+01  -1.399184e+01
   2.514270e-01   2.374773e+00
   2.164087e+01   7.980197e+01
  -5.505311e+00   6.518253e+01
  -7.105936e+01   2.720034e+01
   1.856747e+01  -2.782604e+01
   8.158894e+01  -1.717634e+01
   4.352020e+01   3.108556e+01
   2.675225e+01  -1.180429e+01
  -1.827934e+01   2.323086e+01
  -5.228542e+01   4.495355e+01
  -2.702377e+01   2.831828e+01
   6.516853e+01   3.647568e+01
   2.970388e+01   3.151868e+01
   2.828774e+01   1.792060e+01
  -4.742683e+01   3.275795e+01
