
 $NMID
 id='ANONYMOUS ', fmtdat='(2E16.6)'
 volume=1.0
 tramp=1.0
 $END
   1.889022e+03   2.094803e+02
   1.114018e+03   1.025105e+03
   2.802556e+02   1.214788e+03
  -6.550748e+02   9.549237e+02
  -7.483131e+02   3.969221e+02
  -1.746803e+02   6.445712e+01
   5.443839e+01   1.555114e+02
  -5.951247e-01   3.328125e+02
  -2.734268e+02   3.098306e+02
  -3.621585e+02   1.232575e+02
  -3.955210e+02  -3.028145e+02
  -1.981067e+02  -3.481731e+02
   1.033992e+02  -7.085869e+01
   1.461203e+02   2.031625e+02
  -6.308013e+01   2.137341e+02
  -1.817823e+02   2.616242e+01
  -1.382745e+02  -1.403099e+02
   1.788400e+02  -2.684226e+02
   3.402709e+02   3.587124e+00
   3.456696e+02   1.487075e+02
  -3.151410e+01   8.407636e+01
  -1.440967e+02   7.165473e+01
  -1.005977e+02   3.170592e+01
   2.266964e+02   2.124363e+01
   2.347383e+02   2.386418e+02
  -1.432816e+01   2.865668e+02
  -3.297952e+02  -2.723507e+01
  -3.932963e+02  -1.045011e+02
   1.766815e+00  -2.825607e+02
   5.884000e+01  -4.699566e+01
   1.797772e+02   3.806645e+01
   6.306045e+01   2.245709e+02
  -1.151114e+02   1.105220e+02
  -1.658241e+02   7.741525e+01
  -2.494290e+02  -7.484506e+01
  -7.182713e+01  -7.535008e+00
  -4.755616e+01  -1.071242e+02
  -3.855951e+01   6.761693e+01
  -6.225507e+01  -3.087838e+01
  -9.360355e+01  -1.679785e+02
  -2.032585e+01  -1.952479e+02
   8.358104e+01  -1.865235e+02
   2.133284e+02  -5.527932e+01
   1.084990e+02   1.246940e+02
  -5.018968e+01   1.534089e+01
  -9.131415e+01  -1.376289e+02
   1.174582e+02  -1.246129e+02
   2.741481e+02  -9.830828e+00
   2.138153e+02   2.149021e+02
   5.838487e+01   2.573303e+02
  -1.991862e+02   1.262959e+02
  -2.651632e+02  -2.329176e+01
  -1.773027e+02  -1.037874e+02
  -4.779635e+01  -1.011408e+02
   1.293362e+02  -6.241444e+01
   1.381817e+02  -3.851536e+01
   3.718048e+01  -1.931515e+00
   2.613613e+00   2.070287e+00
   1.637373e+01  -9.576245e-01
   9.536605e+01   5.415975e+01
   8.194365e+01   1.188317e+02
  -5.737213e+01   1.378643e+02
  -2.203581e+02   7.826144e+01
  -1.904095e+02  -8.958940e+01
  -1.509129e+01  -1.706769e+02
   2.178225e+02  -2.008710e+02
   2.609376e+02  -7.607806e+01
   1.293459e+02   7.056457e+01
   2.424444e+01   2.352930e+02
  -4.858528e+01   1.832905e+02
  -3.697068e+01   1.439862e+02
  -2.768856e+01   8.113334e+01
  -1.149118e+02   6.759949e+01
  -1.579440e+02   2.042237e+01
  -1.723030e+02  -1.016093e+02
  -6.431903e+01  -1.644798e+02
   1.073653e+02  -1.087138e+02
   1.265649e+02   1.163184e+01
   7.622823e+01   1.281131e+02
   5.164946e+00   1.133627e+02
  -1.651495e+02   3.142786e+01
  -1.729302e+02  -8.125790e+01
  -1.653383e+01  -1.312021e+02
   3.366262e+01  -1.392129e+02
   6.579362e+01  -9.836628e+01
   7.765762e+01  -6.912174e+01
   1.040372e+02  -3.303085e+01
   1.959653e+02  -2.091589e+01
   2.761858e+02   9.228991e+01
   2.207786e+02   1.997373e+02
  -6.174192e+01   2.636180e+02
  -2.222379e+02   2.619235e+02
  -2.290339e+02   6.275188e+01
  -1.651300e+02  -2.609368e+01
  -3.072061e+01  -1.550872e+02
   5.556944e+01  -9.663217e+01
   1.096346e+01   4.901528e+00
  -8.252305e+01   6.418714e+01
  -6.675184e+01  -2.696015e+01
   3.774521e+01  -1.098393e+02
   6.594506e+01  -4.780586e+01
   2.643174e+01   7.269194e+01
  -4.003139e+01   8.445944e+01
  -1.498972e+02   1.300794e-02
  -7.315299e+01  -1.394580e+02
   9.819344e+00  -2.266640e+02
   1.718697e+02  -1.641721e+02
   1.909378e+02   6.257526e+01
   1.413195e+02   1.359885e+02
   1.534681e+01   1.953884e+02
  -9.373621e+01   6.627957e+01
  -1.171084e+02   1.533884e+01
   8.759137e+00  -2.320379e+01
   3.165430e+01   8.168644e+01
  -2.274958e+01   8.536141e+01
  -1.103756e+02   3.278701e+01
  -1.109493e+02  -5.489596e+01
  -3.867428e+01  -6.307930e+01
   2.125678e+01   1.589231e+01
   2.560976e+01   4.952803e+01
  -8.082522e+01   1.257020e+01
  -1.680411e+02  -3.273721e+01
  -1.350240e+02  -1.291151e+02
  -2.044433e+01  -1.632940e+02
   1.689799e+02  -1.196386e+02
   2.015388e+02  -5.307641e+01
   1.137000e+02   2.760212e+01
  -2.962497e+01   7.133680e+01
  -2.851564e+01  -6.639759e+00
   8.183784e+01  -3.315994e+01
   1.253703e+02  -1.420219e+01
   1.036750e+02   6.390165e+01
   9.942385e+00   1.041864e+02
  -8.984000e+01   8.711818e+01
  -7.526939e+01   2.836757e+01
   2.136534e+00  -6.431396e+01
   2.436758e-01   3.857941e+01
  -3.010984e+01   6.884542e+01
  -8.801384e+01   5.931109e+01
  -1.096175e+02  -1.020354e+01
  -9.290936e+01  -8.577694e+01
   1.438708e+01  -1.167871e+02
   9.155855e+01  -9.202872e+01
   1.095856e+02  -1.813029e+01
  -3.539589e+00   6.329798e+01
  -3.951981e+01   3.433680e+01
  -4.106847e+01   6.687002e+01
   3.967270e+00  -1.726254e+01
   2.912065e+00  -8.227830e+00
  -4.473389e+01  -3.653792e+01
  -5.194156e+01   6.342226e+01
  -7.329136e+01  -5.166536e+01
   2.999071e+01  -1.046105e+02
   6.359383e+01  -3.543384e+01
   1.301992e+02  -2.004976e+01
   9.379347e+01   7.142498e+01
  -2.127574e+01   8.707788e+01
  -5.833509e+01   1.138287e+02
  -5.843439e+01   2.293047e+01
   8.644464e-01  -2.791381e+01
   5.684645e+00  -2.192026e+01
  -3.094675e+01   7.996626e+00
  -4.002730e+01  -2.073415e+01
  -5.173496e+01  -5.454976e+01
   5.870438e+01  -4.578433e+01
   6.164609e+01  -4.072334e+01
   6.788148e+01   3.372284e+01
   1.560201e+01   1.247537e+02
  -1.142868e+02   4.714833e+01
  -1.129016e+02  -5.346838e+01
  -1.970664e+01  -1.294053e+02
   7.173911e+01  -1.491597e+02
   1.701488e+02  -6.355292e+01
   1.269141e+02   4.128362e+01
   4.360219e+01   1.076877e+02
  -5.049015e+01   9.940881e+01
  -4.642688e+01   5.879064e+01
  -3.227816e+01   1.540875e+01
  -2.627361e+01   8.654363e+00
  -9.346992e+01   2.206564e+01
  -1.024412e+02   1.479228e+01
  -7.044828e+01  -7.539134e+01
  -2.031733e-01  -1.302248e+02
   4.170905e+01  -1.054183e+02
   9.824608e+01   6.847935e+00
   6.177368e+01   6.766377e+01
   2.725595e+01   9.442898e+01
  -1.636940e+01   7.018102e+01
  -7.322008e+01   3.577926e+00
   2.486431e+01  -7.362981e+01
   9.178451e+00  -4.275294e+01
  -6.914043e+00  -1.423196e+01
  -6.033771e+01   1.571594e+01
  -1.280396e+01  -2.712002e+01
   3.751686e+01  -1.201205e+01
   9.871830e+01  -3.576815e+01
   9.511110e+01   6.822498e+01
   3.701081e+01   1.036984e+02
  -7.572941e+01   5.957895e+01
  -8.264862e+01  -9.243220e+00
  -2.524192e+01  -4.734641e+01
   2.918136e+01  -2.848299e+01
   1.591256e+01  -1.701645e+00
   1.757936e+01   8.445890e+00
  -2.861738e+01   4.253017e+01
  -2.682321e+01   4.143477e+01
  -2.165079e+01  -6.745712e+00
  -1.704436e+01  -5.161296e+01
  -4.197686e+01  -2.983194e+01
  -1.504565e+01   1.134775e+01
  -1.256331e+01  -4.013520e+01
  -1.724704e+01  -9.202263e+01
   6.513148e+01  -8.297201e+01
   1.348358e+02   2.399788e+00
   7.924002e+01   6.436027e+01
   2.308993e+01   1.131125e+02
  -6.412624e+01   6.913213e+01
  -4.685041e+01  -3.744787e+00
   3.193692e+01  -1.595791e+01
   5.782823e+01   1.351718e+01
   2.389844e+01   6.998907e+01
  -2.664434e+01   7.916832e+01
  -1.126859e+02   4.834958e+01
  -8.834724e+01   7.014573e+00
  -2.575204e+01  -7.826137e+01
   9.719862e+00  -4.954711e+01
   2.124076e+01  -3.333691e+01
  -2.273527e+01   2.397077e+00
  -5.192845e+01  -2.333403e+01
  -3.919875e+01  -8.176724e+01
   9.275304e+01  -9.963198e+01
   7.353082e+01  -4.089668e+01
   1.014089e+02   5.744200e+01
   4.118213e+01   9.963239e+01
  -3.981895e+01   9.697070e+01
  -5.763330e+01  -8.358864e+00
  -4.693408e+01  -5.565008e+01
   4.881466e+00  -5.494001e+01
  -8.721523e+00  -3.011052e+01
   2.052816e+01   2.254530e+01
   1.699176e+01  -1.158321e+00
  -6.832150e+00  -6.236538e+01
   1.818030e+01   9.815107e+00
   6.834776e+01   9.508482e+01
   4.024885e+01   8.097625e+01
  -2.010272e+01   5.532088e+01
  -1.088221e+02  -1.997294e+01
  -7.760610e+01  -2.172658e+01
   1.491002e+01  -8.351839e+00
   4.413828e+01  -2.789430e+01
   2.747039e+01  -2.318083e+01
   2.363920e+01  -3.134634e+01
  -2.689544e+00   2.101343e+01
   6.991094e+00   2.467726e+01
   1.720676e+01   3.970432e+01
  -1.065185e+01   1.120568e+01
  -4.772001e+01  -1.734029e+01
  -7.649764e+01   3.936538e+01
  -2.159721e+01  -3.112195e+01
   7.536952e+01  -1.178424e+02
   9.925893e+01  -3.817860e+01
   1.096356e+02   5.336088e+01
   2.797818e+00   8.153664e+01
  -5.458130e+01   9.904750e+01
  -9.232605e+01   1.031454e+00
  -3.241248e+01  -1.779155e+01
  -4.331469e+01  -2.105560e+01
  -3.362208e+01  -2.794181e+01
  -1.986275e+01  -1.201093e+00
  -2.455190e+01  -4.455721e+01
  -3.039459e+01  -6.397022e+01
   4.966065e+01  -3.569630e+01
   4.512190e+01   1.510760e+01
   8.120850e+01   3.704845e+01
  -7.671394e+00   9.858614e+01
  -4.055433e+01   7.058509e+01
  -9.467222e+01  -3.711937e+01
  -2.645385e+01  -4.577083e+01
   3.777425e+01  -5.640448e+01
   3.088973e+01  -7.213060e+00
   3.632444e+01   3.691957e+01
  -1.040942e+01   9.293139e+01
  -1.538557e+01   7.209981e+00
   3.799696e+01  -1.423576e+01
  -4.720157e+00   5.735366e+00
  -1.467909e+00   4.074304e+01
  -2.642391e+01   3.717948e+01
  -5.126674e+01   3.885241e+01
  -1.012416e+01  -3.575856e+01
   3.245421e+01  -6.698923e+01
   3.787563e+01  -4.138610e+01
   3.164220e+01   1.260108e+01
   4.241549e+01   1.415208e+01
  -1.586612e+01   4.801872e+01
  -3.401331e+01  -3.095280e+01
  -5.850076e+01  -6.780240e+00
   1.110378e+01   6.014410e+00
  -1.165406e+01   2.273685e+00
   1.085757e+01   1.830086e+01
   1.199295e+01  -2.637462e+01
  -6.868333e+00  -4.366420e+01
   3.591532e+00   2.272844e+01
   4.543146e+01   2.448536e+01
   1.913742e+00   5.897250e+01
  -3.182212e+01  -1.205140e+01
  -3.703925e+01  -3.265802e+01
  -1.675442e+01  -4.443363e+01
   3.981851e+00  -6.253735e+01
   9.245536e+01   3.053666e+00
   1.303150e+01   2.963953e+01
  -5.320196e+01   1.228236e+01
  -5.165045e+01  -7.386057e+00
  -3.689641e+01   4.534064e+01
   2.344148e+01  -5.925807e-01
   6.687257e+01   6.956610e+00
   1.342274e+01   1.134375e+01
  -4.456600e+01  -2.671582e+00
  -2.966484e+01   1.706217e+01
   4.134267e+01  -2.048192e+01
  -3.447271e+01  -6.613591e-02
