
 $NMID
 id='ANONYMOUS ', fmtdat='(2E16.6)'
 volume=1.0
 tramp=1.0
 $END
  -1.936177e+03  -9.143037e+01
  -1.089389e+03  -9.483078e+02
  -2.066287e+02  -1.100446e+03
   7.619657e+02  -8.213865e+02
   6.336568e+02  -9.444650e+01
   8.905377e+01   2.773419e+01
  -1.165807e+02  -1.193650e+02
   7.982881e+01  -3.386795e+02
   3.206093e+02  -4.248935e+02
   4.330091e+02  -6.200668e+01
   2.199998e+02   3.991832e+02
   4.355614e+01   4.327208e+02
  -2.415050e+02   1.250141e+02
  -1.508839e+02  -1.227994e+02
   3.945241e+01  -2.363516e+02
   1.667251e+02   1.058839e+02
   2.169425e+02   3.224240e+02
   2.313781e+01   3.765715e+02
  -2.047522e+02   2.292492e+02
  -2.676520e+02  -1.081780e+02
   5.604411e+01  -1.488991e+02
   9.480014e+01  -2.383934e+02
   9.456554e+01  -7.786319e+01
  -1.348088e+02  -2.429793e+02
  -1.477866e+02  -2.465971e+02
   7.770801e+01  -2.990679e+02
   3.133672e+02  -1.012350e+02
   2.007477e+02  -2.080445e+01
   2.399192e+02   2.306575e+02
  -2.070589e+02   1.573012e+02
  -1.105323e+02  -1.486326e+02
  -7.304308e+01  -3.632440e+02
   1.668395e+02  -1.287959e+02
   3.927820e+02   8.313122e+00
   1.909627e+02   4.351660e+01
   1.418226e+02   1.894435e+02
  -7.933049e+01   1.578571e+02
   6.312669e+01  -2.168645e+00
   1.353824e+02   5.966930e+00
   8.420328e+01   1.181111e+02
  -5.388121e+01   3.096043e+02
  -1.006830e+02   1.692939e+02
  -8.456318e+01   1.089864e+01
   3.036876e+01  -1.502630e+02
   7.859035e+01  -2.660968e+01
   6.478247e+01   1.433838e+02
  -1.231131e+02   2.214589e+02
  -3.145474e+02   3.818928e+01
  -2.922994e+02  -2.451314e+02
  -8.655502e+01  -3.173495e+02
   1.460256e+02  -2.068562e+02
   2.782294e+02   1.862115e+00
   2.198643e+02   1.240120e+02
   8.261101e+01   1.357325e+02
  -9.854137e+01   8.384994e+01
  -1.135312e+02  -1.004648e+01
  -2.844403e+01   3.780880e+01
  -2.415383e+01   3.594632e+01
  -7.700739e+01   9.635333e+00
  -1.234491e+02  -2.169029e+01
  -6.919430e+01  -1.079828e+02
   1.002590e+02  -1.228029e+02
   2.117140e+02  -5.040177e+01
   1.263384e+02   9.557553e+01
  -5.416232e+01   2.012660e+02
  -1.758478e+02   2.016630e+02
  -2.448193e+02   1.362255e+02
  -1.582455e+02  -8.126626e+01
  -4.153278e+01  -1.889004e+02
  -3.266737e+01  -2.096196e+02
  -7.322251e+00  -1.239744e+02
   1.972700e+01  -1.125352e+02
   1.674748e+02  -9.286251e+01
   1.508803e+02  -9.822147e+00
   1.267293e+02   6.272783e+01
   5.922188e+01   1.636661e+02
  -1.044723e+02   1.007510e+02
  -1.506801e+02  -1.650361e+01
  -7.318439e+01  -1.686764e+02
   6.815378e+01  -1.553654e+02
   1.700164e+02  -1.225618e+00
   1.883715e+02   1.034593e+02
   1.375066e+02   1.857336e+02
  -1.544173e+01   1.092792e+02
  -7.885886e+01   8.307607e+01
  -1.113243e+02   7.380709e+01
  -1.083906e+02   5.775551e+01
  -2.158963e+02   8.290144e+00
  -2.718410e+02  -1.305882e+02
  -1.987239e+02  -1.902687e+02
   2.598921e+01  -2.661801e+02
   2.115020e+02  -1.883193e+02
   2.921553e+02  -1.064109e+02
   1.896842e+02   8.804316e+01
   1.207626e+01   1.407464e+02
  -2.755377e+00   1.211733e+02
   1.362874e+01   2.808659e+01
   6.748414e+01  -3.593821e+01
   4.038232e+01   7.693095e+00
   1.875263e+01   5.172483e+01
  -1.987192e+01   5.119123e+01
  -7.542025e+01  -1.489504e+01
   2.300221e+01  -2.345083e+01
   8.962755e+01   9.251325e+01
   5.852951e+01   1.485235e+02
  -3.579101e+01   1.775574e+02
  -1.488573e+02   9.535912e+01
  -2.418858e+02  -4.512070e+01
  -1.856711e+02  -1.577222e+02
  -4.054459e+01  -1.857447e+02
   5.284916e+01  -1.051794e+02
   9.739769e+01  -6.354700e+01
   5.864674e+00  -2.346972e+01
   6.887016e+00  -2.629294e+01
   3.293933e+00  -3.825585e+01
   2.226908e+01  -2.472419e+01
   5.828232e+01   5.490320e+01
  -3.871854e+00   2.334886e+01
  -3.051442e+01  -2.894543e+01
  -1.030454e+00  -8.094545e+01
   7.140403e+01  -6.555384e+01
   1.682263e+02   3.267754e+01
   1.381502e+02   1.327225e+02
   1.810223e+01   1.493771e+02
  -1.409581e+02   9.378603e+01
  -1.485824e+02  -5.176302e-01
  -5.885799e+01  -2.951478e+01
   3.639760e+01  -4.088091e+01
   2.846785e+01  -1.131846e+01
  -3.889273e+01   2.866817e+01
  -1.022482e+02   5.732766e+01
  -8.580232e+01  -9.093961e+01
  -4.085106e+01  -6.754842e+01
   4.620070e+01  -5.267761e+01
   6.258146e+01   1.889988e+00
   1.055083e+01   1.979765e+01
  -7.346897e+00  -5.983321e+01
  -1.379647e+01  -6.515863e+01
   5.645798e+01  -3.403152e+01
   1.363792e+02   1.246354e+01
   1.060060e+02   8.018071e+01
   8.591613e+00   1.073121e+02
  -9.091024e+01   7.175823e+01
  -1.210517e+02   2.237930e+01
  -8.675769e+00  -4.798148e+01
   6.253135e+01  -5.966804e+01
   4.725546e+01  -3.090013e+01
  -1.071096e+01   1.018637e+01
  -3.883229e+01   2.063206e+01
  -2.457458e+01   4.208718e+00
   3.712298e+01  -6.809674e+00
   2.015719e+01   3.682988e+01
   2.318575e+01   8.126921e+01
  -1.269936e+02   1.021228e+02
  -1.435103e+02   7.439215e+00
  -9.652868e+01  -8.305241e+01
   3.365538e+01  -1.522676e+02
   8.794379e+01  -8.052313e+01
   8.201986e+01  -7.879920e+00
   4.406727e+01  -3.044481e+01
   5.695530e+00   2.903477e+01
   1.327557e+01  -2.124338e+01
   5.986389e+01   3.350304e+00
   3.504912e+01   2.634675e+01
  -1.741614e+01   4.811099e+01
  -8.140998e+01   3.956178e+01
  -5.127166e+01  -4.699396e+01
   3.901449e+01  -5.887083e+01
   1.455893e+02  -3.303251e+01
   1.373014e+02   3.757194e+01
   2.418716e+01   1.130639e+02
  -1.007841e+02   1.122002e+02
  -1.829670e+02  -1.413704e-01
  -1.232628e+02  -8.062649e+01
  -8.306295e+01  -8.499622e+01
   3.141162e+01  -7.645973e+01
   1.374703e+01  -3.271246e+01
   1.765372e+01  -3.586252e+01
   2.887686e+01  -4.570858e+01
   8.361510e+01  -4.965954e+01
   9.614206e+01   1.149772e+01
   9.092667e+01   7.234258e+01
   3.446153e+01   1.336764e+02
  -7.055850e+01   9.942336e+01
  -1.303828e+02  -1.721214e+01
  -5.830976e+01  -9.253043e+01
  -3.354064e+01  -8.692391e+01
   5.023263e+01  -3.395313e+01
   4.536295e+01   3.630346e+01
  -2.959528e+01   3.702687e+01
   5.464222e-01   7.388676e+00
   1.136998e+01  -1.445578e+01
   9.991411e+01  -3.095973e+01
   3.523199e+01   5.681203e+01
  -3.212700e+01   4.180875e+01
  -1.563617e+02  -5.302188e-01
  -1.130665e+02  -5.612191e+01
  -1.519229e+00  -4.493401e+01
   7.976676e+01  -2.294302e+01
   8.333942e+01   2.035090e+01
   4.284424e+01   7.376483e+00
  -4.964963e+01   2.372128e+01
  -6.268238e+01  -4.669187e+01
  -3.459914e+01  -3.605461e+01
   3.806765e+01  -5.195140e+01
   4.382127e+01   1.043944e+01
   2.467881e+01  -3.302141e+01
  -8.686441e+00  -4.304943e+01
   4.412523e+01  -1.577266e+01
   4.433009e+01  -2.001415e+01
   4.619784e+01   8.236196e+01
  -7.136399e+00   7.269749e+01
  -1.103269e+02   1.139014e+02
  -1.027980e+02  -1.539817e+01
  -9.128876e+01  -4.410164e+01
   5.269225e+00  -6.954162e+01
   4.482700e+01  -5.532004e+01
   4.233093e+01  -1.366156e+01
  -4.455777e+01   1.473141e+01
  -8.785656e+01  -2.804269e+01
  -5.582066e+01  -4.439187e+01
   4.451483e+01  -5.828595e+01
   1.045487e+02   5.672266e+00
   9.050348e+01   4.025896e+01
   2.399179e+01   9.397767e+01
  -6.781996e+01   4.542805e+01
  -5.445781e+01  -1.125081e+01
  -1.921534e+01   7.008900e+00
   6.642827e+01   1.104462e+01
   5.234219e+01   1.010689e+02
  -2.239653e+01   8.484389e+01
  -1.029978e+02   5.380089e+01
  -1.023499e+02  -5.531727e+01
  -2.614427e+01  -1.236626e+02
   4.358501e+01  -6.396669e+01
   8.965230e+01  -2.407158e+01
   3.401069e+01   3.231609e+01
   7.907945e+00   4.831741e+01
  -2.881282e+01  -1.688686e+01
  -3.203454e+01  -1.073595e+01
   3.608941e+00  -1.764972e+01
   2.920586e+01  -1.286761e+01
   1.710934e+00  -3.994691e+01
  -1.885578e+01  -3.255137e+01
  -1.246084e+01  -6.747665e+01
  -1.246085e+01  -1.325612e+01
   5.536906e+01  -8.295807e+00
   5.605115e+01   4.106319e+01
   2.267927e+01   1.839002e+01
  -6.309664e+01  -1.216843e+01
  -6.042588e+01   6.868368e+00
  -5.070813e+01   3.242910e+01
  -1.599047e+01   2.185143e+01
   5.251900e+01   3.048091e+01
  -2.287091e+01  -1.396138e+01
  -4.334525e+00  -3.200916e+01
   3.918918e+01  -3.521726e+01
   3.752348e+01  -2.539139e+01
   2.809510e+01   4.633098e+01
  -3.327891e+01   5.934964e+01
  -1.060179e+02   3.937188e+01
  -1.229824e+02  -5.532615e+01
  -2.682144e+01  -3.975722e+01
   4.451205e+01  -7.745746e+01
   8.353477e+01  -3.902218e+01
   7.767029e+01  -1.400486e+00
   6.832933e+01   7.265609e+00
  -2.408879e+01   1.547377e+01
   3.827965e+00   7.766295e+00
   6.816570e+00   7.497364e+00
   3.192719e+01   7.481912e+01
  -1.280427e+01   8.662966e+01
  -4.428428e+01  -1.422787e+01
  -3.694135e+01  -8.873215e+01
  -1.304295e+01  -5.194093e+01
   3.436781e+01  -1.967384e+01
   1.062125e+02   3.775024e+01
   1.343396e+01   7.235281e+01
  -9.697545e+01   3.947162e+01
  -7.879123e+01  -7.289747e+00
  -3.872732e+01  -4.371376e+01
   2.621386e+01  -6.926312e+01
  -4.523830e+00  -1.503463e+01
  -5.073103e+01  -1.666970e+01
  -5.662389e+01   6.474760e+00
  -4.577783e+01  -2.576348e-01
   4.994643e+01  -3.782122e+01
   8.286660e+01  -5.069511e+01
   2.775230e+01   1.210138e+01
  -1.140645e+01   2.890859e+01
  -7.077510e+01   3.962319e+01
  -5.235753e+01   2.707201e+01
  -1.006393e+01   3.027367e+01
  -1.771129e+01  -2.387632e+01
   1.215866e+01  -2.663614e+01
   3.905725e+01   3.720691e+01
  -1.358320e+01  -8.610740e+00
  -4.352756e+01   2.228478e+01
  -2.947444e+01   6.496294e+00
   3.104878e+01  -4.570165e+00
   1.288498e+01   4.272112e+01
  -2.382331e+01   9.959228e+00
   8.127851e+00  -3.605044e+01
  -3.141893e+00  -2.408209e+01
   2.850159e+01  -3.369804e+01
   3.516085e+00   2.151550e+01
   3.449440e+01   1.757769e+01
  -4.490852e+01  -2.071940e+00
  -9.227273e+01  -6.467940e+01
  -3.541261e+01  -3.128197e+01
   4.724263e+01  -2.114068e+01
   5.430833e+01   1.273428e+01
   4.664808e+01  -3.167790e+01
  -2.164824e+01   2.433719e+01
  -1.905215e+01   2.630121e+01
  -2.520449e+01  -1.761077e+01
   4.979920e-01   3.230587e+00
   1.463861e+01   4.761900e+00
   3.364664e+01   3.154757e+01
   1.854704e+01   4.216944e+01
