
 $NMID
 id='ANONYMOUS ', fmtdat='(2E16.6)'
 volume=1.0
 tramp=1.0
 $END
   3.019729e+03   9.439565e+01
   1.827681e+03   1.874224e+03
  -1.297283e+02   1.882212e+03
  -1.202178e+03   9.269764e+02
  -7.996141e+02   7.529376e+01
   1.751180e+02  -4.076510e+02
   4.014166e+02   2.243538e+02
   2.060367e+01   6.244300e+02
  -6.025719e+02   5.442235e+02
  -6.982986e+02   6.517379e+01
  -3.581183e+02  -4.902170e+02
   6.182669e+01  -4.025018e+02
   3.208387e+02  -1.777832e+02
   2.752656e+02   5.180215e+02
  -1.276466e+02   4.246776e+02
  -3.260152e+02  -2.997923e+01
  -3.147987e+02  -4.766429e+02
   4.211981e+01  -5.143510e+02
   2.970884e+02   9.178759e+01
   4.043154e+02   1.894863e+02
   1.679847e+02   2.804054e+02
  -1.296095e+02   2.070643e+02
  -2.434811e+02  -1.666352e+01
  -7.738575e+00   1.222904e+02
   3.700016e+02   9.066694e+01
  -4.125919e+01   2.504643e+02
  -5.090371e+02   4.991927e+01
  -5.911348e+02  -7.084878e+01
  -3.167772e+02  -2.838857e+02
   2.672152e+02  -1.868474e+02
   4.075820e+02   3.846367e+01
   2.600865e+02   2.961204e+02
  -8.593111e+01   2.248466e+02
  -3.320574e+02   1.145494e+02
  -2.472948e+02  -1.043411e+02
  -1.260013e+02  -2.444007e+02
   6.029386e+01  -9.509862e+01
  -3.930285e+01   2.142771e+02
  -1.735505e+02   1.809341e+02
  -1.423072e+02  -9.638721e+01
  -9.139256e+01  -4.889557e+02
   1.436497e+02  -3.421079e+02
   2.447451e+02   3.009469e+01
   7.764456e+01   2.723491e+02
  -1.677374e+02   1.578292e+02
  -2.306747e+02  -2.608141e+02
   4.317445e+01  -3.497157e+02
   3.551704e+02  -1.018205e+02
   4.127412e+02   2.418205e+02
   1.139418e+02   3.912643e+02
  -2.448257e+02   2.365342e+02
  -3.694941e+02  -5.756893e+01
  -2.136153e+02  -2.446098e+02
   7.690823e+01  -1.919931e+02
   2.132266e+02  -4.687645e+01
   1.407194e+02   5.103941e+01
   5.393091e+00   1.828383e+01
  -3.148693e+01  -5.775927e+01
   7.697337e+01  -8.854181e+01
   2.375409e+02   3.933019e+01
   1.254784e+02   1.812289e+02
  -1.099892e+02   2.197389e+02
  -2.560941e+02   8.264376e+01
  -1.848028e+02  -8.264273e+01
   9.680094e+01  -2.481165e+02
   3.010972e+02  -2.516484e+02
   3.132864e+02  -6.681544e+01
   1.706825e+02   1.786377e+02
   1.019970e+01   3.438156e+02
  -6.861659e+01   3.467635e+02
  -8.213359e+01   1.332097e+02
  -6.451440e+01   4.786091e+01
  -1.299796e+02   4.384350e+01
  -1.988226e+02   2.816472e+01
  -1.822339e+02  -8.436050e+01
  -6.814786e+01  -2.025216e+02
   9.626226e+01  -2.197726e+02
   1.839485e+02   3.947829e+01
   1.201816e+02   2.373925e+02
   5.168688e+00   2.563273e+02
  -2.042565e+02   9.793024e+01
  -2.751541e+02  -1.395184e+02
  -1.752233e+02  -2.394471e+02
   3.743389e+01  -2.302617e+02
   1.303370e+02  -1.071741e+02
   1.049511e+02  -7.894094e+01
   1.010839e+02  -7.928068e+01
   1.844590e+02  -5.061126e+01
   3.286642e+02   7.971036e+01
   2.671691e+02   2.431337e+02
  -3.209568e+01   3.662804e+02
  -2.968932e+02   3.249965e+02
  -4.082633e+02   1.476779e+02
  -2.943684e+02  -1.306458e+02
  -1.703432e+01  -2.404245e+02
   8.592180e+01  -1.918279e+02
   8.296479e+01  -2.924325e+01
  -4.402166e+01   7.935084e+01
  -1.243803e+02   2.349565e+01
  -1.583240e+01  -1.340932e+02
   8.700352e+01  -1.108285e+02
   8.205030e+01   8.018905e+01
  -7.195070e+01   9.773058e+01
  -1.588122e+02  -8.759110e+00
  -1.077053e+02  -1.752906e+02
   3.130425e+01  -2.888565e+02
   2.307829e+02  -1.741400e+02
   2.814070e+02   3.190977e+01
   2.354647e+02   1.947824e+02
   6.576536e+01   2.357397e+02
  -8.141244e+01   1.380946e+02
  -1.246399e+02   5.094638e+01
  -2.456809e+01  -1.994981e+00
   5.631415e+01   7.781445e+01
  -9.070661e+00   8.170977e+01
  -1.197204e+02   5.571116e+01
  -1.467108e+02  -1.389938e+01
  -1.060879e+01  -5.246471e+01
   8.039411e+01   1.104993e+01
   1.502192e+01   8.157094e+01
  -1.268480e+02   5.312285e+01
  -2.147872e+02   3.056437e+01
  -2.163266e+02  -1.093550e+02
  -2.161783e+01  -2.364242e+02
   1.235975e+02  -1.937302e+02
   2.049421e+02  -1.015544e+02
   1.008797e+02   5.461131e+01
  -3.541458e+01   4.818949e+01
  -4.114200e+01  -1.460810e+01
   2.114027e+01  -6.388010e+01
   1.760484e+02   2.500836e+00
   1.621795e+02   9.520278e+01
   4.449408e+01   1.757045e+02
  -6.352096e+01   6.979032e+01
  -6.797083e+01  -1.035449e+00
  -3.924443e+01  -2.234307e+01
   2.034411e+01   3.645194e+01
   1.216928e+01   8.030377e+01
  -9.063608e+01   1.242788e+02
  -1.835205e+02  -4.587740e+00
  -1.246509e+02  -1.522463e+02
  -4.322831e+01  -2.027728e+02
   1.230742e+02  -1.389954e+02
   1.146551e+02  -8.231094e+00
   5.783310e+01   7.646086e+01
  -7.643161e+01   7.517534e+01
  -3.247120e+01  -9.136851e+00
   4.707998e+00  -2.214921e+01
  -1.345765e+00   1.270163e+01
  -1.600240e+01   1.909655e+01
  -7.393659e+00   3.261454e+00
  -6.945395e+01  -1.196614e+02
   4.330491e+01  -1.910068e+02
   1.386375e+02  -1.279311e+02
   1.747226e+02  -1.262681e+01
   1.416139e+02   1.552328e+02
   4.373229e+01   2.184543e+02
  -1.010957e+02   1.343850e+02
  -1.116201e+02   1.295491e+00
  -6.050222e+00  -3.052486e+01
  -2.163418e+01  -4.965990e+01
  -4.676239e+01  -2.539222e+01
  -1.001625e+02   1.191976e+01
  -6.028832e+01  -2.802363e+01
   1.501567e+01  -7.505605e+01
   1.290414e+02  -4.209978e+01
   8.223382e+01   3.649755e+01
  -8.102291e+00   6.364492e+01
  -9.818892e+01   5.147825e+01
  -1.676577e+02  -9.262719e+01
  -6.945844e+01  -1.814522e+02
   1.114705e+02  -1.998894e+02
   2.292546e+02  -2.718073e+01
   1.928585e+02   5.876507e+01
   1.335129e+02   1.454957e+02
   4.088969e-01   1.088837e+02
  -7.944011e+01   3.941814e+01
  -9.068339e+01   8.230372e+01
  -9.515686e+01   1.110928e+02
  -1.130293e+02   5.750888e+01
  -9.900793e+01  -7.001037e+00
  -6.190038e+01  -1.508709e+02
   1.326801e+01  -1.820638e+02
   6.776474e+01  -1.684746e+02
   1.400550e+02  -7.151150e+00
   4.552541e+01   9.540568e+01
  -7.465687e+00   1.288911e+02
  -6.208720e+01   7.246589e+01
  -5.170093e+01  -2.469280e+01
   4.279747e+00  -7.127452e+01
   3.509812e+01  -4.933228e+01
  -5.996233e+01  -5.513196e+00
  -7.826329e+01  -2.001234e+01
  -9.393571e+00  -2.855637e+01
   6.189088e+01  -6.758205e+00
   1.245852e+02   1.792921e+01
   1.308607e+02   8.284568e+01
   5.118417e-01   5.397650e+01
  -1.008683e+02   3.787701e+01
  -6.266078e+01  -1.087202e+01
  -6.613319e+01  -2.197858e+01
   4.943575e+01  -4.867599e+01
   3.523430e+01   1.462476e+01
   4.436143e+01   5.447616e+01
  -4.985134e+01   6.188449e+01
  -2.543155e+01  -3.117583e+01
  -6.104673e+01  -2.990038e+01
  -6.097674e+01  -1.588125e+01
  -3.750543e+01  -1.017559e+01
  -1.774830e+01   9.951689e+00
  -3.670552e+01  -3.697065e+01
   6.133513e+01  -1.185953e+02
   1.204949e+02  -5.433537e+01
   1.053537e+02  -1.165251e+01
   8.946514e+01   7.651918e+01
   1.489947e+01   1.163205e+02
  -9.884356e+01   7.006893e+01
  -5.933478e+01  -8.896337e+00
   4.364842e+01   8.028917e+00
   5.871063e+01  -1.159295e+01
   4.341122e+01   6.485836e+01
  -4.947322e+01   8.044745e+01
  -1.968969e+02   6.507597e+00
  -1.300938e+02  -2.640165e+01
  -2.689034e+01  -2.360215e+01
   6.222084e+01  -6.682589e+01
   9.946920e+00  -1.347276e+01
  -1.191794e+01   1.562620e+01
  -3.158991e+01  -7.970468e+00
  -2.799574e+01  -6.295473e+01
   9.217519e+01  -1.019397e+02
   8.223975e+01  -2.034270e+01
   1.490267e+02   3.362028e+01
   3.867565e+01   1.647394e+02
  -7.840834e+01   1.024852e+02
  -8.290217e+01   1.314793e+01
  -5.114291e+01  -6.611322e+01
   2.190073e+01  -9.497126e+01
  -1.550177e+00   2.467653e+01
   2.085193e+01  -5.074423e+00
  -2.084881e+00   1.787249e+01
  -1.210473e+01  -3.088104e+01
   4.561622e+01   3.072952e+01
   3.198619e+01   8.498917e+01
   3.328457e+01   7.426260e+01
  -3.240233e+01   4.796403e+01
  -1.261517e+02   4.961704e-02
  -1.030557e+02  -7.291411e+01
   2.876484e+00  -6.710927e+01
   5.513702e+01  -4.873692e+01
   1.052140e+02  -3.978388e+00
   3.285400e+01  -6.780616e+00
   1.301243e+01   4.982110e+01
  -2.433078e+01   6.029149e+00
   1.035751e+01  -3.139426e+01
  -3.459874e+01   1.235843e+01
  -2.949843e+01  -2.896997e+01
  -2.784009e+01  -4.448730e+01
  -5.666699e+00  -2.622602e+01
   9.401883e+01  -7.665020e+01
   1.230075e+02  -3.044108e+01
   1.098375e+02   4.428283e+01
  -1.118935e+00   1.192809e+02
  -6.734600e+01   1.218077e+02
  -8.655498e+01   3.464799e+01
  -5.856112e+01   1.409495e+01
  -6.028836e+01  -2.422891e+01
  -3.764091e+00   2.164988e+01
  -2.284132e+01  -5.837735e+00
  -4.045623e+01  -4.598621e+01
  -1.298107e+01  -1.295386e+02
   5.943038e+01  -1.881742e+01
   6.537470e+01   4.144014e+01
   6.325837e+01   9.171084e+01
  -2.706089e+01   1.127850e+02
  -6.735598e+01   2.420349e+01
  -9.533414e+01  -6.310719e+01
  -1.529075e+01  -8.830892e+01
   2.014362e+01  -7.579604e+01
   1.165184e+02  -2.730904e+00
   6.641536e+01   2.453630e+01
  -4.227975e+01   2.306559e+01
  -3.698945e+00  -2.703468e+01
   1.746625e+01  -2.871810e+01
   2.188651e+01  -2.709609e+01
   1.466999e+01   1.825262e+01
  -9.028005e+01   8.152389e+01
  -9.176651e+01   3.098258e+01
  -4.179755e+01  -4.109456e+01
   7.553598e+00  -8.375821e+01
   3.205068e+01  -6.095696e+01
   4.217454e+01  -4.814489e+01
   1.852620e+01   3.606998e+01
  -1.249737e+01   7.247046e+01
  -1.427319e+00   3.007206e+01
   3.639076e+01  -2.176702e+01
   5.503489e+01   1.133975e+01
  -3.059060e+01  -4.283210e+01
   1.461229e+01  -1.589563e+01
  -8.656413e+00   2.820870e+01
  -6.770505e+00  -4.939564e+00
   2.467895e+01  -4.745496e-01
  -3.245436e+01   4.337013e+01
   4.706777e+00   8.286515e+00
   3.134597e+00   1.637265e+00
  -1.487335e+01  -2.429927e+01
  -1.521818e+01  -2.733516e+01
   2.065722e+01  -4.064594e+01
   3.461025e+01   4.482208e+01
   1.160736e+01   4.094314e+01
  -5.014411e+01   1.690008e+01
  -3.813661e+01   3.137332e+01
  -4.938092e+01  -4.591465e+00
   2.209839e+01  -3.090246e+01
   2.791835e+01   8.570204e+00
   2.889251e+01   3.900796e+01
  -2.004764e+01  -7.079843e+00
  -8.894988e+00  -2.605480e+01
   1.919606e+01  -4.886484e+01
   6.355035e+01  -1.825646e+01
