
 $NMID
 id='ANONYMOUS ', fmtdat='(2E16.6)'
 volume=1.0
 tramp=1.0
 $END
  -2.594455e+03  -8.625883e+01
  -1.548794e+03  -1.520060e+03
   5.177349e+01  -1.532547e+03
   1.051818e+03  -8.537477e+02
   7.236809e+02   7.840424e+01
  -1.425723e+02   2.218535e+02
  -3.574089e+02  -1.922843e+02
   6.662354e+01  -6.228142e+02
   4.175121e+02  -3.834971e+02
   4.351053e+02   3.444749e+01
   2.971689e+02   5.002226e+02
   4.044857e+01   6.586688e+02
  -2.702518e+02   2.638578e+01
  -1.474242e+02  -2.562113e+02
   1.314765e+02  -5.221248e+02
   3.579980e+02   9.784473e+01
   8.253048e+01   3.640711e+02
  -1.001260e+02   3.882723e+02
  -2.983378e+02   4.270345e+02
  -3.773763e+02  -1.425049e+02
  -1.180141e+02  -2.152260e+02
   2.516387e+01  -9.450079e+01
   1.536027e+02   1.109465e+01
  -1.100324e+01  -1.100954e+02
  -1.782201e+02  -1.750700e+02
  -2.693090e+02  -3.537361e+02
   2.999861e+02  -2.316106e+02
   5.747045e+02   8.897143e+01
   1.991917e+02   2.875331e+02
  -2.968874e+02   1.505237e+02
  -4.301523e+02   5.288307e+00
  -1.401799e+02  -1.906595e+02
   1.955562e+02  -3.235439e+02
   3.078538e+02  -1.352630e+02
   1.566870e+02   1.958059e+02
  -1.020033e+01   3.161918e+02
  -6.436535e+01   2.313625e+02
  -1.673879e+01  -1.066652e+02
   3.229995e+01  -2.107901e+02
   2.298574e+02   4.212027e+01
   1.160722e+02   3.773581e+02
  -1.112261e+02   3.458934e+02
  -2.959210e+02  -2.023748e+01
  -1.383379e+02  -2.237766e+02
   8.798917e+01  -1.005658e+02
   1.595052e+02   1.696896e+02
  -4.198583e+01   3.079023e+02
  -3.662390e+02   5.309884e+01
  -4.359251e+02  -3.062678e+02
  -1.277115e+02  -3.836521e+02
   2.426280e+02  -1.783248e+02
   4.116463e+02   7.728865e+01
   2.433582e+02   1.997914e+02
  -6.090209e+01   1.898912e+02
  -1.896166e+02   2.623910e+01
  -1.455515e+02  -2.230487e+01
   1.397885e+01   2.014589e+01
   2.567123e+01   8.066776e+01
  -8.934019e+01   7.161481e+01
  -2.039136e+02  -7.536268e+01
  -1.068248e+02  -1.355336e+02
   9.875564e+01  -1.342309e+02
   2.579919e+02  -1.988994e+01
   2.095118e+02   9.513711e+01
  -4.874572e+01   1.710325e+02
  -2.686135e+02   2.228350e+02
  -2.885699e+02   1.355335e+02
  -1.245840e+02  -1.034833e+02
  -9.082799e+00  -2.599912e+02
   2.898225e+01  -2.172888e+02
  -1.001365e+00  -9.925538e+01
  -2.761044e+00  -3.204652e+01
   8.474748e+01  -1.013949e+02
   1.552553e+02  -1.211567e+02
   1.740443e+02   3.875007e+00
   9.002199e+01   1.586959e+02
  -2.588811e+01   1.782456e+02
  -1.239831e+02  -2.225418e+01
  -1.003476e+02  -1.526518e+02
   4.351068e+01  -1.686805e+02
   1.842124e+02  -2.984010e+01
   2.479637e+02   1.178453e+02
   1.084182e+02   2.402290e+02
  -9.699281e+01   2.217991e+02
  -1.491876e+02   9.186448e+01
  -1.103310e+02  -2.122954e+00
  -4.836920e+01   5.473779e+00
  -1.304769e+02   1.879062e+01
  -2.275828e+02  -5.518007e+01
  -2.371636e+02  -1.544483e+02
   1.834309e+01  -3.278211e+02
   2.210906e+02  -2.654478e+02
   2.976868e+02  -1.166289e+02
   2.039344e+02   5.701158e+01
   4.395758e+01   1.995017e+02
  -4.715551e+01   1.351543e+02
   6.834199e+00   2.109716e+01
   9.195616e+01  -1.039847e+02
   1.336834e+02  -5.278970e+00
   6.294075e+01   1.628124e+02
  -9.972248e+01   1.417312e+02
  -9.843594e+01   4.993329e+00
  -1.169128e+01  -8.282375e+01
   1.329956e+02  -4.439518e+01
   1.363949e+02   1.532082e+02
  -2.294306e+01   2.530464e+02
  -1.689302e+02   1.907199e+02
  -2.812444e+02  -3.813801e+01
  -2.282308e+02  -1.809738e+02
  -8.961128e+01  -1.750979e+02
   7.534010e+01  -1.256702e+02
   1.306702e+02  -6.978208e+01
   4.157343e+01  -7.766245e+00
  -9.589727e+00  -6.325915e+01
  -1.841710e+01  -3.643772e+01
   7.970924e+01  -2.980071e+01
   1.643873e+02   1.254466e+01
   6.652922e+01   9.898104e+01
  -5.786839e+01   1.845733e+01
  -2.470447e+01  -6.092491e+01
   4.747228e+01  -8.914935e+01
   2.014524e+02   2.197702e+01
   1.898798e+02   1.241423e+02
   4.830316e+00   1.672709e+02
  -1.477465e+02   1.729284e+02
  -1.787654e+02   8.370310e+01
  -1.219416e+02  -5.055695e+01
   8.427784e+00  -5.623657e+01
   4.127028e+01   2.987787e+01
  -3.753095e+01   9.777340e+01
  -1.800841e+02   2.583808e+01
  -1.686814e+02  -1.130651e+02
  -5.046545e+01  -1.669263e+02
   6.113348e+01  -1.296629e+02
   1.246685e+02  -5.552815e+01
   2.200515e+01   2.566826e+01
  -7.545634e+01  -2.106377e+01
  -3.811392e+01  -5.706516e+01
   5.109663e+01  -8.705808e+01
   1.889645e+02   1.803913e+01
   1.441862e+02   7.121513e+01
  -4.814515e+01   1.554566e+02
  -1.376309e+02   9.891291e+01
  -1.549803e+02   1.512515e+01
  -4.460195e+01  -7.189298e+01
   5.222081e+01  -1.063454e+02
   7.552267e+01  -8.946431e+00
   3.331713e+01   4.135146e+01
  -2.109344e+01   2.045994e+01
   8.665431e+00  -1.747482e+01
   5.666825e+01   2.112056e+01
   6.431444e+01   7.547397e+01
  -3.983211e+00   1.278058e+02
  -1.156360e+02   1.373310e+02
  -1.631143e+02   1.962909e+01
  -1.420889e+02  -1.105091e+02
  -4.680873e+01  -1.931355e+02
   8.188355e+01  -1.251054e+02
   1.297953e+02  -5.365393e+00
   7.414069e+01   5.575881e+01
   5.486348e+01   2.261111e+01
   3.885656e+01  -5.675074e+00
   9.806180e+01   4.354225e+01
   1.154530e+01   4.910631e+01
  -3.908859e+01   6.939742e+01
  -8.770056e+01   1.650033e+01
  -9.018810e+01  -4.829569e+01
  -4.076023e+00  -1.251214e+02
   1.585809e+02  -7.091302e+01
   2.465277e+02   4.168688e+01
   9.209638e+01   1.448362e+02
  -1.272822e+02   2.150631e+02
  -2.136518e+02   1.374379e+02
  -2.328637e+02  -1.644164e+01
  -1.190065e+02  -1.205713e+02
   3.079892e+01  -1.054276e+02
   7.307775e+01  -4.425081e+01
   4.516474e+01  -2.316074e+01
   2.777957e+01  -8.474472e+01
   5.437688e+01  -1.064142e+02
   1.112263e+02  -7.295693e+00
   8.159925e+01   1.154985e+02
   3.204908e+01   1.775827e+02
  -5.875574e+01   1.186839e+02
  -1.264333e+02   1.836811e+01
  -1.403194e+02  -7.418579e+01
  -7.067557e+01  -8.093859e+01
   9.208986e+01  -6.648654e+01
   9.164814e+01   1.427738e+01
   4.239452e+01   5.950316e+01
  -2.659367e+01   2.699506e+01
   4.387292e+01   2.231401e+01
   1.191304e+02  -2.539486e+00
   2.513600e+01  -6.178594e+00
  -6.918213e+01  -9.359018e+00
  -1.123684e+02  -3.768825e+01
  -1.473426e+02  -3.585028e+01
  -6.247704e+01  -6.715964e+01
   7.274564e+01  -6.186162e+01
   1.080484e+02  -8.969072e+01
   7.668814e+01   9.836203e+00
   6.967708e+00   6.027530e+01
  -3.686539e+00   1.743525e+01
  -2.432178e+00  -6.977380e+01
  -1.625105e+01  -8.184982e+01
   3.469414e+01  -3.472186e+01
   3.908530e+01   9.370513e+00
   2.078248e+01   4.364103e+01
   3.374152e+01   1.176149e+01
   5.361433e+01  -7.289960e+00
   3.362241e+01   4.103900e+01
  -5.550602e+01   1.153622e+02
  -1.028575e+02   6.121928e+01
  -7.577169e+01  -1.808499e+01
  -7.241072e+01  -6.397345e+01
   3.255522e+01  -9.407541e+01
   9.896472e+01  -4.249651e+01
   1.011078e+02   2.019873e+00
  -3.354104e+01   4.084923e+01
  -1.382603e+02   3.480342e+00
  -8.857990e+01  -7.434943e+01
   4.109981e+01  -6.374538e+01
   1.606022e+02   1.915596e+01
   9.245165e+01   8.259803e+01
  -7.622385e+00   7.923955e+01
  -1.047822e+01   3.174725e+01
  -2.727048e+01   1.027107e+01
  -1.088091e+01  -2.368567e+01
   7.694426e+01  -1.779502e+01
   2.282285e+01   3.921453e+01
  -6.189617e+01   1.285757e+02
  -1.141153e+02   6.874507e+01
  -1.161375e+02  -4.427036e+01
  -3.153081e+01  -1.227330e+02
   2.969787e+01  -7.956479e+01
   5.290717e+01  -2.205110e+01
   4.048581e+01   1.129793e+02
  -4.241745e+00   9.322422e+01
  -1.266941e+01   6.644341e+01
  -1.800036e+01   5.667720e+00
  -3.415309e+01  -1.822066e+01
  -1.920388e+01  -1.988972e+01
  -5.403298e+01  -1.157212e+01
  -4.731194e+01  -6.957156e+01
  -1.192750e+01  -7.072852e+01
  -1.315900e+01  -1.289589e+01
   6.492016e+00   8.064821e+00
   9.021941e+01   1.603448e+01
   4.942742e+01   2.591559e+01
  -4.859626e+01   6.350947e+01
  -3.325975e+01   1.265510e+01
   2.085617e+01  -1.092238e+00
   3.956556e+01   1.649135e+01
  -1.323657e+01  -1.357099e+01
  -5.752631e+00  -3.640236e+01
   1.465797e+01  -2.067110e+01
   6.508547e+01  -7.084674e+00
   6.392634e+01   5.970082e+01
   4.144412e+00   7.801001e+01
  -1.088445e+02   7.600556e+01
  -1.401953e+02   4.387602e+01
  -7.469663e+01  -4.409545e+01
   2.179413e+01  -1.202312e+02
   9.076373e+01  -1.352594e+02
   9.085847e+01  -5.122819e+01
   4.388167e+01  -1.971373e+00
   2.041934e+01   3.393038e+01
  -1.112652e+01   3.067052e+01
   2.878447e+01  -1.160321e+01
   4.097732e+01   1.890250e+01
   3.554397e+01   8.765595e+01
  -2.973452e+01   5.095762e+01
  -1.013694e+02  -3.888385e+01
  -4.674086e+01  -9.938866e+01
   3.457447e+01  -8.841413e+01
   7.869860e+01   1.011934e+01
   6.998803e+01   7.323411e+01
   2.932091e+01   5.451227e+01
  -3.905369e+01   2.716929e+01
  -8.139228e+01  -1.260193e+01
  -4.368929e+01  -2.029907e+01
   2.993008e+01  -5.331923e+01
   4.484909e+01  -5.245965e+00
  -1.420704e+01   3.385881e+01
  -4.859821e+01   2.068252e+01
  -1.711338e+01  -1.316274e+01
   2.894130e+01  -4.337332e+01
   4.436691e+01  -5.623862e+01
  -4.805151e+00  -1.062459e+01
  -2.613395e+01   3.424416e+01
  -5.524432e+01   7.943268e+01
  -5.406538e+01   1.518439e+01
   1.966754e+01  -8.849004e+01
   1.521870e+01  -2.639275e+01
   3.996716e+01  -2.946933e+01
   5.410597e+00   3.386455e+01
   3.942009e+01   4.277954e+01
   5.597973e+00   3.130359e+01
  -1.522432e+01  -6.616992e+00
  -2.277453e+01   6.436811e+00
  -4.933049e+00   2.052223e+01
   2.370863e+01  -2.256407e+01
   1.873369e+01  -5.000824e+01
   4.921367e+00  -6.295039e+01
   4.138495e+00   3.455044e+00
   3.828299e+01   2.722165e+01
  -9.103079e+00   5.365356e+01
  -2.672553e+01   2.322232e+01
  -4.208165e+01   9.525708e+00
  -2.033409e+01  -7.015900e+00
   3.485953e+01   1.441278e+01
   6.520279e+01   3.925506e+00
   4.059570e+01   7.823645e+00
  -6.488077e+01   1.994821e+01
  -6.545710e+01   3.564196e+00
  -4.083844e+01   6.206428e+00
   4.023402e+01  -1.150336e+01
  -9.791813e+00   1.665055e+01
  -3.219836e+01   9.006256e+00
  -5.845042e+01   2.638320e+01
