
 $NMID
 id='ANONYMOUS ', fmtdat='(2E16.6)'
 volume=1.0
 tramp=1.0
 $END
   1.062127e+07  -2.274869e+05
   4.978014e+06   8.947174e+06
  -3.962244e+06   7.810311e+06
  -6.256065e+06  -1.094546e+05
  -1.710556e+06  -4.540633e+06
   2.322884e+06  -2.152410e+06
   1.763923e+06   1.681935e+06
  -8.249203e+05   2.202591e+06
  -2.050493e+06   4.005774e+05
  -1.736077e+06  -9.322553e+05
  -9.324070e+05  -1.278048e+06
   1.171869e+05  -1.237971e+06
   9.589778e+05  -7.441818e+05
   6.374638e+05  -5.295683e+03
  -5.313624e+05  -1.969825e+04
  -8.928392e+05  -9.310176e+05
   1.300262e+05  -1.518565e+06
   1.306686e+06  -1.085844e+06
   1.723072e+06  -2.795506e+05
   1.763378e+06   4.700801e+05
   1.504171e+06   1.521158e+06
   2.034603e+05   2.425114e+06
  -1.753031e+06   1.752642e+06
  -2.382431e+06  -4.489227e+05
  -8.404186e+05  -1.852126e+06
   9.811433e+05  -8.724123e+05
   9.568848e+05   9.925898e+05
  -4.882218e+05   1.312416e+06
  -1.446083e+06  -4.352804e+04
  -1.177883e+06  -1.364142e+06
  -2.687330e+05  -1.703187e+06
   7.956372e+05  -1.346442e+06
   1.642159e+06  -5.125298e+05
   1.477086e+06   6.248824e+05
   1.839415e+05   1.141523e+06
  -7.295293e+05   3.511217e+05
   3.768230e+04  -6.972614e+05
   1.379218e+06  -3.954840e+05
   1.228233e+06   9.338426e+05
  -2.350723e+05   1.466629e+06
  -9.098028e+05   7.605077e+05
  -2.275126e+05   2.949712e+05
   2.791712e+04   7.937104e+05
  -1.114986e+06   9.697045e+05
  -2.052821e+06  -1.876348e+05
  -1.180812e+06  -1.557071e+06
   5.398639e+05  -1.559780e+06
   1.103116e+06  -4.659619e+05
   3.183946e+05   2.816782e+05
  -4.077923e+05   1.706985e+05
  -3.218610e+05  -2.195312e+05
   1.487923e+05  -4.870591e+05
   5.841358e+05  -5.990296e+05
   8.879995e+05  -3.088995e+05
   7.478393e+05   4.309710e+05
   4.839182e+04   8.623549e+05
  -4.337588e+05   3.850293e+05
   2.505464e+04  -2.259238e+05
   6.958026e+05   1.837230e+05
   2.644444e+05   1.187553e+06
  -1.021271e+06   1.223040e+06
  -1.532655e+06  -2.267546e+03
  -7.231677e+05  -1.023460e+06
   1.097664e+05  -8.541129e+05
  -1.459949e+04  -2.779779e+05
  -3.303131e+05  -2.751377e+05
   9.611722e+04  -4.708002e+05
   6.569235e+05  -1.316082e+05
   2.999142e+05   3.124201e+05
  -5.460197e+05  -3.515038e+04
  -5.294981e+05  -8.987078e+05
   5.318519e+05  -1.097681e+06
   1.392514e+06  -2.472164e+05
   1.149856e+06   8.099152e+05
   2.185139e+05   1.216466e+06
  -5.437766e+05   9.092524e+05
  -7.814395e+05   2.388811e+05
  -5.411633e+05  -4.244656e+05
  -1.120423e+04  -6.405352e+05
   3.745452e+05  -1.866603e+05
   1.924114e+05   4.476410e+05
  -3.458849e+05   4.714492e+05
  -5.252650e+05  -1.459426e+05
  -8.928882e+04  -5.956832e+05
   4.130318e+05  -3.624049e+05
   4.301990e+05   1.521406e+05
   6.402832e+04   3.488680e+05
  -2.877100e+05   1.899870e+05
  -4.404142e+05  -5.843605e+04
  -3.190200e+05  -2.995911e+05
   1.417006e+05  -4.465591e+05
   6.581524e+05  -2.619591e+05
   6.444214e+05   2.165726e+05
   9.430018e+03   4.814709e+05
  -5.221483e+05   2.221481e+05
  -3.439758e+05  -1.585134e+05
   1.740239e+05  -1.415192e+05
   2.858293e+05   1.300367e+05
  -3.587990e+04   1.764079e+05
  -2.375613e+05  -1.837339e+04
  -1.481391e+05  -1.214918e+05
  -7.230686e+04  -1.362696e+05
  -3.822129e+04  -2.979683e+05
   2.576347e+05  -4.016063e+05
   6.740170e+05   1.502610e+04
   5.666125e+05   7.484230e+05
  -2.060048e+05   9.365876e+05
  -8.664692e+05   2.549366e+05
  -7.203033e+05  -5.364190e+05
  -7.434162e+04  -6.232624e+05
   2.976815e+05  -1.799965e+05
   2.040871e+05   8.424363e+04
   4.312082e+04  -1.505174e+04
   4.944120e+04  -1.001111e+05
   8.030499e+04   1.283983e+04
   3.088035e+04   1.095496e+05
  -2.302963e+04   5.047694e+04
  -6.648867e+04  -5.168685e+04
  -1.319235e+05  -1.306396e+05
  -7.567711e+04  -2.288495e+05
   2.431615e+05  -2.426741e+05
   5.727048e+05   4.545093e+03
   4.698739e+05   3.782778e+05
  -4.546452e+04   4.892248e+05
  -4.299434e+05   2.358487e+05
  -3.351075e+05  -3.687505e+04
  -3.026867e+04  -4.483510e+04
   6.334095e+04   7.622210e+04
  -6.802495e+04   7.569089e+04
  -1.710891e+05  -3.264938e+04
  -1.562560e+05  -9.931393e+04
  -1.077417e+05  -1.144241e+05
  -4.530027e+04  -1.326631e+05
   4.819826e+04  -1.062333e+05
   8.040748e+04  -1.286505e+04
  -1.581422e+04   4.736666e+03
  -8.845805e+04  -1.456621e+05
   4.924615e+04  -2.796179e+05
   2.969931e+05  -1.636144e+05
   3.653796e+05   1.228949e+05
   1.728351e+05   2.887046e+05
  -6.928859e+04   2.301347e+05
  -1.612667e+05   9.938888e+04
  -1.055811e+05   2.334659e+04
   5.156691e+03  -5.859504e+03
   8.960317e+04   1.677371e+04
   5.298272e+04   1.149433e+05
  -1.348811e+05   1.761005e+05
  -3.006362e+05   4.200749e+04
  -2.112680e+05  -1.951326e+05
   7.963786e+04  -2.336807e+05
   2.303442e+05   7.352898e+03
   5.172203e+04   2.277431e+05
  -2.352756e+05   1.461483e+05
  -3.045573e+05  -1.376305e+05
  -1.204044e+05  -3.314365e+05
   1.154826e+05  -3.235811e+05
   2.600398e+05  -1.926465e+05
   2.956524e+05  -5.067116e+03
   2.202079e+05   1.851033e+05
   6.966007e+04   2.510111e+05
  -2.230688e+04   1.375357e+05
   1.930183e+04   1.999514e+04
   4.680304e+04   8.928627e+04
  -1.162714e+05   2.243069e+05
  -3.482534e+05   1.291492e+05
  -3.253564e+05  -1.986069e+05
   2.350256e+04  -3.973383e+05
   3.722083e+05  -2.174334e+05
   3.915047e+05   1.533545e+05
   1.146047e+05   3.589713e+05
  -1.877744e+05   2.895064e+05
  -3.372585e+05   8.845519e+04
  -3.230552e+05  -1.005040e+05
  -1.820843e+05  -2.204341e+05
   2.339513e+04  -2.330665e+05
   1.703629e+05  -1.439165e+05
   1.735968e+05  -5.684053e+04
   1.036400e+05  -5.841244e+04
   9.085102e+04  -7.434676e+04
   1.315461e+05   2.657814e+04
   1.037436e+05   2.063527e+05
  -3.213525e+04   2.750517e+05
  -1.632826e+05   1.431042e+05
  -1.733060e+05  -6.736833e+04
  -7.000730e+04  -1.880244e+05
   5.643911e+04  -1.741202e+05
   1.263220e+05  -7.983351e+04
   1.050297e+05   3.222750e+04
   2.014783e+04   1.085063e+05
  -3.712720e+04   1.143266e+05
  -5.580359e+02   7.860007e+04
   6.260292e+04   6.772012e+04
   1.269845e+04   7.986264e+04
  -1.608549e+05   3.523418e+04
  -2.835204e+05  -8.945384e+04
  -1.986798e+05  -1.944647e+05
   3.651231e+04  -1.823222e+05
   2.213786e+05  -8.334050e+04
   2.315186e+05   5.984794e+03
   1.094273e+05   4.742585e+04
  -2.202505e+04   5.473431e+04
  -6.992481e+04   2.614970e+04
  -2.164103e+04  -2.793490e+04
   5.254545e+04  -3.936836e+04
   6.065875e+04   3.245767e+04
  -2.225065e+03   1.011712e+05
  -3.352515e+04   5.352757e+04
   3.788346e+04  -6.138791e+04
   1.292734e+05  -6.928989e+04
   9.690016e+04   7.750018e+04
  -6.623026e+04   2.065673e+05
  -2.084330e+05   1.475841e+05
  -1.992717e+05  -4.444866e+04
  -5.911640e+04  -1.698048e+05
   9.589000e+04  -1.266687e+05
   1.610556e+05   8.866184e+03
   8.562973e+04   1.040564e+05
  -9.728035e+04   8.878241e+04
  -2.430165e+05  -2.281388e+04
  -1.886132e+05  -1.492318e+05
   5.286603e+04  -1.833412e+05
   2.550055e+05  -8.649530e+04
   2.198523e+05   5.014270e+04
   1.752429e+04   9.234119e+04
  -1.030217e+05   1.911341e+04
  -2.092601e+04  -5.569580e+04
   1.315081e+05  -2.522492e+04
   1.555975e+05   9.428429e+04
   1.263341e+04   1.973188e+05
  -1.665788e+05   1.907841e+05
  -2.341738e+05   5.399397e+04
  -1.466210e+05  -1.432676e+05
   2.263738e+04  -2.594141e+05
   1.475502e+05  -1.822152e+05
   1.456382e+05   3.791332e+04
   4.226715e+04   2.005473e+05
  -6.311282e+04   1.611758e+05
  -9.821021e+04  -3.166375e+03
  -7.011521e+04  -9.604059e+04
  -2.570730e+04  -4.886325e+04
   5.676778e+02   1.369723e+04
  -3.362837e+03  -3.398873e+04
  -2.189308e+04  -1.429084e+05
  -3.496896e+03  -1.617376e+05
   8.840027e+04  -3.975404e+04
   1.920416e+05   1.130554e+05
   1.783490e+05   1.657943e+05
   1.622549e+04   1.085405e+05
  -1.492120e+05   3.132836e+04
  -1.588868e+05   7.201445e+02
  -4.351077e+04   2.793916e+02
   2.653292e+04  -1.433032e+04
  -1.775323e+04  -4.497337e+04
  -6.023321e+04  -5.784074e+04
   1.236500e+04  -3.626538e+04
   1.345941e+05   5.703315e+03
   1.467244e+05   5.386090e+04
   3.562567e+03   9.972966e+04
  -1.749787e+05   1.100867e+05
  -2.421693e+05   3.701448e+04
  -1.558559e+05  -1.062080e+05
   1.421672e+04  -2.113688e+05
   1.533793e+05  -1.743955e+05
   1.771408e+05  -2.711869e+04
   9.108124e+04   8.314785e+04
  -9.837722e+03   6.458110e+04
  -3.309250e+04  -1.324442e+04
   1.354196e+04  -1.885642e+04
   4.249556e+04   6.803930e+04
   2.040683e+03   1.333215e+05
  -6.579710e+04   7.459135e+04
  -8.745997e+04  -7.267673e+04
  -3.881595e+04  -1.722091e+05
   4.691329e+04  -1.291064e+05
   1.124895e+05   2.007645e+04
   1.024749e+05   1.484535e+05
   1.597304e+03   1.576347e+05
  -1.212450e+05   5.908309e+04
  -1.496776e+05  -5.275033e+04
  -4.945906e+04  -9.831847e+04
   6.658108e+04  -7.583252e+04
   6.198476e+04  -3.427947e+04
  -4.662867e+04  -1.204152e+04
  -1.025542e+05  -1.750256e+04
  -1.040764e+04  -4.369714e+04
   1.393561e+05  -6.764498e+04
   1.852277e+05  -4.870031e+04
   8.837386e+04   2.843753e+04
  -4.094647e+04   1.069750e+05
  -8.778586e+04   1.014075e+05
  -4.556455e+04   7.634763e+03
   1.677484e+04  -7.185242e+04
   4.698247e+04  -4.729631e+04
   4.116597e+04   4.456372e+04
   1.479403e+04   9.005231e+04
  -1.943121e+04   4.388825e+04
  -4.745101e+04  -2.650929e+04
  -5.370821e+04  -4.261214e+04
  -3.493541e+04  -1.008579e+04
  -4.912333e+03   9.159528e+03
   2.014126e+04  -1.452669e+04
   3.592874e+04  -4.874537e+04
   4.578316e+04  -4.438943e+04
   4.597088e+04   1.022754e+04
   2.349773e+04   7.449636e+04
  -2.490603e+04   8.637972e+04
  -7.250111e+04   2.193022e+04
  -7.309705e+04  -6.729498e+04
  -7.169087e+03  -9.546734e+04
   8.120816e+04  -3.591905e+04
   1.114526e+05   4.542573e+04
   4.809533e+04   6.863220e+04
  -4.979900e+04   3.155483e+04
  -8.220057e+04  -3.718287e+03
  -1.937235e+04   1.825935e+03
   5.760264e+04   2.847874e+04
   4.651292e+04   4.247440e+04
  -5.293829e+04   3.284959e+04
  -1.310221e+05  -2.243551e+03
