
 $NMID
 id='ANONYMOUS ', fmtdat='(2E16.6)'
 volume=1.0
 tramp=1.0
 $END
   6.560194e+07   3.643692e+06
   3.638935e+07   4.345179e+07
  -1.199602e+07   4.376491e+07
  -3.293067e+07   1.420159e+07
  -1.784566e+07  -9.956562e+06
   4.886652e+06  -1.032687e+07
   1.088773e+07   2.615155e+06
   1.976423e+06   1.133251e+07
  -7.865926e+06   9.668879e+06
  -1.101709e+07   1.247300e+06
  -7.572182e+06  -7.451036e+06
  -5.181844e+05  -9.716951e+06
   4.691295e+06  -3.030915e+06
   2.759609e+06   5.980644e+06
  -4.596297e+06   6.852398e+06
  -8.789925e+06  -2.224630e+06
  -4.297811e+06  -1.193509e+07
   5.159846e+06  -1.318659e+07
   1.201791e+07  -6.179602e+06
   1.248777e+07   2.942283e+06
   7.450897e+06   9.189789e+06
   2.845841e+05   1.043418e+07
  -4.183137e+06   6.995919e+06
  -2.853697e+06   2.549803e+06
   1.055980e+06   1.771887e+06
   4.944349e+05   4.418439e+06
  -5.907045e+06   4.988970e+06
  -1.085413e+07   5.234464e+05
  -7.964735e+06  -4.879964e+06
  -3.670413e+05  -5.975854e+06
   4.126900e+06  -3.177432e+06
   3.032355e+06  -3.123178e+05
  -7.685511e+04   9.612964e+05
  -2.084620e+06   8.442295e+05
  -2.533447e+06  -1.193543e+06
  -1.063687e+06  -4.317385e+06
   2.137105e+06  -4.501976e+06
   4.078713e+06   1.356396e+05
   2.080343e+06   4.454239e+06
  -1.174246e+06   2.556266e+06
  -6.701607e+05  -2.552640e+06
   2.707929e+06  -2.387446e+06
   2.475136e+06   3.826813e+06
  -3.449023e+06   6.784460e+06
  -8.363122e+06   4.792300e+05
  -5.486312e+06  -8.527120e+06
   2.926246e+06  -9.762832e+06
   8.738549e+06  -2.328045e+06
   7.505204e+06   5.382112e+06
   1.600457e+06   6.737974e+06
  -3.979369e+06   2.693152e+06
  -5.568050e+06  -2.039974e+06
  -2.291747e+06  -3.975769e+06
   2.965581e+06  -2.216550e+06
   5.040047e+06   1.414518e+06
   1.942240e+06   3.242959e+06
  -2.073257e+06   1.435728e+06
  -1.798397e+06  -1.223925e+06
   1.669479e+06  -7.257450e+05
   2.531352e+06   2.455969e+06
  -1.354409e+06   3.968233e+06
  -5.702037e+06   1.673009e+06
  -5.917168e+06  -2.126581e+06
  -2.270745e+06  -4.757284e+06
   2.230599e+06  -5.902137e+06
   5.672674e+06  -5.357033e+06
   7.033084e+06  -1.857559e+06
   5.201131e+06   3.699918e+06
   9.042505e+05   6.978688e+06
  -2.358668e+06   5.122311e+06
  -2.017437e+06   9.872112e+05
   1.182780e+05  -4.913127e+05
   4.154256e+05   1.194503e+06
  -1.604279e+06   2.263651e+06
  -3.170080e+06   5.313731e+05
  -2.408716e+06  -1.953415e+06
  -2.371390e+05  -2.319102e+06
   1.532118e+06  -3.424578e+05
   1.789494e+06   2.113261e+06
   3.707095e+04   3.178164e+06
  -3.078748e+06   1.877224e+06
  -5.062088e+06  -1.359693e+06
  -3.606214e+06  -4.384405e+06
   2.166243e+05  -4.906715e+06
   2.811264e+06  -3.037942e+06
   2.672008e+06  -1.112766e+06
   2.070064e+06  -5.692017e+05
   3.194345e+06  -3.565590e+05
   4.684292e+06   9.901680e+05
   3.693592e+06   3.101800e+06
   4.528055e+04   4.458363e+06
  -3.509296e+06   4.177489e+06
  -4.531324e+06   2.325406e+06
  -2.950557e+06  -3.998609e+05
  -4.058293e+05  -2.449630e+06
   1.156832e+06  -2.177360e+06
   6.445996e+05   1.545997e+04
  -1.176564e+06   1.439088e+06
  -2.112104e+06   3.958296e+05
  -1.024045e+06  -1.374040e+06
   5.413780e+05  -1.212291e+06
   3.762200e+05   4.092520e+05
  -1.228802e+06   5.588627e+05
  -1.854045e+06  -1.702295e+06
  -3.000325e+05  -3.851822e+06
   2.052531e+06  -3.375951e+06
   3.379110e+06  -7.717942e+05
   3.300698e+06   1.740727e+06
   2.223257e+06   2.888535e+06
   4.287270e+05   2.698285e+06
  -1.320277e+06   1.563374e+06
  -1.694339e+06   2.592635e+05
  -5.305538e+05  -5.799317e+04
   3.688291e+05   8.230537e+05
  -5.214350e+05   1.463669e+06
  -2.142600e+06   5.637033e+05
  -2.187634e+06  -1.075825e+06
  -3.346397e+05  -1.576156e+06
   1.292076e+06  -5.686808e+05
   9.028451e+05   4.982289e+05
  -9.278078e+05   4.496241e+05
  -2.235709e+06  -4.593041e+05
  -1.729495e+06  -1.445988e+06
   3.348667e+05  -2.009377e+06
   2.483148e+06  -1.678885e+06
   2.979007e+06  -2.251398e+05
   1.283019e+06   1.427559e+06
  -1.071166e+06   1.646420e+06
  -1.756970e+06   1.591523e+05
  -2.127860e+05  -1.221684e+06
   1.676369e+06  -7.741548e+05
   1.826673e+06   9.096877e+05
   2.716968e+05   1.779858e+06
  -1.226534e+06   9.577548e+05
  -1.309123e+06  -4.282195e+05
  -1.872333e+05  -8.554997e+05
   8.959734e+05  -1.940412e+04
   7.914002e+05   1.172858e+06
  -6.395143e+05   1.552094e+06
  -2.190093e+06   5.753238e+05
  -2.202409e+06  -1.170415e+06
  -3.720418e+05  -2.265863e+06
   1.615914e+06  -1.742042e+06
   1.873506e+06  -1.636712e+05
   4.947165e+05   9.559382e+05
  -7.391283e+05   8.354961e+05
  -6.575366e+05   8.506576e+04
   1.386342e+05  -3.201684e+05
   4.641214e+05  -1.767963e+05
   4.430673e+04   1.652942e+04
  -4.959322e+05  -1.943145e+05
  -4.889281e+05  -7.905067e+05
   2.994875e+05  -1.270348e+06
   1.524633e+06  -9.203651e+05
   2.240725e+06   4.976963e+05
   1.550009e+06   2.135808e+06
  -2.731154e+05   2.600123e+06
  -1.745376e+06   1.453275e+06
  -1.761809e+06  -1.849594e+05
  -8.563841e+05  -9.137215e+05
  -3.501354e+05  -5.972437e+05
  -5.908088e+05  -2.034516e+05
  -7.262331e+05  -3.994164e+05
  -7.660563e+04  -8.719487e+05
   9.777194e+05  -9.348905e+05
   1.540253e+06  -2.941893e+05
   1.075219e+06   7.651969e+05
  -3.054322e+05   1.501545e+06
  -1.854860e+06   1.088608e+06
  -2.390186e+06  -5.649171e+05
  -1.147965e+06  -2.286504e+06
   1.187100e+06  -2.519523e+06
   2.788694e+06  -1.013490e+06
   2.477390e+06   8.018228e+05
   9.279328e+05   1.435028e+06
  -2.556372e+05   9.341966e+05
  -3.582835e+05   5.015697e+05
  -1.608790e+04   8.538356e+05
  -1.143667e+05   1.478810e+06
  -7.776023e+05   1.413220e+06
  -1.435172e+06   3.237076e+05
  -1.441537e+06  -1.189135e+06
  -5.779594e+05  -2.054953e+06
   6.880231e+05  -1.544865e+06
   1.378503e+06   3.356923e+04
   8.293496e+05   1.419686e+06
  -4.896128e+05   1.488279e+06
  -1.291202e+06   3.486587e+05
  -8.392062e+05  -8.454829e+05
   2.213843e+05  -1.180861e+06
   6.560944e+05  -7.996837e+05
   1.160263e+05  -4.097416e+05
  -4.806871e+05  -3.588813e+05
  -6.955772e+04  -4.111930e+05
   1.263211e+06  -1.895465e+05
   2.249428e+06   4.196296e+05
   1.720555e+06   1.170144e+06
  -1.189908e+05   1.565182e+06
  -1.790540e+06   1.200698e+06
  -1.988830e+06   2.306917e+05
  -8.545183e+05  -5.986148e+05
   3.239003e+05  -6.278991e+05
   5.591495e+05   1.122368e+03
   3.116018e+04   4.954205e+05
  -4.667971e+05   2.893782e+05
  -5.221564e+05  -3.774982e+05
  -3.117006e+05  -7.875381e+05
  -1.390812e+05  -5.310211e+05
  -1.329818e+05   7.174794e+04
  -2.577553e+05   2.870332e+05
  -2.840394e+05  -2.556120e+05
   1.380551e+05  -1.055474e+06
   9.906282e+05  -1.147089e+06
   1.536867e+06  -1.824830e+05
   9.621390e+05   1.016124e+06
  -4.783333e+05   1.267858e+06
  -1.409299e+06   3.814692e+05
  -7.975154e+05  -6.157366e+05
   7.757940e+05  -6.759719e+05
   1.682086e+06   1.460147e+05
   1.004965e+06   9.365702e+05
  -5.694643e+05   1.003746e+06
  -1.587091e+06   4.311204e+05
  -1.271139e+06  -2.445585e+05
  -1.160704e+05  -5.363832e+05
   7.027393e+05  -2.556794e+05
   4.218990e+05   3.436995e+05
  -6.224714e+05   5.901396e+05
  -1.295030e+06  -6.306979e+04
  -7.673211e+05  -1.277971e+06
   6.029708e+05  -1.872529e+06
   1.594677e+06  -9.889809e+05
   1.359227e+06   8.082652e+05
   2.159271e+05   1.924490e+06
  -7.990844e+05   1.361203e+06
  -9.749576e+05  -2.289940e+05
  -4.167606e+05  -1.281795e+06
   2.831733e+05  -1.001781e+06
   6.142587e+05  -6.163055e+04
   4.674550e+05   3.922412e+05
   1.409465e+05   1.256214e+05
   6.438948e+04  -8.574101e+04
   3.461675e+05   3.640587e+05
   5.587232e+05   1.063496e+06
   1.523673e+05   1.140640e+06
  -8.246109e+05   3.944632e+05
  -1.578124e+06  -5.084316e+05
  -1.327693e+06  -8.976586e+05
  -1.857590e+05  -7.619801e+05
   8.835633e+05  -4.631719e+05
   1.042188e+06  -1.790039e+05
   4.156679e+05   9.400925e+04
  -1.435923e+05   2.516093e+05
  -8.125678e+04   1.821057e+05
   2.416701e+05   5.914672e+04
   7.628164e+04   1.467229e+05
  -6.642458e+05   2.909005e+05
  -1.143379e+06   1.360099e+03
  -5.442215e+05  -7.803425e+05
   8.681745e+05  -1.321499e+06
   1.886621e+06  -8.490621e+05
   1.603790e+06   4.530664e+05
   3.241992e+05   1.517819e+06
  -8.478269e+05   1.504368e+06
  -1.146714e+06   6.222305e+05
  -7.108816e+05  -2.166874e+05
  -1.696976e+05  -3.953982e+05
   3.702575e+04  -1.183057e+05
  -9.542940e+04  -2.428969e+04
  -2.954906e+05  -4.073847e+05
  -2.468519e+05  -8.691138e+05
   1.838992e+05  -7.517324e+05
   7.378851e+05   8.690386e+04
   8.491233e+05   9.986966e+05
   1.917517e+05   1.139823e+06
  -7.946878e+05   3.363792e+05
  -1.157650e+06  -7.281495e+05
  -4.209089e+05  -1.191110e+06
   7.699207e+05  -7.831417e+05
   1.244903e+06   6.422895e+04
   6.024742e+05   7.068808e+05
  -3.235400e+05   7.872461e+05
  -4.581550e+05   4.016802e+05
   2.221565e+05  -2.456568e+04
   6.922955e+05  -5.892703e+04
   1.762405e+05   3.472874e+05
  -8.886703e+05   7.337393e+05
  -1.395730e+06   5.431549e+05
  -8.684172e+05  -2.411386e+05
   9.915687e+04  -9.647902e+05
   6.433564e+05  -9.416000e+05
   5.214811e+05  -2.032161e+05
   9.513939e+04   5.044115e+05
  -2.528879e+05   5.049259e+05
  -3.916835e+05  -1.089725e+05
  -2.885482e+05  -6.238300e+05
   5.128141e+04  -5.101588e+05
   4.316984e+05   2.451824e+04
   5.267198e+05   3.373573e+05
   2.569195e+05   1.322452e+05
  -5.345913e+04  -2.057556e+05
  -7.183619e+04  -1.236960e+05
   9.029379e+04   3.688718e+05
   3.280227e+04   6.730120e+05
  -3.348789e+05   3.354010e+05
  -5.791226e+05  -3.648084e+05
  -2.647386e+05  -7.142233e+05
   4.205130e+05  -3.759611e+05
   7.645367e+05   2.709783e+05
   3.120601e+05   6.056653e+05
  -5.628883e+05   4.062312e+05
  -9.932195e+05  -5.643752e+04
  -5.393564e+05  -4.065067e+05
   3.229627e+05  -4.749182e+05
   7.151153e+05  -2.974366e+05
   3.122536e+05  -2.152004e+04
  -3.301097e+05   1.315196e+05
  -4.350485e+05  -3.380051e+03
   1.261752e+05  -2.956598e+05
   7.302472e+05  -3.237176e+05
