
 $NMID
 id='ANONYMOUS ', fmtdat='(2E16.6)'
 volume=1.0
 tramp=1.0
 $END
   3.572645e+03  -6.953733e+01
   2.001474e+03   2.202248e+03
  -4.481076e+02   2.171781e+03
  -1.574910e+03   8.561404e+02
  -8.822088e+02  -2.491014e+02
   5.519877e+02  -3.298141e+02
   5.964969e+02   3.130595e+02
  -8.982278e+01   8.037366e+02
  -6.066940e+02   6.902512e+02
  -7.411112e+02  -2.359339e+01
  -3.749852e+02  -6.572001e+02
   8.646373e+01  -6.804044e+02
   4.636857e+02  -7.586883e+01
   2.669683e+02   5.816398e+02
  -2.345704e+02   5.657804e+02
  -4.831710e+02  -2.462415e+01
  -2.280873e+02  -5.186040e+02
   2.709195e+02  -5.476980e+02
   4.429291e+02  -9.268219e+01
   3.556019e+02   2.688081e+02
   2.220807e+01   3.975003e+02
  -2.051193e+02   2.010245e+02
  -1.702272e+02   4.676869e+01
   1.215599e+02   2.578566e+01
   3.227196e+02   1.940558e+02
   1.096069e+02   4.555433e+02
  -4.765636e+02   3.081741e+02
  -7.362060e+02  -1.404518e+02
  -2.612327e+02  -4.370858e+02
   2.814035e+02  -2.815669e+02
   6.001402e+02   1.180183e+02
   2.696748e+02   3.792084e+02
  -2.796822e+02   4.041531e+02
  -4.337432e+02   1.722604e+02
  -3.408739e+02  -2.088091e+02
  -5.257435e+01  -3.105690e+02
   1.217888e+02  -2.158654e+02
   7.602558e+01   1.496310e+02
  -1.695877e+02   2.642165e+02
  -3.297240e+02  -9.913793e+01
  -6.344041e+01  -6.196030e+02
   2.496486e+02  -5.638840e+02
   5.080376e+02   2.547513e+01
   1.823387e+02   3.660913e+02
  -1.879402e+02   1.812514e+02
  -2.191516e+02  -2.618760e+02
   1.186079e+02  -4.311996e+02
   4.900058e+02  -5.271697e+01
   4.710195e+02   3.325376e+02
   1.399909e+02   4.927877e+02
  -3.679273e+02   2.742900e+02
  -5.265676e+02  -7.091067e+01
  -3.249594e+02  -3.027403e+02
   1.027746e+02  -3.025683e+02
   3.419102e+02  -9.088137e+01
   1.856018e+02   1.192188e+02
  -6.500651e+01   8.511846e+01
  -9.433967e+01  -9.210622e+01
   1.300993e+02  -1.433807e+02
   2.558631e+02   5.510617e+01
   1.204161e+02   2.228554e+02
  -1.742855e+02   2.150259e+02
  -3.027291e+02   6.816156e+01
  -2.098998e+02  -4.926157e+01
   5.149234e+01  -2.428064e+02
   2.251636e+02  -2.950539e+02
   3.050250e+02  -1.531502e+02
   2.265947e+02   1.351082e+02
   8.861434e+01   3.610013e+02
  -9.486730e+01   3.147688e+02
  -9.590580e+01   1.301540e+02
  -3.515799e+01   5.217996e+01
  -8.163564e+01   7.861561e+01
  -2.045500e+02   1.248897e+02
  -2.329480e+02  -7.299847e+01
  -1.277750e+02  -2.115193e+02
   6.552633e+01  -2.150084e+02
   1.878896e+02   1.080149e+01
   1.832497e+02   1.946137e+02
  -1.433769e+01   2.571818e+02
  -2.367667e+02   4.664319e+01
  -3.061707e+02  -1.873674e+02
  -1.686215e+02  -3.185219e+02
   9.137462e+01  -2.658274e+02
   1.841080e+02  -1.080002e+02
   1.384825e+02  -9.469128e+00
   1.085724e+02  -2.932781e+01
   2.288881e+02  -4.940398e+01
   3.544668e+02   5.192662e+01
   2.855949e+02   2.403569e+02
  -7.332047e+00   3.872465e+02
  -3.391352e+02   3.657336e+02
  -4.742499e+02   1.623981e+02
  -3.000385e+02  -9.571926e+01
  -2.847715e+01  -2.212526e+02
   1.081360e+02  -2.126725e+02
   5.771434e+01  -9.477571e+00
  -1.005295e+02   9.031741e+01
  -1.404650e+02  -2.479853e+01
  -4.772599e+01  -1.751913e+02
   1.629597e+02  -1.374882e+02
   1.579939e+02   8.930631e+01
  -1.020838e+01   1.598547e+02
  -1.744104e+02   1.413637e+01
  -1.393223e+02  -2.229020e+02
   9.705627e+00  -3.250255e+02
   2.121582e+02  -1.944234e+02
   3.275603e+02   6.372589e+01
   2.372159e+02   2.326504e+02
   9.627545e+01   2.333866e+02
  -1.275463e+02   1.239000e+02
  -1.502688e+02  -1.987398e+01
  -2.442526e+01  -4.460685e+01
   4.922719e+01   4.098280e+01
   9.292208e+00   8.038544e+01
  -1.061463e+02   9.614948e+01
  -1.569877e+02   2.361331e+00
  -4.491495e+01  -4.693094e+01
   8.351330e+01   3.526841e+01
   3.713685e+01   6.987159e+01
  -1.304137e+02   7.980508e+01
  -2.690198e+02   9.856896e+00
  -2.233871e+02  -1.100404e+02
  -5.669763e+01  -2.326067e+02
   1.480917e+02  -2.089512e+02
   2.352800e+02  -9.426609e+01
   1.477447e+02   2.887110e+01
  -2.244263e+01   8.828552e+01
  -8.706208e+01   5.160550e+00
   2.550986e+01  -6.442128e+01
   1.927924e+02  -3.740617e+01
   1.689898e+02   9.725528e+01
   6.815179e+01   2.051058e+02
  -8.604135e+01   1.379040e+02
  -1.448790e+02   1.350417e+01
  -4.623466e+01   4.403633e-02
   1.602503e+01   1.768312e+01
   1.015609e+01   7.170490e+01
  -4.558848e+01   1.091024e+02
  -1.884116e+02   1.681468e+01
  -1.580083e+02  -1.168628e+02
  -2.332659e+01  -1.877151e+02
   1.109092e+02  -1.111226e+02
   1.835503e+02  -6.081981e+00
   4.919704e+01   9.000392e+01
  -6.320854e+01   8.291755e+01
  -6.797547e+01   1.374786e+01
  -1.883452e+00  -1.484291e+01
   1.063586e+01  -1.246007e+01
  -2.147607e+01   6.011335e+00
  -6.272324e+01  -3.104380e+01
  -9.822425e+01  -6.781036e+01
   6.257864e+00  -1.663584e+02
   1.185874e+02  -1.590359e+02
   2.039926e+02  -3.766505e+01
   1.796897e+02   1.229896e+02
   4.202730e+01   2.099260e+02
  -9.632568e+01   1.174526e+02
  -1.065718e+02   3.497042e+01
  -8.353683e+01  -5.653202e+01
  -4.223238e+01  -1.383712e+01
  -4.074279e+01   2.808901e+01
  -7.128260e+01   6.488007e+00
  -3.871630e+01  -3.027526e+01
   5.073394e+01  -9.256619e+01
   8.325777e+01  -4.429899e+01
   9.528958e+01   3.729206e+01
  -3.451453e+00   1.194191e+02
  -1.556281e+02   1.030614e+02
  -1.842714e+02  -5.137675e+01
  -9.014172e+01  -1.903381e+02
   9.880901e+01  -2.018642e+02
   2.602705e+02  -4.910048e+01
   2.303086e+02   6.276562e+01
   8.582193e+01   1.454461e+02
  -4.877600e+01   1.333616e+02
  -6.938805e+01   8.654947e+01
  -8.360413e+01   8.335277e+01
  -5.963517e+01   1.085686e+02
  -8.710711e+01   7.581792e+01
  -9.123155e+01  -6.141196e+00
  -1.072408e+02  -1.578893e+02
  -1.913272e+01  -2.133696e+02
   7.516791e+01  -1.791303e+02
   1.391437e+02   2.131807e+00
   1.214308e+02   1.045896e+02
   3.125728e+01   1.414473e+02
  -6.693626e+01   8.808550e+01
  -3.890432e+01  -1.468110e+01
  -1.880440e+00  -3.170623e+01
  -7.069778e+00  -5.175762e+01
  -5.962399e+01  -9.366715e+00
  -8.731174e+01  -3.748665e+01
  -6.377340e+01  -7.662530e+00
   8.369633e+01  -3.352208e+01
   1.795927e+02  -2.802564e+01
   1.099099e+02   6.208575e+01
  -1.592160e+00   9.691412e+01
  -1.221016e+02   5.185415e+01
  -1.122301e+02   2.218437e+01
  -5.148313e+01  -4.420410e+01
   7.299687e+01  -3.206139e+01
   5.642111e+01   3.156359e+01
   2.834044e+01   6.774181e+01
  -5.258641e+01   7.409417e+01
  -5.028020e+01   5.235164e-01
  -6.138539e+01  -2.861662e+01
  -3.608726e+01  -3.633023e+01
  -3.277346e+01   9.270223e+00
  -5.620996e+01  -1.634306e+00
  -2.141010e+01  -5.723834e+01
   4.422402e+01  -1.585691e+02
   1.117900e+02  -1.268564e+02
   1.446417e+02  -3.210493e+01
   1.026038e+02   5.464073e+01
   9.330762e+00   1.418058e+02
  -1.079391e+02   7.922407e+01
  -4.279156e+01  -1.536158e+00
   3.820858e+01  -2.203833e+01
   1.415562e+02   3.106230e+01
   6.510803e+01   1.014566e+02
  -8.613504e+01   1.018813e+02
  -1.787368e+02   3.636156e+01
  -1.365829e+02   9.659246e-01
  -5.160769e+01  -8.665888e+01
   4.890900e+01  -4.378472e+01
   3.577324e+01  -6.156300e+00
  -4.506063e+01   1.637994e+01
  -7.807942e+01  -2.991923e+01
  -4.351662e+01  -8.034326e+01
   6.947311e+01  -1.468162e+02
   1.479283e+02  -6.207565e+01
   8.530296e+01   8.535052e+01
   3.228876e+01   1.772912e+02
  -9.996304e+01   1.188277e+02
  -8.532691e+01   5.272301e-01
  -7.287815e+01  -1.219134e+02
   1.615378e+01  -8.896315e+01
   3.438364e+01  -1.718889e+01
   9.863919e+01   2.079726e+01
   1.148842e+01  -3.087108e+00
   1.915023e+01  -3.042505e+01
   1.873380e+01   1.292810e+01
   4.835407e+01   8.425039e+01
   3.380132e+01   1.010041e+02
  -5.568780e+01   3.479902e+01
  -9.959352e+01  -4.013165e+01
  -1.230259e+02  -7.661377e+01
  -3.938414e+01  -4.478368e+01
   5.393006e+01  -3.900058e+01
   8.412409e+01  -1.766057e+00
   8.141741e+00   2.086002e+01
  -5.370020e+01   5.291889e+00
  -1.241436e+01   3.231068e+01
   3.591228e+01   1.464107e+01
   8.949427e-01   2.082712e+01
  -7.720426e+01  -1.517027e+01
  -8.160073e+01  -2.711786e+01
  -2.616887e+01  -7.323137e+01
   1.259087e+02  -9.512752e+01
   1.502752e+02  -6.902477e+01
   1.213243e+02   6.738618e+01
   1.739174e+01   1.447533e+02
  -6.221451e+01   1.432010e+02
  -1.044667e+02   5.787448e+01
  -4.396019e+01  -4.226351e+00
  -8.008650e+00  -2.926035e+01
  -6.132205e+00  -3.972774e-01
  -6.754169e+00  -1.301292e+01
  -3.428212e+01  -2.099749e+01
  -3.144322e+01  -8.146523e+01
   2.335459e+01  -8.687269e+01
   8.579004e+01   1.021626e+01
   4.885820e+01   9.488880e+01
  -1.732138e+00   9.856203e+01
  -8.891303e+01   4.236329e+01
  -9.917968e+01  -4.646030e+01
  -4.013853e+01  -1.014454e+02
   4.780292e+01  -6.031058e+01
   7.841330e+01   1.781092e+01
   3.516950e+01   3.477680e+01
  -4.655417e+01   3.540022e+01
  -6.447139e+01   3.771546e+01
   5.647412e+00   8.962934e+00
   3.568917e+01  -1.086203e+01
  -8.494122e+00   3.328046e+01
  -9.481023e+01   5.854545e+01
  -1.195545e+02   4.405062e+01
  -4.923930e+01  -1.346523e+01
   1.827189e+01  -7.651309e+01
   3.773463e+01  -7.575725e+01
   2.329301e+01  -2.529485e+01
   3.906176e+00   6.933860e+01
  -6.766511e+00   5.299326e+01
  -5.769074e+01  -1.678651e+01
   1.017921e+01  -7.406297e+01
  -1.075692e+01  -5.213759e+01
   3.146866e+01   1.188024e+01
   2.932850e+01   2.664993e+01
  -2.281309e+00   8.994595e+00
   2.003583e+01  -1.749474e+01
   1.308466e+01   1.179426e+01
   9.570015e+00   3.148751e+01
  -3.091686e+01   8.131064e+01
  -3.478255e+01  -2.478549e+01
  -5.652221e+01  -1.372525e+01
  -5.105789e+00  -6.953272e+01
   4.631644e+01  -1.057286e+01
   2.918645e+01   3.113219e+01
   3.232921e+01   3.434936e+01
  -4.656597e+01   2.984492e+01
  -7.608526e+01  -1.390736e+01
  -4.430326e+01  -4.968695e+01
   3.398057e+01  -2.337131e+01
   4.751287e+01  -2.389512e+01
   1.711372e+01   1.531091e+01
  -7.275324e+01  -4.067147e+00
  -4.120837e+01  -1.333779e+01
   2.644952e+01  -2.128612e+00
   6.169732e+01  -1.276155e+01
