
 $NMID
 id='ANONYMOUS ', fmtdat='(2E16.6)'
 volume=1.0
 tramp=1.0
 $END
  -4.170668e+03  -3.875964e+02
  -2.146649e+03  -2.511590e+03
   6.621144e+02  -2.469953e+03
   1.873981e+03  -6.864168e+02
   9.505975e+02   4.908535e+02
  -5.256801e+02   3.018862e+02
  -7.895485e+02  -5.448342e+02
   1.268872e+02  -9.387259e+02
   8.023812e+02  -6.989641e+02
   8.919168e+02   4.739909e+01
   4.275006e+02   8.166244e+02
  -2.568966e+02   7.827777e+02
  -5.126243e+02   8.559099e+01
  -3.311158e+02  -6.572083e+02
   2.465005e+02  -7.010351e+02
   5.632414e+02   8.600692e+00
   2.232007e+02   6.551269e+02
  -3.249849e+02   6.141973e+02
  -4.871028e+02   1.191731e+02
  -3.602838e+02  -3.382557e+02
  -3.488538e+01  -4.273139e+02
   2.049331e+02  -2.364320e+02
   1.730734e+02   1.640779e+01
  -1.300612e+02   3.790704e+01
  -4.051769e+02  -1.224470e+02
  -1.708738e+02  -4.398075e+02
   4.936961e+02  -3.680828e+02
   8.102631e+02   2.513980e+02
   3.489127e+02   5.539869e+02
  -3.430407e+02   4.279349e+02
  -7.116736e+02  -8.693438e+01
  -2.665495e+02  -4.665309e+02
   3.436805e+02  -5.141068e+02
   5.310646e+02  -1.524953e+02
   3.713694e+02   2.250810e+02
   1.204613e+02   4.258977e+02
  -1.868051e+02   1.945604e+02
  -1.516052e+02  -2.620226e+02
   2.615830e+02  -4.173979e+02
   4.412041e+02   1.141390e+02
   1.553925e+02   7.201971e+02
  -3.662237e+02   6.858603e+02
  -5.473052e+02  -8.829873e+01
  -2.157484e+02  -5.799137e+02
   2.980496e+02  -2.817982e+02
   3.549448e+02   3.165485e+02
  -1.150205e+02   5.440025e+02
  -5.108655e+02   1.432118e+02
  -5.936267e+02  -4.293208e+02
  -1.895156e+02  -5.531864e+02
   3.947676e+02  -3.511541e+02
   6.024192e+02   1.230588e+02
   2.820521e+02   3.976312e+02
  -2.011881e+02   3.267750e+02
  -4.125678e+02   6.465183e+00
  -2.199300e+02  -2.312118e+02
   1.287018e+02  -3.995268e+01
   9.906447e+01   1.796571e+02
  -1.888257e+02   1.532561e+02
  -3.087778e+02  -1.146197e+02
  -1.003493e+02  -3.003148e+02
   1.835627e+02  -2.682972e+02
   3.357763e+02  -6.871990e+01
   2.008010e+02   8.030111e+01
  -1.111393e+01   2.255130e+02
  -2.264641e+02   3.343555e+02
  -3.443638e+02   2.088476e+02
  -2.952751e+02  -1.339748e+02
  -6.706441e+01  -4.342089e+02
   1.114482e+02  -3.557539e+02
   1.046819e+02  -1.300838e+02
   2.676753e+01   1.864807e+01
   4.760896e+01  -1.146424e+02
   1.993925e+02  -1.140426e+02
   3.001514e+02   5.497484e+01
   1.600547e+02   2.355172e+02
  -8.658702e+01   2.359490e+02
  -2.653719e+02  -2.192701e+00
  -1.736708e+02  -2.662960e+02
   5.548842e+01  -2.657515e+02
   2.808995e+02  -1.259430e+02
   3.625184e+02   1.458390e+02
   1.694429e+02   3.315100e+02
  -9.872643e+01   3.027284e+02
  -1.952509e+02   1.252120e+02
  -1.433452e+02   5.673739e+00
  -7.099524e+01   4.270246e+01
  -2.507928e+02   8.278741e+01
  -3.550244e+02  -3.352819e+01
  -3.442239e+02  -3.244285e+02
   1.592058e+01  -4.143937e+02
   3.586783e+02  -4.195633e+02
   5.317803e+02  -2.049810e+02
   3.125781e+02   8.806165e+01
  -4.849392e+00   2.723874e+02
  -1.181415e+02   2.339700e+02
  -7.574122e+01   2.417228e+01
   1.315584e+02  -9.588678e+01
   1.898197e+02   2.014482e+01
   2.877737e+01   1.969255e+02
  -1.309923e+02   1.526191e+02
  -1.738300e+02  -7.643615e+01
   3.489733e+01  -2.102925e+02
   1.915226e+02   1.563975e+01
   1.697911e+02   2.522280e+02
  -3.615035e+01   3.410764e+02
  -2.197622e+02   1.711298e+02
  -3.177563e+02  -7.901325e+01
  -2.711497e+02  -2.379520e+02
  -1.070472e+02  -2.831755e+02
   1.257834e+02  -1.516808e+02
   1.584999e+02  -1.933813e+00
   5.432678e+01   2.830795e+01
  -5.095864e+01  -1.555211e+01
  -2.959319e+01  -1.287969e+02
   1.530270e+02  -1.026320e+02
   2.139187e+02   3.301095e+01
   3.377903e+01   1.018951e+02
  -7.606915e+01  -2.004630e+00
  -5.014099e+01  -5.501169e+01
   1.284759e+02  -8.134841e+01
   2.681153e+02  -6.099438e+00
   2.466861e+02   1.626730e+02
   3.563743e+01   2.715466e+02
  -1.969206e+02   2.505343e+02
  -2.936271e+02   1.275900e+02
  -1.636579e+02  -4.489107e+01
   7.526797e+01  -1.234527e+02
   8.733859e+01   1.083250e+01
  -3.170611e+01   9.612769e+01
  -1.646945e+02   5.858978e+01
  -2.042481e+02  -8.963264e+01
  -8.759581e+01  -2.195204e+02
   8.628219e+01  -1.660669e+02
   1.135753e+02  -2.061825e+01
   8.456301e+01   6.042537e+01
  -5.248497e+01   7.255474e+00
  -3.526841e+01  -8.821513e+01
   9.201759e+01  -9.896155e+01
   2.227095e+02  -3.821150e+01
   1.925862e+02   1.336335e+02
   3.625644e+01   2.267191e+02
  -1.309255e+02   1.625703e+02
  -1.949082e+02   4.780442e+00
  -8.905788e+01  -1.179788e+02
   6.603994e+01  -9.686240e+01
   5.870219e+01  -2.139080e+01
   1.682587e+01   3.673398e+01
  -1.732780e+01   9.163817e+00
  -5.686862e+00  -1.323107e+01
   6.104957e+01  -6.797592e-01
   1.017840e+02   7.060024e+01
   1.159400e+00   1.808201e+02
  -1.282375e+02   1.535416e+02
  -2.576075e+02   2.047415e+01
  -1.946933e+02  -1.333423e+02
  -2.905101e+01  -2.446928e+02
   7.258060e+01  -1.814233e+02
   1.250272e+02  -3.118640e+01
   8.093202e+01   2.150955e+01
   5.527414e+01   4.183214e+01
   5.219402e+01  -2.226315e+01
   7.210314e+01  -1.189543e+01
   5.216689e+01   6.654868e+01
  -4.881889e+01   9.286905e+01
  -9.906307e+01   2.902587e+01
  -9.027075e+01  -3.500542e+01
   3.060545e+01  -9.948458e+01
   1.106642e+02  -9.168235e+01
   1.611284e+02   4.373018e+01
   7.668766e+01   1.942536e+02
  -1.172764e+02   2.103878e+02
  -2.492290e+02   7.310383e+01
  -2.578328e+02  -9.073378e+01
  -1.190039e+02  -1.401538e+02
   4.054236e+01  -1.345979e+02
   1.120615e+02  -4.516149e+01
   6.806286e+01  -6.037528e+01
   5.394866e+01  -8.668012e+01
   7.358529e+01  -5.079187e+01
   1.287680e+02   1.294816e+01
   1.067698e+02   1.359497e+02
   1.762943e+01   2.174269e+02
  -1.239585e+02   1.675185e+02
  -1.862785e+02   4.147751e+01
  -1.349348e+02  -1.394457e+02
  -3.900398e+01  -1.665998e+02
   4.962680e+01  -7.416249e+01
   6.590585e+01   5.124071e+00
   1.287187e+01   7.012252e+01
   6.424034e+00   3.375865e+01
   2.377871e+01   3.756761e+01
   6.664376e+01   6.637056e+00
   2.186535e+01   4.790048e+01
  -7.548425e+01   6.684829e+01
  -1.256736e+02   1.623290e+01
  -1.273698e+02  -6.593138e+01
  -4.421783e+01  -8.806359e+01
   1.341542e+02  -8.109431e+01
   1.216900e+02  -2.282258e+01
   2.726504e+01   5.132249e+01
  -4.432153e+01   2.820138e+01
  -7.009585e+01  -8.456534e+00
   1.027720e+01  -5.508755e+01
   2.426336e+01  -4.768912e+01
   3.805622e+01   3.061970e+01
   6.212686e+01   4.635895e+01
   4.710778e+01   3.999334e+01
   5.108625e+01   1.680577e+01
   6.386171e+01   1.522114e+01
   3.408498e+01   5.467399e+01
  -1.639997e+01   1.225553e+02
  -1.086567e+02   1.340166e+02
  -1.863209e+02   2.181463e+01
  -1.131741e+02  -9.325996e+01
  -1.738785e+01  -1.150717e+02
   7.109828e+01  -5.953888e+01
   6.328522e+01   2.421665e+01
  -5.440713e+01   1.171379e+01
  -1.176260e+02  -1.455600e+01
  -4.942397e+01  -1.540000e+02
   8.062254e+01  -1.126505e+02
   1.794878e+02  -4.230791e+01
   1.595932e+02   1.113207e+01
   8.022836e+00   9.931968e+01
  -5.960766e+01   7.296112e+01
  -8.090150e+01   9.870963e+00
   2.044016e+01  -2.520684e+01
   8.955999e+01   3.780398e+00
   3.941199e+01   9.244772e+01
  -8.768226e+01   1.370445e+02
  -1.638406e+02   4.968911e+01
  -1.037589e+02  -9.354565e+01
  -2.509837e+01  -1.980962e+02
   6.529029e+01  -1.434596e+02
   7.497785e+01  -2.216751e+01
   4.475843e+01   1.346537e+02
   8.993998e+00   1.031166e+02
  -3.730282e+01   2.075361e+01
  -4.920681e+01  -5.440548e+01
  -8.105168e+00  -1.895650e+01
  -2.750349e+01   2.836682e+01
  -8.775129e+00  -5.759417e+00
  -6.265317e+01  -7.872918e+01
  -3.697825e+01  -1.014075e+02
   5.104622e+01  -9.609688e+00
   1.401688e+02   4.741820e+01
   1.277194e+02   7.911924e+01
   2.537961e+01   7.958098e+01
  -1.038996e+02   4.824437e+01
  -7.140528e+01   7.851269e+00
  -2.328503e+01   4.018923e-01
   2.520753e+01  -4.142812e+01
  -4.677682e+00  -3.478393e+01
  -3.338645e+01  -9.109270e+00
   2.268315e+00   2.746214e+01
   6.394659e+01  -4.715747e+00
   9.219735e+01   3.486777e+01
  -2.295958e+01   7.710246e+01
  -9.777386e+01   1.058863e+02
  -2.138919e+02   5.898150e+01
  -1.651147e+02  -7.120825e+01
  -1.866689e+01  -1.581554e+02
   7.259770e+01  -1.253263e+02
   1.028568e+02  -5.619514e+01
   5.415082e+01   2.933871e+01
   2.691026e+01   4.360369e+01
  -1.462920e+00  -5.905015e+00
   2.856496e+01  -2.226003e+01
   5.097896e+01   4.526028e+01
   2.125329e+01   1.010021e+02
  -8.203836e+00   6.265217e+01
  -8.712401e+01  -2.986302e+01
  -5.363779e+01  -9.869760e+01
  -4.894871e+01  -6.646807e+01
   9.555570e+01  -1.900673e+01
   1.189443e+02   6.038503e+01
   4.827861e+01   1.109058e+02
  -7.041020e+01   5.199633e+01
  -8.707887e+01   3.796125e+00
  -5.552993e+01  -1.121814e+01
   5.804249e+01  -1.878308e+01
   3.984558e+01  -2.721918e+01
  -3.302482e+01  -1.452229e+00
  -5.493943e+01   3.711070e+01
  -4.938377e+00  -1.812497e+01
   6.871055e+01  -6.522534e+01
   1.278881e+02  -8.239214e+01
   5.555913e+01   2.326460e+01
  -1.448306e+01   6.601557e+01
  -5.619372e+01   8.416688e+01
  -2.719587e+01  -1.699642e+01
  -3.977025e+00  -5.481058e+01
   2.472702e+01  -6.018673e+01
   4.735263e+01   1.516083e+00
   1.866632e+01   3.095503e+01
   2.399770e+01   2.188039e+01
  -2.123986e+01   6.317224e+00
  -5.072752e+01  -4.045767e+01
  -1.922805e+01   2.083485e+01
   1.948652e+01   4.426180e+01
  -1.258212e+01  -2.629954e+01
   3.367067e+00  -3.074827e+01
   1.617495e+01  -3.180308e+01
   2.837839e+01  -2.504784e+01
   2.952730e+01   3.823105e+01
   1.179380e+01   7.637141e+01
  -5.467468e+01   5.837514e+01
  -5.115683e+01  -3.542689e+01
   1.007920e+01  -6.435143e+01
   5.606591e+01  -3.463570e+01
   7.251918e+01   3.592517e+01
   6.228509e+01   2.354919e+01
   1.380479e+01   3.879655e+01
  -7.339398e+01   1.976605e+01
  -1.996637e+01  -2.092488e+00
   1.685510e+01   6.859786e+00
   5.339517e+01   1.791458e+01
  -6.606152e+01   9.094536e+00
  -7.918989e+01   2.313613e+01
