
 $NMID
 id='ANONYMOUS ', fmtdat='(2E16.6)'
 volume=1.0
 tramp=1.0
 $END
  -3.850141e+03   3.320249e+01
  -2.196805e+03  -2.311469e+03
   6.373109e+02  -2.485041e+03
   1.768954e+03  -6.622293e+02
   8.714124e+02   5.465646e+02
  -5.286678e+02   3.362817e+02
  -7.060147e+02  -4.019783e+02
   2.545522e+01  -7.975031e+02
   6.808345e+02  -7.215600e+02
   9.227577e+02   1.595121e+01
   4.270546e+02   7.524591e+02
  -1.523603e+02   7.669031e+02
  -4.623518e+02   5.682634e+01
  -3.198470e+02  -5.967143e+02
   2.624426e+02  -6.173801e+02
   4.898592e+02   2.133482e+01
   2.452739e+02   5.843458e+02
  -2.634158e+02   4.787469e+02
  -4.365516e+02   7.171747e+01
  -2.927095e+02  -3.166189e+02
  -1.317850e+01  -4.145587e+02
   2.266583e+02  -2.181472e+02
   1.719157e+02  -6.639205e+00
  -1.232170e+02   3.492749e+01
  -3.356099e+02  -1.119081e+02
  -1.456254e+02  -3.886676e+02
   4.532690e+02  -3.396801e+02
   6.972618e+02   1.180709e+02
   2.919502e+02   4.572346e+02
  -2.694008e+02   3.880079e+02
  -6.460633e+02  -3.798318e+01
  -2.747811e+02  -4.159335e+02
   2.234522e+02  -4.432396e+02
   5.455411e+02  -2.138826e+02
   3.253940e+02   1.797481e+02
   5.661386e+01   4.181861e+02
  -1.424665e+02   1.956494e+02
  -1.412481e+02  -1.652155e+02
   1.692096e+02  -4.166602e+02
   3.806172e+02   4.812487e+01
   1.231116e+02   5.733997e+02
  -3.118911e+02   5.905518e+02
  -4.956814e+02  -3.560829e+01
  -2.545590e+02  -4.768717e+02
   2.206975e+02  -2.512824e+02
   2.841578e+02   2.489095e+02
  -8.116198e+01   4.927002e+02
  -4.823239e+02   1.333842e+02
  -5.207764e+02  -3.411560e+02
  -1.384774e+02  -4.619060e+02
   3.708983e+02  -2.995381e+02
   5.262830e+02   4.397447e+01
   3.112147e+02   2.689564e+02
  -1.326962e+02   3.022141e+02
  -3.663685e+02   3.818458e+01
  -1.956270e+02  -1.398842e+02
   1.086133e+02  -6.999120e+01
   1.330252e+02   1.339852e+02
  -1.557820e+02   1.232624e+02
  -2.877593e+02  -5.179694e+01
  -1.135466e+02  -2.360024e+02
   1.909977e+02  -2.291842e+02
   2.859150e+02  -9.786585e+01
   1.870247e+02   6.481629e+01
  -4.201705e+01   2.191759e+02
  -1.657551e+02   2.874199e+02
  -2.904094e+02   2.151266e+02
  -2.274443e+02  -1.359210e+02
  -1.003733e+02  -3.883082e+02
   9.717497e+01  -3.304000e+02
   1.191325e+02  -9.054527e+01
   3.210487e+01  -1.959632e+00
   5.035480e+01  -5.666343e+01
   1.763814e+02  -1.277424e+02
   2.318322e+02   2.252337e+01
   1.720716e+02   2.225650e+02
  -5.852282e+01   2.287861e+02
  -2.130826e+02   7.873032e-01
  -1.934021e+02  -2.147872e+02
   1.860863e+01  -2.670350e+02
   2.261352e+02  -1.043064e+02
   3.275342e+02   1.301118e+02
   1.685301e+02   2.737757e+02
  -1.023171e+02   2.632497e+02
  -1.786574e+02   8.239406e+01
  -1.023039e+02   4.906181e-02
  -7.921543e+01   1.479050e+01
  -2.000041e+02   3.811683e+01
  -3.420723e+02  -2.860711e+01
  -2.934516e+02  -2.493594e+02
  -6.944875e+00  -3.632641e+02
   3.049707e+02  -3.488794e+02
   4.148904e+02  -2.041826e+02
   3.105538e+02   7.602928e+01
   3.576861e+01   2.309411e+02
  -1.157257e+02   2.061619e+02
  -4.239635e+01   1.049383e+01
   9.524644e+01  -1.115416e+02
   1.790399e+02  -1.841857e+01
   3.603457e+01   1.930060e+02
  -1.873181e+02   1.699203e+02
  -1.728015e+02  -6.910667e+01
   4.015283e+01  -1.571065e+02
   1.541384e+02  -3.988685e+00
   1.542919e+02   2.281643e+02
  -6.913015e+00   2.846199e+02
  -1.970605e+02   1.597049e+02
  -2.886233e+02  -4.506848e+01
  -2.377548e+02  -1.966866e+02
  -8.498541e+01  -2.350927e+02
   1.130296e+02  -1.271378e+02
   1.605138e+02  -6.698790e+00
   5.349022e+01   2.073918e+01
  -4.200280e+01  -5.230817e+01
  -2.452141e+01  -9.782936e+01
   1.354112e+02  -8.055292e+01
   1.597490e+02   1.127923e+01
   3.522412e+01   5.063681e+01
  -8.950092e+01  -1.175524e+01
  -2.205632e+01  -6.219796e+01
   1.089302e+02  -5.305247e+01
   2.216870e+02  -2.097630e+01
   1.873924e+02   1.061293e+02
   6.470893e+01   2.036659e+02
  -1.742946e+02   2.264598e+02
  -2.418460e+02   1.098096e+02
  -1.846738e+02  -3.107136e+01
   5.016826e+01  -8.909670e+01
   8.092943e+01   1.082778e+01
  -4.174269e+01   7.362154e+01
  -1.683804e+02   7.215562e+01
  -1.843071e+02  -8.088604e+01
  -7.200348e+01  -1.748035e+02
   6.460129e+01  -1.362871e+02
   1.399615e+02  -9.921335e+00
   5.124401e+01   3.219850e+01
  -2.146163e+01  -1.801385e+01
  -1.503372e+01  -5.428973e+01
   4.586373e+01  -9.290383e+01
   1.647152e+02  -3.788466e+01
   1.763695e+02   1.159830e+02
   2.330352e+01   1.657818e+02
  -1.275890e+02   1.514099e+02
  -1.556817e+02   5.439838e+00
  -5.062025e+01  -1.144978e+02
   8.107921e+01  -1.014042e+02
   9.042066e+01  -1.548850e+01
   5.790867e+00   8.961687e+00
  -2.815918e+01   3.718550e+01
   3.428187e+00  -1.015478e+01
   6.426437e+01   1.642176e+01
   8.327652e+01   6.295013e+01
   1.965727e+01   1.340303e+02
  -1.211535e+02   1.425434e+02
  -2.184404e+02  -3.953848e+00
  -1.797351e+02  -1.252144e+02
  -5.680301e+01  -2.189552e+02
   8.742373e+01  -1.294307e+02
   9.752551e+01  -8.560378e+00
   6.591302e+01   4.771231e+01
   7.371550e+00   4.423305e+01
   1.565671e+01   1.756259e+00
   7.000017e+01  -2.297698e+01
   1.875111e+01   4.308829e+01
  -4.875475e+01   6.238085e+01
  -9.803787e+01   6.041644e+01
  -7.953063e+01  -3.067453e+01
  -2.485762e+00  -1.008997e+02
   1.286257e+02  -9.022315e+01
   1.647880e+02   3.396378e+01
   9.881153e+01   1.520583e+02
  -9.246957e+01   1.855440e+02
  -2.403781e+02   8.537238e+01
  -2.244363e+02  -4.975577e+01
  -9.873761e+01  -1.234011e+02
   3.519500e+01  -1.199845e+02
   6.863076e+01  -6.484040e+01
   7.594180e+01  -6.083952e+01
   8.497199e+01  -8.547754e+01
   8.482052e+01  -5.772635e+01
   9.343768e+01   3.888855e-01
   8.556847e+01   1.146701e+02
  -1.516004e+01   1.903454e+02
  -1.035369e+02   1.474476e+02
  -1.365182e+02  -9.255242e+00
  -1.145314e+02  -9.584718e+01
  -9.854167e-01  -1.534426e+02
   6.059918e+01  -6.650691e+01
   6.824432e+01   1.300030e+01
  -5.481679e+00   4.427082e+01
   1.298921e+01   5.070369e+01
   4.997414e+01   9.655047e+00
   7.313095e+01   1.990584e+01
   5.076106e+01   2.656716e+01
  -7.931040e+01   5.298911e+01
  -1.492348e+02  -3.905970e-01
  -1.186727e+02  -4.377849e+01
  -7.284090e+00  -9.621641e+01
   1.161109e+02  -6.248703e+01
   1.045559e+02  -1.463379e+01
   3.951293e+01   3.105160e+01
  -3.727014e+01   2.192810e+01
  -3.454183e+01  -1.910025e+01
  -4.009902e-01  -7.419117e+01
   2.642755e+01  -4.384829e+01
   4.279594e+01   6.067631e-01
   1.879596e+01   3.365060e+01
   4.943570e+01   2.006451e+01
   2.130627e+01  -3.095744e+00
   6.339623e+01  -7.704766e+00
   2.495406e+01   4.891372e+01
  -3.770218e+01   1.203899e+02
  -1.039706e+02   1.436607e+02
  -1.399561e+02  -1.254782e+01
  -1.165184e+02  -5.200299e+01
  -2.831787e+01  -1.230863e+02
   5.595939e+01  -5.908624e+01
   4.824878e+01  -1.278442e+00
  -5.275881e+01  -9.393759e+00
  -1.175570e+02  -4.297455e+01
  -4.679571e+01  -8.388650e+01
   4.448180e+01  -8.430693e+01
   1.553203e+02  -6.730810e+01
   1.451538e+02  -4.809954e+00
   2.062770e+01   8.197069e+01
  -3.539104e+01   4.509652e+01
  -2.850513e+01   3.678566e+01
   2.546444e+01  -6.733964e+00
   6.852386e+01   2.797295e+01
  -7.344053e+00   9.640596e+01
  -5.750690e+01   1.341194e+02
  -1.227326e+02   4.442796e+01
  -1.247965e+02  -8.007659e+01
  -1.932527e+01  -1.546668e+02
   4.523916e+01  -1.022032e+02
   8.155165e+01   5.314717e+00
   6.966663e+01   1.389269e+02
   7.816955e+00   9.830054e+01
  -3.638903e+01   2.836356e+01
  -7.333134e+01  -1.668591e+01
   1.294328e+00   8.668480e-01
  -4.359774e+01   1.538695e+01
  -9.282037e+00   1.007566e+01
  -5.916459e+01  -6.864143e+01
  -1.532150e+01  -9.582035e+01
   4.967944e+01  -2.818229e+01
   1.081607e+02   1.872830e+01
   1.177320e+02   5.204994e+01
  -6.228858e+00   1.815838e+01
  -9.446594e+01   3.412939e+01
  -8.035020e+01   2.498605e+01
  -2.123654e+01  -9.722734e+00
   4.595564e+01  -2.913808e+01
  -1.938880e+01   1.885220e+01
  -3.088263e+01   2.780407e+01
   2.163297e+01   2.363077e+00
   8.152963e+01   1.146524e+01
   7.546479e+01   4.700186e+01
  -9.527296e+00   6.538780e+01
  -1.027631e+02   9.450941e+01
  -1.343312e+02   2.317929e+01
  -1.176440e+02  -6.345079e+01
  -2.273213e+01  -1.347331e+02
   8.664908e+01  -1.434563e+02
   5.595663e+01  -4.539146e+01
   4.464420e+01   1.688943e+01
   1.857127e+01   3.415357e+01
   7.577068e+00   2.446833e+01
   2.727478e+00   7.962761e+00
   2.707635e+01   6.636739e+01
   3.663544e+01   8.167925e+01
  -2.152650e+01   7.396576e+01
  -8.443538e+01  -1.030303e+01
  -7.900976e+01  -7.494439e+01
  -1.716976e+01  -1.122782e+02
   9.422563e+01  -1.938969e+01
   8.436875e+01   4.741026e+01
   1.704488e+01   9.464746e+01
  -5.173145e+01   6.044396e+01
  -9.843035e+01  -1.965575e+01
  -2.106304e+01  -5.160489e+01
  -1.991740e+00  -3.430312e+01
   4.467154e+01   1.953802e+00
   4.539440e+00  -1.332976e+01
  -2.792850e+01  -1.797627e+01
   1.778276e+00  -2.107565e+01
   6.524068e+01  -4.454755e+01
   9.748620e+01  -3.819866e+00
   3.832674e+01   4.258982e+01
   1.768285e+00   6.512671e+01
  -4.194485e+01   8.847352e+01
  -1.795486e+01   6.471139e-01
   4.827640e+00  -6.979700e+01
   2.803567e+01  -4.316542e+01
   4.065023e+01   9.474762e-01
   2.793284e+01   5.794810e+01
  -4.191934e+00   2.194533e+01
  -2.181358e+01  -1.156462e+01
  -2.577119e+01  -3.571293e+01
   3.161313e+00  -1.325052e+01
  -4.005570e+00   2.008319e+01
  -2.067112e+00  -3.304722e+00
  -5.322854e+00  -3.554270e+01
   2.670655e+01  -2.728050e+01
   1.530099e+01   5.455183e+00
   7.326080e+00   4.372765e+01
   5.073967e+00   3.723205e+01
  -2.344747e+01  -1.952282e+01
  -4.727065e+01  -1.524581e+01
  -3.839322e+01  -4.061321e+01
   5.402397e+01  -4.525518e+01
   6.417225e+01   4.211384e+01
   4.257449e+01   9.965178e+00
  -1.630067e+01   2.778898e+01
  -2.645102e+01   1.621119e+01
   1.290903e+01  -4.225111e+00
   6.114729e+01  -1.080765e+01
   4.041017e+01   3.123082e+01
  -1.077555e+01   1.568883e+01
  -7.388753e+01   1.556326e+01
