
 $NMID
 id='ANONYMOUS ', fmtdat='(2E16.6)'
 volume=1.0
 tramp=1.0
 $END
  -3.755222e+03  -5.557831e+02
  -1.910194e+03  -2.367914e+03
   6.148276e+02  -2.199257e+03
   1.567692e+03  -7.294962e+02
   9.039360e+02   4.364345e+02
  -4.373263e+02   2.986335e+02
  -5.649471e+02  -4.959042e+02
   1.061490e+02  -8.196796e+02
   7.838972e+02  -6.483136e+02
   8.271072e+02   1.733131e+02
   4.353989e+02   7.697372e+02
  -1.883967e+02   7.444192e+02
  -4.917806e+02   1.147384e+02
  -2.186158e+02  -6.044202e+02
   2.601797e+02  -6.428722e+02
   4.848750e+02   1.335188e+01
   1.984781e+02   6.183028e+02
  -2.329690e+02   5.884307e+02
  -5.106359e+02   1.571514e+02
  -3.787202e+02  -2.583948e+02
  -3.345751e+01  -3.940737e+02
   2.038368e+02  -2.187395e+02
   1.496531e+02  -3.561958e+01
  -1.053748e+02   4.247684e+01
  -3.412936e+02  -1.809374e+02
  -9.420879e+01  -4.549687e+02
   4.950966e+02  -2.704280e+02
   7.411216e+02   2.504650e+02
   2.811882e+02   5.077849e+02
  -3.838374e+02   3.362354e+02
  -6.509494e+02  -1.299192e+02
  -1.793569e+02  -4.234419e+02
   2.818126e+02  -4.603786e+02
   5.209586e+02  -1.642675e+02
   3.517185e+02   1.871671e+02
   6.535619e+01   3.897498e+02
  -1.571660e+02   2.146501e+02
  -7.271403e+01  -1.879556e+02
   2.583503e+02  -3.313389e+02
   4.203499e+02   9.722227e+01
   1.062812e+02   6.762779e+02
  -3.174556e+02   5.629320e+02
  -5.207373e+02  -7.039183e+01
  -1.963852e+02  -4.848637e+02
   2.439783e+02  -2.262399e+02
   2.844059e+02   3.254115e+02
  -8.135574e+01   4.608112e+02
  -4.810132e+02   9.508840e+01
  -5.576468e+02  -4.109066e+02
  -1.243801e+02  -5.128878e+02
   3.895246e+02  -3.357228e+02
   5.807855e+02   9.806042e+01
   2.899293e+02   3.534334e+02
  -1.253696e+02   2.747756e+02
  -3.665886e+02   2.400331e+00
  -1.911712e+02  -1.608214e+02
   9.829691e+01  -5.537919e+01
   6.545226e+01   1.382565e+02
  -1.972846e+02   1.203734e+02
  -2.589907e+02  -9.921047e+01
  -1.207691e+02  -2.588827e+02
   1.835031e+02  -2.682746e+02
   3.241666e+02  -1.008757e+02
   2.139648e+02   7.019510e+01
  -2.160211e+01   2.534853e+02
  -2.336436e+02   3.329733e+02
  -3.904456e+02   1.968082e+02
  -2.683657e+02  -1.264543e+02
  -5.863574e+01  -3.911440e+02
   1.070137e+02  -3.298167e+02
   6.473636e+01  -1.171767e+02
   8.154731e+00  -2.556370e+01
   5.902358e+01  -1.254894e+02
   1.877709e+02  -7.488434e+01
   2.536620e+02   8.371265e+01
   1.208424e+02   2.698555e+02
  -8.429110e+01   2.176582e+02
  -2.228122e+02   6.869386e+00
  -1.605359e+02  -2.640978e+02
   4.892060e+01  -2.816593e+02
   2.691589e+02  -9.040942e+01
   3.331905e+02   1.859654e+02
   1.298686e+02   2.986005e+02
  -6.421020e+01   2.852950e+02
  -1.797260e+02   1.010515e+02
  -1.314213e+02   1.663437e+00
  -7.874812e+01   5.825884e+01
  -2.443516e+02   8.654089e+01
  -4.096866e+02  -3.659853e+01
  -3.108385e+02  -2.824107e+02
   2.489844e+01  -4.113820e+02
   3.716298e+02  -4.005977e+02
   4.965150e+02  -1.937445e+02
   3.102789e+02   9.987884e+01
   1.333373e+01   2.723994e+02
  -1.519187e+02   2.009214e+02
  -5.668639e+01   3.943767e+01
   1.152221e+02  -7.531362e+01
   1.831550e+02   2.132320e+00
   1.438202e+01   1.824717e+02
  -1.417510e+02   1.399749e+02
  -1.363007e+02  -7.141781e+01
   5.439963e+01  -1.631151e+02
   1.796067e+02   4.204262e+00
   1.537867e+02   2.253312e+02
  -3.573876e+01   3.518341e+02
  -2.111916e+02   1.949865e+02
  -3.237853e+02  -7.386237e+01
  -2.736641e+02  -2.273618e+02
  -9.869791e+01  -2.777736e+02
   1.206160e+02  -1.237158e+02
   1.649810e+02   1.367885e+01
   4.111908e+01   4.153591e+01
  -5.139296e+01  -3.438253e+01
  -1.753979e+01  -1.334763e+02
   1.189486e+02  -1.095848e+02
   1.855657e+02   1.822747e+01
   3.021472e+01   6.963902e+01
  -1.033387e+02   2.175031e+00
  -3.636509e+01  -6.423315e+01
   1.300697e+02  -8.081047e+01
   2.548241e+02  -1.717756e+01
   2.526634e+02   1.543510e+02
   2.824993e+01   2.730245e+02
  -2.014314e+02   2.369953e+02
  -2.456009e+02   1.097921e+02
  -1.399073e+02  -6.994106e+01
   3.130232e+01  -7.582909e+01
   6.791291e+01   2.685266e+01
  -3.834844e+01   9.622790e+01
  -1.930868e+02   1.861709e+01
  -1.857981e+02  -6.723991e+01
  -6.742023e+01  -2.163789e+02
   1.056621e+02  -1.359378e+02
   1.598560e+02  -1.771540e+01
   4.601210e+01   5.544057e+01
  -4.063163e+01  -1.899753e+01
  -5.904608e+01  -3.971429e+01
   8.303449e+01  -1.010494e+02
   2.146200e+02  -1.998006e+01
   1.637596e+02   1.559549e+02
   3.513510e+01   2.084361e+02
  -1.726088e+02   1.817046e+02
  -1.896084e+02   1.864811e+01
  -7.049414e+01  -1.055008e+02
   9.295287e+01  -1.050868e+02
   6.316590e+01  -3.078703e+01
   8.374585e+00   3.234314e+01
  -4.474003e+01   3.239752e+01
   1.143211e+01   1.970321e-01
   4.227616e+01  -2.627828e+01
   8.123400e+01   8.455219e+01
   5.459839e+01   1.586399e+02
  -1.365185e+02   1.373677e+02
  -2.261442e+02  -1.001019e+00
  -1.844542e+02  -1.495576e+02
  -3.931065e+01  -2.153256e+02
   1.060786e+02  -1.427307e+02
   1.381618e+02  -4.897806e+01
   7.348563e+01   2.308814e+01
   1.736883e+01   4.603333e+01
   7.150183e+01  -3.251854e+01
   6.829449e+01   1.883025e+00
   4.647547e+01   3.373613e+01
  -2.051922e+01   9.443779e+01
  -1.237364e+02   4.956915e+01
  -1.027298e+02  -5.453531e+01
   2.341446e+00  -1.056786e+02
   1.352435e+02  -5.636481e+01
   1.559670e+02   6.826590e+01
   9.257383e+01   1.982371e+02
  -1.129793e+02   2.132794e+02
  -2.468428e+02   6.259288e+01
  -2.524518e+02  -9.586925e+01
  -9.085445e+01  -1.546016e+02
   2.583895e+01  -1.427198e+02
   7.270491e+01  -5.224738e+01
   8.362715e+01  -5.262055e+01
   1.253223e+02  -5.079870e+01
   7.085960e+01  -8.144322e+01
   1.247160e+02   7.602191e+00
   9.891901e+01   1.480522e+02
  -5.783830e+00   2.322017e+02
  -1.164023e+02   1.237179e+02
  -1.758507e+02   1.265377e+01
  -1.390221e+02  -1.316931e+02
  -4.907443e+00  -1.397748e+02
   8.663323e+01  -9.800242e+01
   6.802336e+01  -2.730522e+01
   3.056357e+01   6.015990e+01
  -3.110133e+00   1.821775e+01
   2.910831e+01   6.491842e-01
   1.039677e+02   2.038103e+01
   3.422420e+01   5.283970e+01
  -8.218606e+01   5.336393e+01
  -1.609724e+02   5.155572e+00
  -1.416011e+02  -5.430464e+01
  -3.270849e+01  -8.577011e+01
   1.057760e+02  -1.053908e+02
   1.014406e+02   8.825566e+00
   5.018924e+01   4.820969e+01
  -5.943633e+01   1.390166e+01
  -8.445073e+01  -3.096959e+01
   1.031568e+01  -7.620973e+01
   5.317195e+01  -5.768330e+01
   5.527646e+01  -5.224111e+00
   4.382228e+01   4.900311e+01
   4.244322e+01   4.365801e+01
   5.367292e+01   1.506204e-01
   6.255574e+01   1.138222e+01
   2.669531e+01   6.632176e+01
  -3.456058e+01   1.296408e+02
  -1.325451e+02   1.546942e+02
  -1.689423e+02   1.619377e+01
  -1.311217e+02  -1.083751e+02
   1.969411e+01  -1.318984e+02
   5.944702e+01  -7.088758e+01
   6.503816e+01   3.258456e+01
  -5.455083e+01   4.080925e+00
  -1.333933e+02  -3.974815e+01
  -6.764170e+01  -1.194369e+02
   1.039100e+02  -1.264074e+02
   1.668128e+02  -5.369793e+01
   1.712771e+02   2.762390e+01
   2.871510e+01   9.754315e+01
  -4.620290e+01   7.306120e+01
  -6.986356e+01   8.803062e+00
   2.103471e+01  -3.393359e+01
   7.132208e+01   2.320564e+01
   1.945767e+01   1.180412e+02
  -1.157856e+02   1.532574e+02
  -1.398156e+02   7.877246e+01
  -1.113935e+02  -9.696872e+01
  -2.129848e+01  -2.001357e+02
   6.791692e+01  -1.280508e+02
   7.914747e+01  -1.253728e+01
   5.213168e+01   9.161661e+01
   1.877414e+01   1.013547e+02
  -2.708220e+01   2.576712e+01
  -4.226106e+01  -8.012204e+01
   1.376488e+01  -1.546316e+01
  -1.379311e+01   3.414474e+01
  -4.687846e+01  -3.068653e+01
  -6.627355e+01  -9.913959e+01
  -4.689993e+01  -1.075370e+02
   6.484241e+01  -4.534061e+01
   1.402828e+02   3.390827e+01
   1.265561e+02   6.603568e+01
   1.090685e+01   6.686476e+01
  -6.049669e+01   2.314341e+01
  -8.689227e+01  -2.657013e+01
  -1.565935e+01  -1.052307e+01
   3.004418e+01  -8.173458e+00
   2.086620e+01  -1.887258e+01
  -4.559512e+01   1.620128e+00
   5.404729e+00   1.507598e+01
   8.144028e+01  -1.652336e+01
   1.253510e+02   1.166148e+01
  -1.887491e+01   8.626886e+01
  -1.078287e+02   1.087345e+02
  -1.802227e+02   7.347085e+01
  -1.295465e+02  -8.735207e+01
  -1.837840e+01  -1.674958e+02
   5.446358e+01  -1.347993e+02
   1.185775e+02  -9.319622e+01
   5.640399e+01   3.284017e+01
   2.355273e+01   3.750911e+01
  -3.715668e-01   2.035397e+01
   1.285044e+01   2.421085e+01
   3.798452e+01   5.855944e+01
   2.440582e+01   8.207262e+01
  -3.242396e+01   6.197214e+01
  -8.412475e+01  -2.015358e+01
  -4.275400e+01  -9.680060e+01
  -3.524386e+01  -9.944007e+01
   5.361570e+01  -1.474590e+01
   9.187117e+01   6.864658e+01
   4.654247e+01   7.786284e+01
  -5.861396e+01   5.719392e+01
  -1.128559e+02  -1.981031e+01
  -4.459449e+01  -5.769605e+01
   4.322910e+01  -4.412485e+01
   3.049549e+01  -9.339247e+00
  -2.316826e+01  -1.327510e+01
  -5.072426e+01   8.288594e+00
   1.800148e+00  -2.306083e+01
   7.724579e+01  -5.761214e+01
   1.136714e+02  -7.219424e+01
   4.340806e+01   2.798309e+01
  -2.857545e+01   8.068307e+01
  -4.042506e+01   8.646389e+01
  -2.602846e+01  -1.133284e+01
  -2.642626e+01  -2.928587e+01
   7.946575e+00  -5.002576e+01
   1.808232e+01   3.533127e+01
   4.914001e+01   3.581647e+01
   6.175469e+00   2.335846e+01
  -2.571753e+01  -9.280392e+00
  -3.589190e+01  -1.976987e+01
  -3.742579e+01   2.618084e+01
  -4.191323e-01   2.087648e+01
   2.964999e+01   2.933340e+00
   6.498768e+00  -2.237753e+01
   8.923192e+00  -4.782221e+01
   3.212956e+01  -1.800139e+01
   3.769307e+01   4.187649e+01
  -9.119207e+00   6.089613e+01
  -5.417034e+01   1.401322e+01
  -6.446508e+01  -3.149666e+01
  -1.896235e+01  -6.872530e+01
   4.754284e+01  -5.117530e+01
   1.088344e+02   2.566504e+01
   4.612454e+01   2.373469e+01
  -2.826360e+01   1.489861e+01
  -2.653150e+01   2.125188e+01
  -2.067181e+01  -1.968385e+01
   3.544138e+01   1.500623e+01
   5.141810e+01   2.075216e+01
  -2.297465e+01   4.636133e+01
  -6.176518e+01   9.626058e+00
