
 $NMID
 id='ANONYMOUS ', fmtdat='(2E16.6)'
 volume=1.0
 tramp=1.0
 $END
   3.966834e+03   4.685182e+02
   1.999294e+03   2.553543e+03
  -6.043807e+02   2.388236e+03
  -1.857239e+03   7.224934e+02
  -9.183756e+02  -4.594054e+02
   5.215857e+02  -3.668747e+02
   6.981363e+02   5.814594e+02
  -1.199880e+02   8.840819e+02
  -8.079078e+02   6.696239e+02
  -9.154769e+02  -1.205560e+02
  -4.434505e+02  -7.722480e+02
   2.389747e+02  -7.827167e+02
   4.900168e+02  -1.044209e+02
   2.862369e+02   6.445055e+02
  -2.676628e+02   6.998165e+02
  -5.202105e+02   1.715774e+01
  -2.215497e+02  -6.627353e+02
   2.980025e+02  -5.865574e+02
   5.025336e+02  -1.919534e+02
   3.476472e+02   3.171255e+02
  -6.277833e-01   4.099061e+02
  -2.246961e+02   2.336069e+02
  -1.573618e+02   1.244275e+01
   1.065327e+02  -2.377392e+01
   3.744710e+02   1.503423e+02
   1.316229e+02   4.703863e+02
  -4.732222e+02   3.482145e+02
  -8.351261e+02  -2.249656e+02
  -3.334489e+02  -5.580581e+02
   3.723949e+02  -3.845210e+02
   7.150906e+02   9.043241e+01
   2.300877e+02   4.409657e+02
  -3.134445e+02   4.814379e+02
  -5.413668e+02   1.801404e+02
  -3.371712e+02  -2.134749e+02
  -7.165427e+01  -3.939045e+02
   1.846839e+02  -1.981671e+02
   1.092518e+02   2.069568e+02
  -2.595485e+02   3.791797e+02
  -4.428861e+02  -9.227925e+01
  -1.097994e+02  -6.930543e+02
   3.737656e+02  -6.174906e+02
   5.120391e+02   8.191029e+01
   2.042648e+02   5.449977e+02
  -3.111661e+02   2.552047e+02
  -3.188306e+02  -3.154672e+02
   8.782411e+01  -5.045400e+02
   5.037278e+02  -1.465608e+02
   6.081038e+02   4.291503e+02
   1.332032e+02   4.958549e+02
  -4.113191e+02   3.626717e+02
  -6.050161e+02  -1.004549e+02
  -2.612394e+02  -3.779772e+02
   1.544648e+02  -3.182586e+02
   3.976680e+02   6.398361e+00
   2.002859e+02   1.924697e+02
  -1.243574e+02   7.090334e+01
  -8.656860e+01  -1.679760e+02
   1.739632e+02  -1.408320e+02
   3.001520e+02   1.024417e+02
   1.088999e+02   2.790647e+02
  -2.019876e+02   2.710320e+02
  -3.263452e+02   8.213733e+01
  -2.027642e+02  -4.497313e+01
   1.919296e+01  -2.605077e+02
   2.284766e+02  -3.080625e+02
   3.469589e+02  -2.118662e+02
   2.872549e+02   1.324240e+02
   3.829083e+01   4.375714e+02
  -1.144624e+02   3.545621e+02
  -9.093412e+01   1.102285e+02
  -2.270050e+01   2.524539e+01
  -6.588447e+01   1.051386e+02
  -1.933283e+02   9.729766e+01
  -2.388900e+02  -7.716362e+01
  -1.403024e+02  -2.571663e+02
   9.683754e+01  -2.473357e+02
   2.213408e+02   2.316843e+01
   2.012842e+02   2.540296e+02
  -3.828123e+01   2.494261e+02
  -2.729431e+02   1.371853e+02
  -3.310633e+02  -1.410545e+02
  -1.300371e+02  -3.097155e+02
   1.090710e+02  -2.858900e+02
   1.853472e+02  -9.828502e+01
   1.268270e+02  -9.396008e+00
   8.446606e+01  -4.303841e+01
   2.329418e+02  -8.526303e+01
   3.939744e+02   4.349100e+01
   3.152232e+02   2.826262e+02
  -1.705479e+01   4.260030e+02
  -3.416499e+02   4.651853e+02
  -5.173725e+02   2.176209e+02
  -3.145542e+02  -8.530168e+01
  -2.453141e+01  -2.937788e+02
   1.515598e+02  -2.164083e+02
   8.501040e+01  -1.770245e+01
  -1.170064e+02   1.043609e+02
  -1.881789e+02  -4.944881e+00
  -1.691940e+01  -2.044882e+02
   1.507050e+02  -1.179558e+02
   1.447917e+02   6.595952e+01
  -5.147321e+01   1.799791e+02
  -2.017961e+02   2.245660e+01
  -1.586466e+02  -1.915090e+02
   4.016302e+01  -3.435065e+02
   2.381072e+02  -1.718782e+02
   3.023866e+02   1.074092e+02
   2.596905e+02   2.302432e+02
   7.445588e+01   2.926098e+02
  -1.357020e+02   1.822419e+02
  -1.488504e+02   1.909417e+00
  -4.899712e+01  -3.193391e+01
   2.437192e+01   3.074233e+01
  -1.365574e+00   1.252234e+02
  -1.477681e+02   1.028643e+02
  -1.980728e+02  -9.637372e+00
  -4.907116e+01  -9.447467e+01
   1.011871e+02  -1.850755e+01
   1.127753e+01   7.126562e+01
  -1.297243e+02   5.787831e+01
  -2.650278e+02   1.985996e+01
  -2.395796e+02  -1.421516e+02
  -5.094414e+01  -2.478427e+02
   2.080729e+02  -2.484533e+02
   2.811771e+02  -9.434118e+01
   1.564079e+02   6.006164e+01
  -1.956567e+01   1.118985e+02
  -1.029931e+02  -1.811827e+01
   6.831709e+01  -8.141407e+01
   1.518041e+02  -1.817001e+01
   1.945240e+02   8.384184e+01
   6.918710e+01   2.238062e+02
  -1.075862e+02   1.835715e+02
  -1.385772e+02   1.766866e+01
  -7.223464e+01  -4.345283e+01
   3.507650e+01   9.600308e+00
   4.607450e+01   5.755805e+01
  -8.283941e+01   9.966084e+01
  -2.006828e+02   3.390772e+01
  -1.869254e+02  -1.424276e+02
  -1.682885e+01  -2.303518e+02
   1.704152e+02  -1.451072e+02
   2.011658e+02   1.723377e+00
   9.211177e+01   1.017825e+02
  -4.517203e+01   9.346414e+01
  -4.384627e+01   3.702874e+01
  -1.911349e+01   1.781258e+01
   2.023186e+01  -2.733829e+01
  -2.359600e+00   1.505705e+01
  -2.950449e+01   4.380232e+01
  -8.991073e+01  -8.506743e+01
  -2.609853e+00  -1.649979e+02
   1.348477e+02  -1.314122e+02
   2.264064e+02  -2.978138e+00
   1.829351e+02   1.390069e+02
   2.658603e+01   2.095859e+02
  -9.341794e+01   1.287413e+02
  -1.420240e+02   4.745211e+01
  -4.682773e+01  -5.022722e+01
  -1.336649e+00  -3.331689e+01
  -6.789723e+01   1.305901e+01
  -7.829080e+01  -5.468772e+00
  -6.202285e+01  -5.762246e+01
   2.699833e+01  -9.693035e+01
   9.757419e+01  -5.321397e+01
   9.701252e+01   4.304304e+01
  -3.179508e+01   1.120290e+02
  -1.308332e+02   4.795260e+01
  -2.011239e+02  -3.219972e+01
  -6.734091e+01  -1.920547e+02
   8.809375e+01  -2.067374e+02
   2.597388e+02  -8.313037e+01
   2.586197e+02   7.732627e+01
   1.235923e+02   1.772765e+02
  -3.633478e+01   1.315409e+02
  -1.005670e+02   8.099982e+01
  -8.821777e+01   7.018598e+01
  -8.625269e+01   5.375589e+01
  -7.460023e+01   7.689536e+01
  -1.416774e+02   3.349280e+00
  -1.072003e+02  -1.349524e+02
   2.917637e+00  -2.325451e+02
   1.087474e+02  -1.794843e+02
   1.908328e+02  -9.674302e+00
   1.484734e+02   1.304527e+02
   2.797732e+01   1.941625e+02
  -7.988202e+01   9.399627e+01
  -5.876401e+01  -7.952008e+00
  -1.156882e+01  -4.217547e+01
   1.543782e+01  -2.358097e+01
  -3.807566e+00  -6.343247e+00
  -8.392502e+01  -3.459326e+01
  -3.341559e+01  -3.572645e+01
   3.718298e+01  -2.128273e+01
   1.419196e+02  -2.406272e+01
   1.136464e+02   7.476788e+01
   9.321631e+00   8.071320e+01
  -1.327700e+02   9.366145e+01
  -1.455475e+02   6.596352e+00
  -5.388315e+01  -4.228006e+01
   3.872952e+01  -6.546802e+01
   5.014529e+01   4.032352e+01
   2.298509e+01   5.853214e+01
  -2.948725e+01   6.965485e+01
  -4.251708e+01  -8.358965e+00
  -5.931595e+01  -7.356777e+01
  -4.926189e+01  -3.099991e+01
  -5.842553e+01   1.256277e+00
  -7.365713e+01   1.505517e+01
  -1.971378e+01  -7.926506e+01
   1.486648e+01  -1.587611e+02
   1.376489e+02  -1.221220e+02
   1.617895e+02  -2.895236e+01
   1.176175e+02   1.022034e+02
  -7.832029e+00   1.357138e+02
  -7.676733e+01   7.825238e+01
  -6.599005e+01  -8.268062e+00
   1.959907e+01  -2.424343e+01
   1.153632e+02   3.591437e+01
   4.608381e+01   1.266277e+02
  -7.471158e+01   1.056951e+02
  -1.568189e+02   4.459589e+01
  -1.515961e+02  -4.572264e+01
  -1.578871e+01  -9.398230e+01
   6.408037e+01  -6.776833e+01
   4.272932e+01   7.758338e+00
  -2.414468e+01   1.547108e+01
  -7.715375e+01  -2.203816e+01
  -4.040928e+01  -8.924993e+01
   8.405264e+01  -1.305577e+02
   1.501060e+02  -5.573824e+01
   1.176385e+02   9.810809e+01
   2.221397e+01   1.922443e+02
  -8.645328e+01   1.234722e+02
  -8.377355e+01  -1.652005e+01
  -8.062915e+01  -1.091660e+02
  -2.210177e+01  -1.142901e+02
   4.678036e+01  -1.840237e+01
   6.511601e+01   4.894483e+01
   2.221048e+01   1.293812e+01
   2.500178e+01  -3.511405e+01
   3.570025e+01   3.888589e+00
   4.649551e+01   7.869203e+01
   5.971843e+01   1.042355e+02
  -7.603689e+01   2.457176e+01
  -1.308672e+02  -9.696948e+00
  -1.179354e+02  -6.524103e+01
  -1.846631e+01  -5.219308e+01
   9.503864e+01  -2.790200e+01
   8.330698e+01   1.309053e+01
   2.402460e+01   7.370973e+00
  -3.687136e+01   3.076536e+01
  -2.026423e+01   2.362121e+00
   3.390787e+01  -8.919090e+00
   2.036761e+00  -2.957198e+01
  -6.725604e+01   1.480380e+01
  -1.112895e+02  -2.703341e+01
   1.489746e+01  -5.377553e+01
   1.190501e+02  -1.037554e+02
   1.654152e+02  -7.667034e+01
   1.382200e+02   4.841187e+01
   4.698921e+00   1.599937e+02
  -7.782160e+01   1.652314e+02
  -1.302175e+02   6.383851e+01
  -7.772547e+01  -1.364879e+01
  -2.323334e+01  -3.279588e+01
   2.366059e+01   9.589098e+00
  -3.038148e+00  -2.108539e+00
  -2.631213e+01  -7.374293e+01
  -2.762651e+01  -9.165975e+01
   1.290315e+01  -4.539546e+01
   7.978575e+01   1.441860e+01
   4.525291e+01   9.813990e+01
   1.624525e+01   1.058415e+02
  -8.367121e+01   9.958236e+00
  -9.783241e+01  -6.817538e+01
  -4.333590e+01  -8.912651e+01
   4.769123e+01  -7.254085e+01
   1.091194e+02   1.866717e+01
   5.939983e+01   5.152750e+01
  -3.423435e+01   4.405058e+01
  -3.008228e+01   3.676252e+01
   4.163714e+01   1.212678e+01
   2.907781e+01  -2.464632e+01
   2.181063e+01  -6.693341e+00
  -5.243571e+01   5.104590e+01
  -1.181320e+02   5.000414e+01
  -3.997004e+01  -5.847410e+01
   1.032782e+01  -6.693662e+01
   9.116261e+01  -9.030458e+01
   3.969137e+01   1.239524e+01
  -2.588413e+01   5.322486e+01
   5.911569e-01   4.275811e+01
  -4.615778e+01  -1.426771e+01
  -4.653509e+01  -4.539603e+01
   1.583594e+01  -1.582354e+01
   3.106728e+01  -1.581318e+01
   3.720545e+01   3.447627e+01
   1.286695e+01  -3.818697e+01
  -1.243010e+01  -2.977219e+01
  -1.583567e+01   2.101741e+01
  -1.357491e+01   2.579660e+01
   2.863173e+01   5.950631e+01
  -2.346053e+01   3.156537e+01
   6.880105e+00   4.108419e+00
  -1.515331e+01  -6.566823e+01
   5.480553e+01  -9.299265e-01
   9.520425e+01   2.331967e+01
   3.054586e+01   5.930791e+01
  -3.287614e+01   2.705720e+01
  -1.085623e+02  -1.958088e+01
  -6.513729e+01  -2.718510e+01
   3.292343e+01  -5.572358e+01
   7.802431e+01  -1.889766e+01
   7.505682e+00  -8.404980e+00
  -1.266486e+01   8.291837e-01
  -3.013462e+01  -1.034049e+01
   2.827108e+01  -9.665814e+00
   8.954375e+01  -5.637079e+00
