
 $NMID
 id='ANONYMOUS ', fmtdat='(2E16.6)'
 volume=1.0
 tramp=1.0
 $END
  -3.687821e+03   1.478020e+02
  -2.235641e+03  -2.044000e+03
   3.964726e+02  -2.292386e+03
   1.677674e+03  -7.466571e+02
   8.923406e+02   4.608402e+02
  -4.999585e+02   3.770939e+02
  -6.490037e+02  -3.878118e+02
  -3.261266e+01  -8.095177e+02
   5.723709e+02  -7.359063e+02
   8.061019e+02  -1.302282e+01
   4.449815e+02   6.794490e+02
  -1.162961e+02   7.821142e+02
  -4.640562e+02   1.022513e+01
  -2.943356e+02  -5.558727e+02
   2.152430e+02  -6.202200e+02
   4.304320e+02  -1.906269e+01
   2.393641e+02   5.615098e+02
  -2.222393e+02   5.290542e+02
  -4.683534e+02   5.597119e+01
  -3.300151e+02  -2.643316e+02
  -6.138294e+01  -3.758333e+02
   1.913444e+02  -2.127118e+02
   1.938053e+02  -5.241627e+01
  -8.832936e+01   6.595256e+01
  -3.410546e+02  -6.920098e+01
  -1.420783e+02  -4.019954e+02
   3.639040e+02  -3.344143e+02
   6.498746e+02   1.115880e+02
   3.040292e+02   4.298353e+02
  -2.946288e+02   3.758392e+02
  -6.734507e+02  -8.953456e+01
  -2.999922e+02  -3.765548e+02
   2.385236e+02  -4.586185e+02
   5.333312e+02  -2.025991e+02
   2.965849e+02   1.830492e+02
   8.070860e+01   4.016693e+02
  -1.791765e+02   1.783064e+02
  -1.341327e+02  -1.371759e+02
   1.509022e+02  -3.560288e+02
   3.895226e+02   5.116749e+01
   2.178382e+02   5.930606e+02
  -2.743327e+02   5.759036e+02
  -4.652337e+02  -9.206270e+00
  -2.177579e+02  -4.386091e+02
   2.171022e+02  -2.573356e+02
   3.084169e+02   2.391921e+02
  -6.999968e+01   4.707814e+02
  -4.274986e+02   1.540800e+02
  -5.266133e+02  -2.978333e+02
  -1.479660e+02  -4.716721e+02
   3.435223e+02  -3.144281e+02
   5.139683e+02   1.451270e+01
   3.020103e+02   2.919871e+02
  -1.447706e+02   2.772880e+02
  -3.531420e+02   3.469731e+01
  -2.229054e+02  -1.522768e+02
   9.839972e+01  -8.391427e+01
   8.999251e+01   9.991799e+01
  -1.103327e+02   1.518173e+02
  -2.939169e+02  -3.524632e+01
  -1.408849e+02  -2.467468e+02
   1.469538e+02  -2.288177e+02
   2.643080e+02  -8.981187e+01
   1.741130e+02   9.408298e+01
  -3.449110e+01   1.978278e+02
  -1.768673e+02   2.983459e+02
  -2.910600e+02   2.245481e+02
  -2.259085e+02  -1.041974e+02
  -7.261990e+01  -3.648190e+02
   1.350450e+02  -3.360086e+02
   6.882987e+01  -9.159735e+01
   5.145026e+01   2.943360e+01
   3.276571e+01  -6.958208e+01
   1.725670e+02  -7.989206e+01
   2.219275e+02   5.130706e+01
   1.158282e+02   1.918653e+02
  -4.379697e+01   2.114304e+02
  -1.724408e+02   3.238668e+01
  -1.964622e+02  -1.832567e+02
  -9.540275e+00  -2.573530e+02
   2.091569e+02  -9.406974e+01
   3.032318e+02   1.473047e+02
   1.854555e+02   2.948605e+02
  -9.504302e+01   2.272292e+02
  -1.668491e+02   1.113210e+02
  -1.161178e+02   3.174733e+01
  -8.573078e+01   5.414951e+01
  -1.834954e+02   6.886233e+01
  -3.237941e+02  -4.882927e+01
  -3.028377e+02  -2.514846e+02
   6.350205e+00  -3.708677e+02
   3.137068e+02  -3.410295e+02
   4.228726e+02  -1.991875e+02
   2.983975e+02   6.313155e+01
   5.669977e+01   2.129463e+02
  -1.191565e+02   2.364580e+02
  -7.111170e+01   2.127237e+01
   7.425982e+01  -1.086204e+02
   1.729496e+02   1.907324e+00
   4.860718e+01   1.662919e+02
  -1.519613e+02   1.312346e+02
  -1.344007e+02  -3.600240e+01
   9.121234e+00  -1.762193e+02
   1.472651e+02  -2.672730e+01
   1.416163e+02   2.037694e+02
   1.259724e+01   3.275681e+02
  -1.899282e+02   1.731905e+02
  -3.250531e+02  -5.044626e+01
  -2.481201e+02  -1.722024e+02
  -8.787964e+01  -2.195387e+02
   5.314986e+01  -1.426564e+02
   1.614407e+02  -2.796750e+00
   4.325526e+01   3.829493e+01
  -3.398811e+01  -2.545727e+01
  -4.279956e+01  -1.018998e+02
   1.069211e+02  -1.009422e+02
   1.556601e+02   1.019493e+01
   4.832260e+01   3.371613e+01
  -5.703445e+01   1.902408e+01
  -6.739304e+01  -6.285967e+01
   1.056664e+02  -6.806157e+01
   2.365587e+02  -1.469958e+01
   2.324620e+02   1.015060e+02
   3.527526e+01   2.265575e+02
  -1.588746e+02   2.453834e+02
  -2.550786e+02   1.262531e+02
  -1.403693e+02  -6.620541e+01
   4.960507e+01  -8.475031e+01
   8.239727e+01  -2.078250e+01
  -9.595625e+00   1.100724e+02
  -1.384836e+02   6.900882e+01
  -1.825355e+02  -9.685019e+01
  -6.218159e+01  -1.929541e+02
   5.409280e+01  -1.096253e+02
   1.424999e+02  -1.710361e+01
   4.282704e+01   2.497254e+01
  -1.667550e+01   1.269820e+01
  -2.136610e+01  -8.610042e+01
   8.512273e+01  -9.704142e+01
   1.655346e+02  -2.652794e+01
   1.651475e+02   9.913443e+01
   4.060010e+01   1.826962e+02
  -1.449310e+02   1.129459e+02
  -1.397755e+02   2.969281e+01
  -5.695497e+01  -6.560489e+01
   5.917685e+01  -8.973862e+01
   7.124220e+01  -1.114284e+01
   1.719522e+01   1.597862e+01
  -2.294214e+01   4.417340e+01
   5.101127e+00   7.283729e+00
   6.162661e+01  -4.851341e+00
   5.825623e+01   2.729818e+01
   2.782863e-01   1.080240e+02
  -1.181367e+02   1.416678e+02
  -1.905155e+02   2.599463e+01
  -2.048892e+02  -1.159761e+02
  -7.478808e+01  -1.853763e+02
   8.083834e+01  -1.352943e+02
   1.126684e+02  -8.495368e+00
   7.818237e+01   4.788018e+01
   2.720685e+01   7.288696e+00
   4.560291e+01  -1.281711e+01
   6.577626e+01  -2.315196e+00
   4.721271e+01   3.964102e+01
  -2.998725e+01   8.307767e+01
  -8.420831e+01   5.766326e+01
  -6.201986e+01  -6.136693e+00
   8.129757e+00  -1.059963e+02
   1.377909e+02  -7.157882e+01
   1.947881e+02   1.348597e+01
   1.087599e+02   1.564183e+02
  -6.892467e+01   1.848575e+02
  -2.285995e+02   9.635442e+01
  -2.255689e+02  -7.853873e+01
  -1.023145e+02  -1.303799e+02
   4.614697e+01  -1.002772e+02
   6.331323e+01  -7.500109e+01
   7.310753e+01  -5.258782e+01
   3.483616e+01  -9.657373e+01
   5.244494e+01  -5.843238e+01
   8.875952e+01   2.115988e+01
   1.047539e+02   1.248354e+02
   1.790963e+01   1.793211e+02
  -6.954767e+01   1.448419e+02
  -1.191080e+02   2.778037e+01
  -1.156377e+02  -8.552009e+01
   1.794947e+01  -1.345378e+02
   5.756338e+01  -6.089773e+01
   4.902843e+01   1.401547e+00
  -1.135505e+01   1.920948e+01
  -3.066348e+01   2.328298e+01
   3.952987e+01   7.500321e+00
   7.283712e+01   1.096109e+01
   3.359516e+01   3.766569e+01
  -6.577737e+01   3.168708e+01
  -1.455840e+02   9.304275e+00
  -9.732093e+01  -5.941965e+01
   1.044786e+01  -6.763663e+01
   1.001415e+02  -6.805535e+01
   1.315693e+02  -6.789779e+00
   1.312082e+01   2.411105e+01
  -1.955280e+01   3.054080e+01
  -6.253033e+01  -2.481602e+01
  -5.228431e+00  -6.486569e+01
   2.671681e+01  -3.347304e+01
   4.399530e+01  -3.755764e+01
   3.091736e+01   2.636068e+01
   2.817462e+01   5.468549e+00
   3.727964e+01   1.802164e+01
   7.552890e+01  -9.681433e+00
   4.343311e+01   7.016953e+01
  -2.784583e+01   1.110145e+02
  -1.312651e+02   1.166526e+02
  -1.282857e+02   4.232873e+01
  -1.261429e+02  -9.239164e+01
  -3.202389e+01  -8.541650e+01
   7.367514e+01  -3.771763e+01
   5.031740e+01   4.497280e+00
  -4.392273e+01   2.031620e+01
  -1.308631e+02  -3.485536e+01
  -5.066672e+01  -6.834095e+01
   7.177218e+01  -1.046178e+02
   1.749708e+02  -4.922818e+01
   1.296641e+02   3.897670e+01
   2.549774e+01   8.938211e+01
  -4.891083e+01   4.533247e+01
  -3.825711e+01   1.331794e+01
   2.504351e+01  -3.229075e+01
   1.142883e+02   1.986183e+01
   2.658627e+01   6.505593e+01
  -4.920946e+01   1.237085e+02
  -1.282411e+02   7.638705e+01
  -1.262339e+02  -8.085165e+01
   5.389898e+00  -1.408861e+02
   5.576887e+01  -1.067785e+02
   7.281961e+01  -1.046453e+01
   5.126909e+01   1.168409e+02
  -1.078673e+01   9.034367e+01
  -3.088733e+01   3.787692e+01
  -5.214983e+01  -4.134138e+01
  -3.663991e+01  -8.653251e+00
   1.099023e+01   3.075308e+00
  -1.710527e+01  -1.075000e+01
  -5.676842e+01  -7.664140e+01
  -5.308136e+01  -7.951588e+01
   5.693541e+01  -2.855310e+01
   9.981521e+01   2.152799e+01
   1.058969e+02   6.437342e+01
  -1.183743e+01   4.355557e+01
  -5.622818e+01   4.254144e+01
  -6.374773e+01   1.235950e+01
  -2.508482e+01  -1.190310e+01
   5.298240e+01  -6.806878e+00
   2.852357e+00  -7.067658e+00
  -2.031719e+01  -5.273512e-01
   7.464759e+00   4.758370e+00
   8.139575e+01   1.836732e+01
   6.353446e+01  -1.750189e+01
  -1.561056e+01   7.653600e+01
  -1.071376e+02   9.631835e+01
  -1.337186e+02   4.785014e+01
  -1.112250e+02  -4.675295e+01
  -4.635152e+01  -1.180765e+02
   5.222650e+01  -1.284000e+02
   6.500475e+01  -5.229142e+01
   4.449783e+01  -9.376321e+00
   2.666047e+01   1.960816e+01
   3.126986e+00   4.898604e+00
   2.220127e+01   7.694260e-01
   1.996595e+01   2.756778e+01
   3.511076e+01   8.826978e+01
  -1.642064e+01   4.323200e+01
  -5.386607e+01  -2.284617e-01
  -6.997540e+01  -8.203701e+01
  -9.978375e+00  -1.021898e+02
   7.060029e+01  -4.652787e+01
   9.360050e+01   5.425466e+01
   3.633950e-01   7.814768e+01
  -7.468376e+01   4.104193e+01
  -9.346883e+01  -9.298163e-01
  -2.621222e+01  -3.945374e+01
   1.813129e+01  -8.132392e+01
   4.553462e+01  -2.640980e+01
  -3.046579e+01   1.180085e+00
  -7.360656e+01  -1.248289e+01
  -1.177528e+01  -8.348686e+00
   5.600281e+01  -1.353852e+01
   9.306492e+01  -3.360651e+01
   2.177581e+01   6.264704e+01
  -9.136338e+00   8.742441e+01
  -3.155132e+01   8.504848e+01
  -3.671048e+01   1.803062e+00
   1.605676e+01  -4.843438e+01
   2.439765e+01  -2.680806e+01
   1.582354e+01   1.178202e+01
   3.229104e+01   8.353856e+01
  -3.576035e+00   1.507051e+01
   1.207790e+01  -2.608112e+01
  -1.287101e+01  -2.008378e+01
  -3.857847e+00  -2.811276e+00
   1.933677e+01   3.375258e+01
   1.737386e+01  -7.906527e+00
   6.862400e-01  -4.003957e+01
   3.060147e+01  -4.992110e+01
   4.625790e+01  -3.322033e-01
   1.909427e+01   4.474169e+01
  -1.783684e+01   5.977728e+01
  -3.196485e+01  -1.188232e+00
  -5.818164e+01  -5.466390e+01
  -1.843928e+01  -6.457633e+01
   6.368900e+01  -3.589470e+01
   7.581708e+01   3.412176e+00
   5.779996e+01   4.241357e+01
  -3.813981e+01   2.836592e+01
  -7.206717e+01  -7.193853e+00
  -1.105626e+01  -4.843776e+00
   3.336830e+01   1.978517e+00
   2.163947e+00   3.374177e+01
  -2.772083e+01   2.807320e+01
  -9.064180e+01   2.280019e+01
