
 $NMID
 id='ANONYMOUS ', fmtdat='(2E16.6)'
 volume=1.0
 tramp=1.0
 $END
   3.633204e+03  -1.996552e+02
   2.211035e+03   2.200612e+03
  -4.413397e+02   2.496855e+03
  -1.730763e+03   6.274103e+02
  -9.104942e+02  -4.365405e+02
   4.866043e+02  -3.187707e+02
   6.606333e+02   3.384229e+02
   2.755818e+01   8.183448e+02
  -6.312499e+02   7.303471e+02
  -8.568542e+02   7.888081e+00
  -4.446999e+02  -6.877994e+02
   1.496953e+02  -7.116390e+02
   4.794292e+02  -3.557816e+01
   2.976811e+02   5.947386e+02
  -2.449895e+02   6.176773e+02
  -4.547962e+02  -8.070560e+00
  -2.308062e+02  -5.731334e+02
   2.236644e+02  -4.882815e+02
   4.763890e+02  -7.246940e+01
   2.844650e+02   2.803000e+02
   7.173194e+01   4.007962e+02
  -2.202565e+02   2.164584e+02
  -1.645313e+02  -8.399868e+00
   1.152088e+02  -5.543686e+01
   3.538427e+02   6.512145e+01
   1.545599e+02   3.510739e+02
  -4.099176e+02   3.310541e+02
  -6.308933e+02  -1.029131e+02
  -3.117156e+02  -4.366001e+02
   2.437607e+02  -4.061598e+02
   6.323683e+02   9.442180e+01
   2.623453e+02   3.933807e+02
  -2.319115e+02   4.680486e+02
  -5.124070e+02   2.057751e+02
  -2.948456e+02  -1.888117e+02
  -5.084592e+01  -3.681939e+02
   1.381267e+02  -2.017258e+02
   1.171932e+02   1.318347e+02
  -1.672662e+02   3.933599e+02
  -3.608085e+02  -3.429115e+01
  -1.831181e+02  -5.931394e+02
   2.697102e+02  -5.905839e+02
   4.888642e+02   1.896450e+01
   2.330569e+02   4.283514e+02
  -1.895395e+02   2.687593e+02
  -2.910328e+02  -2.419317e+02
   4.267046e+01  -4.597940e+02
   4.507852e+02  -1.404650e+02
   5.252672e+02   3.257617e+02
   1.264176e+02   4.650516e+02
  -3.398854e+02   3.095870e+02
  -5.155265e+02  -2.767772e+01
  -2.833708e+02  -2.623263e+02
   1.275045e+02  -3.090992e+02
   3.424743e+02  -3.809254e+01
   2.089303e+02   1.442516e+02
  -7.539303e+01   1.033989e+02
  -1.320678e+02  -1.213161e+02
   1.124378e+02  -1.379621e+02
   2.576359e+02   5.227153e+01
   1.374755e+02   2.309406e+02
  -1.488416e+02   2.111232e+02
  -2.642597e+02   7.285040e+01
  -1.800419e+02  -6.706157e+01
   1.758750e+01  -1.979847e+02
   1.820092e+02  -3.037592e+02
   2.577632e+02  -1.848917e+02
   2.510759e+02   8.535220e+01
   1.073904e+02   3.430733e+02
  -1.367525e+02   3.427784e+02
  -1.112175e+02   1.127629e+02
  -2.319740e+01  -6.038766e+00
  -2.257712e+01   8.753531e+01
  -1.940085e+02   1.357107e+02
  -1.996812e+02  -2.454986e+01
  -1.404606e+02  -2.197944e+02
   5.893957e+01  -2.162733e+02
   1.678596e+02  -3.351377e+01
   1.623371e+02   2.174160e+02
  -2.307780e+01   2.511780e+02
  -2.347408e+02   7.364274e+01
  -2.963078e+02  -1.432047e+02
  -1.484192e+02  -2.776379e+02
   6.731426e+01  -2.568235e+02
   1.791912e+02  -7.327369e+01
   1.059331e+02  -2.836388e+01
   1.032892e+02  -5.771711e+01
   1.749002e+02  -6.806587e+01
   3.009303e+02   4.611109e+01
   3.113433e+02   2.303692e+02
   9.142855e+00   3.855094e+02
  -2.921636e+02   3.301087e+02
  -4.060802e+02   1.864175e+02
  -2.504566e+02  -4.694800e+01
  -5.736540e+01  -2.224150e+02
   1.215280e+02  -2.132950e+02
   4.029818e+01  -3.529443e+01
  -4.928022e+01   9.404385e+01
  -1.843319e+02  -9.270792e+00
  -3.624246e+01  -1.879188e+02
   1.550768e+02  -1.398085e+02
   1.326245e+02   3.884275e+01
  -2.163333e+00   1.652090e+02
  -1.420367e+02  -9.346450e+00
  -1.396820e+02  -1.977702e+02
   1.336419e+01  -3.079747e+02
   1.836149e+02  -1.395051e+02
   2.941985e+02   8.781275e+01
   2.554073e+02   1.972205e+02
   8.569719e+01   2.237737e+02
  -9.153685e+01   1.366494e+02
  -1.618849e+02  -1.276313e+01
  -2.753202e+01  -2.662091e+01
   4.052433e+01   4.112329e+01
   3.981763e+01   8.663138e+01
  -1.430685e+02   1.082960e+02
  -1.428294e+02  -3.333255e+01
  -4.465382e+01  -5.226908e+01
   7.754823e+01  -1.693767e+01
   4.201329e+01   5.808352e+01
  -1.174232e+02   7.877748e+01
  -2.524169e+02   1.743755e+01
  -2.087565e+02  -1.138237e+02
  -4.594849e+01  -2.302177e+02
   1.824580e+02  -2.026818e+02
   2.717392e+02  -1.248506e+02
   1.538357e+02   2.904750e+01
  -2.675066e+00   1.108861e+02
  -5.557754e+01   2.064715e+00
  -3.907843e+00  -8.637078e+01
   1.591879e+02  -1.763994e+01
   1.902586e+02   8.341096e+01
   6.516908e+01   2.250706e+02
  -4.327747e+01   1.294535e+02
  -1.429542e+02   3.821906e+01
  -5.780360e+01  -3.376236e+01
   1.360589e+01  -3.133220e+01
   4.076802e+01   7.113021e+01
  -5.997739e+01   1.073574e+02
  -1.751457e+02   3.205616e+01
  -1.744581e+02  -9.477747e+01
  -2.666686e+01  -1.994128e+02
   1.224306e+02  -1.594190e+02
   1.503319e+02  -1.656832e-01
   4.482679e+01   1.004040e+02
  -4.134948e+01   9.377186e+01
  -8.727636e+01   2.512341e+01
  -2.800199e+01   4.237012e-01
   2.160626e+01  -1.032006e+01
  -1.419482e+01   1.578104e+01
  -3.149972e+01  -2.017050e+01
  -5.540441e+01  -4.273701e+01
  -8.809180e+00  -1.174817e+02
   1.029014e+02  -1.249194e+02
   1.750659e+02  -6.265794e+00
   2.000794e+02   9.496052e+01
   7.260417e+01   2.107013e+02
  -7.864511e+01   1.150935e+02
  -1.006513e+02   3.157092e+01
  -6.351246e+01  -5.163398e+01
  -2.151357e+01  -1.463029e+01
  -3.502866e+01   4.163475e+01
  -5.294562e+01   3.573925e+01
  -1.259239e+01  -4.186919e+01
   5.137295e+01  -7.389555e+01
   8.107033e+01  -6.373624e+01
   9.943936e+01   5.332592e+01
  -2.898604e+01   8.853968e+01
  -1.205919e+02   7.476720e+01
  -1.976127e+02  -1.299428e+01
  -9.190559e+01  -1.519209e+02
   9.368312e+01  -1.588001e+02
   2.328308e+02  -7.272365e+01
   2.501469e+02   4.923074e+01
   1.308061e+02   1.621654e+02
  -5.008871e+01   1.124711e+02
  -7.021993e+01   8.563630e+01
  -7.921291e+01   5.855324e+01
  -6.344599e+01   9.858238e+01
  -6.962475e+01   3.020931e+01
  -7.970834e+01  -1.193569e-01
  -9.050987e+01  -1.142933e+02
  -1.740890e+01  -2.044211e+02
   9.900001e+01  -1.688442e+02
   1.666942e+02   1.779620e+01
   1.106004e+02   1.032376e+02
   5.346486e+00   1.264634e+02
  -4.088135e+01   5.681269e+01
  -4.832776e+01  -1.186330e+01
  -4.756555e-02  -2.941936e+01
   3.958594e+00  -5.513421e+01
  -3.550167e+01   6.459926e+00
  -8.092675e+01  -2.949361e+01
  -4.411767e+01  -4.869111e+01
   7.653768e+01  -3.757207e+01
   1.315381e+02  -1.447101e+01
   1.218963e+02   4.765689e+01
  -1.941421e+01   6.864116e+01
  -7.908272e+01   7.037365e+01
  -1.325014e+02   1.506529e+01
  -6.192921e+01  -7.855832e+00
   4.942977e+01  -4.231521e+01
   7.222427e+01   1.272778e+01
   7.582009e+00   8.211343e+01
  -5.311693e+01   5.375604e+01
  -7.855329e+01   5.574414e+00
  -5.129239e+01  -5.114568e+01
  -3.680594e+01  -4.698581e+01
  -3.441536e+01  -2.083245e+01
  -6.996345e+01  -3.801004e+00
  -4.085498e+01  -7.722877e+01
   3.392835e+01  -1.191895e+02
   1.314799e+02  -1.534977e+02
   9.675670e+01   9.125354e-01
   1.143841e+02   9.260878e+01
   1.030974e+01   1.157956e+02
  -7.150929e+01   4.144610e+01
  -3.559563e+01  -1.595307e+01
   4.825762e+01  -1.270540e+01
   1.126127e+02   3.350882e+01
   5.197052e+01   7.269419e+01
  -6.564362e+01   9.342599e+01
  -1.615773e+02   4.718490e+01
  -1.301904e+02  -2.658638e+01
  -3.560226e+01  -6.727362e+01
   6.121412e+01  -6.266746e+01
   3.142972e+01  -1.392223e+01
  -9.325778e+00   3.750095e+01
  -6.860457e+01  -2.953444e+01
  -1.277253e+01  -9.622364e+01
   5.386657e+01  -9.632674e+01
   1.088584e+02  -5.485618e+01
   9.633522e+01   9.400915e+01
   1.183202e+01   1.643921e+02
  -5.523967e+01   1.014329e+02
  -8.609108e+01   6.452933e+00
  -6.211648e+01  -1.126526e+02
   8.137420e+00  -9.847096e+01
   4.018379e+01  -2.333883e+01
   6.138770e+01   2.130903e+01
   2.225072e+01   1.472602e+01
  -1.774825e+01  -4.991771e+01
   2.788125e+00  -1.160376e+01
   5.289233e+01   7.413608e+01
   1.830061e+01   8.736392e+01
  -3.784960e+01   2.782541e+01
  -1.265149e+02  -2.749689e+01
  -1.110658e+02  -7.251830e+01
  -2.867123e+00  -6.272862e+01
   6.923116e+01  -3.947843e+01
   5.931691e+01  -1.668638e+01
  -7.331514e+00   7.359485e+00
  -4.566990e+01   1.094584e+01
  -2.033445e+01   2.423072e+01
   2.716295e+01  -2.372104e+01
   7.757745e+00  -3.270510e+01
  -8.204057e+01  -5.697473e+00
  -7.112214e+01  -7.083339e+00
   2.588241e+01  -7.816448e+01
   9.760879e+01  -8.861022e+01
   1.514378e+02  -4.833317e+01
   1.177365e+02   3.775999e+01
   2.340455e+01   1.503194e+02
  -2.457856e+01   1.407083e+02
  -8.797725e+01   6.846187e+01
  -7.329586e+01  -5.456513e+00
  -7.791978e+00  -6.993296e+00
  -1.054643e+01  -9.928487e+00
  -1.160104e+01   9.084321e+00
  -2.816876e+01  -4.540851e+01
  -3.064279e+01  -8.985012e+01
   4.115136e+01  -8.675790e+01
   7.211336e+01   3.880776e+01
   6.469584e+01   8.920453e+01
  -9.173756e+00   1.071397e+02
  -7.581094e+01   4.660619e+01
  -7.878986e+01  -7.365634e+01
  -4.450029e+00  -6.175807e+01
   5.788288e+01  -3.739443e+01
   6.836823e+01  -3.290119e+01
   3.211770e+01   3.880133e+01
  -3.834633e+00   6.256077e+01
  -3.741094e+01   2.341021e+01
   8.216491e+00  -2.512039e+01
   5.035591e+01   1.482343e+01
  -1.152727e+01   2.134785e+00
  -6.517903e+01   3.479577e+01
  -8.501825e+01   7.095091e+01
  -6.168764e+00  -4.654879e+01
   6.427175e+00  -5.066257e+01
   4.023235e+01  -6.494796e+01
   1.064428e+01   1.646918e+01
   4.406735e+00   6.445547e+01
  -1.641320e+01  -8.123132e+00
  -3.782281e+01   1.424242e+00
  -5.928625e+01  -6.175427e+01
   6.971497e+00  -4.558558e+01
  -3.385903e+00   1.765040e+01
   1.850865e+01   6.667418e+00
  -8.757494e+00  -1.226890e+01
   2.940938e+00  -1.528544e+01
  -5.673240e+00   9.847303e+00
  -1.701894e+00   1.816558e+01
  -2.813712e+01   5.408173e+01
  -3.952004e+01  -1.977979e+01
  -5.195031e+01  -2.838433e+01
   6.912043e-01  -2.506214e+01
   1.673636e+01  -1.628943e+01
   7.236612e+01   4.068712e+01
  -9.196538e+00   4.540393e+01
  -3.813745e+01   3.742004e+01
  -6.083969e+01  -3.176966e+01
  -3.491089e+01  -2.300944e+01
   3.804492e+01  -3.201618e+01
   4.629304e+01   6.010765e-01
   2.608200e+01   2.562368e+00
  -4.442122e+01  -1.064008e+00
  -1.160812e+01  -1.255694e+01
   2.496536e+01  -2.346275e+01
   7.502600e+01   4.876102e+00
