
 $NMID
 id='ANONYMOUS ', fmtdat='(2E16.6)'
 volume=1.0
 tramp=1.0
 $END
  -3.362517e+03   7.165336e+01
  -2.306357e+03  -2.005266e+03
   6.368874e+02  -2.098817e+03
   1.491482e+03  -8.445021e+02
   8.031287e+02   5.216021e+02
  -5.028881e+02   2.453706e+02
  -6.833899e+02  -4.421159e+02
   5.316129e+01  -8.580419e+02
   6.479494e+02  -7.093875e+02
   8.095476e+02   5.685931e+01
   3.854664e+02   7.289975e+02
  -1.128890e+02   7.913974e+02
  -4.676042e+02   6.916201e+01
  -2.913095e+02  -5.386112e+02
   1.803294e+02  -5.641204e+02
   4.616550e+02   7.565428e+00
   1.928778e+02   5.485657e+02
  -2.349896e+02   5.103417e+02
  -4.357048e+02   1.238615e+02
  -2.906839e+02  -2.543602e+02
  -1.860122e+01  -3.393665e+02
   1.596492e+02  -2.001336e+02
   1.854062e+02  -3.525666e+01
  -5.716906e+01   7.982031e+01
  -3.060671e+02  -3.827088e+01
  -1.336114e+02  -3.618704e+02
   3.156594e+02  -3.567312e+02
   6.870455e+02   5.754849e+01
   3.932363e+02   4.289766e+02
  -3.126728e+02   4.653856e+02
  -5.621129e+02  -1.809961e+01
  -3.017003e+02  -3.907389e+02
   2.317504e+02  -4.190351e+02
   4.058326e+02  -1.255442e+02
   2.889025e+02   1.669579e+02
   5.592818e+01   4.121658e+02
  -1.418363e+02   1.785806e+02
  -1.353772e+02  -1.513412e+02
   1.403484e+02  -3.571432e+02
   3.732348e+02  -5.630044e+00
   2.263758e+02   5.258731e+02
  -2.773129e+02   5.555017e+02
  -4.803169e+02   1.606837e+01
  -2.631380e+02  -4.456824e+02
   2.439411e+02  -2.851851e+02
   3.325715e+02   2.625242e+02
  -2.079138e+01   4.455398e+02
  -4.549503e+02   1.163983e+02
  -5.596710e+02  -2.895463e+02
  -1.112287e+02  -4.943077e+02
   3.139003e+02  -2.816344e+02
   5.130472e+02   7.527775e+01
   3.136600e+02   2.802343e+02
  -1.153127e+02   2.690461e+02
  -3.081387e+02   8.829623e+00
  -1.744762e+02  -1.192274e+02
   8.389365e+01  -9.129119e+01
   8.474847e+01   1.183989e+02
  -1.093371e+02   1.874554e+02
  -3.044798e+02  -6.975903e+01
  -1.729367e+02  -2.825784e+02
   1.463648e+02  -2.077440e+02
   2.376804e+02  -6.984302e+01
   1.718355e+02   6.636283e+01
  -3.791780e+01   1.745511e+02
  -1.655099e+02   2.659743e+02
  -2.866847e+02   1.603879e+02
  -2.321842e+02  -9.694041e+01
  -6.299849e+01  -3.149678e+02
   6.482058e+01  -3.058131e+02
   9.199213e+01  -7.061744e+01
   3.277775e+01   2.091454e+01
   8.198087e+01  -8.586385e+01
   1.482404e+02  -1.050280e+02
   1.999084e+02   1.360064e+01
   1.275681e+02   1.958908e+02
  -7.979727e+01   2.219899e+02
  -1.862649e+02   1.121148e+01
  -1.483090e+02  -1.688126e+02
   2.542299e+01  -2.322974e+02
   1.863998e+02  -1.399272e+02
   2.923537e+02   1.309063e+02
   1.517578e+02   2.566531e+02
  -1.152203e+02   2.630642e+02
  -1.758471e+02   9.517434e+01
  -1.182282e+02  -1.917437e+00
  -8.132575e+01   7.423686e+01
  -1.809009e+02   6.918074e+01
  -3.111497e+02  -4.639560e+01
  -2.840219e+02  -1.935450e+02
  -2.740375e+01  -3.805613e+02
   2.711188e+02  -2.885997e+02
   3.406190e+02  -1.491716e+02
   2.879189e+02   4.643929e+01
   6.604519e+01   2.497022e+02
  -1.090691e+02   2.140943e+02
  -5.718043e+01  -1.767699e+00
   6.708261e+01  -1.140946e+02
   1.410664e+02  -1.190054e+00
   3.446226e+01   1.620393e+02
  -1.305225e+02   1.341538e+02
  -1.393522e+02  -5.229468e+01
  -1.836856e+01  -1.380456e+02
   1.452460e+02  -2.243711e+01
   1.586769e+02   1.902767e+02
  -1.023663e+01   2.582436e+02
  -1.886784e+02   1.629930e+02
  -2.702554e+02  -2.401701e+01
  -2.098706e+02  -1.801989e+02
  -6.542774e+01  -2.007604e+02
   7.363033e+01  -1.448195e+02
   1.444519e+02   7.819040e+00
   3.730051e+01   1.159554e+01
  -6.460409e+01  -3.104233e+01
  -3.276225e+01  -1.069803e+02
   9.789676e+01  -1.073926e+02
   1.507592e+02   2.036847e+01
   2.527699e+01   3.230589e+01
  -8.243355e+01   1.517852e+01
  -3.314639e+01  -4.768296e+01
   1.178564e+02  -6.984486e+01
   2.418384e+02  -8.019937e+00
   2.152590e+02   9.091061e+01
   5.437245e+01   2.110028e+02
  -1.599122e+02   2.107186e+02
  -2.134485e+02   1.622582e+02
  -1.445694e+02  -2.699756e+01
  -4.356794e+00  -1.009373e+02
   6.191500e+01  -1.975096e+00
  -2.483935e+01   6.831004e+01
  -1.474246e+02   6.331416e+01
  -1.733580e+02  -7.040862e+01
  -5.583473e+01  -1.629847e+02
   7.458076e+01  -1.182422e+02
   1.382293e+02  -3.542947e+01
   6.668692e+01   1.528889e+00
  -6.665876e+00   1.729148e+00
  -3.422195e+01  -8.303291e+01
   3.114302e+01  -8.850713e+01
   1.485352e+02  -1.524438e+01
   1.500258e+02   5.995247e+01
   9.633277e+00   1.666878e+02
  -8.617670e+01   1.473781e+02
  -1.407503e+02   1.916039e+01
  -5.331584e+01  -7.063490e+01
   4.716017e+01  -1.178142e+02
   6.828024e+01  -1.426567e+01
  -4.600103e+00  -4.901237e+00
  -2.651359e+01   2.883729e+01
   3.459923e+00  -3.579246e+00
   7.832510e+01   3.070625e+00
   8.200131e+01   4.933047e+01
   2.849891e+01   1.320698e+02
  -7.845046e+01   1.089873e+02
  -1.673677e+02   3.050939e+01
  -1.383433e+02  -1.080971e+02
  -2.862932e+01  -2.128463e+02
   9.863942e+01  -1.447558e+02
   9.279388e+01  -4.229213e+00
   8.643979e+01   5.181056e+01
   1.238605e+01   8.309215e+00
   6.241002e+01  -2.785142e+01
   5.209736e+01  -1.883481e+01
   2.656882e+01   4.750056e+01
  -2.455137e+01   6.461526e+01
  -9.512994e+01   3.672909e+01
  -4.026612e+01  -2.887492e+01
   1.725948e+00  -7.986978e+01
   1.281780e+02  -7.921843e+01
   1.478196e+02   2.887976e+01
   9.081459e+01   1.771900e+02
  -7.893154e+01   1.984577e+02
  -2.209820e+02   1.021861e+02
  -2.026059e+02  -8.013245e+01
  -9.733090e+01  -1.319335e+02
   3.194297e+01  -8.710567e+01
   6.654366e+01  -4.786138e+01
   6.031514e+01  -6.010518e+01
   3.854218e+01  -5.937967e+01
   6.421184e+01  -7.195286e+01
   9.370448e+01  -6.585521e+00
   1.187183e+02   1.181219e+02
   3.389203e+01   1.671766e+02
  -5.444437e+01   1.356613e+02
  -1.138145e+02   2.808245e+01
  -1.123496e+02  -1.015488e+02
  -1.459031e+01  -1.084685e+02
   7.405723e+01  -6.202218e+01
   4.582497e+01   1.907594e+01
   6.688674e+00   1.973063e+01
  -1.200490e+01   4.422873e+01
   4.801261e+01  -1.484904e+01
   6.054128e+01   1.205698e+01
   2.492652e+01   1.699046e+01
  -3.651311e+01   1.642191e+01
  -1.087469e+02   1.865145e+01
  -1.016335e+02  -2.351888e+01
  -1.912753e+01  -8.274174e+01
   1.129161e+02  -3.955311e+01
   1.230281e+02  -3.445741e+01
   3.872500e+01   3.545108e+01
  -5.489685e+01   2.774102e+01
  -5.998242e+01  -2.383997e+01
  -1.011525e+01  -6.106928e+01
   6.372779e+01  -4.442208e+01
   5.074052e+01  -3.399455e+01
   4.897299e+01   6.488099e+01
   5.598566e+01   2.504507e+01
   4.329235e+01   1.037680e+01
   4.746575e+01  -2.552419e+00
   3.300723e+01   3.917689e+01
  -3.703441e+00   1.301427e+02
  -1.092641e+02   1.061879e+02
  -1.200554e+02   2.969930e+01
  -8.965347e+01  -6.123809e+01
   9.849561e-01  -1.193864e+02
   5.958792e+01  -4.318973e+01
   4.971375e+01   1.676589e+01
  -4.576895e+01   3.598904e+01
  -1.249256e+02  -3.931797e+01
  -4.760279e+01  -7.213316e+01
   6.116013e+01  -8.137298e+01
   1.880345e+02  -5.016176e+01
   1.297042e+02   6.686474e+00
   3.882942e+01   7.043544e+01
  -5.534758e+01   5.709023e+01
  -3.422013e+01   1.678497e+01
   3.878318e+01  -2.573526e+01
   7.618457e+01   4.987598e+00
   3.558238e+01   5.299681e+01
  -8.893948e+01   9.064491e+01
  -1.396815e+02   4.730959e+01
  -1.026573e+02  -6.532752e+01
  -8.910205e-01  -1.617693e+02
   6.877005e+01  -1.227438e+02
   6.842663e+01   2.190086e+01
   2.867090e+01   8.211332e+01
   1.087305e+01   1.025218e+02
  -3.319547e+01   2.514821e+01
  -7.183705e+01  -8.781195e+00
  -4.278264e+01  -1.782828e+01
  -1.241523e+01   3.629048e+00
  -4.228888e+01  -1.877264e+01
  -3.218323e+01  -6.187214e+01
  -3.095928e+01  -7.534310e+01
   6.383673e+01  -2.282552e+01
   8.799655e+01   9.808489e+00
   9.539235e+01   5.022259e+01
   2.451346e+01   6.130908e+01
  -7.949305e+01   2.189063e+01
  -9.259277e+01   2.798960e+00
  -8.952699e+00   6.733992e+00
   3.195706e+01  -1.917243e+00
   4.857815e+01  -2.090291e+01
  -1.267040e+01   5.925253e+00
  -2.028738e+00  -1.166393e+00
   8.636194e+01   3.410071e+00
   7.742009e+01  -2.258405e+00
   3.395424e+01   7.385999e+01
  -1.111388e+02   8.501101e+01
  -1.226505e+02   5.761121e+01
  -1.407443e+02  -4.349754e+01
  -1.395754e+01  -1.332946e+02
   3.723396e+01  -1.235244e+02
   6.327213e+01  -4.768679e+01
   7.206480e+01  -2.646712e+00
   4.172184e+01   4.084826e+01
  -1.091217e+01   1.972879e+00
   3.008483e+01   8.766015e+00
   4.829481e+01   6.150308e+01
   1.640690e+01   5.863031e+01
  -1.724653e+01   6.966235e+01
  -5.785591e+01   1.128091e+00
  -5.600185e+01  -3.786340e+01
   1.257647e+01  -4.781956e+01
   5.473389e+01  -4.136428e+01
   9.557355e+01   4.665931e+01
   1.553853e+01   8.216252e+01
  -4.652747e+01   5.357408e+01
  -8.387296e+01  -1.833423e+01
  -2.785536e+01  -3.700818e+01
  -1.737979e+01  -4.017911e+01
   1.649382e+00  -2.656855e+00
  -1.923742e+01   3.242722e+01
  -5.111133e+01   4.337229e+01
  -2.816313e+01   5.475699e+00
   4.896999e+01  -4.482414e+01
   9.643050e+01  -7.289395e+01
   1.224456e+01   3.071634e+01
  -2.268793e+01   6.716886e+01
  -2.211071e+01   6.378698e+01
  -4.503001e+01   3.094808e+01
   8.508928e+00  -4.154435e+01
  -1.745059e+01  -9.415973e+00
   1.851634e+01   1.454079e+00
   1.521794e+01   3.952933e+01
  -2.534141e+01   4.475135e+01
  -2.467985e+01   1.273966e+01
  -1.698135e+01  -3.989146e+01
  -2.082806e+01  -1.227940e+00
   4.272094e+00   2.284246e+01
  -3.966810e+00   1.636582e+01
   2.501597e+01  -3.337120e+00
   8.877977e-01  -3.837679e+01
   1.048506e+01   3.403458e+00
   2.133547e+01   3.431824e+01
   7.525519e+00   1.449029e+01
  -3.161894e+01   1.851213e+01
  -5.609749e+01  -4.806674e+01
  -1.067504e+01  -2.921686e+01
   4.897621e+01  -4.694060e+01
   8.442034e+01   2.078945e+01
   2.581311e+01   2.826279e+01
  -8.238058e+00   4.271243e+00
  -2.860657e+01   1.943761e+01
  -3.382423e+01  -1.122251e+01
  -6.190873e+00  -4.751423e+00
   3.916077e+01   2.960263e+01
  -2.214859e+01   3.216397e+01
  -8.321594e+01  -1.477759e+01
