
 $NMID
 id='ANONYMOUS ', fmtdat='(2E16.6)'
 volume=1.0
 tramp=1.0
 $END
   4.151482e+03   1.102859e+02
   2.289897e+03   2.632098e+03
  -7.820534e+02   2.646014e+03
  -2.022123e+03   5.298949e+02
  -7.160640e+02  -8.625342e+02
   6.600230e+02  -5.697662e+02
   8.330957e+02   4.923173e+02
   2.663403e+01   1.083433e+03
  -9.041493e+02   7.596234e+02
  -8.655423e+02  -1.649427e+02
  -4.234990e+02  -8.593453e+02
   3.423133e+02  -8.639057e+02
   6.502386e+02  -7.052619e+01
   3.378249e+02   7.714264e+02
  -2.983890e+02   6.965189e+02
  -6.079572e+02  -1.191169e+00
  -2.507993e+02  -6.537495e+02
   3.247019e+02  -5.629418e+02
   5.569228e+02  -6.293334e+01
   3.383322e+02   3.285756e+02
   8.594006e+00   3.985962e+02
  -2.452179e+02   2.132905e+02
  -2.085196e+02   1.134694e+01
   1.362825e+02  -1.326535e+02
   4.361041e+02   9.649263e+01
   1.634114e+02   4.357390e+02
  -4.704713e+02   4.645422e+02
  -8.512558e+02  -2.732595e+01
  -4.283362e+02  -5.420137e+02
   4.299717e+02  -5.235260e+02
   6.810479e+02   4.061551e+01
   3.198173e+02   5.094172e+02
  -2.410332e+02   4.925396e+02
  -5.332467e+02   1.529592e+02
  -4.231018e+02  -2.544460e+02
  -8.149663e+01  -4.683323e+02
   1.896534e+02  -3.194524e+02
   2.306497e+02   2.669436e+02
  -1.565325e+02   4.329393e+02
  -4.667612e+02   9.172475e+00
  -2.758198e+02  -6.025884e+02
   3.446575e+02  -6.364378e+02
   5.971943e+02  -1.936070e+01
   2.793828e+02   5.543007e+02
  -3.159657e+02   3.761698e+02
  -4.187259e+02  -3.508425e+02
   9.127045e+01  -5.189427e+02
   5.766222e+02  -1.433460e+02
   5.585790e+02   3.813541e+02
   1.572133e+02   5.978063e+02
  -3.556533e+02   3.088623e+02
  -5.623162e+02  -3.772713e+01
  -3.261330e+02  -3.930035e+02
   1.478516e+02  -3.428831e+02
   4.622791e+02  -5.486309e+01
   1.918819e+02   1.695420e+02
  -1.365755e+02   6.460531e+01
  -1.086714e+02  -1.499660e+02
   1.438154e+02  -1.830594e+02
   3.477251e+02   7.391319e+01
   1.339206e+02   3.029737e+02
  -1.904902e+02   2.442565e+02
  -3.291380e+02   2.453667e+01
  -1.777481e+02  -6.759415e+01
   2.328179e+01  -1.847207e+02
   2.473320e+02  -3.020403e+02
   3.184473e+02  -2.005796e+02
   3.204605e+02   1.216490e+02
   9.652953e+01   4.160540e+02
  -8.934756e+01   3.360292e+02
  -1.810340e+02   9.437094e+01
  -1.035454e+01  -7.263943e+01
  -1.200140e+00   7.325342e+01
  -1.644959e+02   1.325560e+02
  -2.901676e+02  -1.594566e+01
  -1.421565e+02  -2.708877e+02
   6.568165e+01  -2.408882e+02
   2.257586e+02   5.760292e+00
   1.670431e+02   2.260622e+02
  -2.540019e+01   2.702544e+02
  -2.727410e+02   9.913826e+01
  -3.454809e+02  -1.576324e+02
  -1.795898e+02  -3.672070e+02
   1.108996e+02  -2.759851e+02
   2.232540e+02  -1.232957e+02
   1.637402e+02   1.879897e+01
   1.104087e+02  -3.746643e+01
   2.411344e+02  -4.014172e+01
   3.929160e+02   2.919756e+01
   3.218206e+02   2.606070e+02
  -9.731552e+00   4.082862e+02
  -3.322869e+02   3.867105e+02
  -4.663893e+02   1.796305e+02
  -3.248103e+02  -9.962896e+01
  -4.663922e+01  -2.802454e+02
   1.284839e+02  -2.347391e+02
   1.059360e+02  -2.753164e+01
  -1.063787e+02   7.321125e+01
  -2.088785e+02  -5.226360e+00
  -4.405395e+01  -2.172673e+02
   1.238575e+02  -1.803682e+02
   1.709425e+02   7.137360e+01
  -8.930910e+00   1.880781e+02
  -1.940523e+02   5.760743e+01
  -1.234193e+02  -2.259028e+02
   3.723322e+01  -3.002121e+02
   1.766600e+02  -2.028865e+02
   3.031615e+02   4.188091e+01
   2.560080e+02   2.237133e+02
   9.289843e+01   2.677644e+02
  -9.868595e+01   1.422098e+02
  -1.727856e+02   4.294383e+01
  -5.761635e+01  -2.617851e+01
   6.803504e+01  -1.955984e+00
  -7.976740e+00   1.361442e+02
  -1.073587e+02   1.139335e+02
  -1.775444e+02  -2.491637e+01
  -3.967392e+01  -8.249599e+01
   5.977003e+01  -1.119957e+01
   9.440402e+00   5.269605e+01
  -1.407723e+02   7.793056e+01
  -2.436210e+02   1.863075e+01
  -2.845993e+02  -1.311269e+02
  -5.656811e+01  -2.248696e+02
   1.569200e+02  -2.632737e+02
   2.639911e+02  -1.089233e+02
   1.706901e+02   5.992168e+01
  -4.302109e+01   1.000305e+02
  -7.055561e+01   2.979614e+01
   2.606157e+01  -9.477432e+01
   1.869203e+02  -7.515137e+01
   2.301901e+02   1.024814e+02
   7.557520e+01   1.931558e+02
  -1.040472e+02   1.525225e+02
  -1.164336e+02   3.184239e+01
  -5.630358e+01  -3.615751e+01
   2.357764e+01  -1.167010e+01
   3.938739e+01   6.387964e+01
  -7.563090e+01   1.244532e+02
  -2.010374e+02   1.892205e+01
  -1.737574e+02  -1.348855e+02
  -1.408238e+01  -1.862606e+02
   1.084070e+02  -1.257360e+02
   1.970333e+02   3.398120e+00
   5.609179e+01   1.034008e+02
  -6.634873e+01   1.079866e+02
  -9.115914e+01   5.381099e+01
  -1.414091e+01  -3.868507e+01
   6.531535e+00  -3.964368e+01
  -1.179671e+01   3.932273e+01
  -1.074740e+02  -1.247446e+01
  -8.029980e+01  -5.721793e+01
  -3.149702e+01  -1.528615e+02
   9.123751e+01  -1.601706e+02
   2.064939e+02  -5.048927e+01
   1.728382e+02   1.260190e+02
   3.328504e+01   2.013591e+02
  -1.139009e+02   1.499527e+02
  -1.294123e+02  -9.305992e+00
  -4.745742e+01  -4.911245e+01
  -1.162947e+01  -2.617318e+01
  -2.975683e+01   1.863532e+00
  -5.648971e+01   2.414712e+01
  -2.786294e+01  -4.568215e+01
   5.342592e+01  -5.206552e+01
   1.008760e+02  -4.378691e+01
   6.262917e+01   5.239168e+01
  -7.789487e+00   8.644133e+01
  -1.446209e+02   7.051462e+01
  -1.777798e+02  -4.397810e+01
  -9.373559e+01  -1.939773e+02
   9.585767e+01  -2.367157e+02
   2.493785e+02  -7.251147e+01
   2.621634e+02   9.019860e+01
   1.293837e+02   1.906485e+02
  -3.844509e+01   1.397880e+02
  -9.297207e+01   5.702337e+01
  -7.913677e+01   5.700566e+01
  -3.644292e+01   7.204187e+01
  -1.252451e+02   4.746688e+01
  -1.120510e+02  -1.774442e+01
  -1.154786e+02  -1.612058e+02
  -5.658503e+01  -2.120609e+02
   1.100493e+02  -1.572925e+02
   1.865240e+02  -3.673173e+01
   1.140821e+02   1.164659e+02
   1.076192e+00   1.431102e+02
  -7.729366e+01   9.751613e+01
  -8.951747e+01   2.219400e+01
   1.503945e+01  -2.896386e+01
   8.761080e+00  -1.023424e+01
  -5.501267e+01  -1.564635e+01
  -6.795806e+01  -3.486920e+01
  -4.326412e+01  -3.904886e+01
   5.590522e+01  -6.054281e+01
   1.483772e+02  -3.214749e+01
   1.217163e+02   5.166579e+01
   7.548518e+00   1.143047e+02
  -1.107491e+02   4.841653e+01
  -1.494576e+02   2.722941e+01
  -4.055806e+01  -2.394430e+01
   5.917165e+01  -5.485274e+01
   7.026344e+01   4.952360e+00
   2.598357e+01   7.326509e+01
  -4.261101e+01   4.227033e+01
  -3.966708e+01  -1.866249e+01
  -5.712913e+01  -3.976818e+01
  -1.641809e+01  -2.768228e+01
  -6.044368e+01   1.955879e+01
  -3.776121e+01   1.513145e+01
  -3.730523e+01  -5.560428e+01
   3.593903e+01  -9.434168e+01
   1.332291e+02  -1.522197e+02
   1.386979e+02  -2.997653e+01
   8.401394e+01   1.144076e+02
   3.405801e+01   1.242987e+02
  -8.113721e+01   8.885641e+01
  -5.211432e+01  -3.300059e+00
   4.882352e+01  -1.053924e-01
   1.321677e+02   5.021153e+01
   6.641876e+01   1.110741e+02
  -9.178041e+01   1.400959e+02
  -1.888822e+02   6.970245e+01
  -1.600713e+02  -1.587514e+01
  -3.889410e+01  -7.163504e+01
   7.448951e+01  -9.106430e+01
   4.475468e+01   3.901765e+00
  -6.872890e+01   1.061464e+01
  -1.017490e+02   1.266393e-01
  -2.148508e+01  -1.149692e+02
   6.847415e+01  -1.611493e+02
   1.635142e+02  -2.668645e+01
   9.623454e+01   1.127152e+02
   3.051207e+01   1.751060e+02
  -9.755542e+01   1.505374e+02
  -7.932885e+01  -9.139128e+00
  -7.156304e+01  -1.139957e+02
  -1.389990e+01  -8.553282e+01
   4.436258e+01  -3.710287e+01
   2.354456e+01   2.645596e+01
   2.743107e+01  -1.244850e+01
   1.822211e+01  -1.152850e+01
   1.684295e+01   8.375148e+00
   5.000528e+01   6.903930e+01
   2.714377e+01   7.840744e+01
  -5.586923e+01   2.465453e+01
  -1.361581e+02  -5.074426e+01
  -1.176402e+02  -7.397382e+01
   4.275649e+00  -5.526125e+01
   8.684802e+01  -2.896315e+01
   8.946662e+01  -1.313747e+01
   2.188139e+01  -4.179789e+00
  -5.690980e+01   1.492942e+01
  -1.169080e+01   3.796419e+01
   1.956390e+01  -6.690296e-01
  -9.066340e+00  -4.684713e+00
  -6.310608e+01   5.171143e+00
  -7.014026e+01  -2.062951e+01
   1.556957e+01  -6.318133e+01
   1.048827e+02  -8.743017e+01
   1.580291e+02  -6.968540e+01
   1.325654e+02   8.143595e+01
   3.253312e+01   1.533869e+02
  -6.411703e+01   1.248820e+02
  -1.256507e+02   4.334877e+01
  -9.024794e+01  -4.191768e+01
  -3.468422e+01  -1.386991e+01
   1.221180e+00   7.231652e+00
  -1.959230e+01   1.160827e+01
  -2.444076e+01  -5.607114e+01
  -2.400721e+01  -1.168043e+02
   1.612924e+01  -6.616517e+01
   5.297240e+01   2.197809e+01
   7.026753e+01   1.228880e+02
   1.155889e-01   1.030092e+02
  -6.112065e+01   2.882630e+01
  -1.024808e+02  -7.278354e+01
  -2.855204e+01  -9.490286e+01
   6.853546e+01  -5.472510e+01
   9.758502e+01  -1.582884e+01
   4.622275e+01   2.252795e+01
  -2.297100e+01   3.417876e+01
  -3.210948e+01   1.960709e+01
   2.303069e+01  -2.259280e+01
   3.912632e+01   1.822409e+00
   6.122828e+00   3.009127e+01
  -7.345447e+01   4.259944e+01
  -1.068609e+02   5.948297e+01
  -5.694606e+01  -5.922545e-01
   1.734106e+01  -6.232345e+01
   6.435353e+01  -4.828292e+01
   2.052008e+01  -9.783897e+00
  -4.031023e+01   6.833101e+01
  -3.909404e+01   3.424714e+01
  -4.348977e+01  -3.065692e+01
  -4.030365e+01  -4.629628e+01
   2.675637e+01  -3.267329e+01
   2.365625e+01   2.293965e+01
   2.632805e+01   3.130154e+01
   1.539151e+01   6.138000e+00
   2.929088e+01  -1.893034e+01
   2.813704e+00  -4.936330e+00
  -7.221400e+00   2.116522e+01
  -3.619708e+01   4.489865e+01
  -2.076350e+01  -9.112485e-01
  -7.001497e+00  -5.081003e+01
   1.820570e+00  -6.529171e+01
   3.809581e+01  -1.270632e+01
   2.845328e+01   1.547140e+01
   3.446445e+01   4.507211e+01
  -2.164133e+01   1.516810e+01
  -6.764933e+01  -3.544370e+01
  -5.029662e+01  -1.583832e+01
   3.413176e+01  -5.618749e+01
   4.538079e+01  -2.576332e+01
   1.661947e+01   1.848879e+01
  -4.047768e+01  -1.132014e+01
  -3.629566e+01  -9.144214e+00
   1.997770e+01  -3.397871e+01
   8.716711e+01  -1.366694e+01
