
 $NMID
 id='ANONYMOUS ', fmtdat='(2E16.6)'
 volume=1.0
 tramp=1.0
 $END
   4.315000e+03   1.610739e+01
   2.534155e+03   2.664775e+03
  -1.017039e+03   2.975048e+03
  -2.189483e+03   8.757615e+02
  -1.009541e+03  -9.438139e+02
   8.214518e+02  -6.396459e+02
   9.119339e+02   5.235679e+02
  -5.020982e+01   1.182717e+03
  -9.163680e+02   7.811504e+02
  -9.189045e+02  -1.858229e+02
  -4.396697e+02  -9.478446e+02
   3.489257e+02  -9.165185e+02
   7.366313e+02  -8.903264e+01
   4.237338e+02   7.566613e+02
  -3.211760e+02   7.489028e+02
  -6.692660e+02  -2.126341e+01
  -2.466010e+02  -6.439608e+02
   3.661907e+02  -6.419495e+02
   5.847968e+02  -8.928195e+01
   4.034995e+02   3.849432e+02
  -2.257667e+01   4.107792e+02
  -2.231833e+02   2.567331e+02
  -2.340712e+02  -9.533371e+00
   9.249832e+01  -1.360051e+02
   4.393517e+02   6.946434e+01
   2.001254e+02   4.504390e+02
  -4.919187e+02   4.852680e+02
  -8.905008e+02  -1.405646e+02
  -4.034380e+02  -5.946792e+02
   4.544416e+02  -5.483128e+02
   7.997444e+02  -9.928475e-01
   3.532848e+02   5.406497e+02
  -3.022523e+02   5.262721e+02
  -5.731329e+02   1.631751e+02
  -4.370756e+02  -2.430389e+02
  -6.001378e+01  -5.028029e+02
   2.195038e+02  -3.031270e+02
   2.024681e+02   2.823926e+02
  -1.732629e+02   4.050876e+02
  -4.103107e+02  -4.994704e+01
  -2.897783e+02  -7.155038e+02
   3.044538e+02  -7.305992e+02
   6.291927e+02   5.253659e+00
   3.084040e+02   5.378667e+02
  -3.102071e+02   3.502022e+02
  -4.301016e+02  -3.531042e+02
   8.582892e+01  -5.577862e+02
   6.072568e+02  -1.337782e+02
   5.691091e+02   4.111851e+02
   1.773114e+02   6.231005e+02
  -4.461598e+02   3.485397e+02
  -6.061997e+02  -8.444260e+01
  -4.075931e+02  -4.381934e+02
   1.615207e+02  -4.028390e+02
   4.680833e+02  -8.439833e+01
   2.526190e+02   1.941517e+02
  -1.197805e+02   7.152629e+01
  -1.682035e+02  -1.478944e+02
   1.957395e+02  -1.629657e+02
   3.538477e+02   7.402708e+01
   1.227965e+02   3.339417e+02
  -2.442971e+02   2.826680e+02
  -3.430877e+02   6.667020e+01
  -2.207348e+02  -9.477780e+01
   2.659687e+01  -2.083850e+02
   2.135537e+02  -3.258432e+02
   3.593479e+02  -1.990561e+02
   3.306241e+02   1.674368e+02
   9.624058e+01   4.556600e+02
  -1.316824e+02   3.836265e+02
  -1.340062e+02   9.310971e+01
  -1.813697e+00  -2.556326e+01
  -2.054089e+01   9.630621e+01
  -1.718379e+02   1.301581e+02
  -3.020881e+02  -2.193197e+01
  -1.570127e+02  -2.861248e+02
   6.660906e+01  -2.815272e+02
   2.583004e+02  -5.327440e+01
   2.019138e+02   2.321324e+02
  -7.446355e+00   3.187928e+02
  -2.918945e+02   1.273062e+02
  -3.688116e+02  -1.831604e+02
  -1.699001e+02  -3.674356e+02
   9.561545e+01  -3.140935e+02
   2.527743e+02  -1.077022e+02
   1.808470e+02   2.175006e+01
   1.039525e+02  -4.678178e+01
   2.383376e+02  -3.947584e+01
   4.410762e+02   7.390509e+01
   2.879373e+02   2.632195e+02
  -1.228061e+01   4.657572e+02
  -3.986882e+02   4.412868e+02
  -5.336718e+02   2.459582e+02
  -3.090110e+02  -9.799355e+01
  -7.504755e+01  -3.004545e+02
   1.339938e+02  -2.590358e+02
   8.261917e+01  -2.815471e+01
  -1.015969e+02   1.069955e+02
  -2.015914e+02  -3.834852e+01
  -5.182665e+01  -2.219339e+02
   1.814509e+02  -1.945232e+02
   1.798809e+02   6.199104e+01
  -3.971028e+01   1.917227e+02
  -2.109938e+02   2.560052e+01
  -1.892694e+02  -2.646479e+02
   4.962190e+01  -3.504814e+02
   2.400491e+02  -2.106222e+02
   3.240292e+02   5.538003e+01
   2.753276e+02   2.491315e+02
   9.249865e+01   2.649431e+02
  -1.151009e+02   1.670020e+02
  -1.913566e+02   4.728900e+00
  -7.071877e+01  -1.407116e+01
   8.073219e+01   5.037886e+01
   4.729110e+01   1.582054e+02
  -1.119879e+02   1.129790e+02
  -1.836084e+02  -4.095586e+01
  -8.185282e+01  -8.641194e+01
   8.521834e+01  -1.979808e+01
   5.212369e+01   6.466844e+01
  -1.067433e+02   8.455804e+01
  -3.165044e+02   5.564891e-01
  -2.732573e+02  -1.049451e+02
  -1.214556e+01  -2.605548e+02
   1.581153e+02  -2.517685e+02
   2.607092e+02  -1.510562e+02
   2.379328e+02   6.688652e+01
  -7.061765e+00   1.148669e+02
  -9.972603e+01  -1.431543e+00
   1.427263e+01  -1.296351e+02
   2.298190e+02  -6.726735e+01
   2.469911e+02   1.151374e+02
   6.295829e+01   2.078570e+02
  -1.406471e+02   1.652553e+02
  -1.427577e+02   5.326700e+01
  -5.304143e+01  -1.056415e+02
   1.596932e+01   1.801525e+01
   3.434431e+01   7.500572e+01
  -7.870169e+01   1.177701e+02
  -2.233307e+02   4.259431e+01
  -1.918877e+02  -1.336786e+02
  -4.521834e+01  -2.553163e+02
   1.963604e+02  -1.684018e+02
   2.014049e+02  -3.060161e+00
   5.560964e+01   1.156926e+02
  -7.394212e+01   9.728361e+01
  -9.477022e+01   6.210570e+00
  -3.183912e+01  -2.436213e+01
   3.970864e+01   1.206810e+01
  -2.824233e+01   4.134743e+00
  -5.191552e+01  -2.009156e-02
  -6.049566e+01  -7.602408e+01
  -2.981769e+01  -1.251049e+02
   1.262337e+02  -1.703040e+02
   2.374376e+02  -2.380789e+01
   1.960543e+02   1.622906e+02
   3.158819e+01   2.337099e+02
  -1.334875e+02   1.599171e+02
  -1.284478e+02   2.209894e+01
  -6.526881e+01  -6.313429e+01
  -2.332790e+01   8.596070e+00
  -4.939748e+01  -1.011325e+01
  -6.698374e+01   1.531592e+01
  -3.478331e+01  -4.602675e+01
   3.859276e+01  -8.361291e+01
   9.129269e+01  -2.941912e+01
   9.782066e+01   2.972563e+01
  -5.119144e+00   1.095324e+02
  -1.282347e+02   7.500674e+01
  -1.985555e+02  -2.854220e+01
  -1.164236e+02  -1.947220e+02
   9.840951e+01  -2.329301e+02
   2.912596e+02  -8.560604e+01
   2.435731e+02   1.309490e+02
   1.013240e+02   1.703745e+02
  -2.255402e+01   1.782676e+02
  -9.954217e+01   1.127607e+02
  -8.852650e+01   1.034298e+02
  -6.605786e+01   1.011384e+02
  -8.223736e+01   1.043976e+02
  -1.198481e+02  -3.696541e+01
  -1.070979e+02  -1.413427e+02
  -3.213586e+01  -2.387955e+02
   9.580694e+01  -1.863374e+02
   2.058934e+02  -2.062571e+01
   1.253359e+02   1.083935e+02
   4.300965e+01   1.887305e+02
  -5.621669e+01   1.062680e+02
  -3.981185e+01   3.954074e+00
  -1.604963e+01  -4.457827e+01
  -4.302962e+00  -5.120075e+01
  -5.660609e+01  -2.343094e+01
  -1.026582e+02  -1.767420e+01
  -5.264556e+01  -4.793576e+01
   7.311840e+01  -5.381028e+01
   1.461550e+02  -1.070509e+01
   1.377879e+02   6.583245e+01
   2.669538e+01   7.024145e+01
  -1.083104e+02   6.469386e+01
  -1.564193e+02   4.951243e+01
  -5.627998e+01  -4.004052e+01
   7.059475e+01  -1.621267e+01
   6.397886e+01   8.120841e+00
   1.843793e+01   4.035671e+01
  -5.748536e+01   5.956976e+01
  -5.079438e+01  -3.834117e+01
  -7.116259e+01  -5.694259e+01
  -2.044862e+01  -5.361161e+01
  -2.499363e+01   1.751037e+01
  -7.928456e+01  -8.027353e+00
  -1.623093e+01  -5.811159e+01
   3.251213e+01  -1.246535e+02
   1.449242e+02  -1.353852e+02
   1.681101e+02  -4.248975e+01
   1.324963e+02   1.039839e+02
  -2.950301e+01   1.273448e+02
  -5.449046e+01   5.362988e+01
  -6.302403e+01  -2.087893e+01
   2.977230e+01   7.347052e+00
   1.577776e+02   2.380354e+01
   8.754982e+01   9.058934e+01
  -9.815157e+01   1.250207e+02
  -1.927498e+02   4.154796e+01
  -1.781901e+02  -5.348597e+01
  -2.900927e+01  -1.002452e+02
   6.615171e+01  -9.302115e+01
   2.963904e+01   1.267838e+01
  -3.294935e+01   2.161062e+01
  -7.385334e+01   1.342360e+01
  -3.069488e+01  -1.442675e+02
   7.960894e+01  -1.422982e+02
   1.808627e+02  -4.521931e+01
   1.308826e+02   8.383259e+01
   8.643254e+00   2.001902e+02
  -9.297346e+01   1.450107e+02
  -1.153037e+02  -1.516894e+01
  -7.806972e+01  -1.382488e+02
   1.592556e+01  -1.033712e+02
   3.444657e+01  -9.608994e+00
   5.551826e+01   2.783439e+01
   3.769397e+01   4.004213e+01
   3.007515e+01  -3.427358e+01
   5.249987e+01  -1.511790e+00
   6.503200e+01   1.255375e+02
   5.362476e+01   1.008227e+02
  -3.036510e+01   5.490553e+01
  -1.465549e+02  -6.165581e+01
  -1.305332e+02  -9.105545e+01
  -2.719538e+01  -3.239578e+01
   1.023318e+02  -1.766934e+01
   8.150763e+01  -1.966077e+01
  -1.396258e+00   3.267200e+01
  -4.000178e+01   3.443623e+01
  -8.830411e+00   4.492095e+01
   3.411396e+01   2.203767e+00
  -1.793042e+01  -4.498220e+00
  -4.684668e+01   9.190057e+00
  -9.854861e+01  -3.456690e+01
  -2.453814e+01  -1.028231e+02
   1.083156e+02  -1.247089e+02
   1.943018e+02  -3.009714e+01
   1.151452e+02   8.872162e+01
   2.580578e+01   1.768299e+02
  -8.348099e+01   1.488572e+02
  -1.156637e+02   3.128081e+01
  -8.172500e+01  -8.913129e+00
  -2.871708e+01  -5.283119e+01
   1.685640e+01  -8.479098e+00
   6.714498e+00  -1.840937e+01
  -2.847500e+01  -5.646973e+01
  -1.699740e+01  -1.010575e+02
   7.042963e+01  -7.702212e+01
   9.589480e+01  -7.207787e+00
   5.665957e+01   1.292291e+02
  -2.303700e+01   1.138926e+02
  -8.014509e+01   1.894073e+01
  -1.110144e+02  -8.846376e+01
  -2.379406e+01  -1.023783e+02
   8.902717e+01  -7.250021e+01
   1.071351e+02   3.457867e+01
   5.889492e+01   3.694466e+01
  -1.168280e+01   7.632955e+01
  -3.298777e+01  -3.406802e+00
   2.932439e+01  -1.097767e+01
   6.179832e+01  -9.169876e+00
  -8.150439e-01   1.965474e+01
  -9.611000e+01   5.631887e+01
  -1.023415e+02   6.372844e+01
  -9.332008e+01  -2.764294e+00
   6.390834e+00  -8.074454e+01
   5.033293e+01  -7.728942e+01
   4.701126e+01   1.671242e+01
   7.607978e+00   2.865276e+01
  -4.245992e+01   1.861954e+01
  -6.174864e+01  -2.052069e+01
  -1.900582e+01  -5.792873e+01
   1.204852e+01  -4.330441e+01
   2.071232e+01   3.520704e+01
   4.990661e+01   2.078123e+01
   1.459460e+01   2.126743e+01
  -1.080821e+01  -2.754517e+01
   2.825607e+01   6.250799e+00
  -2.256542e+01   4.672853e+01
  -6.417111e-01   5.284804e+01
  -5.808874e+01  -1.085521e+00
  -2.716422e+01  -6.821128e+01
   5.554746e+00  -7.370246e+01
   1.560532e+01   1.646895e+00
   3.299000e+01   5.183377e+01
   4.417635e+01   5.910327e+01
  -5.576591e+01   3.753863e+01
  -9.586742e+01  -2.315233e+01
  -7.061382e+01  -5.213675e+01
   4.276714e+01  -1.395296e+01
   8.332172e+01  -5.011624e+01
  -6.241979e+00   8.637644e+00
  -1.209823e+00  -2.074555e+01
  -4.891514e+01  -5.042563e+00
   7.273764e+00  -4.215601e+01
   9.122210e+01   1.068168e+01
