
 $NMID
 id='ANONYMOUS ', fmtdat='(2E16.6)'
 volume=1.0
 tramp=1.0
 $END
  -4.322616e+03  -8.557918e+01
  -2.375620e+03  -2.713620e+03
   7.627336e+02  -2.871562e+03
   2.193122e+03  -6.572233e+02
   8.059859e+02   8.812298e+02
  -7.295470e+02   6.458397e+02
  -8.747110e+02  -5.153777e+02
  -1.500453e+01  -1.161449e+03
   9.438227e+02  -7.901371e+02
   9.073288e+02   1.388133e+02
   4.406082e+02   8.852902e+02
  -3.368567e+02   8.881607e+02
  -6.795775e+02   1.182361e+02
  -2.913559e+02  -8.178725e+02
   2.819751e+02  -7.422837e+02
   6.472931e+02   2.249689e+01
   2.941011e+02   6.557325e+02
  -3.706180e+02   5.679757e+02
  -5.662648e+02   7.707849e+01
  -3.871624e+02  -3.756553e+02
  -1.136218e+00  -4.107779e+02
   2.500018e+02  -2.539818e+02
   2.166109e+02   2.287491e+01
  -1.377972e+02   1.627139e+02
  -4.420445e+02  -6.780410e+01
  -1.672197e+02  -4.250891e+02
   5.067220e+02  -4.953906e+02
   8.749823e+02   3.783021e+00
   4.562475e+02   5.500034e+02
  -4.026420e+02   5.404323e+02
  -7.507714e+02  -4.350489e+01
  -3.415854e+02  -4.968912e+02
   2.586342e+02  -5.111969e+02
   5.457125e+02  -1.434951e+02
   4.204811e+02   2.580981e+02
   8.451361e+01   5.003973e+02
  -1.627562e+02   3.575024e+02
  -2.570804e+02  -2.469626e+02
   1.574154e+02  -4.388401e+02
   4.766904e+02   1.665287e+01
   3.507589e+02   6.411207e+02
  -3.718241e+02   6.832512e+02
  -6.529035e+02   5.840229e+00
  -2.732066e+02  -6.315052e+02
   2.997746e+02  -4.072217e+02
   4.026862e+02   3.354445e+02
  -7.709848e+01   5.288412e+02
  -5.957233e+02   1.373128e+02
  -5.591991e+02  -3.889356e+02
  -1.466095e+02  -5.961540e+02
   3.495560e+02  -3.375725e+02
   6.316540e+02   2.812916e+01
   3.841057e+02   3.535839e+02
  -1.716411e+02   3.680434e+02
  -4.959549e+02   5.260238e+01
  -1.916778e+02  -1.919332e+02
   1.340196e+02  -8.797560e+01
   1.232308e+02   1.404510e+02
  -1.604135e+02   2.177512e+02
  -3.354633e+02  -9.578673e+01
  -1.664823e+02  -2.835127e+02
   2.216202e+02  -2.818063e+02
   3.201066e+02  -4.360620e+01
   1.938650e+02   5.954618e+01
  -5.252574e+00   1.726895e+02
  -2.058929e+02   3.073281e+02
  -2.832496e+02   2.163118e+02
  -3.207824e+02  -1.141190e+02
  -7.807801e+01  -4.832965e+02
   8.715486e+01  -3.353442e+02
   1.541163e+02  -8.421531e+01
   3.543192e+01   4.653834e+01
   2.518164e+00  -8.380518e+01
   1.848787e+02  -1.412769e+02
   3.124689e+02   2.062358e+01
   1.758463e+02   2.562490e+02
  -6.064475e+01   2.509362e+02
  -2.412516e+02   2.286653e+00
  -1.706364e+02  -2.355911e+02
   5.469426e+00  -2.977738e+02
   2.633544e+02  -1.170342e+02
   3.254673e+02   1.628087e+02
   1.980762e+02   3.564219e+02
  -9.449105e+01   3.006484e+02
  -2.178970e+02   1.094326e+02
  -1.227303e+02  -3.341869e+01
  -1.160644e+02   2.998136e+01
  -2.247582e+02   5.247576e+01
  -4.115144e+02  -2.762946e+01
  -3.040091e+02  -2.419738e+02
   2.313689e+01  -4.682157e+02
   3.036936e+02  -4.205293e+02
   4.791325e+02  -1.834010e+02
   3.288437e+02   1.068663e+02
   6.847508e+01   2.857242e+02
  -1.282813e+02   2.492445e+02
  -1.145597e+02   1.680742e+01
   9.551891e+01  -9.318348e+01
   1.984473e+02  -1.729658e+01
   5.055553e+01   2.104826e+02
  -1.461194e+02   1.700242e+02
  -1.827990e+02  -5.932089e+01
  -9.860125e-01  -1.851454e+02
   1.889822e+02  -5.264854e+01
   1.432448e+02   2.176054e+02
  -3.890898e+01   3.329253e+02
  -2.180131e+02   1.845371e+02
  -2.873692e+02  -6.426937e+01
  -2.571370e+02  -2.154605e+02
  -1.046254e+02  -2.869888e+02
   1.333412e+02  -1.488149e+02
   1.980060e+02  -3.481739e+01
   8.214178e+01   3.622646e+01
  -5.403437e+01  -3.486198e+01
  -3.896738e+01  -1.294108e+02
   1.272276e+02  -1.020882e+02
   1.766143e+02   2.016856e+01
   6.178451e+01   7.207631e+01
  -7.035191e+01   5.191012e+01
  -3.154550e+01  -8.169142e+01
   1.242604e+02  -1.003805e+02
   2.629951e+02   1.315902e+01
   2.698603e+02   1.554395e+02
   6.292974e+01   2.159678e+02
  -1.635935e+02   2.721882e+02
  -2.604156e+02   1.034034e+02
  -1.713160e+02  -3.497463e+01
   4.470492e+01  -1.073084e+02
   1.195084e+02  -2.483074e+01
  -3.044735e+00   1.060583e+02
  -2.152143e+02   5.741755e+01
  -2.428430e+02  -1.332715e+02
  -6.716149e+01  -1.931450e+02
   9.134037e+01  -1.645734e+02
   1.533857e+02  -3.029904e+01
   6.242958e+01   7.358077e+01
  -2.746594e+01   1.246208e+01
  -6.280317e+01  -8.135463e+01
   5.499582e+01  -1.071799e+02
   1.960714e+02  -5.066515e+01
   2.022056e+02   1.109434e+02
   2.639187e+01   2.203752e+02
  -1.376944e+02   1.414828e+02
  -2.083091e+02   1.766117e+01
  -8.212607e+01  -1.231401e+02
   5.439749e+01  -1.094003e+02
   8.816806e+01  -2.851934e+01
   1.660654e+00  -2.435562e+00
   1.031102e+01   5.229688e+01
   1.047755e+01  -1.075495e+01
   8.108300e+01  -1.017979e+01
   5.625473e+01   5.657452e+01
   2.083228e+01   1.668462e+02
  -8.912768e+01   1.652840e+02
  -2.392631e+02   3.158087e+01
  -2.028783e+02  -1.434983e+02
  -3.726356e+01  -2.283906e+02
   1.141946e+02  -1.651152e+02
   1.455817e+02  -1.522200e+01
   1.654105e+01   4.694375e+01
   2.466620e+01   3.319302e+01
   6.034995e+01  -3.043354e+00
   8.762729e+01  -1.582219e+01
   1.981820e+01   6.910597e+01
  -2.905881e+01   6.242060e+01
  -1.355039e+02   3.888600e+01
  -1.023972e+02  -4.271145e+01
   4.916855e+01  -6.728292e+01
   1.367704e+02  -7.216703e+01
   2.137369e+02   5.811036e+01
   8.926840e+01   1.985320e+02
  -9.503197e+01   2.223191e+02
  -2.626637e+02   7.895426e+01
  -2.501926e+02  -9.248918e+01
  -1.256719e+02  -1.724609e+02
   3.812688e+01  -1.675026e+02
   1.128871e+02  -9.632729e+01
   3.207702e+01  -4.294403e+01
   4.576233e+01  -9.675349e+01
   8.686562e+01  -5.980885e+01
   1.351317e+02   1.126130e+01
   9.375048e+01   1.288072e+02
   4.407511e+01   2.140778e+02
  -1.281496e+02   1.610296e+02
  -2.118179e+02   3.565566e+01
  -1.381319e+02  -1.426183e+02
  -1.499121e+01  -1.644646e+02
   2.522171e+01  -1.015718e+02
   5.439277e+01   1.631769e+01
   2.199902e+01   2.482247e+01
   3.456728e-01   3.267366e+01
   3.658047e+01  -1.698897e+00
   5.983057e+01   3.219156e+01
   3.408760e+01   1.621849e+01
  -7.310805e+01   9.015855e+00
  -1.427047e+02   2.112074e+01
  -1.576510e+02  -7.034982e+01
   1.334914e+01  -1.080408e+02
   1.212432e+02  -6.940022e+01
   1.585071e+02  -3.741339e+01
   5.976349e+01   8.561224e+00
  -8.227603e+01   4.971972e+01
  -8.800618e+01   7.553546e+00
  -6.177122e+00  -6.969335e+01
   4.416887e+01  -7.513941e+01
   4.453967e+01  -1.878033e+01
   3.905991e+01   2.864207e+01
   2.362110e+01   4.982888e+01
   5.626942e+01  -1.625105e+01
   5.340624e+01  -3.505328e+01
   5.225625e+01   7.689643e+01
  -1.138688e+01   1.465883e+02
  -1.459261e+02   1.349312e+02
  -1.520614e+02   3.832859e+01
  -8.595380e+01  -8.332297e+01
  -1.280817e+01  -8.602167e+01
   8.871680e+01  -7.922157e+01
   5.177867e+01   1.145236e+01
  -6.979379e+01   3.097230e+01
  -1.305224e+02  -5.489678e+01
  -9.625508e+01  -1.214154e+02
   9.298079e+01  -1.313565e+02
   1.834713e+02  -4.133925e+01
   1.691577e+02   2.959894e+01
   5.000227e+01   1.064317e+02
  -3.928385e+01   9.508889e+01
  -4.723029e+01  -1.370760e+01
   4.819328e+01  -3.248340e+01
   8.143935e+01   2.985590e+01
   1.168241e+01   1.173865e+02
  -6.018910e+01   1.404161e+02
  -1.663983e+02   5.247665e+01
  -1.113011e+02  -1.065700e+02
  -2.944767e+01  -1.828772e+02
   1.136361e+02  -1.555237e+02
   8.929655e+01   1.129863e+01
   5.310299e+01   1.178309e+02
  -9.025081e+00   1.020756e+02
  -5.543501e+01  -3.410298e+00
  -3.433953e+01  -1.686901e+01
  -3.193172e+01   5.958159e-01
  -1.196722e+01   2.590075e+01
  -1.993173e+01   2.143384e+01
  -6.353296e+01  -6.551337e+01
  -3.406927e+01  -1.056443e+02
   5.402225e+01  -1.054771e+01
   1.375692e+02   8.108733e+01
   9.974536e+01   4.917091e+01
   1.166098e+01   2.537713e+01
  -9.045000e+01   2.072182e+01
  -9.752300e+01   6.405304e+00
  -1.734467e+01  -2.733048e+01
   4.140696e+01  -3.404117e+01
   2.922901e+01  -6.203418e-01
  -3.773530e+01   3.155410e+00
  -5.294933e-01   9.226448e+00
   7.643294e+01   1.895356e+00
   7.328650e+01   2.748092e+01
   2.391377e+01   5.827893e+01
  -1.319179e+02   1.041738e+02
  -1.740144e+02   5.163703e+01
  -1.353411e+02  -6.393608e+01
  -1.396162e+01  -1.494859e+02
   8.590543e+01  -1.323170e+02
   1.013446e+02  -6.079959e+01
   8.665588e+01   3.470876e+01
   3.458503e+01   3.236336e+01
   7.030598e+00   1.776123e+01
   9.708412e+00  -2.503740e+01
   1.671246e+01   7.975507e+01
   3.686481e+01   1.405952e+02
  -2.415285e+01   7.611114e+01
  -5.886703e+01  -1.794733e+01
  -8.817211e+01  -9.293641e+01
  -9.102264e-01  -1.018231e+02
   7.599194e+01  -4.389735e+01
   1.043924e+02   9.405220e+01
   2.826659e+01   9.911763e+01
  -7.396858e+01   6.388249e+01
  -6.371694e+01  -7.435515e+00
  -1.212981e+01  -6.604709e+01
   2.832664e+01  -5.316789e+01
   1.162152e+01  -3.035091e+01
  -4.361939e+01  -6.256106e+00
  -5.086721e+01   1.790474e+01
   6.851069e+00  -5.805982e+00
   4.948598e+01  -6.292096e+01
   1.011914e+02  -5.402075e+01
   8.808896e+01   1.947652e+00
  -2.138750e+01   6.478803e+01
  -4.254360e+01   6.272532e+01
  -3.162811e+01   2.420113e+01
   1.897980e+01  -6.622365e+01
   6.968375e+00  -4.136963e+01
   6.777423e+01  -3.547049e+00
   1.879525e+01   2.544359e+01
  -5.708567e+00   3.910198e+01
  -2.106504e+01  -3.347490e+01
  -4.364376e+01  -8.014367e+00
  -1.925273e+00  -6.094963e+00
  -1.992748e+01   3.106980e+00
   1.006896e+01  -2.815752e+01
   4.983364e+00  -1.823487e+01
   1.596629e+01  -2.314990e+01
   3.015018e+01   1.185330e+00
   1.486959e+01   6.095963e+01
  -2.233278e+01   4.671598e+01
  -5.120141e+01   2.706891e+01
  -4.383387e+01  -1.506399e+01
  -9.449280e+00  -6.879571e+01
   2.086829e+01  -3.381256e+01
   9.068176e+01  -8.753192e+00
   8.209409e+01   4.187953e+01
  -1.850941e+01   2.788110e+01
  -5.282919e+01   3.013798e+01
  -1.930465e+01  -2.774930e+01
   6.115636e+01   1.486012e+00
   4.890684e+01  -1.243068e+01
  -2.181479e+01   5.272638e+01
  -1.235904e+02   4.296032e+01
