
 $NMID
 id='ANONYMOUS ', fmtdat='(2E16.6)'
 volume=1.0
 tramp=1.0
 $END
   3.848375e+03  -3.290857e+01
   2.184771e+03   2.252398e+03
  -8.537689e+02   2.440420e+03
  -1.844952e+03   6.908853e+02
  -8.762494e+02  -7.160980e+02
   5.765411e+02  -5.345348e+02
   7.880963e+02   3.668195e+02
  -3.820847e+00   9.660620e+02
  -8.546906e+02   6.960178e+02
  -8.259429e+02  -1.271510e+02
  -3.571164e+02  -8.762275e+02
   2.917848e+02  -8.042025e+02
   5.273523e+02  -1.007834e+02
   3.306267e+02   6.938190e+02
  -2.646553e+02   6.548952e+02
  -5.678196e+02   2.349530e+01
  -2.537125e+02  -6.009067e+02
   2.902116e+02  -5.866184e+02
   4.954625e+02  -2.992090e+01
   4.050886e+02   3.029532e+02
   4.649659e+01   3.817449e+02
  -1.902456e+02   2.056442e+02
  -2.192936e+02   3.537580e+01
   7.880625e+01  -9.000153e+01
   4.033416e+02   6.699932e+01
   1.544564e+02   3.944114e+02
  -3.912440e+02   4.442799e+02
  -8.338546e+02  -5.239060e+01
  -4.081358e+02  -5.285926e+02
   3.444018e+02  -5.202667e+02
   6.417405e+02   3.232058e+01
   3.421678e+02   4.641249e+02
  -2.726858e+02   4.495958e+02
  -4.909392e+02   1.929796e+02
  -3.987258e+02  -2.053132e+02
  -2.456858e+01  -4.441424e+02
   2.130449e+02  -2.502946e+02
   2.462672e+02   2.234965e+02
  -1.511496e+02   3.688946e+02
  -3.723821e+02  -5.005514e+01
  -2.348642e+02  -5.740942e+02
   2.754520e+02  -5.601298e+02
   5.931959e+02  -1.881824e+01
   2.119372e+02   5.201128e+02
  -2.777660e+02   3.106623e+02
  -4.060850e+02  -3.016793e+02
   5.227597e+01  -4.956691e+02
   5.342456e+02  -1.806022e+02
   5.538080e+02   3.616996e+02
   1.352022e+02   5.324996e+02
  -3.269757e+02   2.585427e+02
  -5.797968e+02  -8.730948e+01
  -3.573054e+02  -3.560490e+02
   1.603761e+02  -3.453915e+02
   4.197767e+02  -4.846372e+01
   2.084817e+02   1.656016e+02
  -1.050679e+02   1.208146e+02
  -1.288003e+02  -1.304627e+02
   1.866078e+02  -1.824898e+02
   3.347006e+02   8.240485e+01
   1.099419e+02   2.856092e+02
  -1.546960e+02   2.165890e+02
  -2.807683e+02   6.147038e+01
  -1.843736e+02  -9.146204e+01
   3.529106e+01  -2.000261e+02
   1.901694e+02  -2.642006e+02
   3.078947e+02  -2.115939e+02
   2.434937e+02   1.403846e+02
   1.067173e+02   3.939701e+02
  -1.046216e+02   3.257739e+02
  -1.714639e+02   6.178615e+01
  -1.125420e+01  -2.535507e+01
  -3.746992e+01   7.710492e+01
  -1.996154e+02   1.214886e+02
  -2.694414e+02   2.145364e+01
  -1.609093e+02  -2.675023e+02
   5.422208e+01  -2.175081e+02
   2.072076e+02  -3.445029e+01
   1.723101e+02   1.841842e+02
  -2.401318e+01   2.560334e+02
  -2.610780e+02   1.112797e+02
  -2.927271e+02  -1.737813e+02
  -2.086067e+02  -3.465615e+02
   9.365473e+01  -2.850135e+02
   1.908009e+02  -1.109502e+02
   1.631363e+02   2.987068e+00
   5.943912e+01  -3.071352e+01
   1.941847e+02  -7.237693e+01
   3.627856e+02   4.821477e+01
   2.837557e+02   2.416480e+02
   8.050665e+00   3.873049e+02
  -3.727938e+02   3.806194e+02
  -4.464881e+02   1.943405e+02
  -2.753080e+02  -8.080917e+01
  -5.855481e+01  -2.582464e+02
   1.244905e+02  -2.220813e+02
   1.013346e+02  -2.729323e+01
  -9.977477e+01   7.999580e+01
  -1.879910e+02   1.044559e+01
  -2.484637e+01  -1.890472e+02
   1.551233e+02  -1.637750e+02
   1.501115e+02   6.613324e+01
   9.354259e+00   1.665740e+02
  -1.708581e+02   3.819828e+01
  -1.720306e+02  -2.097080e+02
   1.271847e+01  -3.206833e+02
   2.082595e+02  -2.052688e+02
   3.016379e+02   3.615748e+01
   2.510358e+02   2.273995e+02
   9.324535e+01   2.401287e+02
  -8.477103e+01   1.769545e+02
  -1.718379e+02   4.556724e+01
  -4.386119e+01  -9.072795e-02
   6.604655e+01   2.533228e+01
   3.573670e+01   9.108228e+01
  -7.670699e+01   8.288225e+01
  -1.469171e+02  -1.781721e+01
  -7.335319e+01  -9.135978e+01
   5.015919e+01  -2.602054e+01
   9.015663e+01   5.547946e+01
  -1.129167e+02   9.021257e+01
  -2.579058e+02   6.112545e+00
  -2.212539e+02  -1.218265e+02
  -5.729572e+01  -2.176742e+02
   1.473901e+02  -2.583467e+02
   2.419101e+02  -1.222624e+02
   1.577585e+02   4.433840e+01
  -5.587044e+01   1.043991e+02
  -1.050374e+02   1.992511e+01
   1.920136e+01  -8.750242e+01
   1.484306e+02  -4.620228e+01
   2.017810e+02   8.543990e+01
   4.038920e+01   1.482147e+02
  -9.230200e+01   1.626271e+02
  -1.490020e+02   1.958002e+01
  -7.214783e+01  -4.361833e+01
   1.455204e+01  -1.708823e+01
   4.963146e+01   8.990736e+01
  -6.031197e+01   9.584734e+01
  -1.731838e+02   2.569315e+01
  -1.615752e+02  -9.439288e+01
  -2.865890e+01  -2.095270e+02
   1.788537e+02  -1.521818e+02
   1.609611e+02  -1.624320e+01
   4.482733e+01   9.601653e+01
  -6.993594e+01   9.800226e+01
  -7.949325e+01   9.939069e+00
  -5.563580e+00  -3.920891e+01
   2.249690e+01  -7.801447e-01
  -2.215978e+01   1.301112e+01
  -1.931572e+01  -2.597662e+00
  -7.920567e+01  -7.463625e+01
  -4.421356e+01  -1.246412e+02
   1.165783e+02  -1.495862e+02
   2.181585e+02  -7.783534e+00
   1.872181e+02   1.276695e+02
   3.191197e+01   2.152471e+02
  -7.759529e+01   1.416703e+02
  -1.307981e+02   2.533452e+01
  -6.233025e+01  -4.604963e+01
  -9.330861e+00  -9.163184e+00
  -3.576471e+01   2.447392e+00
  -7.414564e+01   7.187173e-01
  -3.687212e+01  -3.848060e+01
   1.772936e+01  -9.154803e+01
   4.835895e+01  -3.511607e+01
   6.499412e+01   3.275052e+01
  -2.277214e+01   7.061062e+01
  -1.322794e+02   8.336795e+01
  -1.758509e+02  -4.727606e+01
  -9.054867e+01  -1.604365e+02
   6.807761e+01  -2.351859e+02
   2.655104e+02  -9.186408e+01
   2.194783e+02   8.727370e+01
   9.371708e+01   1.786844e+02
  -2.569336e+01   1.269549e+02
  -9.435616e+01   7.965586e+01
  -7.892772e+01   8.112408e+01
  -2.986870e+01   5.572900e+01
  -7.445831e+01   5.098371e+01
  -1.059671e+02  -2.080086e+01
  -7.664019e+01  -1.473179e+02
  -5.984600e+01  -1.978659e+02
   9.187654e+01  -1.311664e+02
   1.319444e+02  -3.379335e+01
   1.123282e+02   8.030961e+01
   2.466717e+01   1.660776e+02
  -5.073120e+01   7.441407e+01
  -5.519887e+01  -2.455157e+01
  -3.084535e+00  -2.120346e+01
   2.390638e+00  -3.446870e+01
  -4.075097e+01  -3.090075e+01
  -8.582551e+01  -5.497692e+00
  -7.304645e+00  -4.046574e+01
   3.758004e+01  -4.940948e+01
   1.462614e+02  -9.381752e+00
   1.238583e+02   2.742293e+01
   8.271264e+00   7.696498e+01
  -8.165811e+01   6.606634e+01
  -1.153173e+02   3.094695e+01
  -2.047658e+01  -3.608736e+01
   4.264745e+01  -3.866565e+01
   1.112210e+02   2.442750e+01
  -3.267277e+00   5.243431e+01
  -7.551481e+01   4.811555e+01
  -5.216315e+01   1.677560e+01
  -4.388594e+01  -5.089337e+01
  -3.879634e+01  -2.846910e+01
  -8.606405e+01  -1.250339e+01
  -7.069433e+01  -2.384118e+01
  -5.115781e+01  -4.211556e+01
   2.574544e+01  -1.223979e+02
   8.416328e+01  -1.383221e+02
   1.585207e+02  -3.256589e+01
   1.000796e+02   1.137687e+02
   2.193941e+00   1.445323e+02
  -6.597038e+01   2.570144e+01
  -2.592698e+01  -1.612019e+01
   7.926150e+01  -1.081529e+01
   1.367999e+02   3.678839e+01
   7.777049e+01   8.153104e+01
  -9.011317e+01   8.544702e+01
  -1.677203e+02   8.523793e+01
  -1.304434e+02  -3.185925e+01
  -3.903925e+01  -7.047806e+01
   4.639083e+01  -5.430743e+01
   2.344520e+01   1.224622e+01
  -1.428292e+01   3.463400e+01
  -8.209660e+01  -2.895447e+01
  -3.877411e+01  -1.031536e+02
   7.036741e+01  -1.597284e+02
   1.639984e+02  -5.302999e+01
   1.142749e+02   1.240071e+02
   2.655841e+01   1.706953e+02
  -7.097624e+01   1.466111e+02
  -8.645290e+01   2.764119e+01
  -3.990489e+01  -8.176277e+01
   7.901277e-01  -1.128565e+02
   3.144777e+01  -1.379493e+01
   6.361824e+01   2.539242e+01
   1.882361e+01  -3.281338e+00
  -3.093248e+01  -1.999418e+01
   3.140794e+01   5.460674e-01
   4.203142e+01   6.189707e+01
   2.939993e+01   1.188848e+02
  -3.958414e+01   2.693939e+01
  -1.420940e+02  -2.284802e+01
  -1.186591e+02  -6.758187e+01
  -1.957038e+01  -5.668016e+01
   8.489873e+01  -2.413587e+01
   8.384958e+01  -2.063576e+01
   3.209033e+01  -5.606174e+00
  -2.443508e+01   1.501766e+01
  -2.764001e+01   3.363864e+01
   3.363755e+00  -3.162443e+01
   1.471873e+01  -2.447170e+01
  -4.051547e+01  -1.027259e+01
  -7.108673e+01  -7.937115e-01
   7.768755e-01  -4.397336e+01
   8.693700e+01  -1.137874e+02
   1.663952e+02  -4.741603e+01
   1.281731e+02   7.699629e+01
   2.630192e+01   1.520120e+02
  -6.002994e+01   1.073759e+02
  -1.147272e+02   5.674382e+01
  -7.280194e+01  -2.462950e+01
  -3.042491e+01  -3.276839e+01
  -1.106597e+01  -1.765897e+01
  -1.074129e+01  -3.405636e+01
  -1.928733e+01  -4.706296e+01
  -3.494509e+01  -6.373934e+01
   2.890548e+01  -5.122780e+01
   8.458404e+01   7.809920e+00
   5.302332e+01   9.499554e+01
  -3.265479e+00   9.826713e+01
  -6.006372e+01   3.659431e+01
  -1.176968e+02  -6.945337e+01
  -3.215015e+01  -7.897056e+01
   8.144771e+01  -4.090732e+01
   8.311538e+01   2.717378e+01
   3.781400e+01   3.887717e+01
  -2.243824e+01   6.331598e+01
  -3.701246e+01   2.550590e+00
   3.496395e+00   1.005002e+01
   8.006978e+01  -2.281707e+01
   3.833004e+01   4.241553e+01
  -6.060905e+01   4.237658e+01
  -1.019652e+02   4.343140e+01
  -3.955207e+01  -2.511496e+01
   2.667045e+01  -8.109573e+01
   7.048854e+01  -7.432085e+01
   2.706295e+01   3.847886e+00
   5.709875e+00   4.902061e+01
  -8.817491e-01   1.599886e+01
  -3.478421e+01   2.482234e+01
  -2.125146e+01  -5.174651e+01
  -9.408835e+00  -2.528121e+01
   3.258265e+01   1.148506e+01
   3.285700e+01   1.771470e+01
   3.501371e+01   5.842584e+00
   6.160517e+00  -2.206429e+01
   8.567421e+00   2.769084e+00
  -2.683226e+00   3.508416e+01
  -2.057296e+01   4.810306e+01
  -4.261188e+01  -8.420588e+00
  -4.302825e+01  -5.076094e+01
   1.952317e+01  -8.274932e+01
   4.838076e+01  -1.998015e+01
   4.852182e+01   2.448197e+01
   1.238917e+01   7.077116e+01
  -2.969712e+01  -7.613320e+00
  -8.325114e+01   1.461099e+01
  -3.435619e+01  -2.624193e+01
   3.795084e+01  -4.218115e+01
   5.656957e+01  -2.088465e+01
   2.860136e+01   1.303211e+01
  -3.375232e+01   1.086116e+01
  -1.556544e+01  -2.809490e+01
   3.836323e+01  -1.429330e+01
   7.370518e+01  -2.584050e+01
