
 $NMID
 id='ANONYMOUS ', fmtdat='(2E16.6)'
 volume=1.0
 tramp=1.0
 $END
  -3.496650e+03  -3.950434e+01
  -2.241201e+03  -2.326352e+03
   8.573830e+02  -2.451788e+03
   1.779616e+03  -6.205613e+02
   8.163586e+02   7.332258e+02
  -6.275342e+02   5.428306e+02
  -8.353933e+02  -3.331213e+02
  -9.331937e+00  -1.003113e+03
   8.337147e+02  -7.058554e+02
   8.286891e+02   1.081889e+02
   3.040050e+02   8.497440e+02
  -2.348229e+02   7.671249e+02
  -5.592122e+02   8.663409e+01
  -3.427068e+02  -6.567492e+02
   2.131778e+02  -6.207170e+02
   5.324814e+02  -4.648644e+01
   2.251685e+02   5.523775e+02
  -2.331363e+02   5.362221e+02
  -5.050072e+02   6.450294e+01
  -3.578815e+02  -2.946637e+02
  -2.997103e+01  -3.832591e+02
   2.243860e+02  -2.084908e+02
   2.042722e+02  -1.737301e+01
  -6.333190e+01   8.601253e+01
  -4.102394e+02  -7.442244e+01
  -1.975168e+02  -3.677851e+02
   4.042896e+02  -4.458081e+02
   7.668341e+02   2.003091e+01
   4.179618e+02   5.136805e+02
  -3.589527e+02   5.048490e+02
  -6.008631e+02  -5.798759e+00
  -3.233161e+02  -4.436527e+02
   2.442812e+02  -4.478981e+02
   4.528383e+02  -1.450641e+02
   3.722215e+02   2.111076e+02
   5.241383e+01   4.348467e+02
  -1.849754e+02   2.652739e+02
  -2.283656e+02  -2.138062e+02
   1.527690e+02  -3.477746e+02
   3.630872e+02   1.189771e+01
   2.377981e+02   5.924017e+02
  -2.412635e+02   5.613172e+02
  -5.790354e+02   2.838323e+01
  -2.096875e+02  -5.007529e+02
   2.590572e+02  -3.049543e+02
   3.945314e+02   2.765390e+02
  -4.424350e+01   4.491745e+02
  -4.958183e+02   1.652816e+02
  -5.285402e+02  -3.431408e+02
  -1.148747e+02  -5.362150e+02
   3.251582e+02  -2.337772e+02
   5.448324e+02   6.481049e+01
   3.610358e+02   3.328708e+02
  -1.502672e+02   3.252363e+02
  -4.115971e+02   5.845388e+01
  -1.948338e+02  -1.342513e+02
   9.633614e+01  -1.142556e+02
   1.645447e+02   1.264331e+02
  -1.320621e+02   1.634285e+02
  -3.435452e+02  -4.840197e+01
  -1.564933e+02  -2.748738e+02
   1.633686e+02  -2.348064e+02
   3.163324e+02  -4.906162e+01
   1.527227e+02   7.579316e+01
  -5.438851e+01   1.834523e+02
  -1.828121e+02   2.726456e+02
  -2.912234e+02   2.113368e+02
  -2.349266e+02  -1.392035e+02
  -9.269881e+01  -3.966522e+02
   9.588772e+01  -3.103273e+02
   1.524054e+02  -8.431612e+01
   1.430235e+01   4.694069e+01
   5.569074e+01  -9.879481e+01
   1.705498e+02  -1.169978e+02
   2.757950e+02  -3.257242e+01
   1.568881e+02   2.433349e+02
  -4.273332e+01   2.692798e+02
  -2.197220e+02   2.117375e+01
  -1.617546e+02  -1.889539e+02
   5.712996e+00  -2.272691e+02
   2.408602e+02  -9.908674e+01
   3.203061e+02   1.369589e+02
   1.846744e+02   3.363806e+02
  -8.035487e+01   2.568274e+02
  -1.990615e+02   9.346976e+01
  -1.321499e+02   3.492522e+00
  -7.637015e+01   2.844973e+01
  -1.985816e+02   3.585436e+01
  -3.610595e+02  -5.765121e+01
  -2.996404e+02  -2.112224e+02
  -1.295984e+01  -3.884959e+02
   3.203969e+02  -3.552662e+02
   4.159512e+02  -1.945954e+02
   2.866253e+02   8.225155e+01
   4.416746e+01   2.586950e+02
  -1.278839e+02   2.211971e+02
  -5.734272e+01   5.006085e+01
   7.823875e+01  -8.042223e+01
   2.035063e+02  -9.344199e+00
   2.596963e+01   1.980082e+02
  -1.672113e+02   1.630731e+02
  -1.434874e+02  -4.724397e+01
  -1.483727e+01  -1.704769e+02
   1.844041e+02  -4.253829e+01
   1.752317e+02   2.081176e+02
  -2.699077e+01   2.902311e+02
  -2.059378e+02   1.737396e+02
  -2.839451e+02  -2.796297e+01
  -2.280034e+02  -1.835873e+02
  -8.659626e+01  -2.026743e+02
   1.073843e+02  -1.459831e+02
   1.594799e+02  -3.657682e+01
   5.922338e+01   4.320020e+01
  -7.048583e+01  -1.090978e+01
  -2.374415e+01  -1.239506e+02
   1.188343e+02  -8.934605e+01
   1.390452e+02   7.907455e+00
   5.415639e+01   6.988303e+01
  -7.510793e+01  -7.243113e+00
  -6.126265e+01  -4.014709e+01
   1.161399e+02  -7.012052e+01
   2.204597e+02  -1.610497e+01
   2.310596e+02   1.145107e+02
   3.757626e+01   1.954142e+02
  -1.520657e+02   2.322159e+02
  -2.269210e+02   1.244736e+02
  -1.452539e+02  -5.052305e+01
   4.092923e+01  -1.157490e+02
   9.016424e+01  -8.546399e+00
  -1.516136e+01   5.327411e+01
  -1.557233e+02   3.761903e+01
  -1.951092e+02  -9.143437e+01
  -4.208871e+01  -1.540084e+02
   9.568364e+01  -1.199352e+02
   1.197764e+02  -1.728471e+01
   5.809309e+01   1.354170e+01
  -2.613223e+01   1.425478e+01
  -4.942855e+01  -9.956403e+01
   4.070009e+01  -6.733473e+01
   1.528795e+02  -1.821317e+01
   1.592274e+02   6.211171e+01
   3.830839e+01   1.998303e+02
  -1.484517e+02   1.128720e+02
  -1.529720e+02   1.412668e+01
  -4.823753e+01  -1.033653e+02
   5.918057e+01  -1.009393e+02
   6.707317e+01  -2.512697e+01
   1.325177e+01   8.547219e+00
  -1.176054e+01  -7.487568e+00
   6.004186e+00  -1.925774e+01
   3.812080e+01   9.718450e+00
   7.367802e+01   8.223159e+01
   3.114733e+01   1.440800e+02
  -1.230324e+02   1.348347e+02
  -2.072437e+02   4.009100e+01
  -1.848976e+02  -1.155769e+02
  -2.415081e+01  -1.843762e+02
   6.551390e+01  -1.321144e+02
   1.225235e+02  -2.797372e+01
   5.973773e+01   5.399488e+01
   3.456574e+01   1.054564e+01
   4.646193e+01   2.244502e+01
   4.177220e+01  -1.378558e+01
   2.522288e+01   6.096212e+01
  -5.192922e+01   6.600902e+01
  -5.486892e+01   4.167983e+01
  -5.186307e+01  -2.561935e+01
   2.697623e+01  -9.098837e+01
   1.104899e+02  -8.465974e+01
   1.882649e+02   4.720499e+01
   9.846847e+01   1.583388e+02
  -8.397212e+01   2.147862e+02
  -2.828618e+02   9.798665e+01
  -2.217455e+02  -6.593305e+01
  -1.019105e+02  -1.398106e+02
   8.882823e+00  -1.256327e+02
   1.035237e+02  -5.479224e+01
   4.363395e+01  -7.868238e+01
   6.979659e+01  -4.345757e+01
   7.156668e+01  -6.800975e+01
   1.042073e+02  -7.842451e+00
   9.615396e+01   1.421865e+02
   2.520209e+01   1.819836e+02
  -6.587474e+01   1.392169e+02
  -1.201991e+02   2.795873e+01
  -8.910588e+01  -8.314520e+01
  -1.029862e+01  -1.244955e+02
   6.038490e+01  -8.448482e+01
   4.745161e+01  -5.212692e+00
  -8.918584e+00   5.985109e+01
  -1.872306e+01   2.286089e+01
   8.564142e+00   2.499702e+01
   8.065097e+01   2.505809e+01
   3.467678e+01   5.707239e+01
  -4.488869e+01   2.857688e+01
  -1.291798e+02  -2.384458e+01
  -1.260467e+02  -3.875079e+01
  -3.095728e+01  -8.127898e+01
   1.039665e+02  -7.709588e+01
   1.022067e+02  -3.867448e+01
   3.932472e+01   4.028457e+01
  -5.557012e+01   2.981144e+01
  -1.050254e+02  -1.972576e+00
  -2.720409e+01  -3.721835e+01
   7.598694e+01  -5.092669e+01
   3.905819e+01  -1.355154e+01
   3.971559e+01   3.164599e+01
   4.649804e+01   2.962569e+01
   5.252729e+01   4.524560e+01
   6.370803e+01   4.898099e+00
   3.405419e+01   5.006153e+01
  -2.218086e+01   1.379382e+02
  -1.055280e+02   1.325489e+02
  -1.142515e+02   3.408033e+01
  -1.023065e+02  -9.740987e+01
   7.313629e+00  -1.030483e+02
   6.153841e+01  -3.688424e+01
   6.559494e+01   1.458992e+01
  -6.184135e+01   3.649236e+01
  -1.208242e+02  -2.256154e+01
  -4.361565e+01  -8.185163e+01
   5.003582e+01  -7.992398e+01
   1.919583e+02  -5.543677e+01
   1.588852e+02   3.613655e+01
   3.030201e+01   9.174652e+01
  -2.908345e+01   4.978034e+01
  -5.536387e+01   6.472209e+00
   1.908510e+01  -1.659432e+01
   8.876641e+01   1.109037e+01
   3.055113e+01   9.130546e+01
  -8.718173e+01   1.144551e+02
  -1.606705e+02   5.075107e+01
  -1.093172e+02  -1.123328e+02
  -1.025042e+01  -1.807939e+02
   7.873377e+01  -1.104971e+02
   7.730685e+01   1.144693e+01
   2.862229e+01   8.423062e+01
   9.069590e+00   8.489994e+01
  -2.343548e+01   2.290014e+01
  -3.910477e+01  -2.775320e+01
  -2.587395e+01   2.257721e+01
  -1.836220e+01   2.510696e+01
  -3.432815e+01  -2.345084e+00
  -3.702620e+01  -7.997756e+01
  -4.734799e+01  -9.536519e+01
   3.705942e+01  -2.012564e+01
   1.534567e+02   4.884951e+01
   1.010276e+02   8.047183e+01
   2.093507e+01   3.054031e+01
  -7.522780e+01   1.071336e+01
  -6.752599e+01   1.366656e+01
  -2.546996e+01   5.735356e+00
   2.862818e+01  -1.260496e+01
   1.598827e+01  -2.644046e+01
  -1.007897e+01   4.635673e+01
   1.676742e+01   1.560437e+01
   6.375547e+01  -9.425285e+00
   5.124008e+01   3.202787e+00
   1.793584e+01   4.523016e+01
  -9.243368e+01   9.445728e+01
  -1.592492e+02   2.954044e+01
  -1.200545e+02  -3.146709e+01
  -1.515142e+01  -1.709460e+02
   5.994527e+01  -1.410930e+02
   1.154910e+02  -1.876067e+01
   7.210997e+01   4.898853e+00
   2.038563e+01  -2.108882e+00
   3.264786e+00  -2.139321e+01
   2.326208e+01   7.625148e+00
   3.633830e+01   4.359626e+01
   3.482075e+01   6.020722e+01
  -9.815832e+00   6.824997e+01
  -7.293462e+01  -1.961000e+01
  -4.644576e+01  -7.391376e+01
   5.773012e+00  -1.375512e+02
   6.463992e+01  -1.790048e+01
   7.504413e+01   5.442590e+01
   1.313968e+01   8.525924e+01
  -7.317232e+01   4.336278e+01
  -1.032436e+02  -3.438852e+00
  -2.699720e+01  -5.726444e+01
   8.171049e+00  -4.980582e+01
  -5.331513e+00  -2.887215e+01
  -3.781773e+01   2.315781e+01
  -6.818976e+01   4.188096e+00
  -3.754221e+01  -2.040691e+01
   8.170646e+01  -5.006742e+01
   1.083645e+02  -3.026945e+01
   6.487996e+01   2.053527e+01
  -2.388446e+01   9.058795e+01
  -4.624602e+01   6.169573e+01
  -1.664815e+01   1.377853e+00
  -7.381307e-01  -4.940962e+01
   1.361313e+01  -2.059166e+01
   2.962541e+01   8.019201e+00
   2.917602e+01   4.218446e+01
   5.539590e+00   3.669624e+01
  -5.573082e+01  -2.387145e+01
  -3.980127e+01  -4.183700e+01
  -2.837773e+01   1.721888e+00
   9.341862e+00   4.182813e+01
   1.348712e+01  -8.543417e+00
   4.248814e+00  -2.871288e+01
   7.296227e+00  -4.695262e+01
   3.364383e+01  -1.314355e+01
   3.122031e+01   3.448317e+01
  -1.476727e+01   6.586684e+01
  -2.241161e+01   1.217549e+01
  -5.452287e+01  -1.272229e+01
  -1.283973e+01  -6.504365e+01
   4.875387e+01  -2.109690e+01
   5.773035e+01   2.535534e+01
   1.829930e+01  -1.643910e+01
  -3.432129e+01   4.181320e+01
  -4.902580e+01   2.149423e+01
  -4.329969e+01   2.049921e+01
   3.558805e+01   6.189784e+00
   4.069831e+01   2.005291e+01
  -4.308946e+01   3.797468e+01
  -5.266258e+01   2.547791e+01
