
 $NMID
 id='ANONYMOUS ', fmtdat='(2E16.6)'
 volume=1.0
 tramp=1.0
 $END
   3.306693e+03  -1.184249e+01
   2.153533e+03   2.314703e+03
  -7.526281e+02   2.507591e+03
  -1.746662e+03   7.444498e+02
  -8.212417e+02  -7.052919e+02
   5.928861e+02  -5.400768e+02
   8.135603e+02   3.152595e+02
   1.468159e+00   1.004767e+03
  -7.891665e+02   6.978209e+02
  -8.610312e+02  -3.503654e+01
  -3.262091e+02  -7.940174e+02
   1.812096e+02  -7.884916e+02
   5.475438e+02  -1.497358e+02
   3.395400e+02   6.484039e+02
  -1.900968e+02   5.914951e+02
  -5.254534e+02   2.220909e+01
  -1.769602e+02  -5.020690e+02
   2.535187e+02  -5.319549e+02
   4.725257e+02  -7.511383e+01
   3.461674e+02   2.930015e+02
  -2.029930e+00   3.733037e+02
  -2.119901e+02   2.157046e+02
  -2.069316e+02   1.517707e+01
   4.838240e+01  -1.086362e+02
   4.080153e+02   8.870333e+01
   1.477672e+02   3.539215e+02
  -3.483609e+02   3.738221e+02
  -7.512618e+02  -1.260898e+01
  -4.297652e+02  -5.188227e+02
   3.355769e+02  -5.195220e+02
   5.610518e+02   4.790520e+01
   2.960739e+02   4.133839e+02
  -2.316203e+02   4.062974e+02
  -4.628421e+02   1.707701e+02
  -3.437603e+02  -1.736524e+02
  -5.785831e+01  -4.371842e+02
   1.521472e+02  -2.464566e+02
   1.724002e+02   2.180722e+02
  -1.226900e+02   3.290547e+02
  -3.929857e+02  -2.251410e+01
  -2.407604e+02  -5.542565e+02
   2.193120e+02  -5.909941e+02
   5.623672e+02  -3.992785e+01
   2.854154e+02   4.876753e+02
  -2.607513e+02   3.003238e+02
  -3.796221e+02  -2.735294e+02
   3.719829e+01  -4.165833e+02
   4.918159e+02  -1.186047e+02
   5.145474e+02   3.616890e+02
   1.523651e+02   4.929475e+02
  -2.719796e+02   2.751200e+02
  -5.201963e+02  -5.114487e+01
  -3.435766e+02  -3.421974e+02
   1.264469e+02  -3.150092e+02
   3.712616e+02  -6.743782e+01
   1.875357e+02   1.428120e+02
  -1.092809e+02   9.378695e+01
  -1.283616e+02  -1.217436e+02
   1.244493e+02  -1.693203e+02
   2.983348e+02   7.907920e+01
   1.251897e+02   2.756771e+02
  -1.420402e+02   2.050366e+02
  -2.613599e+02   2.808246e+01
  -1.449855e+02  -6.125209e+01
   3.603112e+01  -1.609191e+02
   1.877641e+02  -2.754640e+02
   2.418658e+02  -1.755206e+02
   2.119016e+02   9.911140e+01
   1.123254e+02   3.834679e+02
  -9.895548e+01   3.072285e+02
  -1.565722e+02   9.852521e+01
  -2.807649e+01  -2.236040e+01
  -3.930643e+01   6.967616e+01
  -1.593492e+02   1.219018e+02
  -2.249999e+02  -1.293057e+01
  -1.273457e+02  -2.305164e+02
   6.447571e+01  -2.365155e+02
   2.054108e+02  -1.565035e+01
   1.577991e+02   1.916860e+02
  -5.422403e+00   2.165756e+02
  -2.353883e+02   1.411362e+02
  -2.990597e+02  -1.274227e+02
  -1.603981e+02  -3.371676e+02
   1.049569e+02  -2.375172e+02
   1.962531e+02  -1.224597e+02
   1.330499e+02   2.598575e+00
   5.774127e+01  -4.515821e+01
   1.747525e+02  -2.959237e+01
   3.765022e+02   2.524248e+01
   2.644867e+02   2.284427e+02
   1.511293e+01   3.643168e+02
  -2.910116e+02   3.558256e+02
  -4.031695e+02   2.144597e+02
  -2.835754e+02  -8.037782e+01
  -6.369337e+01  -2.632368e+02
   1.218628e+02  -2.177593e+02
   6.801940e+01  -3.488238e+01
  -7.736771e+01   9.125552e+01
  -1.808230e+02  -6.144792e+00
  -7.783490e+01  -1.866098e+02
   1.433165e+02  -1.383824e+02
   1.516839e+02   4.320044e+01
  -1.929448e+01   1.634852e+02
  -1.643363e+02   4.335143e+01
  -1.761049e+02  -1.903173e+02
   4.853843e+01  -2.987112e+02
   2.067948e+02  -1.895315e+02
   2.632823e+02   2.909492e+01
   2.153934e+02   1.888643e+02
   1.115315e+02   2.072194e+02
  -4.106450e+01   1.383622e+02
  -1.849751e+02   2.057914e+01
  -2.936645e+01  -3.693231e+01
   5.618484e+01   4.475895e+01
   1.427699e+01   9.679078e+01
  -9.065533e+01   6.898969e+01
  -1.312330e+02  -1.819231e+01
  -7.532241e+01  -8.019377e+01
   5.851856e+01  -2.316598e+01
   3.988062e+01   5.785312e+01
  -1.237078e+02   6.758485e+01
  -2.289952e+02   2.576701e+01
  -2.322309e+02  -1.166029e+02
  -6.757523e+01  -1.701381e+02
   1.497295e+02  -2.503117e+02
   2.321061e+02  -1.036048e+02
   1.536053e+02   4.752397e+01
  -2.024730e+01   1.170161e+02
  -6.213123e+01   2.723756e+01
   5.586061e+01  -7.680479e+01
   1.751855e+02  -2.125477e+01
   1.942349e+02   7.615193e+01
   3.492823e+01   1.528939e+02
  -7.883826e+01   1.387732e+02
  -1.405348e+02   3.813521e+01
  -6.601445e+01  -1.981477e+01
   8.951647e+00  -1.550625e+01
   1.791980e+01   9.213588e+01
  -5.611080e+01   9.869658e+01
  -1.473387e+02   9.034414e+00
  -1.510458e+02  -1.015155e+02
  -4.295252e+01  -1.692703e+02
   1.403030e+02  -1.413667e+02
   1.835027e+02  -6.300417e+00
   3.082659e+01   9.732878e+01
  -6.308430e+01   1.129776e+02
  -7.656184e+01   2.789036e+01
  -6.043260e+00   9.298016e+00
   6.763854e+01  -5.815631e+00
  -2.106734e+01  -4.372711e-01
  -4.712259e+01   1.497293e+01
  -6.412042e+01  -5.223284e+01
  -3.648774e+01  -1.108843e+02
   9.831829e+01  -1.300093e+02
   2.132352e+02  -4.058249e+01
   1.789978e+02   1.224935e+02
   3.772422e+01   1.794704e+02
  -9.220637e+01   1.328726e+02
  -1.272321e+02   1.859384e+01
  -7.012135e+01  -7.355274e+01
  -2.516066e+01  -8.738290e-01
  -5.150276e+01   3.477084e-01
  -4.626608e+01   3.347640e+01
  -5.276478e+01  -3.954511e+01
   3.558653e+01  -4.935661e+01
   8.825158e+01  -4.474852e+01
   6.732685e+01   4.299497e+01
  -1.183214e+01   1.121222e+02
  -1.211789e+02   4.420145e+01
  -1.802335e+02  -1.975328e+01
  -1.208844e+02  -1.706061e+02
   7.972966e+01  -1.678716e+02
   2.573591e+02  -7.528402e+01
   2.095535e+02   9.162365e+01
   9.756837e+01   1.378532e+02
  -3.344535e+01   9.382092e+01
  -1.029762e+02   6.347653e+01
  -6.992008e+01   5.016507e+01
  -6.792586e+01   4.935484e+01
  -5.520131e+01   4.937086e+01
  -8.178174e+01  -4.464503e+00
  -9.475922e+01  -1.298422e+02
  -4.700031e+01  -1.937613e+02
   8.929997e+01  -1.297070e+02
   1.323892e+02  -3.735273e+01
   8.627721e+01   7.840394e+01
   2.120010e+01   1.180041e+02
  -7.302365e+01   6.002985e+01
  -4.380191e+01  -2.649803e+01
  -3.531686e+00  -4.458921e+01
   1.330788e+01  -1.880701e+01
  -2.469934e+01   8.818616e+00
  -5.828373e+01  -1.754656e+01
  -2.867051e+01  -4.345207e+01
   6.496330e+01  -4.280356e+00
   1.250340e+02   3.431398e+01
   1.213889e+02   4.419442e+01
   2.279915e+01   6.440155e+01
  -1.071575e+02   7.507599e+01
  -1.291243e+02   2.736219e+01
  -3.003254e+01  -1.712124e+01
   5.928961e+01  -2.083672e+01
   7.908171e+01   2.895261e+01
   1.020102e+01   5.339785e+01
  -5.466258e+01   6.728344e+01
  -3.814675e+01  -2.181677e+00
  -2.547336e+01  -4.476870e+01
  -5.284082e+01  -4.476475e+01
  -6.431988e+01  -2.051678e+01
  -7.802429e+01   5.474413e+00
  -2.885357e+01  -6.503814e+01
   1.619478e+01  -1.263212e+02
   9.349970e+01  -1.089994e+02
   1.330688e+02  -2.717825e+01
   9.166593e+01   8.085500e+01
   4.332189e+00   1.138533e+02
  -7.073177e+01   5.811452e+01
  -4.409242e+01  -2.223758e+01
   3.487003e+01  -1.991499e+01
   1.270767e+02   4.108001e+01
   4.555052e+01   8.199274e+01
  -3.613556e+01   9.737913e+01
  -1.695988e+02   4.525111e+01
  -1.353060e+02  -2.339925e+01
  -4.617896e+01  -7.891225e+01
   6.094546e+01  -2.314072e+01
   2.255189e+01  -1.479081e+01
  -5.664164e+01   1.223628e+01
  -1.065187e+02   4.329550e+00
   6.948847e-01  -9.313362e+01
   5.972180e+01  -1.165992e+02
   1.504284e+02  -4.126164e+01
   9.766989e+01   1.090861e+02
   1.025594e+01   1.823514e+02
  -7.648621e+01   1.058252e+02
  -5.973679e+01  -1.192570e+01
  -2.026085e+01  -6.801815e+01
  -3.500316e+00  -9.765650e+01
   4.261018e+01  -1.029688e+01
   3.026667e+01   1.477159e+01
   2.170886e+00   1.371572e+01
  -2.413171e+01  -1.648382e+01
   1.408794e+01   3.184579e+01
   2.533822e+01   4.699044e+01
   3.602326e+01   5.692274e+01
  -7.136108e+01   5.486917e+01
  -1.125861e+02  -4.479349e+01
  -1.141124e+02  -8.518804e+01
  -2.428242e+01  -5.559055e+01
   7.442500e+01  -1.922907e+01
   8.087990e+01  -2.747343e-01
   6.561365e+00  -2.153606e+01
  -4.107633e+01   2.957789e+00
  -3.228558e+01   2.237453e+01
   1.291568e+01   2.495232e+00
  -1.845479e+01  -2.016586e+01
  -7.366232e+01   2.506816e+01
  -7.167815e+01  -2.233262e+00
  -1.487717e+00  -5.806190e+01
   8.841055e+01  -9.430990e+01
   1.507818e+02  -4.650410e+01
   1.104179e+02   3.903535e+01
   2.550457e+01   1.451420e+02
  -7.378317e+01   1.019052e+02
  -9.499740e+01   3.424700e+01
  -6.139127e+01   2.007118e+00
  -2.670694e+01  -2.632058e+01
   7.694839e+00  -6.085215e+00
  -2.849724e+01  -3.324846e+01
  -2.142402e+01  -3.341442e+01
  -3.269152e+01  -6.564022e+01
   3.953962e+01  -3.118626e+01
   7.977298e+01  -1.555806e+01
   5.466342e+01   8.321312e+01
  -4.005377e+01   1.225511e+02
  -6.512189e+01   2.111595e+01
  -7.140342e+01  -4.146352e+01
  -3.146838e+01  -6.898069e+01
   6.010654e+01  -3.232967e+01
   8.821059e+01   2.262099e+00
   2.144106e+01   4.933695e+01
  -1.849390e+01   4.351495e+01
  -3.112318e+01   2.995278e+01
   4.139067e+01  -1.695126e+01
   5.738277e+01  -9.666272e+00
   1.664847e+01   2.731005e+01
  -7.728322e+01   5.929846e+01
  -9.287367e+01   7.743382e+01
  -4.095417e+01   3.753880e+01
   1.293465e+01  -5.696154e+01
   4.909713e+01  -7.945561e+01
   4.424114e+01   1.037218e+01
   1.228920e+00   3.926919e+01
  -4.088898e+01  -1.058637e+00
  -1.772404e+01   9.071307e-01
  -2.105455e+01  -4.634598e+01
  -2.583312e+00  -3.521131e+01
   1.046153e+01   2.783853e+01
   5.170498e+00   3.271920e+01
  -2.328322e+00   1.995960e+00
  -3.404499e+00  -4.319674e+00
   7.241617e+00   1.779527e+01
  -3.623847e+01   2.119898e+01
  -2.061517e+01   4.296770e+01
  -3.110048e+01   2.150020e+01
  -3.605448e+01  -5.693744e+01
   1.793544e+01  -5.483375e+01
   3.189822e+01  -1.272676e+00
   4.718682e+01   3.444992e+01
   1.199416e+00   5.643359e+01
  -4.541717e+01   3.758697e+01
  -1.053977e+02  -2.067605e+01
  -4.210943e+01  -4.035011e+01
   7.829096e+00  -3.339793e+01
   5.637308e+01  -1.771399e+01
   3.046328e+01  -2.542269e+01
  -3.845755e+01   2.448212e+00
  -5.983385e+00  -1.486837e+01
   1.918795e+01  -3.454220e+01
   9.920838e+01  -4.111537e+01
