
 $NMID
 id='ANONYMOUS ', fmtdat='(2E16.6)'
 volume=1.0
 tramp=1.0
 $END
   4.512355e+03  -1.011283e+02
   2.491880e+03   2.772867e+03
  -7.764426e+02   3.144449e+03
  -2.078598e+03   8.586015e+02
  -8.360076e+02  -7.429515e+02
   7.468979e+02  -7.697743e+02
   9.501143e+02   4.023729e+02
   8.536740e+01   1.111498e+03
  -9.615097e+02   7.743059e+02
  -9.671927e+02  -1.183607e+02
  -4.462679e+02  -9.688310e+02
   3.756899e+02  -9.432823e+02
   6.796626e+02  -1.446089e+02
   3.631975e+02   7.269411e+02
  -2.886091e+02   7.704711e+02
  -6.318632e+02   8.582761e+00
  -2.841840e+02  -7.215105e+02
   4.340671e+02  -6.117622e+02
   6.931003e+02  -1.089154e+02
   3.915912e+02   4.259074e+02
   2.312174e+00   4.992919e+02
  -2.378862e+02   2.736974e+02
  -2.190715e+02   3.661599e+01
   9.620218e+01  -1.546667e+02
   4.534081e+02   4.230359e+01
   1.836924e+02   4.174282e+02
  -5.163170e+02   4.687425e+02
  -9.127713e+02  -3.035108e+01
  -4.953758e+02  -5.276791e+02
   3.761561e+02  -5.474908e+02
   7.534060e+02   1.409267e+01
   3.660018e+02   4.986998e+02
  -2.169516e+02   6.077319e+02
  -5.854391e+02   2.273353e+02
  -3.961076e+02  -2.330297e+02
  -7.964064e+01  -5.263112e+02
   1.988461e+02  -3.647239e+02
   2.510965e+02   2.622360e+02
  -1.084366e+02   4.667607e+02
  -4.945622e+02   2.121296e+01
  -3.312933e+02  -7.628821e+02
   2.681191e+02  -7.285270e+02
   6.743471e+02  -5.248638e+01
   2.847074e+02   6.446940e+02
  -3.207795e+02   4.243533e+02
  -4.390373e+02  -3.573785e+02
   6.520198e+01  -5.229344e+02
   6.129981e+02  -1.166076e+02
   6.438673e+02   4.024075e+02
   1.978374e+02   5.764627e+02
  -3.657781e+02   4.331083e+02
  -6.686827e+02  -4.550058e+01
  -3.873695e+02  -3.859585e+02
   1.288342e+02  -4.064132e+02
   4.938344e+02  -6.334187e+01
   2.840063e+02   2.429091e+02
  -1.126711e+02   1.292642e+02
  -1.572797e+02  -1.478689e+02
   1.955461e+02  -2.191549e+02
   3.618930e+02   4.141899e+01
   1.322547e+02   3.311322e+02
  -2.279668e+02   2.321104e+02
  -3.416924e+02   1.004688e+02
  -1.784035e+02  -9.839921e+01
   2.676616e+01  -1.909370e+02
   2.029337e+02  -2.956769e+02
   3.108380e+02  -2.569957e+02
   3.142502e+02   1.237412e+02
   6.209369e+01   5.031003e+02
  -1.102845e+02   4.040869e+02
  -1.777379e+02   1.212219e+02
  -5.085149e+01  -6.910156e+01
  -3.061235e+01   2.927523e+01
  -1.468059e+02   1.451114e+02
  -3.116973e+02  -1.468934e+00
  -1.880297e+02  -2.650082e+02
   3.557005e+01  -2.481766e+02
   2.263785e+02  -4.997441e+01
   2.055210e+02   2.079851e+02
   1.757553e+01   3.062075e+02
  -2.927206e+02   1.267581e+02
  -3.395349e+02  -1.550950e+02
  -2.044618e+02  -3.371134e+02
   9.353554e+01  -3.389844e+02
   2.305237e+02  -1.115036e+02
   1.521239e+02   1.894377e+01
   8.011948e+01  -3.832453e+01
   2.106419e+02  -6.127309e+01
   3.893868e+02   2.663640e+01
   3.412867e+02   2.581373e+02
  -5.619267e+00   4.620801e+02
  -3.362760e+02   4.062906e+02
  -4.886043e+02   2.099891e+02
  -3.427701e+02  -8.097329e+01
  -7.234931e+01  -3.030389e+02
   1.269194e+02  -2.374406e+02
   1.102169e+02  -5.102571e+01
  -7.921978e+01   8.150884e+01
  -2.052440e+02   7.551321e+00
  -7.454438e+01  -1.963596e+02
   1.729748e+02  -1.854422e+02
   1.834597e+02   2.927376e+01
  -9.529126e+00   2.046900e+02
  -2.022191e+02   2.234312e+01
  -1.445427e+02  -2.228375e+02
   2.657741e+01  -3.772715e+02
   2.389536e+02  -1.564197e+02
   3.232378e+02   5.811643e+01
   2.566554e+02   2.261455e+02
   1.102039e+02   2.867781e+02
  -1.508061e+02   1.481833e+02
  -1.740493e+02   3.528587e+01
  -4.686494e+01  -4.773377e+01
   7.427966e+01   3.084665e+01
   5.303736e+01   8.045240e+01
  -1.272802e+02   1.144050e+02
  -1.830932e+02   2.247844e-02
  -5.662515e+01  -8.907790e+01
   6.768048e+01   3.367739e+00
   7.022306e+01   4.418435e+01
  -1.065546e+02   8.305932e+01
  -2.621984e+02  -8.199834e+00
  -2.502069e+02  -1.526520e+02
  -1.147932e+02  -2.424862e+02
   1.701055e+02  -2.602891e+02
   2.782511e+02  -9.405928e+01
   1.825238e+02   5.859730e+01
  -1.494822e+01   1.023088e+02
  -1.013993e+02   2.379673e+01
  -5.181234e+00  -8.820394e+01
   1.903811e+02  -7.431475e+01
   2.020666e+02   1.016724e+02
   1.137215e+02   2.041445e+02
  -8.632962e+01   1.622752e+02
  -1.465673e+02   3.316240e+01
  -7.693956e+01  -6.115286e+01
   2.853149e+01   2.506516e+00
   3.396537e+01   7.623567e+01
  -3.519915e+01   1.099053e+02
  -1.473927e+02   2.789323e+01
  -2.002109e+02  -1.572307e+02
  -1.268776e+01  -2.303549e+02
   1.657025e+02  -1.630165e+02
   1.886217e+02  -2.997038e+01
   6.053719e+01   1.077809e+02
  -4.286647e+01   1.089358e+02
  -9.049151e+01   4.585306e+01
  -2.180642e+01  -1.294594e+01
   1.999659e+01   7.241593e+00
  -7.246796e+00  -1.334186e+01
  -8.134239e+01   2.352040e+01
  -6.189178e+01  -4.215724e+01
  -1.407886e+01  -1.528191e+02
   1.192746e+02  -1.581453e+02
   2.323132e+02  -2.670508e+01
   1.895139e+02   1.273215e+02
   3.672740e+01   2.358904e+02
  -1.091349e+02   1.666723e+02
  -1.398068e+02   1.012099e+01
  -4.285658e+01  -5.685477e+01
  -2.295385e+01  -3.669604e+01
  -4.461980e+01   2.954329e+01
  -7.590701e+01   2.663099e+01
  -3.371925e+01  -6.051537e+01
   3.121051e+01  -6.481515e+01
   1.097339e+02  -5.645561e+01
   8.438599e+01   2.082000e+01
  -8.141590e-01   1.056342e+02
  -1.495865e+02   8.433412e+01
  -1.698556e+02  -4.000226e+01
  -7.573883e+01  -2.044929e+02
   1.002165e+02  -2.730121e+02
   2.315132e+02  -9.194950e+01
   2.640952e+02   9.652419e+01
   1.311204e+02   1.573199e+02
  -4.911612e+01   1.491236e+02
  -9.320599e+01   1.228376e+02
  -6.560756e+01   5.090966e+01
  -6.952694e+01   8.496769e+01
  -1.206956e+02   7.849790e+01
  -1.355585e+02  -6.869872e+00
  -9.438421e+01  -1.512384e+02
  -3.531909e+01  -2.507691e+02
   1.080790e+02  -2.002624e+02
   1.799233e+02  -5.952546e+00
   1.470830e+02   1.043708e+02
   2.983405e+01   1.778951e+02
  -6.261665e+01   1.317517e+02
  -5.741396e+01  -1.930070e+01
  -3.516833e+01  -2.918941e+01
  -7.850951e+00  -2.834816e+01
  -3.415502e+01  -1.434603e+01
  -8.191107e+01  -2.164619e+01
  -1.056446e+01  -4.795604e+01
   1.088360e+02  -4.616891e+01
   1.342940e+02  -9.649083e-01
   1.544232e+02   7.650169e+01
  -1.307336e+00   5.821662e+01
  -1.387287e+02   6.108766e+01
  -1.669306e+02   1.843475e+01
  -6.700839e+01  -5.050788e+01
   8.473510e+01  -7.093970e+01
   8.362025e+01  -3.956111e+00
   1.597048e+01   8.302292e+01
  -5.729430e+01   6.923072e+01
  -6.553890e+01  -5.542473e+00
  -3.572374e+01  -5.027795e+01
  -6.112499e+01  -4.184877e+01
  -5.945657e+01   3.044560e+01
  -5.032871e+01  -1.911744e+01
  -3.893822e+01  -8.082266e+01
   1.904902e+01  -1.623670e+02
   1.199932e+02  -1.259206e+02
   1.597726e+02  -4.444398e+01
   1.250341e+02   8.898967e+01
  -4.018230e+00   1.391165e+02
  -6.295567e+01   1.036167e+02
  -1.679926e+01  -1.503454e+01
   5.257993e+01   7.116369e-01
   1.420173e+02   1.092730e+01
   7.475564e+01   1.136222e+02
  -8.241155e+01   1.420198e+02
  -1.693375e+02   5.668458e+01
  -1.551094e+02  -2.523638e+01
   1.097160e+01  -8.700066e+01
   2.036909e+01  -1.119288e+02
   3.491015e+01   6.734056e+00
  -1.988181e+01   5.201468e+01
  -8.213109e+01  -4.037163e+01
  -4.102352e+01  -1.097452e+02
   1.054909e+02  -1.649119e+02
   1.424402e+02  -6.199068e+01
   1.202205e+02   9.769846e+01
   5.206632e+01   1.831431e+02
  -1.094017e+02   1.440829e+02
  -9.792533e+01   8.039023e+00
  -5.232181e+01  -1.206049e+02
  -1.851252e+01  -1.116227e+02
   4.310043e+01  -4.112889e+01
   4.147936e+01   3.682269e+01
   3.761096e+01   2.521613e+01
   3.075309e+01  -4.944948e+01
   2.683636e+01   3.315684e+01
   8.143895e+01   6.409412e+01
   2.325132e+01   8.250377e+01
  -3.168119e+01   3.526018e+01
  -1.374838e+02  -2.449878e+01
  -1.310788e+02  -5.436857e+01
  -1.349221e+01  -4.610746e+01
   8.156653e+01  -1.823051e+01
   9.824772e+01  -3.834350e+00
   1.847359e+01   9.699554e+00
  -4.958786e+01   2.752111e+01
  -3.331262e+00   1.887573e+01
   1.821562e+01  -3.841204e+00
   5.867342e+00   6.095498e+00
  -4.736190e+01  -3.725680e+00
  -6.641093e+01  -2.549317e+01
  -5.730032e+00  -7.047574e+01
   9.932142e+01  -1.367056e+02
   1.784400e+02  -5.984127e+01
   9.831171e+01   7.256282e+01
   2.699169e+01   1.621550e+02
  -7.103627e+01   1.471106e+02
  -1.035088e+02   6.969935e+01
  -7.786481e+01  -1.553979e+01
  -1.412520e+01  -1.585127e+01
   1.196795e+01   9.744375e+00
  -2.311253e+00   2.313976e+01
  -4.408540e+01  -2.796121e+01
  -5.128275e+01  -9.732152e+01
   3.582881e+01  -5.872734e+01
   7.274541e+01   1.407418e+01
   9.559750e+01   1.054388e+02
   1.863673e+01   1.136340e+02
  -9.341017e+01   3.543948e+01
  -1.097529e+02  -8.660045e+01
  -1.011133e+01  -1.067255e+02
   8.112882e+01  -5.008248e+01
   6.962156e+01   1.985106e+01
   4.780812e+01   5.933169e+01
  -5.840904e+01   4.722789e+01
  -2.052181e+01   5.401280e+01
   3.035381e+01   1.256505e+01
   5.628906e+01   1.386360e+01
   8.976663e+00   2.512496e+01
  -7.369774e+01   5.748817e+01
  -1.161586e+02   6.642418e+01
  -5.210424e+01   9.630562e+00
   2.466742e-01  -4.478048e+01
   5.585846e+01  -9.125590e+01
   5.139120e+01   9.029304e+00
   8.509772e-01   6.468797e+01
  -3.532628e+01   4.021869e+01
  -3.807852e+01  -4.872676e+01
  -1.139495e+01  -2.287688e+01
   5.613978e+00  -8.457312e+00
   5.526030e+01  -1.831427e+01
   4.330326e+01   4.760027e+01
   4.502128e+00   4.167122e-01
  -1.508529e+01  -1.112637e+01
  -1.631115e+01   1.691741e+01
   4.985696e+00   4.372539e+01
  -1.219591e+01   2.917922e+01
  -6.786331e+00  -5.343718e+00
  -4.824718e+01  -6.745396e+01
   7.138028e+00  -5.536992e+01
   3.868345e+01  -3.043335e+01
   6.993724e+01   5.157438e+01
   2.170196e+01   5.448552e+01
  -4.171893e+01   3.618646e+01
  -6.952781e+01  -1.318916e+01
  -4.143270e+01  -4.550390e+01
   1.348831e+01  -1.250492e+01
   3.369185e+01   3.136860e+00
   2.986290e+01   1.057321e+01
  -1.842001e+01   7.470517e-01
  -2.549808e+01  -3.024518e+01
   2.867823e+01  -2.615084e+01
   8.438479e+01  -3.309552e-01
