
 $NMID
 id='ANONYMOUS ', fmtdat='(2E16.6)'
 volume=1.0
 tramp=1.0
 $END
  -4.478719e+03   2.564248e+02
  -2.623972e+03  -2.677971e+03
   6.600471e+02  -3.107875e+03
   2.113017e+03  -9.434863e+02
   9.349410e+02   7.412245e+02
  -7.214737e+02   7.925624e+02
  -1.003253e+03  -3.189690e+02
  -8.318433e+01  -1.139938e+03
   9.920826e+02  -8.018076e+02
   1.020955e+03   8.376151e+01
   4.451040e+02   9.775561e+02
  -3.235129e+02   9.621849e+02
  -7.027535e+02   1.439552e+02
  -4.541766e+02  -7.137638e+02
   2.702940e+02  -8.035185e+02
   6.191935e+02   2.921250e+01
   3.261088e+02   7.405482e+02
  -4.035116e+02   6.791986e+02
  -6.507124e+02   9.106500e+01
  -4.281076e+02  -4.352709e+02
  -2.969378e+01  -4.924027e+02
   2.721353e+02  -3.126600e+02
   2.345365e+02  -1.707588e+01
  -8.316118e+01   1.182252e+02
  -4.622836e+02  -4.908982e+01
  -2.401259e+02  -4.091342e+02
   4.830047e+02  -4.524122e+02
   8.923709e+02   2.297938e+01
   5.181849e+02   5.216459e+02
  -3.636976e+02   5.485543e+02
  -7.546635e+02  -2.642714e+00
  -3.905770e+02  -4.975397e+02
   2.412324e+02  -5.972759e+02
   5.879830e+02  -2.229159e+02
   3.966527e+02   2.093974e+02
   1.197602e+02   5.439413e+02
  -2.201874e+02   3.573429e+02
  -2.330817e+02  -2.523436e+02
   1.253545e+02  -4.766392e+02
   4.824805e+02  -1.271711e+01
   3.404725e+02   6.944259e+02
  -2.618061e+02   7.269623e+02
  -6.694819e+02   9.332550e+01
  -2.959090e+02  -6.517896e+02
   3.194725e+02  -4.012100e+02
   4.540575e+02   3.072179e+02
  -5.912319e+01   5.251610e+02
  -6.006439e+02   1.421011e+02
  -6.394562e+02  -3.786444e+02
  -1.904587e+02  -5.898309e+02
   3.884628e+02  -4.291332e+02
   6.819425e+02   3.320826e+01
   3.740626e+02   3.636665e+02
  -1.299328e+02   3.746380e+02
  -4.912526e+02   6.151204e+01
  -2.952934e+02  -2.217281e+02
   1.224739e+02  -1.635008e+02
   1.617297e+02   1.422416e+02
  -1.630429e+02   2.304636e+02
  -3.475626e+02  -3.729028e+01
  -1.510333e+02  -3.497831e+02
   2.392856e+02  -2.630067e+02
   3.528767e+02  -8.712312e+01
   2.173508e+02   1.320659e+02
  -1.738102e+01   1.745284e+02
  -2.056305e+02   3.047667e+02
  -3.139142e+02   2.333386e+02
  -3.092787e+02  -1.353119e+02
  -2.835875e+01  -5.042451e+02
   1.009596e+02  -4.245831e+02
   1.319083e+02  -1.286719e+02
   2.999405e+01   2.407928e+01
   1.424128e+01  -6.369632e+01
   1.790680e+02  -1.267447e+02
   3.441238e+02   1.159863e+01
   1.912171e+02   2.731480e+02
  -3.631956e+01   2.598598e+02
  -2.384535e+02   4.919468e+01
  -2.141000e+02  -2.488497e+02
  -4.840286e+01  -3.188237e+02
   2.688384e+02  -1.345564e+02
   3.577129e+02   1.947365e+02
   2.025600e+02   3.755534e+02
  -9.228465e+01   3.574548e+02
  -2.361835e+02   1.444285e+02
  -1.202916e+02  -2.549172e+01
  -8.236267e+01   4.341072e+01
  -2.240011e+02   7.421928e+01
  -3.854422e+02   3.381053e+00
  -3.280720e+02  -2.552382e+02
   4.705145e+00  -4.665111e+02
   3.652371e+02  -4.715531e+02
   5.031067e+02  -2.186318e+02
   3.411701e+02   9.787932e+01
   4.478318e+01   2.716590e+02
  -1.067031e+02   2.408290e+02
  -1.016110e+02   4.257510e+01
   9.266522e+01  -1.231741e+02
   1.891773e+02   8.896752e+00
   5.267011e+01   1.950550e+02
  -1.957809e+02   1.905884e+02
  -2.053555e+02  -2.757705e+01
   8.915092e-01  -2.232422e+02
   2.014030e+02  -2.274499e+01
   1.486975e+02   2.075824e+02
  -5.068996e+00   3.706091e+02
  -2.282361e+02   1.747908e+02
  -3.433681e+02  -6.055118e+01
  -2.698706e+02  -2.457173e+02
  -1.196572e+02  -2.932408e+02
   1.358582e+02  -1.304460e+02
   2.002957e+02  -4.108773e+01
   5.047450e+01   1.515310e+01
  -6.946640e+01  -1.993015e+01
  -8.196747e+00  -1.030334e+02
   1.117549e+02  -1.237968e+02
   1.715535e+02   3.430540e+00
   6.977229e+01   9.541836e+01
  -5.906830e+01   1.585150e+01
  -3.671588e+01  -9.535799e+01
   1.108551e+02  -1.088143e+02
   2.424356e+02  -1.149925e+01
   2.340005e+02   1.386697e+02
   8.421535e+01   2.498490e+02
  -1.451087e+02   2.396916e+02
  -2.752183e+02   1.267755e+02
  -2.160847e+02  -2.443524e+01
   2.231509e+01  -1.573499e+02
   9.575219e+01  -3.046489e+01
  -1.153940e+01   1.111114e+02
  -1.811370e+02   9.195697e+01
  -1.872489e+02  -1.147608e+02
  -8.547916e+01  -1.957447e+02
   8.378823e+01  -1.725196e+02
   1.252211e+02  -1.785933e+01
   7.706819e+01   4.307249e+01
  -1.505410e+01   1.357423e+01
  -3.166185e+01  -6.666961e+01
   7.001416e+01  -8.820113e+01
   1.953256e+02  -3.760012e+01
   2.085172e+02   1.224854e+02
   2.498263e+01   2.191253e+02
  -1.733255e+02   1.691432e+02
  -2.104175e+02   2.490109e+01
  -7.548787e+01  -1.295550e+02
   5.721345e+01  -1.155711e+02
   6.911729e+01  -2.350546e+01
   2.499479e+01   5.867394e+00
   1.648663e+01   1.588076e+01
   2.078677e+01  -1.598171e+01
   8.833376e+01   1.593739e+01
   8.289442e+01   6.277737e+01
   2.619818e+00   1.598061e+02
  -1.293001e+02   1.887975e+02
  -2.492472e+02   3.221709e+01
  -1.910452e+02  -1.312085e+02
  -4.784139e+01  -2.520727e+02
   1.222793e+02  -1.551336e+02
   1.260298e+02  -2.200645e+01
   4.128770e+01   5.406805e+01
   2.526093e+01   2.785011e+01
   6.317206e+01  -7.539080e+00
   5.951161e+01  -1.017112e+01
   4.853237e+01   4.631426e+01
  -3.021587e+01   9.689728e+01
  -8.829011e+01   4.863732e+01
  -1.233921e+02  -2.819480e+01
   2.491635e+01  -9.173760e+01
   1.166557e+02  -7.830229e+01
   1.946460e+02   3.301311e+01
   1.013451e+02   2.140929e+02
  -1.117729e+02   2.497332e+02
  -2.521239e+02   1.152410e+02
  -2.664369e+02  -6.551464e+01
  -1.470911e+02  -1.429079e+02
   3.971709e+01  -1.507422e+02
   1.191793e+02  -1.146367e+02
   8.064222e+01  -8.630468e+01
   6.406757e+01  -7.765280e+01
   1.075573e+02  -7.422683e+01
   1.300040e+02  -3.471614e+00
   1.030180e+02   1.643787e+02
   4.206595e+01   2.202587e+02
  -8.842409e+01   1.932391e+02
  -1.762951e+02   1.767998e+01
  -1.234092e+02  -1.054590e+02
  -3.271481e+01  -1.482811e+02
   8.479493e+01  -1.227717e+02
   8.072325e+01   3.242161e+00
   3.391008e+00   3.258772e+01
  -1.493149e+01   3.389943e+01
   2.924297e+01   1.006819e-01
   6.671348e+01   4.604987e+01
   3.224097e+01   3.003049e+01
  -6.454244e+01   3.173445e+01
  -1.418100e+02  -2.293312e+01
  -1.530535e+02  -3.460162e+01
  -3.319258e+01  -1.049252e+02
   1.167448e+02  -5.089387e+01
   1.604372e+02  -4.700144e+01
   5.863687e+01   3.277651e+01
  -6.805122e+01   2.108751e+01
  -1.024464e+02  -4.219665e+01
   2.801178e+01  -8.560081e+01
   6.264552e+01  -6.177356e+01
   6.833639e+01   9.168280e+00
   5.806821e+01   4.955651e+01
   4.860387e+01   4.267484e+01
   5.692179e+01  -2.379146e+01
   6.254402e+01  -3.125731e+00
   5.302651e+01   6.456832e+01
  -2.924076e+01   1.395425e+02
  -9.095295e+01   1.134679e+02
  -1.658395e+02   1.897806e+01
  -1.306879e+02  -9.572336e+01
  -2.382476e+01  -1.157159e+02
   8.058267e+01  -6.524221e+01
   3.410928e+01   3.091160e+01
  -4.384510e+01   2.959665e+00
  -1.250485e+02  -3.967688e+01
  -7.402690e+01  -1.122088e+02
   6.851856e+01  -1.163868e+02
   1.817007e+02  -3.358700e+01
   1.524603e+02   3.918510e+01
   3.229878e+01   9.454221e+01
  -1.753675e+01   9.642645e+01
  -4.105346e+01  -7.410876e+00
   8.303373e+00  -3.863910e+01
   8.518659e+01   3.440391e+01
   3.637673e+01   1.073358e+02
  -6.597427e+01   1.535920e+02
  -1.797293e+02   6.024241e+01
  -1.432294e+02  -1.212646e+02
  -4.331645e+01  -1.961399e+02
   9.089106e+01  -1.558396e+02
   1.105726e+02   1.673232e+01
   3.420036e+01   1.272512e+02
   1.158990e+01   7.741254e+01
  -3.858142e+01   2.085330e+01
  -6.204901e+01  -2.589991e+01
  -3.829743e+01  -2.366415e+01
  -1.911912e+01   1.760820e+01
  -2.986490e+01  -8.597702e+00
  -7.543566e+01  -1.136502e+02
  -6.586195e+01  -1.035293e+02
   4.245540e+01  -1.374127e+01
   1.261321e+02   2.571014e+01
   1.204334e+02   5.732565e+01
   4.721254e+01   3.814225e+01
  -6.813056e+01   5.560029e+00
  -8.322930e+01   1.350177e+01
  -3.209157e+00  -1.038022e+01
   3.972088e+01  -3.916263e+01
   3.130788e+01  -8.226857e+00
  -3.012320e+01  -1.766798e+01
   2.486181e+01  -1.217820e+01
   7.346905e+01   2.137489e+01
   7.848181e+01   2.582222e+01
  -4.609893e+00   6.471950e+01
  -1.137509e+02   1.455740e+02
  -1.630568e+02   9.374557e+01
  -1.378506e+02  -6.564868e+01
  -2.947512e+01  -1.711192e+02
   1.045625e+02  -1.437230e+02
   7.515908e+01  -7.120248e+01
   8.344648e+01   1.743893e+01
   4.454315e+01   3.263528e+01
   3.483108e+00  -3.889914e+01
   4.196992e+00   1.318340e+01
   3.106119e+01   5.579747e+01
   4.614500e+01   1.402767e+02
  -2.047703e+01   8.551010e+01
  -7.529798e+01  -3.152698e+01
  -7.381087e+01  -9.335390e+01
  -6.089540e+00  -1.241252e+02
   9.742540e+01  -1.165524e+01
   1.116594e+02   6.527402e+01
   1.892564e+01   9.049210e+01
  -8.177789e+01   3.261742e+01
  -7.320198e+01   1.629791e+01
  -6.275479e+01  -6.539550e+01
   1.192408e+01  -7.947233e+01
   3.836151e+01  -5.078595e+01
  -5.415052e+01   1.376710e+01
  -6.485019e+01   5.429994e+00
  -3.766547e+01  -2.934721e+01
   6.725659e+01  -7.716133e+01
   1.296527e+02  -4.347407e+01
   6.971062e+01   2.360406e+01
  -4.459780e+01   5.694009e+01
  -6.125406e+01   9.635946e+01
  -5.309963e+01   2.021233e+01
   3.119280e+00  -5.121505e+01
   2.341116e+01  -5.187446e+01
   4.090847e+01   9.995209e+00
   3.465781e+01   2.310429e+01
  -1.222482e+01   3.502533e+01
  -4.368426e+01  -4.411409e+00
  -3.819630e+01  -1.547907e+01
  -4.732816e+01   2.138980e+01
   6.917386e+00   2.790170e+01
   1.411037e+01   1.048823e+01
  -6.547606e+00  -1.618699e+01
   2.500438e+01  -5.541324e+01
   3.830951e+01  -9.215922e+00
   3.748256e+01   5.287898e+01
  -1.584175e+01   6.635679e+01
  -6.592101e+01   2.811777e+01
  -5.048144e+01  -3.452917e+01
  -2.727354e+00  -4.030732e+01
   5.868737e+01  -2.321105e+01
   9.310226e+01   3.580741e+01
   4.675626e+01   4.389962e+01
  -2.383409e+01   5.013711e+01
  -5.131597e+01   1.228428e+01
  -1.034574e+01  -1.139021e+01
   4.766412e+01   2.774320e+00
   5.378864e+01   2.166750e+01
  -3.678362e+01   3.645269e+01
  -8.515986e+01   5.572525e+00
