
 $NMID
 id='ANONYMOUS ', fmtdat='(2E16.6)'
 volume=1.0
 tramp=1.0
 $END
  -4.468388e+03   4.146644e+02
  -2.676373e+03  -2.716452e+03
   8.058408e+02  -3.020830e+03
   2.297079e+03  -1.067211e+03
   1.098231e+03   8.982303e+02
  -6.668921e+02   7.316576e+02
  -1.049894e+03  -3.833641e+02
  -8.105757e+01  -1.168155e+03
   9.144473e+02  -7.940553e+02
   1.080231e+03   1.040518e+02
   4.212474e+02   1.001664e+03
  -2.896194e+02   9.811179e+02
  -7.234014e+02   1.631355e+02
  -5.242823e+02  -7.553433e+02
   3.369590e+02  -8.477628e+02
   6.692805e+02  -3.752867e+01
   3.019617e+02   7.253543e+02
  -3.897684e+02   6.634165e+02
  -6.614561e+02   4.808883e+01
  -4.490582e+02  -4.109192e+02
  -6.362334e+01  -4.985280e+02
   2.406432e+02  -2.791616e+02
   2.177653e+02  -1.147272e+01
  -1.107604e+02   1.270227e+02
  -4.579562e+02  -5.583099e+01
  -2.228052e+02  -4.185643e+02
   4.736827e+02  -5.455856e+02
   8.824843e+02   3.165423e+01
   4.852184e+02   5.308572e+02
  -4.118410e+02   5.350810e+02
  -8.135615e+02  -3.355658e+01
  -3.706634e+02  -4.652494e+02
   2.861977e+02  -5.698344e+02
   6.327160e+02  -2.308712e+02
   4.499170e+02   2.351940e+02
   8.475979e+01   5.156397e+02
  -2.057480e+02   3.309247e+02
  -2.129142e+02  -2.765751e+02
   1.333128e+02  -4.728478e+02
   4.626441e+02  -2.486142e+01
   2.558168e+02   7.153662e+02
  -2.988280e+02   7.749642e+02
  -6.310689e+02   1.484374e+01
  -3.184138e+02  -6.289689e+02
   2.649387e+02  -4.062486e+02
   4.374633e+02   3.260988e+02
  -5.109614e+01   5.653192e+02
  -6.036378e+02   1.616782e+02
  -6.717312e+02  -4.400860e+02
  -1.619489e+02  -6.152405e+02
   4.383582e+02  -4.399852e+02
   6.313993e+02   7.256828e+01
   4.196943e+02   4.178168e+02
  -1.414726e+02   4.033382e+02
  -4.931219e+02   8.280537e+01
  -2.946812e+02  -2.363226e+02
   1.275523e+02  -1.381358e+02
   1.717880e+02   1.556540e+02
  -1.697433e+02   1.893655e+02
  -3.541269e+02  -5.480281e+01
  -1.643024e+02  -3.171574e+02
   2.274748e+02  -2.814219e+02
   3.867163e+02  -9.071429e+01
   1.982522e+02   8.856398e+01
  -1.517453e+01   2.062088e+02
  -1.870734e+02   3.477749e+02
  -3.423045e+02   2.248476e+02
  -3.325416e+02  -1.375925e+02
  -7.765513e+01  -5.028419e+02
   1.160353e+02  -4.174979e+02
   1.325715e+02  -1.159465e+02
   2.581134e+01   3.090246e+01
   1.307476e+01  -7.027703e+01
   1.492687e+02  -1.299795e+02
   3.390917e+02   2.029513e+01
   2.002885e+02   2.749238e+02
  -4.258279e+01   2.715615e+02
  -2.725033e+02   6.215421e+01
  -2.235720e+02  -2.346587e+02
   2.366341e+01  -3.208072e+02
   2.496569e+02  -1.290549e+02
   3.961274e+02   1.694818e+02
   1.976991e+02   3.360793e+02
  -7.697859e+01   3.111916e+02
  -2.346091e+02   1.448556e+02
  -1.912609e+02   2.011633e+00
  -9.633063e+01   4.605423e+00
  -2.492461e+02   5.866111e+01
  -4.032319e+02  -3.937176e+01
  -3.367514e+02  -3.008497e+02
  -7.656438e+00  -4.570000e+02
   3.778147e+02  -4.614498e+02
   5.417015e+02  -2.160807e+02
   3.575183e+02   9.110151e+01
   8.323117e+01   3.021678e+02
  -1.438679e+02   2.689753e+02
  -9.540637e+01   6.567952e+01
   1.086357e+02  -1.326316e+02
   2.214305e+02   1.112198e+01
   7.584870e+01   1.876988e+02
  -1.573959e+02   1.923223e+02
  -2.125918e+02  -5.823143e+01
   5.964184e+00  -2.105601e+02
   2.183061e+02  -3.894474e+01
   1.748948e+02   2.401480e+02
  -1.638180e+01   3.583303e+02
  -2.406463e+02   1.970866e+02
  -3.313709e+02  -8.851951e+01
  -2.986715e+02  -2.436163e+02
  -1.184336e+02  -2.653275e+02
   1.468483e+02  -2.114331e+02
   1.694093e+02  -2.975298e+01
   5.946404e+01   3.100057e+01
  -7.701958e+01  -5.005045e+01
  -6.328225e+01  -1.254109e+02
   1.377768e+02  -1.026506e+02
   1.885489e+02   8.687979e+00
   5.189340e+01   6.864701e+01
  -6.969744e+01   4.951752e+00
  -4.323485e+01  -7.246112e+01
   1.222288e+02  -8.282996e+01
   2.879664e+02  -3.024329e+01
   2.242461e+02   1.178214e+02
   5.453023e+01   2.418812e+02
  -2.035940e+02   2.628295e+02
  -3.040408e+02   1.319385e+02
  -2.093237e+02  -3.644619e+01
  -9.454107e+00  -9.375147e+01
   9.142347e+01   2.617264e+00
  -6.163123e+00   1.266533e+02
  -2.066525e+02   7.002985e+01
  -2.390443e+02  -8.745608e+01
  -8.788850e+01  -2.269899e+02
   7.770371e+01  -1.905808e+02
   1.675046e+02  -4.520760e+01
   8.572867e+01   6.545445e+01
  -4.436516e+01  -1.967256e+01
  -4.792207e+01  -7.881720e+01
   7.549305e+01  -1.095325e+02
   2.002566e+02  -5.655504e+01
   1.995197e+02   1.133419e+02
   1.877001e+01   2.398088e+02
  -1.748219e+02   1.713115e+02
  -2.173071e+02   4.049354e+01
  -6.002538e+01  -1.215915e+02
   8.215018e+01  -1.362110e+02
   9.582874e+01  -3.062243e+01
   2.468596e+01   1.943762e+01
  -1.067637e+01   9.756420e+00
   1.869291e+01  -2.690023e+01
   6.153981e+01   5.893163e+01
   8.832909e+01   7.666232e+01
   1.561739e+01   1.588522e+02
  -1.224733e+02   1.769541e+02
  -2.497275e+02   3.229793e+01
  -2.089766e+02  -1.551763e+02
  -5.569583e+01  -2.166727e+02
   1.042425e+02  -1.845911e+02
   1.475883e+02  -3.695855e+01
   5.908823e+01   5.255093e+01
   3.490893e+01   3.001191e+01
   6.469989e+01   7.135141e-01
   7.887579e+01  -8.147671e+00
   3.222710e+01   6.480394e+01
  -2.377578e+01   1.321313e+02
  -1.058439e+02   5.730786e+01
  -8.697796e+01  -6.421960e+01
  -6.357234e+00  -9.881412e+01
   1.268699e+02  -7.495203e+01
   2.045436e+02   1.286933e+01
   1.161896e+02   2.080780e+02
  -9.654620e+01   2.499754e+02
  -2.722337e+02   1.293456e+02
  -2.767028e+02  -7.376262e+01
  -1.003703e+02  -1.705251e+02
   4.957234e+01  -1.784811e+02
   7.570587e+01  -9.671732e+01
   7.098311e+01  -9.200236e+01
   6.609464e+01  -6.876425e+01
   8.160519e+01  -6.415762e+01
   1.150636e+02   3.887772e+01
   1.365108e+02   1.631271e+02
   1.268732e+01   2.201431e+02
  -8.432923e+01   1.752715e+02
  -1.788723e+02   3.029670e+01
  -1.538256e+02  -1.261532e+02
  -3.083274e+01  -1.657623e+02
   6.450851e+01  -1.047774e+02
   4.555877e+01  -1.654356e+00
  -5.150897e+00   8.605645e+01
  -3.786799e+00   6.397715e+01
   3.196118e+01  -1.449070e+01
   1.022250e+02   8.702400e+00
   4.815152e+01   4.190185e+01
  -8.162827e+01   2.870373e+01
  -1.482242e+02  -6.183617e+00
  -1.520215e+02  -5.300401e+01
  -1.877126e+01  -8.525852e+01
   1.293582e+02  -9.593391e+01
   1.439822e+02  -9.073833e+00
   4.017513e+01   4.088928e+01
  -7.987567e+01   2.257962e+01
  -8.373185e+01  -4.378235e+01
  -7.563921e+00  -7.346617e+01
   5.586907e+01  -7.006292e+01
   4.867468e+01   4.319069e+01
   4.851272e+01   6.216788e+01
   2.593499e+01   4.951127e+01
   4.908558e+01   1.776226e+01
   1.050814e+02  -2.939211e+01
   3.590899e+01   6.602174e+01
  -5.033506e+01   1.374709e+02
  -1.296470e+02   1.474781e+02
  -1.604824e+02   3.631752e+01
  -1.327449e+02  -1.289212e+02
  -1.393998e-01  -1.295831e+02
   7.987075e+01  -9.946300e+01
   6.907101e+01   2.283069e+01
  -5.456458e+01   6.310780e+00
  -1.109413e+02  -3.958571e+01
  -7.872971e+01  -1.180378e+02
   8.140711e+01  -1.118280e+02
   1.997101e+02  -3.990900e+01
   1.723769e+02   2.203735e+01
   4.616321e+01   6.939237e+01
  -4.347704e+01   1.022468e+02
  -2.626881e+01  -2.240401e+00
   3.743874e+01  -1.580698e+01
   9.097293e+01   3.546792e+01
   5.673650e+01   1.432128e+02
  -8.109457e+01   1.606220e+02
  -1.883330e+02   7.074586e+01
  -1.363305e+02  -1.133043e+02
  -3.643771e+01  -1.919785e+02
   6.838039e+01  -1.487278e+02
   1.385282e+02  -4.916285e+00
   7.807401e+01   1.038463e+02
   4.117305e+00   8.686603e+01
  -3.637926e+01   1.487839e+01
  -7.018178e+01  -2.494460e+01
  -3.751416e+01  -8.163199e-02
  -1.441909e-01   1.676823e+01
   1.901459e+00  -2.462643e+01
  -8.095671e+01  -9.819034e+01
  -4.800247e+01  -1.047597e+02
   4.004803e+01  -6.227351e+01
   1.688260e+02   5.198529e+01
   1.355604e+02   7.209090e+01
   2.171415e+01   6.541156e+01
  -9.227069e+01   3.311074e+01
  -7.689213e+01  -3.487457e+00
  -7.296613e+00  -1.153492e+01
   3.942779e+01  -4.451700e+01
   4.436066e+00   1.007135e+01
  -1.820235e+01  -1.472277e+00
   2.882984e+00  -2.531923e+01
   3.008354e+01  -1.818917e+01
   1.284185e+02   6.669882e+01
   2.035547e+00   9.965560e+01
  -1.129332e+02   1.174639e+02
  -1.828154e+02   5.434761e+01
  -1.354057e+02  -6.217153e+01
  -2.903688e+01  -1.524960e+02
   7.269397e+01  -1.578164e+02
   1.344053e+02  -5.639163e+01
   1.017141e+02   2.403714e+01
   3.463534e+01   4.746132e+01
  -9.474836e+00   1.365375e+01
  -5.128532e-01  -9.162427e+00
   1.784725e+01   3.164535e+01
   2.324336e+01   9.996508e+01
  -3.222679e+01   5.364456e+01
  -7.283189e+01  -9.461116e+00
  -3.291274e+01  -1.214864e+02
  -1.758432e+01  -1.390956e+02
   9.076416e+01  -2.120749e+01
   9.628280e+01   7.466719e+01
   3.160189e+01   1.028609e+02
  -7.729888e+01   6.612358e+01
  -1.091362e+02  -2.150747e+01
  -1.791107e+01  -6.996009e+01
   2.793364e+01  -6.824687e+01
   2.137700e+01  -1.895555e+01
  -4.071353e+01   8.845447e+00
  -3.235870e+01   1.582732e+01
  -1.387927e+00  -3.058565e+01
   6.932413e+01  -6.249086e+01
   1.339054e+02  -6.746556e+01
   9.639449e+01   1.753711e+01
  -6.601649e+00   9.614015e+01
  -6.157316e+01   7.007560e+01
  -3.004703e+01   1.703646e+00
   5.259859e+00  -3.599972e+01
   2.295854e+01  -4.439218e+01
   3.514805e+01   1.972371e+01
   2.078499e+01   4.532290e+01
  -8.216216e+00   3.870192e+01
  -4.474223e+01  -3.324136e+00
  -1.834690e+01  -8.023654e+00
  -2.942552e+01   6.042288e+00
   1.412343e+01   3.546605e+01
  -6.690739e+00  -7.309101e+00
   1.191482e+01  -6.643181e+01
  -6.987950e+00  -4.218907e+01
   5.810609e+01  -1.144829e+01
   3.834202e+01   8.600597e+01
  -1.069796e+01   9.456214e+01
  -5.496664e+01  -1.188066e+01
  -5.303132e+01  -4.005556e+01
  -2.576242e+01  -4.199061e+01
   4.141274e+01  -4.109313e+01
   9.885573e+01   1.619750e+01
   8.050943e+01   5.935185e+01
  -5.403153e+01   6.470490e+01
  -7.675602e+01   4.339273e+01
  -3.886277e+01  -6.457822e+00
   3.730131e+01   1.424336e+01
   4.973835e+01   1.682154e+01
  -3.438897e+01   9.862306e+00
  -9.924837e+01   1.965339e+01
