
 $NMID
 id='ANONYMOUS ', fmtdat='(2E16.6)'
 volume=1.0
 tramp=1.0
 $END
   4.414921e+03  -2.728594e+02
   2.612876e+03   2.767976e+03
  -7.722550e+02   2.826195e+03
  -2.329854e+03   9.731443e+02
  -1.022674e+03  -9.004104e+02
   7.407310e+02  -7.197053e+02
   1.044134e+03   4.052200e+02
   3.484315e+01   1.134886e+03
  -9.227894e+02   8.409423e+02
  -1.057780e+03  -1.579941e+02
  -4.139909e+02  -9.695701e+02
   3.044264e+02  -9.479352e+02
   7.177224e+02  -1.620963e+02
   5.443146e+02   8.064907e+02
  -3.501182e+02   8.616605e+02
  -6.729973e+02   6.061147e+01
  -2.983355e+02  -7.244938e+02
   3.756952e+02  -6.577649e+02
   6.251736e+02  -4.574810e+01
   4.411116e+02   3.711639e+02
   5.048822e+01   4.774591e+02
  -2.242844e+02   2.650667e+02
  -2.297221e+02   5.664903e+01
   1.213560e+02  -1.426825e+02
   4.524245e+02   8.620053e+01
   2.237546e+02   4.247566e+02
  -5.148109e+02   5.463645e+02
  -8.683412e+02  -6.241604e+01
  -4.585480e+02  -5.679014e+02
   4.468649e+02  -5.341837e+02
   7.904273e+02   4.823061e+01
   3.892152e+02   4.598112e+02
  -2.859860e+02   5.364700e+02
  -6.006590e+02   2.730204e+02
  -4.320002e+02  -2.357473e+02
  -7.446548e+01  -5.498280e+02
   2.182884e+02  -3.294163e+02
   2.482486e+02   2.699914e+02
  -1.460506e+02   4.577554e+02
  -4.667473e+02  -4.970047e+00
  -2.217988e+02  -7.280468e+02
   2.987293e+02  -8.036073e+02
   5.911177e+02  -1.951663e+01
   3.211302e+02   6.148452e+02
  -3.078973e+02   3.897110e+02
  -4.193081e+02  -3.514588e+02
   4.783709e+01  -5.822443e+02
   5.928923e+02  -1.501191e+02
   6.297833e+02   4.387576e+02
   1.738887e+02   5.932838e+02
  -4.015540e+02   4.076106e+02
  -6.363987e+02  -8.169014e+01
  -3.907545e+02  -4.186638e+02
   1.444002e+02  -4.053378e+02
   4.909247e+02  -6.803435e+01
   2.675561e+02   2.313201e+02
  -1.325270e+02   1.225950e+02
  -1.728147e+02  -1.599056e+02
   1.744615e+02  -1.687502e+02
   3.619237e+02   4.430219e+01
   1.456774e+02   3.295565e+02
  -2.238097e+02   2.816440e+02
  -3.509640e+02   7.108296e+01
  -1.895240e+02  -1.096343e+02
   2.264031e+01  -2.056526e+02
   1.815976e+02  -4.064718e+02
   3.463560e+02  -2.421218e+02
   3.282222e+02   1.285274e+02
   1.031947e+02   4.700776e+02
  -1.242168e+02   4.288045e+02
  -1.439339e+02   1.149145e+02
   6.031422e+00  -2.600517e+01
  -3.039591e+01   9.409433e+01
  -1.948481e+02   1.436808e+02
  -3.221590e+02  -1.704547e+01
  -1.968371e+02  -2.692966e+02
   7.650009e+01  -3.094841e+02
   2.337394e+02  -2.689934e+01
   2.394817e+02   2.260453e+02
   9.368450e+00   3.012163e+02
  -2.813806e+02   1.251290e+02
  -3.683387e+02  -1.543475e+02
  -2.095603e+02  -3.363440e+02
   1.035634e+02  -3.057992e+02
   2.503317e+02  -1.193756e+02
   1.646606e+02   2.011314e+01
   1.104281e+02  -2.553647e+01
   2.493364e+02  -5.856558e+01
   4.195168e+02   3.123373e+01
   3.594534e+02   2.974411e+02
  -6.943824e+00   4.652576e+02
  -3.872346e+02   4.709427e+02
  -5.401819e+02   2.281544e+02
  -3.460529e+02  -6.595136e+01
  -8.363790e+01  -3.156000e+02
   1.270133e+02  -2.572710e+02
   8.124515e+01  -4.186494e+01
  -9.756658e+01   1.091156e+02
  -2.241317e+02   1.042220e+01
  -4.457734e+01  -2.003487e+02
   1.557691e+02  -1.992148e+02
   1.833276e+02   4.492178e+01
  -4.109518e+01   1.952920e+02
  -2.323222e+02   4.064595e+01
  -1.909077e+02  -2.531220e+02
  -8.551069e+00  -3.645320e+02
   2.043254e+02  -1.889675e+02
   3.448629e+02   1.052675e+02
   2.737918e+02   2.462230e+02
   1.030831e+02   2.524597e+02
  -1.069767e+02   1.717707e+02
  -2.209511e+02   5.114997e+01
  -6.791219e+01  -2.728346e+01
   1.016157e+02   4.519444e+01
   4.254576e+01   1.405253e+02
  -1.298902e+02   1.023912e+02
  -1.979568e+02   9.396751e+00
  -7.130910e+01  -6.561174e+01
   6.975431e+01  -2.600051e+01
   4.706038e+01   6.198038e+01
  -1.210308e+02   8.376917e+01
  -2.677401e+02   4.709713e+01
  -2.482786e+02  -9.321030e+01
  -8.793090e+01  -2.526858e+02
   1.880737e+02  -2.531830e+02
   2.758843e+02  -1.310548e+02
   2.003168e+02   6.482258e+01
  -4.129413e+01   8.212493e+01
  -8.959494e+01  -6.910834e+00
   1.211156e+01  -1.207220e+02
   2.149409e+02  -6.702045e+01
   2.375311e+02   6.986766e+01
   9.828795e+01   2.516911e+02
  -7.652003e+01   1.869876e+02
  -1.611819e+02   6.060958e+01
  -9.416763e+01  -4.216432e+01
   2.057617e+01  -1.401967e+01
   5.374855e+01   7.798342e+01
  -6.391651e+01   8.838971e+01
  -2.101542e+02   5.915589e+01
  -2.015698e+02  -1.167056e+02
  -1.768015e+01  -2.496092e+02
   1.719808e+02  -1.869432e+02
   2.251134e+02  -2.296281e+01
   7.001043e+01   1.175764e+02
  -8.322611e+01   1.248227e+02
  -1.034181e+02   4.228586e+01
  -8.728956e+00   1.187156e+01
   3.799323e+01   1.750974e+00
  -3.227998e+01   5.401510e+00
  -7.276916e+01  -4.730043e+01
  -9.033188e+01  -9.097472e+01
  -5.422618e+01  -1.863972e+02
   1.256296e+02  -1.419993e+02
   2.651367e+02  -2.596146e+01
   2.042647e+02   1.554469e+02
   4.384697e+01   2.521735e+02
  -9.460392e+01   1.867619e+02
  -1.432576e+02   5.750658e+01
  -6.620245e+01  -5.730279e+01
  -1.567851e+01  -3.476183e+01
  -7.000168e+01   1.448683e+00
  -6.980144e+01   1.076110e+01
  -5.208883e+01  -6.720241e+01
   3.507472e+01  -9.318237e+01
   1.184478e+02  -4.951401e+01
   1.233929e+02   7.435218e+01
  -4.450266e+00   1.139511e+02
  -1.256272e+02   1.154808e+02
  -2.090164e+02  -1.466016e+01
  -1.122629e+02  -2.295190e+02
   1.013353e+02  -2.396138e+02
   2.619148e+02  -1.098803e+02
   2.779732e+02   6.040822e+01
   1.357529e+02   1.605266e+02
  -4.869874e+01   1.831861e+02
  -1.009840e+02   1.076222e+02
  -6.982348e+01   1.233609e+02
  -7.232238e+01   8.491833e+01
  -8.963969e+01   1.056833e+02
  -9.512769e+01  -4.240102e+01
  -1.281216e+02  -1.513843e+02
  -4.079878e+00  -2.289328e+02
   6.918152e+01  -1.773200e+02
   2.012892e+02  -5.631866e+01
   1.405327e+02   1.406816e+02
   1.986767e+01   1.653970e+02
  -7.112090e+01   9.226047e+01
  -5.264814e+01   4.161598e-01
   6.701584e+00  -4.825536e+01
   4.087795e+00  -2.648408e+01
  -2.154716e+01  -1.492587e+01
  -1.238305e+02  -2.182267e+01
  -3.068264e+01  -2.754850e+01
   4.810357e+01  -5.028460e+01
   1.378063e+02   1.572495e+01
   1.353866e+02   4.077388e+01
   4.075779e+01   8.311733e+01
  -9.509429e+01   9.167747e+01
  -1.542067e+02   8.215756e+00
  -4.279456e+01  -4.713455e+01
   1.051413e+02  -2.929219e+01
   1.320228e+02   4.008992e+01
   2.149803e+01   7.564271e+01
  -2.751703e+01   4.906142e+01
  -7.454494e+01  -4.509499e+00
  -3.645449e+01  -7.724835e+01
  -7.095746e+01  -5.807119e+01
  -7.303186e+01   2.198819e+00
  -1.082301e+02   1.554236e+00
  -3.674193e+01  -1.052268e+02
   2.245231e+01  -1.458094e+02
   1.294866e+02  -1.423294e+02
   1.662127e+02  -2.785116e+01
   1.579391e+02   1.036340e+02
   1.490351e+01   1.242186e+02
  -6.520501e+01   3.547270e+01
  -7.992902e+01  -1.160036e+01
   4.816049e+01  -1.671820e+01
   1.445784e+02   5.546442e+01
   8.204643e+01   1.328133e+02
  -7.106743e+01   1.171525e+02
  -1.938650e+02   4.046232e+01
  -1.618829e+02  -4.072619e+01
  -1.309279e+01  -8.221686e+01
   6.514572e+01  -6.536744e+01
   4.847725e+01   1.722980e+01
  -7.172782e+01   6.812159e+00
  -9.623806e+01  -1.068391e+01
  -4.853240e+01  -1.328668e+02
   9.417624e+01  -1.867938e+02
   1.817907e+02  -8.338004e+01
   1.475815e+02   1.016054e+02
   1.018931e+01   2.115406e+02
  -5.565026e+01   1.204758e+02
  -1.061601e+02  -2.053460e+01
  -6.185980e+01  -1.203187e+02
  -1.677655e+01  -1.071287e+02
   2.071276e+01   3.335568e+00
   6.148123e+01   3.582010e+01
   5.698670e+01   1.824427e+01
  -3.146879e+01  -4.450808e+01
   1.375691e+01   3.730269e+01
   5.936553e+01   9.049739e+01
   3.677396e+01   1.302729e+02
  -3.982620e+01   4.752985e+01
  -1.470276e+02  -4.520189e+01
  -1.539762e+02  -5.913174e+01
  -2.916814e+01  -3.671237e+01
   9.586281e+01  -6.644937e+01
   6.550501e+01  -2.492009e+01
   8.411967e+00   1.264200e+01
  -3.804697e+01   2.270564e+01
   1.005773e+01  -1.544491e+00
  -1.547917e+00   1.472296e+01
  -7.839995e+00  -1.361421e+01
  -5.519137e+01   4.113374e+00
  -1.284625e+02  -2.858783e+01
  -1.873774e+01  -1.196085e+02
   1.112035e+02  -1.238846e+02
   1.780827e+02  -5.618907e+01
   1.169045e+02   8.417406e+01
   1.699800e+01   1.617085e+02
  -8.123751e+01   1.358390e+02
  -8.145553e+01   7.543129e+01
  -7.472701e+01  -8.699275e+00
  -2.456721e+01  -3.380267e+01
   1.675296e+01  -2.722288e+00
   2.788976e+00  -2.671434e+01
  -3.644023e+01  -3.550799e+01
   1.357665e+01  -9.234767e+01
   3.458316e+01  -4.945375e+01
   7.006161e+01   1.365873e+01
   5.823684e+01   1.031691e+02
   2.425503e+01   1.081296e+02
  -8.119171e+01   3.185245e+01
  -1.007815e+02  -9.890400e+01
  -3.208058e+01  -9.893938e+01
   5.906549e+01  -7.729204e+01
   9.901882e+01   2.824585e+01
   2.338163e+01   7.309749e+01
  -3.428284e+01   5.478657e+01
  -4.539985e+01   2.062538e+01
   2.165904e+01   4.765896e+00
   3.355733e+01   1.987588e+01
   1.303799e+00  -6.095351e+00
  -8.421110e+01   5.251400e+01
  -1.063582e+02   5.909465e+01
  -9.324647e+01   2.063190e+01
   1.241149e+01  -9.271566e+01
   3.247048e+01  -8.259493e+01
   5.890156e+01   1.035842e+01
   2.740455e+01   5.821776e+01
  -1.114517e+01   5.627011e+01
  -4.037776e+01  -2.245028e+01
  -3.555031e+01  -4.865096e+01
  -1.193107e+01  -2.530388e+01
   5.191158e+01   5.074575e+00
   2.538092e+01   2.608154e+01
   2.031964e+01  -2.567859e+00
  -5.732973e+00  -1.054229e+01
   2.795081e+00   1.748049e+01
   5.702139e+00   3.755424e+01
  -2.218260e+01   5.498653e+01
  -4.132263e+01   3.182858e-02
  -3.995564e+01  -3.760638e+01
  -1.655586e+01  -3.825574e+01
   7.458710e+01   7.810966e+00
   5.792170e+01   4.241003e+01
   2.368975e+01   6.688995e+01
  -5.298411e+01   3.849621e+01
  -8.462717e+01  -8.033266e+00
  -8.262772e+01  -3.085531e+01
   3.624951e+01  -3.782218e+01
   7.690656e+01  -3.503894e+01
   2.829120e+01   1.217389e+01
  -1.546613e+01  -4.820374e+00
  -4.834714e+01  -2.631959e+01
   5.460821e+01  -1.637378e+01
   8.836678e+01  -1.025682e+01
