
 $NMID
 id='ANONYMOUS ', fmtdat='(2E16.6)'
 volume=1.0
 tramp=1.0
 $END
   4.519435e+03  -1.802640e+02
   2.488341e+03   2.748748e+03
  -8.762070e+02   2.867092e+03
  -2.358648e+03   9.498270e+02
  -9.945890e+02  -8.228973e+02
   6.723845e+02  -6.541840e+02
   1.002410e+03   4.260718e+02
   4.895896e+01   1.090889e+03
  -9.850958e+02   7.359088e+02
  -1.045203e+03  -1.867416e+02
  -3.887522e+02  -9.477756e+02
   3.715592e+02  -9.543763e+02
   6.648931e+02  -1.540314e+02
   4.993257e+02   7.863376e+02
  -3.177022e+02   8.059536e+02
  -6.560155e+02   2.690250e+01
  -2.947298e+02  -7.712605e+02
   3.410609e+02  -6.632878e+02
   6.074919e+02  -8.073339e+01
   4.426497e+02   3.980885e+02
   1.104625e+01   4.944315e+02
  -2.539480e+02   2.729258e+02
  -2.434652e+02   9.176447e+01
   1.085208e+02  -1.478231e+02
   4.750680e+02   7.985562e+01
   2.409738e+02   4.265204e+02
  -4.651587e+02   5.397690e+02
  -9.063726e+02  -9.909949e+01
  -5.074814e+02  -5.727603e+02
   4.473201e+02  -5.407669e+02
   7.644664e+02   8.726791e+00
   4.023173e+02   4.804079e+02
  -2.836176e+02   5.621512e+02
  -5.845977e+02   2.581939e+02
  -4.205740e+02  -2.308307e+02
  -7.994349e+01  -5.215861e+02
   2.419074e+02  -3.133450e+02
   2.691462e+02   2.728473e+02
  -1.099057e+02   4.764324e+02
  -4.543846e+02   1.434621e+01
  -2.431348e+02  -7.539742e+02
   2.844166e+02  -7.788556e+02
   6.282574e+02   1.242830e+01
   3.092115e+02   6.209483e+02
  -3.459320e+02   3.574655e+02
  -4.392145e+02  -2.984633e+02
   6.786905e+01  -5.586394e+02
   5.766640e+02  -1.506848e+02
   6.350042e+02   4.191513e+02
   1.634115e+02   5.524997e+02
  -3.940637e+02   4.060378e+02
  -6.132388e+02  -4.994743e+01
  -3.787266e+02  -3.634924e+02
   1.456199e+02  -4.097626e+02
   4.935270e+02  -5.377273e+01
   2.725953e+02   2.577767e+02
  -1.310666e+02   1.600847e+02
  -1.827318e+02  -1.577445e+02
   1.698635e+02  -2.276385e+02
   3.524519e+02   3.229070e+01
   1.252026e+02   3.466393e+02
  -2.267743e+02   2.718492e+02
  -3.497078e+02   8.860501e+01
  -2.016796e+02  -1.010645e+02
   1.964880e+01  -1.959456e+02
   1.907285e+02  -2.942555e+02
   3.119933e+02  -2.351852e+02
   2.996947e+02   1.303752e+02
   9.255617e+01   4.808122e+02
  -1.235440e+02   3.670489e+02
  -1.484129e+02   1.082597e+02
  -2.375087e+01  -3.116541e+01
  -2.913480e+01   7.144214e+01
  -1.869159e+02   1.384304e+02
  -2.922211e+02  -3.840690e+01
  -1.991002e+02  -2.611210e+02
   5.307866e+01  -2.687176e+02
   2.500401e+02  -3.146443e+01
   2.188841e+02   2.161041e+02
   1.834716e+01   2.690065e+02
  -2.853004e+02   1.286049e+02
  -3.752456e+02  -1.517449e+02
  -1.917638e+02  -3.057975e+02
   1.180395e+02  -2.936465e+02
   2.298055e+02  -1.436526e+02
   1.569761e+02   1.858854e+01
   9.714043e+01  -3.912214e+01
   2.528942e+02  -9.335068e+01
   3.952839e+02   6.136207e+01
   3.363476e+02   2.602036e+02
   8.104835e+00   4.316304e+02
  -3.841202e+02   4.520217e+02
  -5.129493e+02   2.292203e+02
  -3.518057e+02  -1.298707e+02
  -5.883431e+01  -3.080904e+02
   1.315687e+02  -2.572755e+02
   9.443109e+01  -2.447536e+01
  -1.043360e+02   8.456651e+01
  -2.289490e+02  -7.966660e+00
  -5.417632e+01  -2.062900e+02
   1.436058e+02  -1.935981e+02
   2.003853e+02   7.488611e+01
  -4.894843e+01   2.055224e+02
  -2.283251e+02   2.465195e+01
  -1.862509e+02  -2.337912e+02
   6.260823e+00  -3.560459e+02
   2.321989e+02  -1.641241e+02
   3.464405e+02   8.166381e+01
   2.632543e+02   2.387908e+02
   9.822770e+01   2.734982e+02
  -9.238790e+01   1.503176e+02
  -1.875145e+02   5.991582e+01
  -7.390919e+01  -1.002980e+01
   1.008745e+02   3.122735e+01
   1.026949e+01   1.297898e+02
  -1.065923e+02   1.243498e+02
  -1.844984e+02   1.673197e+01
  -7.123623e+01  -7.830475e+01
   4.792024e+01  -2.823845e+01
   8.022690e+01   6.889756e+01
  -1.031999e+02   7.250061e+01
  -2.738149e+02   3.431868e+01
  -2.485907e+02  -1.211180e+02
  -7.940717e+01  -2.590028e+02
   1.934317e+02  -2.523903e+02
   2.977477e+02  -9.927638e+01
   2.105785e+02   4.475730e+01
  -4.460253e+01   1.062056e+02
  -9.277697e+01   1.681571e+01
   4.767260e+01  -9.381264e+01
   1.880036e+02  -4.224555e+01
   2.367943e+02   8.786994e+01
   8.145945e+01   2.011796e+02
  -1.067071e+02   1.926895e+02
  -1.527502e+02   1.990770e+01
  -8.592278e+01  -2.530490e+01
   2.647302e+01  -3.319040e+01
   6.979266e+01   6.805157e+01
  -6.018264e+01   1.045002e+02
  -1.852342e+02   4.120807e+01
  -1.808440e+02  -9.346858e+01
  -2.508708e+01  -2.447095e+02
   1.668678e+02  -1.310989e+02
   1.851636e+02  -2.092242e+01
   5.516320e+01   1.106990e+02
  -7.933581e+01   1.363074e+02
  -6.376185e+01   4.709366e+01
   1.234954e+00  -3.490619e+01
  -4.562085e+00  -2.299082e+01
  -7.910366e+00   7.573792e-01
  -5.404710e+01   2.417949e+01
  -7.684581e+01  -6.751680e+01
  -3.848053e+01  -1.652715e+02
   1.354008e+02  -1.531450e+02
   2.600909e+02  -1.189581e+01
   1.799084e+02   1.234534e+02
   6.564218e+01   2.550133e+02
  -8.994294e+01   1.866078e+02
  -1.460485e+02   1.913038e+01
  -7.394815e+01  -5.719952e+01
  -2.889689e+01  -4.756080e+01
  -4.889805e+01   1.325791e+01
  -9.945398e+01  -5.028996e+00
  -3.324756e+01  -4.225041e+01
   3.497788e+01  -9.225488e+01
   8.510218e+01  -7.350711e+01
   8.389401e+01   3.150429e+01
   6.058028e+00   1.093695e+02
  -1.195344e+02   9.529485e+01
  -1.794662e+02  -9.398106e+00
  -1.056325e+02  -1.986292e+02
   8.989594e+01  -2.450906e+02
   2.723318e+02  -7.460321e+01
   2.595539e+02   6.873341e+01
   1.092291e+02   1.362925e+02
  -9.595572e+00   1.645623e+02
  -8.227055e+01   1.063475e+02
  -8.733310e+01   8.201703e+01
  -5.889477e+01   8.661925e+01
  -1.138299e+02   8.766044e+01
  -1.318815e+02  -6.844521e+00
  -1.059571e+02  -1.534372e+02
  -2.768684e+01  -2.257129e+02
   8.266742e+01  -1.731448e+02
   1.910676e+02  -6.670457e+01
   1.500384e+02   1.192371e+02
  -1.732382e+01   1.528532e+02
  -5.788690e+01   1.031890e+02
  -3.790432e+01   1.587679e+01
   1.326519e-01  -5.770540e+01
  -6.811719e+00  -3.157233e+01
  -4.467651e+01  -2.524222e-01
  -9.455457e+01  -1.981874e+01
  -2.487184e+01  -3.332845e+01
   6.150000e+01  -4.145691e+01
   1.358125e+02  -3.893223e+01
   1.185140e+02   1.228491e+01
   2.058911e+01   9.865814e+01
  -1.009048e+02   7.362607e+01
  -1.548253e+02   3.796427e+01
  -4.549299e+01  -6.910485e+01
   5.830199e+01  -4.684226e+01
   6.426276e+01   1.580194e+01
   5.739928e+00   7.863540e+01
  -7.551471e+01   5.539955e+01
  -1.089818e+02  -9.710822e+00
  -6.076474e+01  -8.457309e+01
  -4.578311e+01  -4.313148e+01
  -7.824780e+01  -9.413679e+00
  -6.893445e+01  -4.115516e+00
  -2.725024e+01  -6.938474e+01
   4.388734e+01  -1.467633e+02
   7.540015e+01  -1.399050e+02
   1.554281e+02  -2.346842e+01
   1.484385e+02   6.048420e+01
   5.365650e+00   1.138004e+02
  -7.266214e+01   4.104564e+01
  -2.944544e+01  -1.011841e+01
   8.404643e+01   5.754819e+00
   1.422411e+02   4.334565e+01
   7.711623e+01   1.097829e+02
  -7.321882e+01   9.501814e+01
  -1.757755e+02   3.877421e+01
  -1.890497e+02  -2.198997e+01
  -2.559506e+01  -7.791261e+01
   4.401002e+01  -5.126700e+01
   4.824593e+01   1.068452e+01
  -1.443626e+01  -1.151793e+01
  -7.830157e+01  -3.263686e+01
  -5.916671e+01  -1.140424e+02
   1.124962e+02  -1.546445e+02
   1.918552e+02  -6.315314e+01
   1.394397e+02   9.036891e+01
   5.501099e+00   1.884345e+02
  -6.594582e+01   1.515358e+02
  -9.518255e+01  -5.025118e+00
  -7.367454e+01  -1.141403e+02
  -1.434583e+01  -1.218483e+02
   2.703954e+01   1.222947e+01
   5.530034e+01   4.629882e+01
   1.874008e+01   6.525480e+00
  -9.688136e+00   6.411452e+00
   2.774779e+01   3.350425e+01
   4.509182e+01   8.696306e+01
   4.266323e+01   1.091168e+02
  -5.612901e+01   5.861140e+01
  -1.529395e+02  -3.822619e+01
  -1.236879e+02  -5.440767e+01
  -3.637707e+01  -5.841995e+01
   8.573728e+01  -8.414094e+00
   8.182562e+01  -2.876518e+01
   3.194489e+01  -6.050518e-01
  -5.293994e+01   9.315771e+00
   8.877206e+00   1.192343e+01
   3.461764e+01   6.904566e+00
  -9.661314e-01   2.973635e+00
  -9.021886e+01  -3.243913e+01
  -7.481240e+01  -8.198479e+00
  -4.202322e+01  -7.273232e+01
   1.073645e+02  -1.185286e+02
   1.893105e+02  -6.772530e+01
   1.351903e+02   6.552813e+01
   4.369392e+01   1.736657e+02
  -6.255927e+01   1.439104e+02
  -9.086059e+01   6.924460e+01
  -6.764676e+01  -3.615878e+01
  -1.150383e+01  -3.165490e+01
   5.963501e+00   8.252547e+00
   4.978108e+00  -1.028658e+01
  -2.250025e+01  -4.638831e+01
  -1.896346e+01  -1.031409e+02
   1.844575e+01  -6.092597e+01
   5.719042e+01   2.476889e+01
   6.353751e+01   8.898794e+01
  -7.931181e+00   8.200746e+01
  -1.066717e+02   3.155347e+01
  -1.033418e+02  -6.514300e+01
  -3.338387e+01  -7.532502e+01
   6.970518e+01  -5.456459e+01
   1.096753e+02   1.023580e+01
   3.655169e+01   7.611999e+01
  -2.747785e+01   7.358223e+01
  -4.904582e+01   2.034500e+01
   1.260418e+01   1.670073e+01
   5.699662e+01  -1.835711e+01
   6.556423e+00  -1.549147e+01
  -9.545195e+01   3.583953e+01
  -9.016987e+01   6.346312e+01
  -7.104249e+01  -9.687514e-01
   7.948436e+00  -6.915035e+01
   4.010828e+01  -7.711478e+01
   4.707814e+01   4.325895e+00
   2.643450e+01   6.273350e+01
  -1.409047e+01   2.978725e+01
  -4.959887e+01  -5.204853e+00
   2.235106e+00  -3.138954e+01
  -8.859656e-01  -2.016432e+01
   1.193318e+01   4.591412e+01
   2.803399e+01   7.880553e+00
   3.025503e+01   6.513998e+00
  -1.174117e+01  -4.108464e+01
  -1.025022e+01   2.273678e+01
  -7.169843e+00   3.335959e+01
  -2.234762e+01   4.552643e+01
  -3.528365e+01   8.243238e+00
  -2.011558e+01  -5.851473e+01
  -3.143723e+00  -4.346273e+01
   5.288519e+01   1.269778e+00
   4.572739e+01   4.811249e+01
   3.751729e+01   5.014134e+01
  -4.337696e+01   1.602261e+01
  -1.058333e+02  -4.230019e+01
  -5.872681e+01  -5.728175e+01
   4.625193e+01  -5.759243e+01
   7.102682e+01  -1.175129e+01
   1.921253e+01   3.366418e+00
  -5.588979e+01   6.754836e+00
  -1.475807e+01  -2.949404e+01
   3.528902e+01  -3.948215e+01
   1.026947e+02  -2.229551e+01
