
 $NMID
 id='ANONYMOUS ', fmtdat='(2E16.6)'
 volume=1.0
 tramp=1.0
 $END
  -4.237753e+03  -1.321713e+02
  -2.429849e+03  -2.744428e+03
   8.475176e+02  -3.013544e+03
   2.151796e+03  -9.991967e+02
   9.255575e+02   8.423935e+02
  -6.587974e+02   7.234739e+02
  -1.039324e+03  -3.332669e+02
  -6.620880e+01  -1.111508e+03
   8.838320e+02  -6.731404e+02
   9.837208e+02   1.207076e+02
   3.895138e+02   8.447239e+02
  -4.109368e+02   9.112494e+02
  -5.976485e+02   1.782445e+02
  -3.816547e+02  -7.128450e+02
   2.742045e+02  -7.085523e+02
   5.989292e+02   1.768952e+01
   2.828665e+02   6.990004e+02
  -3.425694e+02   6.241282e+02
  -6.075889e+02   2.355089e+01
  -3.880556e+02  -3.793464e+02
   8.368552e+00  -4.787930e+02
   2.642460e+02  -2.471085e+02
   2.460260e+02  -3.786538e+01
  -7.543348e+01   1.622227e+02
  -4.416244e+02  -9.847123e+01
  -2.124900e+02  -4.072057e+02
   4.764856e+02  -4.711391e+02
   8.745290e+02   7.621348e+01
   4.347210e+02   5.777086e+02
  -3.751442e+02   5.329001e+02
  -7.234085e+02  -1.579332e+01
  -3.408163e+02  -4.822012e+02
   2.208806e+02  -4.828193e+02
   5.220500e+02  -2.590922e+02
   4.215005e+02   2.237459e+02
   8.019484e+01   5.109002e+02
  -2.235136e+02   2.744327e+02
  -1.932341e+02  -2.503380e+02
   1.503892e+02  -4.326595e+02
   4.753871e+02   1.546999e+00
   1.895112e+02   6.935250e+02
  -1.944232e+02   7.311294e+02
  -6.437701e+02   2.899347e+01
  -3.177495e+02  -6.410188e+02
   3.291293e+02  -3.620711e+02
   4.119218e+02   3.384133e+02
  -2.902762e+01   5.184064e+02
  -5.650616e+02   1.228912e+02
  -6.415593e+02  -4.174234e+02
  -1.471234e+02  -5.617392e+02
   3.582116e+02  -3.339686e+02
   6.090648e+02   6.603679e+01
   3.997578e+02   4.072327e+02
  -1.285900e+02   3.991824e+02
  -4.542740e+02   6.275405e+01
  -2.535161e+02  -2.120347e+02
   1.036470e+02  -1.435594e+02
   1.646869e+02   1.336103e+02
  -2.039885e+02   1.741993e+02
  -3.379628e+02  -8.125240e+01
  -1.221392e+02  -3.410295e+02
   2.207687e+02  -2.313464e+02
   3.487601e+02  -2.594108e+01
   1.818173e+02   1.077540e+02
  -3.987632e+01   1.782022e+02
  -2.084936e+02   2.644201e+02
  -3.068891e+02   2.427439e+02
  -3.144901e+02  -9.644491e+01
  -5.758257e+01  -4.472913e+02
   1.387873e+02  -3.929615e+02
   1.562891e+02  -7.603759e+01
   8.895506e+00   3.460326e+01
   4.282626e+01  -6.048711e+01
   1.808551e+02  -1.216325e+02
   2.791301e+02   3.067976e+01
   2.033012e+02   2.590637e+02
  -5.667599e+01   2.397849e+02
  -2.251221e+02  -9.163426e+00
  -1.721287e+02  -2.085233e+02
  -2.983988e-01  -2.864170e+02
   2.804291e+02  -1.060884e+02
   3.499373e+02   1.307211e+02
   1.838879e+02   3.216055e+02
  -8.089573e+01   3.235749e+02
  -2.433857e+02   1.090293e+02
  -1.271854e+02  -6.736818e+00
  -8.400147e+01   1.898567e+01
  -1.984384e+02   4.185938e+01
  -3.985233e+02  -6.040071e+01
  -3.026947e+02  -2.857568e+02
   7.531438e+00  -4.295349e+02
   3.265064e+02  -4.079778e+02
   4.920395e+02  -1.889637e+02
   3.362992e+02   1.124112e+02
   4.761657e+01   2.903832e+02
  -1.231141e+02   2.518420e+02
  -8.665503e+01   3.553234e+01
   6.469769e+01  -1.140201e+02
   2.253772e+02  -7.613329e+00
   5.600108e+01   2.032670e+02
  -1.689995e+02   1.735412e+02
  -1.756223e+02  -2.506758e+01
   3.220845e+01  -1.947211e+02
   1.985166e+02   1.484582e+00
   1.395567e+02   2.483561e+02
  -4.395179e+01   3.621218e+02
  -2.227911e+02   1.787449e+02
  -3.022535e+02  -8.808936e+01
  -2.555935e+02  -1.942532e+02
  -7.829127e+01  -2.484151e+02
   1.293129e+02  -1.684039e+02
   1.631023e+02  -3.002892e+01
   5.020490e+01   3.123376e+01
  -9.395970e+01  -3.341689e+01
  -4.537484e+01  -1.060420e+02
   1.237039e+02  -9.714947e+01
   1.749817e+02   9.960585e+00
   9.434492e+01   7.908680e+01
  -7.194068e+01   2.106831e+01
  -4.137347e+01  -5.046652e+01
   1.295785e+02  -6.680667e+01
   2.646022e+02   8.658381e+00
   2.290770e+02   1.174305e+02
   6.007622e+01   2.424664e+02
  -1.784205e+02   2.710414e+02
  -2.641256e+02   1.523123e+02
  -1.723321e+02  -5.072928e+01
   1.733941e+01  -1.130576e+02
   7.964561e+01  -4.303127e+01
  -3.604743e+01   9.171947e+01
  -2.018919e+02   4.130612e+01
  -1.798259e+02  -7.133531e+01
  -5.421609e+01  -1.915283e+02
   9.430059e+01  -1.378260e+02
   1.341395e+02  -4.564389e+01
   1.022188e+02   3.642736e+01
  -2.232644e+01   1.405120e+01
  -2.969791e+01  -4.724508e+01
   6.564092e+01  -9.317216e+01
   1.865153e+02  -3.893531e+01
   1.780502e+02   9.689232e+01
   3.339252e+01   1.968882e+02
  -1.638061e+02   1.654211e+02
  -1.692726e+02   3.158498e+00
  -9.275668e+01  -1.061498e+02
   7.574865e+01  -1.288038e+02
   8.160653e+01  -3.984672e+01
   2.619068e+01  -9.925485e-01
  -1.744629e+01   3.144030e+01
   1.154888e+01  -1.048929e+01
   4.563143e+01   2.596853e+01
   6.048433e+01   7.277363e+01
   1.083508e+01   1.496977e+02
  -1.263370e+02   1.460961e+02
  -2.162490e+02   3.710950e+01
  -1.933163e+02  -1.364692e+02
  -2.605194e+01  -2.321883e+02
   1.048528e+02  -1.641661e+02
   1.333449e+02  -2.412289e+01
   7.113066e+01   9.863611e+01
   3.962620e+01   3.666606e+01
   5.510609e+01  -3.925792e+01
   6.789437e+01   1.481162e+01
   2.187840e+01   2.534685e+01
  -3.744631e+01   1.007186e+02
  -7.724624e+01   7.084447e+00
  -5.115196e+01  -4.749923e+01
   8.256387e+00  -9.284639e+01
   1.267735e+02  -6.641229e+01
   1.995153e+02   2.540886e+01
   1.092165e+02   1.828916e+02
  -1.020869e+02   1.996865e+02
  -2.560285e+02   8.090959e+01
  -2.838424e+02  -4.521848e+01
  -8.157071e+01  -1.801533e+02
   1.832694e+01  -1.520474e+02
   8.613280e+01  -9.592370e+01
   8.970620e+01  -8.275319e+01
   7.357813e+01  -6.527434e+01
   8.700668e+01  -6.464687e+01
   1.200967e+02   5.573844e+00
   1.130640e+02   1.639599e+02
   1.917456e+01   2.057037e+02
  -1.032662e+02   1.572235e+02
  -1.563329e+02   3.383506e+01
  -1.511965e+02  -1.201188e+02
  -4.282512e+00  -1.492914e+02
   7.160157e+01  -9.001676e+01
   5.203015e+01   1.528641e+00
   7.533150e+00   6.679479e+00
  -2.543295e+01   3.519071e+01
   3.646230e+01   1.602799e+01
   4.493611e+01   4.410618e+01
   4.849828e+01   3.930858e+01
  -5.010015e+01   1.823499e+01
  -1.203956e+02  -1.982884e+01
  -1.357864e+02  -6.072261e+01
   3.961821e-01  -9.104016e+01
   1.299333e+02  -9.867696e+01
   1.523169e+02  -1.165249e+01
   7.109407e+01   3.146300e+01
  -4.525937e+01   2.301214e+01
  -7.884391e+01  -3.266610e+00
  -1.168945e+01  -4.223093e+01
   6.296518e+01  -5.590735e+01
   4.637556e+01  -8.787195e+00
   5.650559e+01   5.358036e+01
   6.042896e+01   5.873643e+01
   6.318873e+01  -2.147200e+01
   7.009816e+01   4.028211e+00
   2.187671e+01   3.442527e+01
  -1.979987e+01   1.665933e+02
  -9.639350e+01   1.181566e+02
  -1.392040e+02   1.094194e+01
  -9.938616e+01  -1.186360e+02
   1.947224e+01  -1.010837e+02
   8.069576e+01  -4.368214e+01
   5.423217e+01   1.688913e-01
  -8.344784e+01   2.446155e+01
  -1.417424e+02  -2.786115e+01
  -9.403623e+01  -9.838795e+01
   6.387366e+01  -9.202493e+01
   2.079853e+02  -3.607163e+01
   1.555368e+02   4.004149e+01
   7.519600e+01   1.147911e+02
  -8.224477e+01   5.079884e+01
  -5.444760e+01   1.462806e+01
   5.141653e+01   2.404963e-01
   1.036428e+02   1.423646e+01
   1.750645e+01   1.003351e+02
  -1.020378e+02   1.615804e+02
  -1.715073e+02   6.370248e+01
  -1.126696e+02  -1.173166e+02
   1.092801e+01  -1.976576e+02
   8.098553e+01  -1.335600e+02
   7.814433e+01   2.286293e+01
   4.349032e+01   8.934711e+01
   1.797858e+01   1.117224e+02
  -3.055079e+01   1.695920e+01
  -5.369256e+01  -1.057657e+01
  -1.103173e+01   6.247818e+00
   2.497543e+01   5.757460e+00
  -9.448052e+00  -2.078083e+01
  -4.529204e+01  -9.266359e+01
  -4.015954e+01  -1.103322e+02
   3.594453e+01  -5.187811e+01
   1.416389e+02   5.204502e+01
   1.366109e+02   6.474217e+01
   5.100428e-01   1.536747e+01
  -1.166531e+02   2.167029e+01
  -9.334740e+01   1.359002e+01
  -3.160995e+01  -2.168997e+00
   4.345780e+01  -2.562658e+01
   1.033315e+01  -4.304841e+01
  -8.385243e+00   1.639119e+01
   8.208232e+00   4.689345e+01
   6.385329e+01  -9.221827e+00
   8.819424e+01   5.414358e+00
   9.901213e+00   8.415295e+01
  -1.052251e+02   1.158110e+02
  -1.397328e+02   4.775599e+01
  -1.195736e+02  -8.421843e+01
  -1.650251e+01  -1.616051e+02
   9.100254e+01  -1.187771e+02
   1.278199e+02  -3.947424e+01
   7.210648e+01   2.674834e+01
   2.273741e+01   6.042639e+00
  -7.293799e+00   6.506033e+00
   3.725478e+00   1.318992e+01
   4.203385e+01   3.977974e+01
   2.043702e+01   7.900034e+01
   6.573677e+00   7.628958e+01
  -8.148715e+01   5.447317e+00
  -7.896631e+01  -1.012087e+02
  -1.300567e+01  -1.076554e+02
   7.997874e+01  -1.814258e+01
   7.724799e+01   3.820642e+01
   2.921374e+01   8.621492e+01
  -8.319837e+01   6.439086e+01
  -1.092775e+02  -2.160585e-01
  -4.108143e+01  -5.244538e+01
   1.010814e+01  -8.342308e+01
  -7.184465e-01  -2.433905e+01
  -4.325661e+01  -1.582722e+01
  -9.119688e+01   3.204894e+01
  -1.326355e+01  -2.761622e+01
   8.727940e+01  -5.535356e+01
   1.102843e+02  -8.601095e+01
   4.951211e+01   1.474615e+01
   4.688046e+00   7.876931e+01
  -4.855852e+01   7.746971e+01
  -4.571646e+01  -2.153464e+01
  -2.273506e+01  -8.562669e+01
   2.227844e+01  -5.067870e+01
   3.405994e+01   2.102648e+01
   1.904116e+01   7.491948e+01
  -6.525760e+00   1.894532e+01
  -3.758625e+01  -2.230099e+01
  -5.317256e+01  -1.982233e+01
  -1.357152e+01  -3.048291e+00
   2.296147e+01   2.256702e+01
   1.286027e+01  -1.490777e+01
   4.346092e+01  -1.905929e+01
   1.456515e+01  -5.615762e+01
   3.232607e+01  -2.760058e+00
   3.555177e+01   6.191901e+01
  -8.770038e+00   6.781569e+01
  -1.516194e+01   1.371413e+01
  -5.082232e+01  -2.231748e+01
  -2.963270e+01  -5.077905e+01
   3.779543e+01  -5.773327e+01
   8.197120e+01   7.455928e+00
   3.193048e+01   3.444504e+01
  -4.229365e+01   4.212789e+01
  -2.515025e+01   2.704531e+01
  -4.344735e+01   3.732116e+01
   2.117902e+01   1.680474e+01
   4.122586e+01   3.897946e+01
  -3.896335e+01   4.156872e+01
  -1.044402e+02   3.441172e+01
