
 $NMID
 id='ANONYMOUS ', fmtdat='(2E16.6)'
 volume=1.0
 tramp=1.0
 $END
  -4.744060e+03   2.921974e+01
  -2.835020e+03  -2.767534e+03
   1.091531e+03  -2.918335e+03
   2.209663e+03  -8.742785e+02
   9.172572e+02   8.486106e+02
  -7.683728e+02   6.912191e+02
  -1.068582e+03  -5.642813e+02
   5.582510e+01  -1.210975e+03
   9.765809e+02  -7.913791e+02
   1.044779e+03   2.731952e+02
   4.693720e+02   1.030209e+03
  -3.624125e+02   8.911573e+02
  -7.181031e+02   1.081234e+02
  -4.181017e+02  -7.219145e+02
   2.796437e+02  -8.647985e+02
   6.864888e+02   3.398079e+01
   2.522585e+02   8.080043e+02
  -4.018300e+02   6.773614e+02
  -6.769627e+02   2.608682e+01
  -4.066518e+02  -3.957778e+02
   2.590964e+01  -5.133147e+02
   2.875380e+02  -2.751239e+02
   2.364387e+02  -2.886202e+01
  -1.279072e+02   1.092922e+02
  -3.842611e+02  -1.105744e+02
  -2.147996e+02  -4.594761e+02
   4.439667e+02  -4.452155e+02
   9.112620e+02   6.547873e+01
   4.814485e+02   6.113206e+02
  -4.736681e+02   5.176118e+02
  -7.976190e+02   5.286503e+01
  -3.744298e+02  -5.053504e+02
   3.418975e+02  -6.159562e+02
   5.853044e+02  -2.173092e+02
   4.152893e+02   2.644878e+02
   3.694774e+01   5.333195e+02
  -2.361442e+02   3.247743e+02
  -1.842302e+02  -2.245237e+02
   1.537882e+02  -5.489116e+02
   5.482935e+02   4.481815e+00
   2.814551e+02   7.142933e+02
  -3.111355e+02   7.376432e+02
  -6.452433e+02  -3.615076e+01
  -2.643469e+02  -6.682379e+02
   3.511946e+02  -3.528214e+02
   4.109158e+02   3.796298e+02
  -6.453248e+01   5.713110e+02
  -6.567117e+02   1.168585e+02
  -6.493545e+02  -5.217806e+02
  -1.831241e+02  -6.149800e+02
   4.395767e+02  -4.230234e+02
   7.111703e+02   1.134727e+02
   3.620272e+02   4.336951e+02
  -1.849323e+02   4.046417e+02
  -4.752455e+02   3.874034e+01
  -2.531791e+02  -2.624763e+02
   1.570086e+02  -1.389792e+02
   1.499875e+02   1.988175e+02
  -2.187841e+02   2.181212e+02
  -3.476846e+02  -9.518675e+01
  -8.594083e+01  -3.471665e+02
   2.047403e+02  -2.757984e+02
   3.119688e+02  -5.581484e+01
   1.764202e+02   1.003469e+02
  -5.169998e+01   1.846380e+02
  -2.138257e+02   3.132050e+02
  -3.367216e+02   2.203490e+02
  -3.235907e+02  -1.272135e+02
  -4.813592e+01  -4.560157e+02
   1.363016e+02  -4.108442e+02
   1.201131e+02  -9.157587e+01
  -4.846072e+00   5.116092e+01
   3.022484e+01  -9.565798e+01
   2.005849e+02  -1.458323e+02
   2.696005e+02   4.496685e+01
   1.623361e+02   3.055939e+02
  -8.349422e+01   2.636796e+02
  -1.942302e+02   4.054008e+01
  -2.027661e+02  -2.719322e+02
   3.392808e+00  -3.222493e+02
   3.191562e+02  -1.124690e+02
   3.779626e+02   1.757161e+02
   1.739438e+02   3.759514e+02
  -1.462003e+02   3.337191e+02
  -2.779122e+02   8.465254e+01
  -1.551892e+02  -1.277046e+01
  -1.043067e+02   1.229210e+01
  -2.225552e+02   5.052771e+01
  -4.077151e+02  -7.055214e+01
  -3.528981e+02  -3.201397e+02
   7.532469e+00  -4.451396e+02
   3.516729e+02  -3.999731e+02
   4.728646e+02  -1.569658e+02
   3.687719e+02   1.075660e+02
   8.669945e+01   3.090921e+02
  -1.380578e+02   2.616043e+02
  -8.535591e+01   3.987247e+01
   9.370266e+01  -1.075039e+02
   2.406812e+02   1.127450e+01
   3.494633e+01   2.044914e+02
  -1.666838e+02   1.815845e+02
  -1.545858e+02  -4.892210e+01
   1.214490e+01  -2.335831e+02
   2.149039e+02  -4.638048e+01
   1.800862e+02   2.304085e+02
  -6.873836e+01   3.671005e+02
  -2.378217e+02   1.808810e+02
  -3.302459e+02  -7.152445e+01
  -2.581809e+02  -2.255176e+02
  -7.478905e+01  -2.321832e+02
   1.212653e+02  -1.293149e+02
   1.668577e+02  -1.435692e+01
   4.466834e+01   3.107386e+01
  -7.942868e+01  -4.929620e+01
  -3.922396e+01  -1.371933e+02
   1.214313e+02  -1.157085e+02
   2.116873e+02   1.240263e+01
   5.452436e+01   7.147721e+01
  -8.177046e+01   2.333522e+01
  -6.220083e+01  -7.891296e+01
   1.215750e+02  -6.603835e+01
   2.554944e+02   2.632264e+01
   2.621190e+02   1.210548e+02
   7.352723e+01   2.760163e+02
  -1.955119e+02   2.544072e+02
  -2.685214e+02   1.449267e+02
  -1.725855e+02  -7.416311e+01
   2.423051e+01  -1.138732e+02
   8.611731e+01   1.780456e+01
  -1.905112e+01   8.428375e+01
  -1.955375e+02   5.481271e+01
  -2.139305e+02  -1.383583e+02
  -5.431240e+01  -2.054482e+02
   9.984656e+01  -1.400453e+02
   1.613608e+02  -5.073613e+01
   8.419219e+01   2.047548e+01
  -5.522537e+01  -5.714957e+00
  -1.784876e+01  -5.351851e+01
   5.515802e+01  -1.193142e+02
   1.764637e+02  -4.990190e+01
   1.966866e+02   1.458798e+02
   1.702874e+01   2.217302e+02
  -1.939867e+02   1.829052e+02
  -2.072205e+02  -2.191348e+01
  -5.402147e+01  -1.353287e+02
   6.795905e+01  -1.309292e+02
   6.996158e+01  -1.702672e+01
   1.179392e+01   4.569841e+01
  -2.320528e+01   1.110225e+01
   1.337838e+01  -2.985298e+01
   9.276564e+01  -4.357483e-01
   6.141181e+01   8.020719e+01
   1.871832e+01   1.677532e+02
  -1.125769e+02   1.415975e+02
  -2.001163e+02   1.608614e+01
  -1.990303e+02  -1.421643e+02
  -5.646398e+01  -2.293174e+02
   1.086533e+02  -1.467941e+02
   1.430160e+02  -3.495538e+01
   7.402478e+01   8.071990e+01
   3.312315e+01   2.335023e+01
   5.973823e+01  -1.829958e+01
   5.599689e+01   1.344007e+01
   3.168802e+01   7.214304e+01
  -4.460555e+01   7.029730e+01
  -9.166923e+01   3.037885e+01
  -6.416762e+01  -4.184653e+01
   3.156060e+00  -1.418565e+02
   1.530206e+02  -8.047158e+01
   2.064663e+02   5.517124e+01
   1.107258e+02   1.914726e+02
  -1.031723e+02   2.036906e+02
  -2.753365e+02   1.182422e+02
  -2.739213e+02  -1.101079e+02
  -1.265309e+02  -2.057970e+02
   5.139196e+01  -1.458093e+02
   1.129762e+02  -1.118664e+02
   7.030772e+01  -5.160101e+01
   5.191210e+01  -6.966990e+01
   1.258055e+02  -6.784207e+01
   1.518386e+02   3.015098e+01
   1.044783e+02   1.748844e+02
   1.894331e+01   2.503082e+02
  -1.096084e+02   1.576132e+02
  -1.711335e+02   3.120200e+01
  -1.575125e+02  -1.394242e+02
  -4.898050e+01  -1.789812e+02
   9.491617e+01  -1.035656e+02
   3.155570e+01   1.660212e+01
  -2.186339e+01   3.976622e+01
   5.670258e+00   4.065117e+01
   1.322890e+01   2.609177e+01
   6.547711e+01   2.787959e+01
   5.402284e+01   1.588775e+01
  -5.697766e+01   2.572140e+01
  -1.450430e+02   1.332524e+01
  -1.359381e+02  -6.241183e+01
   1.468650e+00  -9.095807e+01
   9.868059e+01  -8.682099e+01
   1.451428e+02  -1.344157e+01
   2.314605e+01   1.915257e+01
  -9.660941e+01   2.557654e+01
  -8.195814e+01  -3.030225e+00
  -6.104298e+00  -6.906605e+01
   5.316965e+01  -7.068222e+01
   6.832116e+01   9.923631e+00
   3.904578e+01   5.001601e+01
   5.587870e+01   2.155358e+01
   6.356469e+01  -1.764471e+01
   6.322378e+01   1.195198e+01
   2.939129e+01   7.997767e+01
  -5.256267e+01   1.189846e+02
  -1.153019e+02   1.346954e+02
  -1.701345e+02   1.554152e+01
  -1.361281e+02  -1.176699e+02
  -7.347073e+00  -1.075865e+02
   8.497182e+01  -6.338208e+01
   6.035610e+01   2.909978e+01
  -7.587586e+01   3.204061e+01
  -1.399620e+02  -3.767730e+01
  -8.925984e+01  -9.790452e+01
   5.679441e+01  -1.319521e+02
   2.101012e+02  -5.475845e+01
   1.632324e+02   3.009075e+01
   2.999614e+01   8.389927e+01
  -6.741906e+01   7.214163e+01
  -4.152593e+01   2.047904e+01
   3.984031e+01  -1.800219e+01
   7.932931e+01   4.026603e+01
   4.679176e+01   1.232619e+02
  -8.076208e+01   1.344520e+02
  -1.548124e+02   4.982853e+01
  -1.331578e+02  -1.077289e+02
  -1.930731e+00  -2.099832e+02
   8.702478e+01  -1.439869e+02
   7.490372e+01   2.187806e+01
   5.409720e+01   9.673184e+01
   1.527437e+01   1.017024e+02
  -4.273442e+01   1.416568e+01
  -4.256762e+01  -3.557405e+01
  -2.846363e+01   1.925458e+01
  -1.563066e+00   2.684150e+01
  -1.524326e+01  -2.466221e+01
  -3.138841e+01  -7.202944e+01
  -3.926992e+01  -1.110053e+02
   4.536984e+01  -4.876747e+01
   1.438132e+02   4.290165e+01
   1.196296e+02   9.830644e+01
   1.999109e+01   5.539581e+01
  -1.393854e+02   1.636618e+01
  -8.542074e+01  -5.462818e+00
   3.488499e-01   6.899842e+00
   4.867805e+01   1.179987e+00
   1.869852e+01  -2.489989e+01
  -1.121358e+01   4.038335e+01
   1.229467e+01  -4.188297e+00
   5.204487e+01   9.399020e+00
   9.544333e+01   1.288524e+01
  -1.396911e+01   9.413348e+01
  -1.413828e+02   9.542227e+01
  -1.719724e+02   4.509555e+01
  -1.281161e+02  -6.431934e+01
  -1.134177e+01  -1.465696e+02
   5.435126e+01  -1.224262e+02
   1.364044e+02  -5.837731e+01
   6.901838e+01   1.821372e+01
   9.214868e+00   4.167103e+01
   2.255647e+01   2.123736e+01
   2.150397e+01   1.428505e+00
   4.346770e+01   2.801520e+01
   2.841308e+01   7.647604e+01
  -4.159281e+01   6.461146e+01
  -7.912893e+01  -3.417015e+01
  -1.059468e+02  -1.120312e+02
  -2.780975e+01  -1.484504e+02
   6.635037e+01  -2.444081e+01
   1.158467e+02   7.189406e+01
   3.307879e+01   1.189944e+02
  -7.167438e+01   5.752454e+01
  -7.062985e+01  -9.155621e+00
  -3.420627e+01  -3.355893e+01
   3.762229e+01  -8.962499e+00
   4.488315e+01  -1.228521e+01
  -3.043553e+01   1.813606e+00
  -5.765996e+01  -1.424804e+01
  -1.082578e+01  -2.708076e+01
   1.048250e+02  -9.560318e+01
   1.058013e+02  -8.009218e+01
   6.897609e+01  -2.038027e+01
  -2.299480e+01   6.817456e+01
  -2.412713e+01   6.894956e+01
  -5.215003e+01   8.401307e+00
   1.816849e+01  -5.338320e+01
   5.054591e+01  -2.923577e+01
   2.808114e+01   3.214242e+01
   9.274369e+00   6.146956e+01
  -2.448972e+01   6.513520e+01
  -3.222724e+01  -1.677711e+01
  -5.357284e+01  -4.196063e+01
  -9.062603e+00   2.117786e+01
   8.848959e+00   3.932233e+01
   8.104741e+00   5.201505e+00
   3.497555e-01  -4.224513e+01
   2.022638e+01  -4.500666e+01
   4.729553e+01  -1.663398e+01
   2.895538e+01   4.336784e+01
   1.773016e+01   4.941826e+01
  -6.515039e+01   3.751071e+01
  -4.760256e+01  -4.895185e+01
  -9.951064e+00  -4.808621e+01
   4.184167e+01  -1.428101e+01
   1.074445e+02   3.133218e+00
   2.737573e+01   6.160972e+01
  -3.347333e+01   2.752783e+01
  -9.314880e+01   7.084844e+00
   1.395383e+01   1.853580e+01
   2.061442e+01   1.173650e+01
   3.180652e+01   1.915259e+01
  -1.278585e+01   5.042424e+01
  -1.025356e+02   3.376576e+01
