
 $NMID
 id='ANONYMOUS ', fmtdat='(2E16.6)'
 volume=1.0
 tramp=1.0
 $END
   4.871042e+03  -1.234409e+02
   2.948969e+03   2.632455e+03
  -8.817240e+02   3.032341e+03
  -2.272636e+03   1.025105e+03
  -9.119592e+02  -7.389254e+02
   6.912091e+02  -8.086382e+02
   1.035234e+03   4.846753e+02
   2.734991e+01   1.179291e+03
  -9.770524e+02   8.994388e+02
  -1.025664e+03  -2.138438e+02
  -5.185456e+02  -1.000253e+03
   2.905475e+02  -9.423702e+02
   7.238957e+02  -1.423922e+02
   4.264900e+02   7.915755e+02
  -2.865438e+02   8.930638e+02
  -7.016727e+02  -2.809823e+01
  -2.814217e+02  -8.072197e+02
   3.792000e+02  -6.430924e+02
   6.777339e+02  -2.313331e+01
   3.988648e+02   4.143033e+02
  -1.420188e+01   4.932898e+02
  -2.963174e+02   2.723096e+02
  -2.201795e+02   5.281017e+01
   1.243739e+02  -9.617367e+01
   3.811345e+02   7.348844e+01
   2.339086e+02   4.543154e+02
  -4.375590e+02   4.630134e+02
  -9.052487e+02  -2.899267e+01
  -5.217446e+02  -5.903389e+02
   4.572627e+02  -4.868117e+02
   7.982998e+02  -5.299345e+01
   3.851483e+02   4.663395e+02
  -3.343640e+02   6.421453e+02
  -5.600802e+02   2.475233e+02
  -4.268137e+02  -2.282910e+02
  -4.028842e+01  -5.424259e+02
   2.879906e+02  -3.353378e+02
   1.968760e+02   2.184926e+02
  -1.326649e+02   5.355769e+02
  -5.421177e+02   2.431041e+01
  -2.921719e+02  -7.151508e+02
   3.310849e+02  -7.718444e+02
   6.671439e+02  -8.502353e+00
   3.133314e+02   6.549386e+02
  -3.367867e+02   3.795888e+02
  -3.868127e+02  -3.581139e+02
   3.256209e+01  -5.602871e+02
   6.251069e+02  -1.452570e+02
   7.000057e+02   4.972988e+02
   1.973925e+02   6.233640e+02
  -4.042819e+02   4.203600e+02
  -7.603130e+02  -8.552843e+01
  -3.908513e+02  -4.001861e+02
   1.754992e+02  -4.315459e+02
   5.167337e+02  -4.818282e+01
   2.880036e+02   2.579760e+02
  -1.315325e+02   1.545462e+02
  -1.659087e+02  -1.725154e+02
   1.642802e+02  -2.380975e+02
   3.582721e+02   6.239837e+01
   1.337270e+02   3.140520e+02
  -2.289921e+02   2.714532e+02
  -3.317581e+02   6.950718e+01
  -1.597979e+02  -1.367798e+02
   1.728169e+01  -2.047868e+02
   2.349824e+02  -2.851585e+02
   3.518697e+02  -2.502577e+02
   3.069884e+02   1.014552e+02
   6.536433e+01   4.803121e+02
  -1.352144e+02   4.445606e+02
  -1.361114e+02   1.179149e+02
  -2.692961e+01  -4.498943e+01
  -2.583452e+01   7.191841e+01
  -1.718677e+02   1.413689e+02
  -2.740166e+02  -3.504685e+01
  -1.590999e+02  -2.894450e+02
   4.680607e+01  -2.877294e+02
   2.261086e+02  -2.271646e+01
   1.927652e+02   2.270841e+02
   1.478259e+01   2.979928e+02
  -3.086161e+02   1.189402e+02
  -3.391636e+02  -1.707268e+02
  -1.817743e+02  -3.523797e+02
   1.422000e+02  -3.635302e+02
   2.448695e+02  -9.049028e+01
   1.793580e+02   2.976789e+01
   8.205177e+01  -2.115355e+01
   1.984302e+02  -5.595049e+01
   4.034116e+02   7.669644e+01
   3.569669e+02   3.216096e+02
  -1.531510e+00   4.349500e+02
  -3.439236e+02   3.851331e+02
  -4.878217e+02   1.745559e+02
  -3.392036e+02  -1.330716e+02
  -1.090575e+02  -3.070554e+02
   1.214788e+02  -2.624067e+02
   8.950391e+01  -6.186414e+01
  -6.924905e+01   1.184704e+02
  -2.247247e+02  -2.245103e+01
  -6.827926e+01  -2.140353e+02
   1.542652e+02  -2.401460e+02
   1.528431e+02   6.477860e+01
  -3.429956e+01   2.374157e+02
  -2.007326e+02   6.569229e+01
  -1.486102e+02  -2.394378e+02
   1.534305e+01  -3.656370e+02
   2.257262e+02  -1.965616e+02
   3.333081e+02   6.869114e+01
   2.805631e+02   2.785901e+02
   1.030070e+02   2.705703e+02
  -1.151103e+02   1.409700e+02
  -1.854084e+02   3.808936e+01
  -5.092682e+01  -3.326047e+01
   6.360298e+01   4.534629e+01
   1.735941e+01   1.208620e+02
  -1.041855e+02   1.352547e+02
  -1.963930e+02   1.005707e+01
  -4.364711e+01  -5.696240e+01
   7.079847e+01  -1.822539e+01
   5.740513e+01   8.406621e+01
  -1.253821e+02   8.648449e+01
  -2.462029e+02  -1.898366e+01
  -2.636918e+02  -1.266965e+02
  -8.206174e+01  -2.779165e+02
   1.742759e+02  -2.590930e+02
   2.825333e+02  -1.196526e+02
   1.342873e+02   4.528400e+01
  -1.457389e+01   1.424878e+02
  -1.038128e+02   1.192043e+01
   1.328999e+01  -1.005418e+02
   2.063265e+02  -5.607180e+01
   2.156528e+02   1.348221e+02
   8.721608e+01   2.211193e+02
  -8.808265e+01   1.322896e+02
  -1.354077e+02   1.795344e+01
  -5.269198e+01  -3.602164e+01
   3.265471e+01  -1.992546e+01
   4.162063e+01   8.914069e+01
  -6.475620e+01   1.002734e+02
  -1.383685e+02   5.899258e+01
  -2.032542e+02  -1.184961e+02
  -6.712442e+00  -1.944185e+02
   1.518767e+02  -1.627789e+02
   1.995792e+02  -6.788181e+00
   5.036909e+01   1.280807e+02
  -8.769182e+01   1.176508e+02
  -1.053806e+02   3.801899e+01
  -1.738009e+01  -4.085333e+01
   1.004031e+01  -3.474614e+01
  -8.308072e+00   6.238032e+00
  -8.839845e+01  -1.920451e+00
  -7.914636e+01  -6.358312e+01
  -2.133618e+01  -1.411961e+02
   1.354419e+02  -1.378743e+02
   1.783104e+02   2.756463e+00
   1.949182e+02   1.269883e+02
   4.836608e+01   2.308106e+02
  -1.451133e+02   1.505854e+02
  -1.383738e+02   2.150408e+01
  -8.942873e+01  -7.369732e+01
  -2.729795e+01  -6.099520e+01
  -5.359612e+01   3.767289e+01
  -5.391651e+01   3.441352e+00
  -4.062984e+01  -6.202460e+01
   7.657178e+01  -1.038597e+02
   1.178262e+02  -4.805623e+01
   8.668970e+01   2.819015e+01
   3.247106e+00   1.112255e+02
  -1.632313e+02   7.708246e+01
  -1.970192e+02  -2.469529e+01
  -1.098829e+02  -1.820533e+02
   1.102131e+02  -2.366353e+02
   2.694073e+02  -1.128071e+02
   2.547920e+02   8.425083e+01
   1.332303e+02   1.840543e+02
  -3.251340e+01   1.218732e+02
  -1.057860e+02   9.068606e+01
  -8.627693e+01   5.177661e+01
  -6.374573e+01   1.061046e+02
  -9.871700e+01   1.015491e+02
  -1.432065e+02  -1.552179e+01
  -1.039346e+02  -1.788770e+02
  -4.380277e+01  -2.334765e+02
   1.035179e+02  -1.731269e+02
   1.908353e+02  -4.658534e+01
   1.311721e+02   1.222833e+02
   2.609482e+01   1.431364e+02
  -8.438287e+01   8.534937e+01
  -5.685663e+01  -6.721494e+00
   1.611550e+01  -3.991893e+01
   3.123066e+00  -1.513202e+01
  -2.206117e+01  -1.432386e+01
  -7.288556e+01  -2.941558e+01
  -1.588425e+01  -3.622264e+01
   5.656117e+01  -4.606473e+01
   1.733253e+02  -1.108246e+01
   1.489319e+02   7.625829e+01
   3.631722e+01   9.190227e+01
  -1.338734e+02   5.203202e+01
  -1.581948e+02   1.400853e+01
  -2.778341e+01  -3.600156e+01
   5.919044e+01  -3.820790e+01
   6.747099e+01  -4.003093e+00
  -7.005976e+00   8.998703e+01
  -7.114177e+01   6.523562e+01
  -6.620219e+01  -2.350555e+01
  -4.514406e+01  -4.284616e+01
  -2.369723e+01  -4.139077e+01
  -6.976328e+01  -7.617336e+00
  -7.970823e+01  -8.387420e-01
  -3.921480e+01  -6.291743e+01
   4.878369e+01  -1.294866e+02
   9.127996e+01  -1.355826e+02
   1.840808e+02  -3.210460e+01
   1.276800e+02   1.267785e+02
   2.290877e+01   9.796317e+01
  -1.038545e+02   6.471852e+01
  -3.691980e+01  -2.927831e+01
   4.484840e+01  -1.844928e+01
   1.255059e+02   1.578497e+01
   7.763408e+01   1.061648e+02
  -8.661181e+01   1.037866e+02
  -2.020639e+02   4.009122e+01
  -1.755356e+02  -4.012972e+01
  -3.460392e+01  -8.867198e+01
   7.857059e+01  -5.521907e+01
   5.279150e+01  -1.744164e+01
  -4.530839e+01   4.001204e+01
  -1.048790e+02  -2.156265e+01
  -4.493031e+01  -1.378112e+02
   9.970160e+01  -1.386715e+02
   1.879080e+02  -5.994900e+01
   1.250312e+02   1.186009e+02
   4.582751e+00   1.891136e+02
  -7.552063e+01   1.330593e+02
  -8.397253e+01   4.831831e+00
  -4.632991e+01  -1.263349e+02
  -9.666414e+00  -1.123369e+02
   3.094722e+01  -2.325645e+01
   5.908140e+01   3.400377e+01
   1.041757e+01   1.061017e+01
   1.493258e+01  -2.269667e+01
  -2.756908e-01   3.002978e+01
   4.609862e+01   9.326723e+01
   6.125941e+01   8.893014e+01
  -6.497483e+01   2.524799e+01
  -1.471713e+02  -2.876102e+01
  -1.317852e+02  -8.231275e+01
  -2.399010e+01  -3.466783e+01
   9.926529e+01  -1.298266e+01
   7.705573e+01   3.276545e-01
   5.910081e+00   2.582298e+00
  -2.863564e+01   5.784622e-01
  -2.797725e+01  -1.534788e+01
   1.585925e+01  -9.471605e+00
   5.421036e+00   1.969393e+00
  -7.391511e+01  -9.320514e+00
  -1.040278e+02   4.689928e+00
   2.153845e+01  -1.046894e+02
   1.409475e+02  -1.193383e+02
   2.017321e+02  -5.123822e+01
   1.242917e+02   8.620250e+01
   2.850350e+01   1.667243e+02
  -1.093788e+02   1.603425e+02
  -1.261481e+02   6.868813e+01
  -8.237350e+01  -2.569747e+01
  -4.249921e+01  -4.188330e+01
  -3.163555e+01   8.101783e+00
  -7.868640e+00  -1.344949e+01
  -7.406266e+01  -5.233565e+01
  -3.749013e+01  -8.382017e+01
   3.319254e+01  -3.731603e+01
   7.912567e+01   5.851247e+00
   7.047756e+01   1.266676e+02
   1.335778e+01   1.001031e+02
  -9.517250e+01   1.666286e+01
  -1.312696e+02  -5.868369e+01
  -4.004996e+01  -1.098458e+02
   8.496641e+01  -4.632250e+01
   8.546845e+01  -5.308121e+00
   3.698255e+01   3.997237e+01
  -5.763252e+01   5.348135e+01
  -4.815561e+01   4.297948e+01
   3.703025e+01  -1.412970e+01
   9.203825e+01  -1.172401e+01
   2.991305e+01   3.250673e+01
  -7.589098e+01   9.559061e+01
  -1.018871e+02   7.655726e+01
  -7.782422e+01   1.955850e+01
   2.937200e+01  -9.576680e+01
   3.155011e+01  -9.148347e+01
   3.853467e+01   6.822813e+00
   2.956857e+00   7.987255e+01
  -3.861564e+01   2.540882e+01
  -4.118305e+01  -3.188602e+01
  -9.103886e+00  -5.176995e+01
   2.191514e+01  -4.931455e+01
   2.572455e+01   8.619048e+00
   5.589328e+01   2.731610e+01
   3.985463e+00   5.174180e+00
  -9.185795e+00  -4.350849e+01
  -5.518569e+00  -1.210789e+01
  -8.251754e+00   3.460125e+01
  -2.636180e+01   3.070228e+01
  -3.367785e+01  -1.065793e+01
  -3.533818e+01  -4.533107e+01
   8.193833e+00  -4.345784e+01
   4.991267e+01  -2.901259e+01
   4.521858e+01   3.235172e+01
   3.921317e+01   5.910589e+01
  -2.552702e+01   4.032465e+01
  -9.628314e+01  -2.044085e+01
  -4.904493e+01  -6.160296e+01
   4.309706e+01  -3.544397e+01
   6.760398e+01   5.066386e+00
   1.527181e+01  -1.675193e+00
  -4.248508e+01   5.284015e+00
  -4.477427e+01   3.236671e+00
   4.074761e+01  -4.865730e+01
   1.063274e+02  -2.904444e+01
