
 $NMID
 id='ANONYMOUS ', fmtdat='(2E16.6)'
 volume=1.0
 tramp=1.0
 $END
  -4.816479e+03   2.856457e+02
  -3.147680e+03  -2.599832e+03
   7.764254e+02  -3.076514e+03
   2.152041e+03  -1.261075e+03
   1.064798e+03   6.353820e+02
  -6.323277e+02   7.512073e+02
  -1.078329e+03  -2.386999e+02
  -1.329896e+02  -1.097709e+03
   8.204308e+02  -9.114804e+02
   1.071503e+03   1.005025e+02
   5.506070e+02   9.746772e+02
  -1.748714e+02   1.012521e+03
  -6.959928e+02   2.394253e+02
  -4.954971e+02  -6.433765e+02
   2.251530e+02  -8.337006e+02
   6.363552e+02  -3.139040e+01
   3.481631e+02   7.289560e+02
  -3.339879e+02   7.215544e+02
  -6.489128e+02   1.254532e+02
  -4.346263e+02  -3.786795e+02
  -3.254810e+01  -5.160174e+02
   2.609466e+02  -3.508327e+02
   2.083677e+02  -5.471763e+01
  -1.104497e+02   6.870447e+01
  -3.479316e+02  -1.004705e+02
  -2.078638e+02  -4.008355e+02
   4.232531e+02  -3.909223e+02
   8.049631e+02   5.962944e+00
   4.749702e+02   4.644888e+02
  -3.469003e+02   5.179177e+02
  -7.471997e+02   4.146127e+01
  -3.884926e+02  -4.379110e+02
   2.866956e+02  -5.850259e+02
   5.967865e+02  -2.729960e+02
   4.257511e+02   2.032621e+02
   5.503119e+01   4.962667e+02
  -1.923203e+02   3.115025e+02
  -1.356562e+02  -1.575700e+02
   1.147350e+02  -4.740006e+02
   4.487639e+02  -7.461846e+01
   2.993886e+02   6.609642e+02
  -2.397619e+02   7.613580e+02
  -6.114991e+02   1.037371e+02
  -3.414770e+02  -6.419915e+02
   3.352527e+02  -3.734665e+02
   4.201942e+02   2.922237e+02
  -2.041305e+01   5.480991e+02
  -6.118807e+02   1.517582e+02
  -6.801499e+02  -4.074124e+02
  -1.677740e+02  -6.059156e+02
   3.635526e+02  -3.903036e+02
   7.040111e+02   6.736550e+01
   4.640853e+02   3.685531e+02
  -1.190107e+02   3.889126e+02
  -4.151822e+02   6.891457e+01
  -3.235125e+02  -2.006151e+02
   1.103997e+02  -1.724520e+02
   1.998213e+02   1.549048e+02
  -1.370513e+02   2.310896e+02
  -3.438625e+02  -3.339441e+01
  -1.893074e+02  -3.138424e+02
   2.042885e+02  -2.829647e+02
   3.503430e+02  -9.520536e+01
   1.740774e+02   1.173865e+02
  -2.340446e+01   2.346184e+02
  -2.355703e+02   3.262620e+02
  -3.093325e+02   2.438106e+02
  -3.010853e+02  -1.313847e+02
  -5.354528e+01  -4.624918e+02
   1.362801e+02  -4.320650e+02
   9.988804e+01  -1.149766e+02
   6.970572e+01   2.805491e+01
   2.840248e+01  -9.141805e+01
   2.145217e+02  -1.179688e+02
   2.585603e+02   3.260934e+01
   1.756843e+02   2.542880e+02
  -4.177200e+01   2.623101e+02
  -2.189453e+02   4.235757e+01
  -1.856469e+02  -2.287819e+02
  -7.494751e+00  -2.798391e+02
   2.779152e+02  -1.487408e+02
   3.671177e+02   1.595995e+02
   2.063304e+02   3.767996e+02
  -1.029343e+02   3.461567e+02
  -2.347302e+02   1.718290e+02
  -1.916274e+02   7.294287e+00
  -8.166441e+01   3.065551e+00
  -2.210251e+02   5.652272e+01
  -4.455052e+02  -4.838953e+01
  -3.551290e+02  -2.781718e+02
  -1.534535e+01  -4.287798e+02
   3.273469e+02  -3.811426e+02
   4.615270e+02  -1.942744e+02
   3.649848e+02   1.031476e+02
   7.083383e+01   2.983040e+02
  -1.044482e+02   2.842643e+02
  -6.621317e+01   5.708622e+01
   9.583874e+01  -1.183948e+02
   1.808114e+02  -3.807946e+00
   7.796089e+01   2.043433e+02
  -1.628605e+02   1.916194e+02
  -1.955540e+02  -1.096056e+01
  -1.835829e+00  -2.199159e+02
   1.630355e+02  -5.153621e+01
   1.718257e+02   2.173702e+02
  -3.015340e+01   3.441603e+02
  -2.215696e+02   1.983716e+02
  -3.320347e+02  -6.621911e+01
  -2.733011e+02  -2.368101e+02
  -1.356904e+02  -2.364818e+02
   9.063015e+01  -1.411788e+02
   1.783905e+02  -3.545894e+01
   5.495266e+01   1.514667e+01
  -3.380774e+01  -2.818767e+01
  -8.091631e+00  -1.142110e+02
   1.245811e+02  -1.453654e+02
   1.839899e+02  -2.129048e+00
   9.365432e+01   6.337760e+01
  -7.440995e+01   4.074670e+01
  -6.703205e+01  -6.390516e+01
   1.379315e+02  -9.684853e+01
   2.648242e+02   2.072220e+01
   2.776365e+02   1.330775e+02
   3.933188e+01   2.259647e+02
  -1.558094e+02   2.419506e+02
  -2.579916e+02   1.393069e+02
  -1.866069e+02  -3.518574e+01
  -3.310745e+00  -1.145579e+02
   1.017882e+02  -2.667482e+01
  -4.191719e+01   9.275574e+01
  -1.934239e+02   4.608584e+01
  -2.068269e+02  -1.058807e+02
  -8.047765e+01  -2.206612e+02
   7.158752e+01  -1.436899e+02
   1.298098e+02  -5.927290e+01
   9.837950e+01   5.090505e+01
  -3.054245e+01   1.895102e+00
  -1.932102e+01  -9.284224e+01
   8.439525e+01  -1.157229e+02
   2.070679e+02  -5.103356e+01
   2.104220e+02   1.400497e+02
   3.324358e+01   2.319930e+02
  -1.425895e+02   1.881941e+02
  -1.946903e+02   9.072021e+00
  -7.547509e+01  -1.083381e+02
   6.713363e+01  -1.050499e+02
   5.518804e+01  -4.021059e+01
   1.849343e+01   1.997278e+01
  -9.421698e+00   1.728320e+01
   6.827971e+00  -1.267391e+00
   7.515378e+01  -1.399586e-01
   7.726658e+01   1.015933e+02
  -4.940039e+00   1.353455e+02
  -1.018126e+02   1.483738e+02
  -2.124925e+02   2.865326e+01
  -1.838225e+02  -1.120100e+02
  -5.681981e+01  -2.482334e+02
   1.252663e+02  -1.454315e+02
   1.074322e+02  -1.953006e+01
   8.528259e+01   4.152342e+01
   2.035254e+01   1.883222e+01
   5.612356e+01  -1.687056e+01
   7.198031e+01  -2.884429e+01
   2.552785e+00   3.977072e+01
  -3.097409e+01   8.769136e+01
  -1.361113e+02   4.892430e+01
  -1.038336e+02  -4.832761e+01
   4.097491e+01  -9.217164e+01
   1.318037e+02  -8.589600e+01
   2.069035e+02   1.423545e+01
   1.228304e+02   2.229322e+02
  -1.149104e+02   2.364312e+02
  -2.627806e+02   1.363953e+02
  -2.721612e+02  -4.678469e+01
  -1.076894e+02  -1.551401e+02
   5.922289e+01  -1.178076e+02
   8.916087e+01  -1.010181e+02
   8.898589e+01  -6.153517e+01
   6.810751e+01  -8.679576e+01
   8.990503e+01  -8.640833e+01
   1.070302e+02   2.572331e+01
   1.092627e+02   1.386165e+02
   4.596732e+01   2.171445e+02
  -1.270304e+02   1.894236e+02
  -1.749379e+02  -2.718695e+01
  -1.198616e+02  -1.499050e+02
   8.323003e+00  -1.721424e+02
   9.557837e+01  -1.075917e+02
   5.837323e+01  -1.293087e+01
  -9.558128e+00   5.677808e+01
  -1.319355e+01   3.469819e+01
   4.065191e+01  -1.798717e+01
   6.450152e+01   3.453046e+01
   3.933444e+01   4.551904e+01
  -5.825575e+01   2.896147e+01
  -1.444862e+02   1.077203e+01
  -1.797177e+02  -5.452525e+01
  -1.235410e+01  -9.474833e+01
   1.162464e+02  -8.177851e+01
   1.291338e+02  -1.525254e+01
   6.652961e+01   4.662465e+01
  -6.196951e+01   1.650971e+01
  -7.065601e+01  -1.550995e+01
  -5.665891e+00  -8.812944e+01
   6.851957e+01  -8.669152e+01
   4.318695e+01   5.216432e+00
   5.212245e+01   3.596288e+01
   4.582937e+01   1.098097e+01
   6.585102e+01   8.546759e-01
   6.270550e+01   1.655416e+01
   1.432071e+01   5.219135e+01
  -2.620492e+01   1.456785e+02
  -1.392324e+02   1.181078e+02
  -1.651680e+02   4.544990e+01
  -1.344979e+02  -8.912110e+01
  -1.307480e+01  -1.033503e+02
   6.252272e+01  -6.705000e+01
   6.926929e+01   1.269540e+01
  -7.666497e+01   3.640909e+01
  -1.533772e+02  -4.423356e+01
  -5.415172e+01  -1.120790e+02
   9.435977e+01  -1.142069e+02
   2.111942e+02  -4.942495e+01
   1.614497e+02   2.914531e+01
   4.318995e+01   9.186771e+01
  -3.062176e+01   8.802426e+01
  -3.075364e+01  -1.439765e+01
   3.154143e+01  -5.204908e+01
   7.746396e+01   1.950850e+01
   5.268299e+01   1.371052e+02
  -1.152099e+02   1.429187e+02
  -1.797034e+02   5.842054e+01
  -1.671446e+02  -1.028576e+02
  -2.500332e+01  -1.999037e+02
   9.683540e+01  -1.383328e+02
   1.307203e+02   3.684309e+01
   5.066909e+01   1.188594e+02
  -1.526516e+01   9.632555e+01
  -4.708661e+01  -1.587081e+00
  -6.678377e+01  -3.600273e+01
  -1.079651e+00   1.216239e+00
  -1.224822e+01   2.438666e+01
  -2.549003e+01  -4.620606e+00
  -6.122290e+01  -7.543967e+01
  -3.158522e+01  -1.114335e+02
   2.841502e+01  -1.173394e+01
   1.412146e+02   4.709162e+00
   1.306734e+02   8.547184e+01
   2.337024e+01   6.085819e+01
  -8.771032e+01   4.331953e+01
  -7.472700e+01   3.277430e+01
   8.516423e-02  -4.678967e+01
   3.917472e+01  -2.625569e+01
   3.747261e+01  -4.608545e+00
   1.201407e-01  -2.132653e+00
   4.085153e+01  -1.962376e+01
   8.078221e+01  -1.215001e+01
   8.629261e+01   4.013278e+01
  -6.515787e-02   8.005330e+01
  -1.205421e+02   1.274720e+02
  -2.014582e+02   3.375882e+01
  -1.658829e+02  -4.855895e+01
  -3.928360e+01  -1.628318e+02
   7.885021e+01  -1.697143e+02
   9.347268e+01  -4.784811e+01
   7.464796e+01   1.289156e+01
   2.082007e+01   5.101068e+01
   1.604628e+01   1.807142e+01
   7.444468e+00   1.712658e+01
   3.991124e+01   5.364615e+01
   4.412357e+01   7.330096e+01
  -3.038385e+01   5.203455e+01
  -9.464582e+01  -1.719915e+01
  -8.505524e+01  -1.166050e+02
   7.693409e+00  -9.859790e+01
   8.693599e+01  -2.116997e+01
   1.080978e+02   6.260531e+01
   2.668125e+01   1.035312e+02
  -7.898875e+01   5.514707e+01
  -8.617392e+01  -2.114834e+00
  -3.391816e+01  -7.441307e+01
   1.440916e+01  -4.412580e+01
   3.464473e+01  -3.012344e+01
  -4.824027e+01  -1.085838e+00
  -6.645431e+01  -2.835495e+00
  -5.563048e+00  -1.798617e+01
   4.433880e+01  -7.302632e+01
   1.094506e+02  -8.433521e+01
   5.938461e+01   1.239785e+01
  -6.749038e+00   1.065914e+02
  -4.342613e+01   1.012413e+02
  -2.388790e+01  -9.434329e+00
   9.913013e-01  -6.101762e+01
   2.506237e+01  -5.325239e+01
   5.417632e+01   3.511156e+01
   7.119745e+01   7.204679e+01
  -3.086747e+01   2.606584e+01
  -2.270689e+01  -1.341424e+01
  -3.676981e+01  -1.404910e+01
  -4.188819e+01   6.992212e+00
   1.797006e+00   3.263427e+01
   1.583350e+01   1.060332e+01
   1.378068e+01  -3.752170e+01
   5.059411e+01  -4.645064e+01
   3.452324e+01  -1.814043e+01
   2.118155e+01   7.125192e+01
   2.219346e+00   5.989126e+01
  -4.494713e+01   2.966742e+01
  -6.361808e+01  -5.043599e+01
  -4.356403e+01  -5.242844e+01
   6.078575e+01  -2.286440e+01
   7.680259e+01   1.994384e+01
   4.485029e+01   5.878210e+01
  -3.087397e+01   3.843323e+01
  -7.059993e+01   2.219339e+01
  -1.936139e+01  -8.466618e+00
   3.701782e+01   5.464510e+00
   6.365112e+01   2.435554e+01
  -1.966766e+01   1.476348e+01
  -1.119453e+02  -1.111308e+01
