
 $NMID
 id='ANONYMOUS ', fmtdat='(2E16.6)'
 volume=1.0
 tramp=1.0
 $END
  -4.818462e+03   2.317968e+02
  -3.123769e+03  -2.728158e+03
   8.689731e+02  -2.988419e+03
   2.309483e+03  -1.030086e+03
   1.114372e+03   7.459906e+02
  -7.240712e+02   6.975066e+02
  -1.072672e+03  -4.285299e+02
  -1.056809e+02  -1.115298e+03
   8.828138e+02  -9.528655e+02
   1.112082e+03   9.685295e+01
   5.305683e+02   9.105921e+02
  -2.489296e+02   9.518667e+02
  -7.246033e+02   1.426153e+02
  -4.721388e+02  -7.197702e+02
   3.403010e+02  -8.454469e+02
   6.767005e+02  -3.244060e+01
   3.656041e+02   7.720365e+02
  -3.218236e+02   7.120903e+02
  -5.994917e+02   1.160547e+02
  -4.563980e+02  -3.836864e+02
  -7.379192e+01  -4.704421e+02
   2.666682e+02  -3.195534e+02
   2.237267e+02  -5.389634e+01
  -1.324159e+02   1.179183e+02
  -4.215652e+02  -9.199160e+01
  -2.641391e+02  -4.677008e+02
   4.505992e+02  -4.567487e+02
   8.643733e+02   2.195866e+00
   5.172719e+02   5.585562e+02
  -4.323632e+02   5.407226e+02
  -7.809213e+02  -5.067806e+00
  -4.167793e+02  -4.875020e+02
   2.739171e+02  -6.098885e+02
   6.058097e+02  -2.954359e+02
   4.641980e+02   2.078565e+02
   6.841327e+01   5.238910e+02
  -1.630664e+02   3.065386e+02
  -1.759894e+02  -2.018826e+02
   1.202526e+02  -5.361630e+02
   4.701642e+02  -7.489155e+01
   3.228709e+02   6.983781e+02
  -3.249841e+02   7.919724e+02
  -6.302767e+02   5.229629e+01
  -3.033785e+02  -6.184223e+02
   3.426454e+02  -4.006846e+02
   4.447856e+02   3.312466e+02
  -3.221742e+00   6.075116e+02
  -6.212793e+02   1.609516e+02
  -6.715971e+02  -4.386951e+02
  -1.887356e+02  -6.452881e+02
   4.155667e+02  -3.922139e+02
   6.818846e+02   7.046619e+01
   4.285252e+02   3.810303e+02
  -1.345973e+02   4.681351e+02
  -4.754058e+02   8.605920e+01
  -2.860743e+02  -2.548600e+02
   1.248548e+02  -1.845725e+02
   1.648465e+02   1.880450e+02
  -1.460264e+02   2.087748e+02
  -3.793534e+02  -3.497113e+01
  -1.782365e+02  -3.041560e+02
   2.060785e+02  -2.925705e+02
   3.276673e+02  -5.272000e+01
   1.976598e+02   1.092882e+02
  -4.866102e+01   2.237112e+02
  -2.356357e+02   3.224174e+02
  -3.566920e+02   2.295589e+02
  -2.811293e+02  -1.358497e+02
  -9.207791e+01  -4.486883e+02
   1.116770e+02  -4.387262e+02
   1.269636e+02  -1.048817e+02
   2.350396e+01   2.769298e+01
   1.724602e+01  -7.502944e+01
   2.041266e+02  -1.379823e+02
   2.993676e+02   2.379282e+01
   1.899781e+02   2.907867e+02
  -2.526847e+01   2.919784e+02
  -1.907016e+02   2.099027e+01
  -2.136858e+02  -2.336253e+02
  -4.422366e+00  -3.344316e+02
   2.768880e+02  -1.389887e+02
   4.022570e+02   1.828960e+02
   2.459484e+02   3.579402e+02
  -9.921601e+01   3.053541e+02
  -2.493579e+02   1.479957e+02
  -1.600267e+02   1.582405e+01
  -1.131452e+02   4.939688e+01
  -2.468435e+02   5.629549e+01
  -4.173258e+02  -2.714563e+01
  -3.630367e+02  -3.015710e+02
   3.958341e-01  -4.233508e+02
   3.536745e+02  -4.290144e+02
   4.952413e+02  -2.148320e+02
   3.779170e+02   6.932488e+01
   1.104911e+02   3.113406e+02
  -1.213059e+02   2.874462e+02
  -7.698261e+01   4.292350e+01
   9.331836e+01  -1.110173e+02
   2.179435e+02  -3.362978e+00
   3.755212e+01   2.033937e+02
  -1.568222e+02   2.265447e+02
  -1.980010e+02  -3.848692e+01
  -1.204639e+00  -1.982391e+02
   1.884124e+02  -5.694144e+01
   2.023203e+02   2.711983e+02
  -1.517843e+01   3.567968e+02
  -2.265834e+02   2.139269e+02
  -3.166685e+02  -4.737956e+01
  -2.770425e+02  -2.626491e+02
  -9.056483e+01  -2.321247e+02
   1.124085e+02  -1.640012e+02
   1.868987e+02  -4.485713e+01
   8.204684e+01   3.004414e+01
  -8.181893e+01  -4.731579e+01
  -3.104691e+01  -1.041669e+02
   1.235355e+02  -8.322512e+01
   1.918634e+02   2.122274e+00
   6.971346e+01   5.719944e+01
  -7.070711e+01   2.582202e+01
  -6.825922e+01  -9.107457e+01
   1.198435e+02  -8.815122e+01
   2.716352e+02  -1.949809e+01
   2.717551e+02   1.135870e+02
   6.186143e+01   2.685197e+02
  -1.815287e+02   2.659354e+02
  -2.900053e+02   1.517375e+02
  -1.836014e+02  -5.434695e+01
   3.036780e+01  -1.190557e+02
   1.110564e+02  -1.190455e+01
  -3.481139e+01   9.423338e+01
  -1.744283e+02   8.658618e+01
  -2.129058e+02  -1.050803e+02
  -7.924735e+01  -2.540937e+02
   5.846361e+01  -1.582547e+02
   1.533288e+02  -5.027705e+01
   9.726095e+01   4.183186e+01
  -2.631957e+01   1.966006e+01
  -5.360717e+01  -8.988759e+01
   5.434081e+01  -1.194072e+02
   2.296058e+02  -6.635333e+01
   2.015380e+02   1.178579e+02
   2.229046e+01   2.420094e+02
  -1.415506e+02   1.760786e+02
  -1.887380e+02   8.558108e+00
  -9.119327e+01  -1.383771e+02
   5.581650e+01  -1.216313e+02
   9.501514e+01  -3.600404e+01
   2.543507e+01   2.046455e+01
  -7.544900e+00   2.728993e+01
   2.486435e+01  -1.105959e+01
   6.117590e+01   2.014164e+01
   8.494542e+01   7.915972e+01
   3.305229e+01   1.583693e+02
  -1.241474e+02   1.460201e+02
  -2.296071e+02   5.649376e+01
  -2.300366e+02  -1.470061e+02
  -5.231969e+01  -2.617517e+02
   1.072660e+02  -1.982785e+02
   1.300093e+02  -3.394861e+01
   6.469745e+01   5.402116e+01
   2.798009e+01   4.273444e+01
   5.329416e+01  -1.791940e+01
   9.890130e+01   6.765589e+00
   6.017871e+01   5.782337e+01
  -3.481918e+01   1.191897e+02
  -9.083717e+01   6.370150e+01
  -1.199888e+02  -4.025556e+01
   1.852811e+01  -1.076626e+02
   1.254822e+02  -7.249009e+01
   2.039004e+02   4.239482e+01
   1.038401e+02   2.058376e+02
  -8.603523e+01   2.519661e+02
  -2.873008e+02   9.630218e+01
  -2.685569e+02  -7.875287e+01
  -9.077126e+01  -1.826983e+02
   2.138551e+01  -1.335736e+02
   8.623063e+01  -9.962483e+01
   5.475695e+01  -8.151612e+01
   6.152088e+01  -8.706213e+01
   9.689415e+01  -5.582099e+01
   1.066004e+02   2.048580e+01
   1.101241e+02   1.784916e+02
   7.520401e+01   2.223564e+02
  -1.057013e+02   1.917022e+02
  -1.588573e+02   1.275436e+01
  -1.648847e+02  -1.297751e+02
  -2.080150e+01  -1.626108e+02
   4.002724e+01  -8.453588e+01
   6.595930e+01   2.762986e+01
  -2.362970e+01   3.748468e+01
   2.203414e+00   3.628144e+01
   3.703489e+01   4.968571e+00
   6.879226e+01   1.047871e+01
   1.813686e+01   2.791169e+00
  -4.428234e+01   4.693388e+01
  -1.689184e+02   1.265334e+01
  -1.357818e+02  -4.106314e+01
   5.283309e+00  -1.185649e+02
   1.196487e+02  -9.490442e+01
   1.288887e+02   1.382628e+01
   5.235857e+01   6.003787e+01
  -5.902839e+01   1.659245e+01
  -6.506009e+01  -1.000007e+01
  -6.193521e+00  -8.962624e+01
   4.899546e+01  -3.300380e+01
   7.448097e+01   3.116406e+00
   4.983060e+01   4.152019e+01
   4.021221e+01   5.814715e+01
   7.578838e+01   4.133607e+00
   9.313087e+01  -8.903881e+00
   2.709084e+01   7.338530e+01
  -3.610469e+01   1.359113e+02
  -1.186204e+02   1.418697e+02
  -1.494230e+02   5.941244e+01
  -1.332431e+02  -8.350289e+01
   1.926380e+01  -1.457061e+02
   7.104654e+01  -5.063930e+01
   8.473944e+01   9.879942e+00
  -3.507613e+01   2.898660e+01
  -1.381728e+02  -6.444749e+01
  -8.334841e+01  -1.263848e+02
   6.775947e+01  -1.303237e+02
   1.724095e+02  -6.126308e+01
   1.518977e+02   1.842569e+01
   3.766126e+01   9.747015e+01
  -4.565157e+01   8.120808e+01
  -4.759433e+01   6.128893e+00
   4.402016e+01  -8.500313e+00
   7.711739e+01   1.144164e+01
   2.026895e+01   9.183779e+01
  -7.683679e+01   1.303907e+02
  -1.748868e+02   7.469214e+01
  -1.728364e+02  -9.905228e+01
   9.298967e+00  -2.109875e+02
   1.063676e+02  -1.466608e+02
   1.343669e+02   4.296258e+00
   6.805939e+01   1.270389e+02
  -9.214984e+00   1.174649e+02
  -4.571589e+01  -6.446896e+00
  -4.394427e+01  -5.264464e+01
  -7.258921e+01   1.744200e+00
  -1.743825e+01   2.042175e+01
   6.761673e+00  -4.082701e+01
  -7.214797e+01  -9.448859e+01
  -2.758494e+01  -1.381796e+02
   4.712761e+01  -3.454351e+01
   1.428212e+02  -9.941775e+00
   1.141936e+02   5.617764e+01
  -1.012977e+01   5.204550e+01
  -8.084729e+01   2.103497e+01
  -8.539276e+01  -2.134883e+00
  -3.024357e+01  -2.773791e+01
   5.053013e+01  -3.083895e+01
   2.138886e+01  -2.448808e+01
  -1.898896e+01  -1.448393e+00
   7.314874e+00  -3.019802e+01
   8.968501e+01   1.406314e+01
   1.134964e+02   2.066100e+01
  -1.723121e+01   9.347371e+01
  -1.332579e+02   1.184941e+02
  -2.166097e+02   6.808717e+01
  -1.606501e+02  -7.678419e+01
  -4.200289e+01  -1.795099e+02
   5.872883e+01  -1.634465e+02
   1.004743e+02  -5.880456e+01
   1.038215e+02   3.142297e+01
   3.133405e+01   3.794663e+01
  -7.893774e-01   5.457489e+00
   6.726603e+00   1.581854e+01
   7.325504e+00   5.499741e+01
   2.833901e+01   1.013583e+02
  -2.546358e+01   8.525938e+01
  -8.778508e+01  -1.734370e+01
  -5.600900e+01  -1.209666e+02
  -2.445508e+01  -6.640113e+01
   1.178674e+02  -1.903019e+01
   1.127078e+02   7.162553e+01
   3.559789e+01   1.062866e+02
  -4.170422e+01   4.850331e+01
  -1.055502e+02  -1.929358e+01
  -1.788686e+01  -5.906961e+01
   2.826913e+01  -5.028565e+01
   7.262598e+01  -3.141265e+01
  -3.039141e+01  -5.772232e+00
  -5.218792e+01   7.751137e+00
  -1.820998e+00  -1.841788e+01
   7.718229e+01  -9.102048e+01
   9.204094e+01  -3.970053e+01
   8.836662e+01  -1.605422e+01
  -1.217822e+01   9.705355e+01
  -4.740750e+01   7.904584e+01
  -5.766470e+00  -3.277507e+00
  -1.081611e+01  -3.180054e+01
   6.564457e+00  -2.779025e+01
   2.990483e+01   1.346260e+01
   4.834236e+01   4.873443e+01
   1.499511e+01   2.809151e+01
  -2.585251e+01  -7.331593e+00
  -4.481888e+01  -1.120064e+01
  -9.305400e+00  -1.405706e+00
  -2.270801e+01   1.019265e+01
   9.786594e+00   1.322874e+01
  -3.270387e-02  -6.345497e+01
   3.278529e+01  -7.867794e+01
   3.264610e+01  -1.742251e+01
   2.069808e+01   8.690624e+01
   8.421821e+00   6.202602e+01
  -2.614653e+01  -1.256298e+01
  -7.672189e+01  -5.878240e+01
  -1.116032e+01  -5.223929e+01
   6.064873e+01  -3.752915e+01
   1.115088e+02  -3.275133e+00
   8.018447e+01   4.365688e+01
  -3.262933e+01   6.258831e+01
  -6.330877e+01   3.873467e+01
  -2.549334e+00   1.221154e+01
   4.708362e+01   3.141846e+00
   2.748753e+01   4.664366e+00
  -5.480153e+01   1.517241e+00
  -1.180689e+02   4.160000e+01
