
 $NMID
 id='ANONYMOUS ', fmtdat='(2E16.6)'
 volume=1.0
 tramp=1.0
 $END
   4.860453e+03  -3.015999e+02
   3.133123e+03   2.701090e+03
  -8.958697e+02   2.948757e+03
  -2.419880e+03   1.110628e+03
  -1.058377e+03  -7.646817e+02
   7.525740e+02  -7.096112e+02
   1.042434e+03   4.524817e+02
   1.231633e+02   1.146098e+03
  -9.384015e+02   9.407996e+02
  -1.110143e+03  -1.517841e+02
  -5.207663e+02  -9.211568e+02
   2.695602e+02  -9.481985e+02
   7.164073e+02  -1.570187e+02
   4.732596e+02   7.630289e+02
  -3.101609e+02   8.582616e+02
  -6.673707e+02   2.630326e+01
  -3.380934e+02  -7.687319e+02
   3.543922e+02  -7.256711e+02
   5.647505e+02  -1.142696e+02
   4.133538e+02   3.937612e+02
   7.839060e+01   4.857814e+02
  -2.459793e+02   3.185800e+02
  -2.283691e+02   5.396768e+01
   1.136147e+02  -1.203693e+02
   3.820998e+02   9.238626e+01
   2.512550e+02   4.535273e+02
  -4.396399e+02   4.232623e+02
  -8.334049e+02  -2.154480e+01
  -5.167784e+02  -5.603205e+02
   4.270727e+02  -5.354219e+02
   8.578431e+02   2.982997e+01
   4.193667e+02   4.906164e+02
  -2.509141e+02   5.753000e+02
  -6.227712e+02   2.915792e+02
  -4.486201e+02  -1.930571e+02
  -4.976890e+01  -4.844158e+02
   1.896572e+02  -3.079530e+02
   2.198968e+02   2.113907e+02
  -1.283916e+02   5.204662e+02
  -4.663116e+02   3.891044e+01
  -2.801864e+02  -6.714638e+02
   2.854981e+02  -8.192849e+02
   6.509473e+02  -6.336794e+01
   3.312129e+02   6.230715e+02
  -3.223316e+02   3.819899e+02
  -4.280190e+02  -3.649532e+02
   1.973157e+01  -6.051310e+02
   6.159180e+02  -1.688789e+02
   6.565399e+02   4.192946e+02
   2.117542e+02   5.893996e+02
  -3.817670e+02   4.105286e+02
  -6.699077e+02  -8.547210e+01
  -4.230989e+02  -3.607237e+02
   1.240580e+02  -4.526494e+02
   4.977847e+02  -1.105802e+02
   3.224497e+02   2.571581e+02
  -1.556671e+02   1.444680e+02
  -1.712492e+02  -1.918910e+02
   1.626674e+02  -2.168918e+02
   3.676719e+02   2.252394e+01
   1.789581e+02   3.259661e+02
  -2.076072e+02   2.794344e+02
  -3.358816e+02   8.473256e+01
  -1.675195e+02  -7.107432e+01
   2.596305e+01  -2.265508e+02
   2.214578e+02  -3.247905e+02
   3.702728e+02  -2.410274e+02
   2.969671e+02   1.463387e+02
   7.748884e+01   4.791390e+02
  -1.248753e+02   4.478313e+02
  -1.185533e+02   1.295925e+02
  -4.780135e+01  -1.742761e+01
  -4.849812e+01   4.161239e+01
  -1.917797e+02   1.429314e+02
  -2.793991e+02  -3.172851e+01
  -1.984139e+02  -2.851638e+02
   5.270688e+01  -2.660508e+02
   2.108010e+02  -3.066658e+01
   2.105252e+02   2.338746e+02
   1.504184e+01   3.406836e+02
  -2.716581e+02   1.563764e+02
  -3.983286e+02  -1.571411e+02
  -2.168724e+02  -3.758022e+02
   9.197251e+01  -3.315796e+02
   2.355982e+02  -1.375490e+02
   1.637359e+02   7.589243e+00
   1.313390e+02  -2.797388e+01
   2.355781e+02  -5.713665e+01
   3.995079e+02   4.545136e+01
   3.671510e+02   2.784933e+02
  -7.899176e+00   4.625117e+02
  -3.472499e+02   4.186696e+02
  -4.759543e+02   2.094556e+02
  -3.682825e+02  -4.532555e+01
  -1.062975e+02  -3.311475e+02
   8.776660e+01  -2.901166e+02
   7.681568e+01  -2.771054e+01
  -1.092304e+02   1.307460e+02
  -2.121057e+02  -1.088855e+01
  -7.547173e+01  -1.992671e+02
   1.470456e+02  -2.335236e+02
   1.977973e+02   3.110045e+01
   5.377461e+00   1.678099e+02
  -1.830659e+02   5.069545e+01
  -1.667004e+02  -2.540832e+02
   1.818962e+01  -3.341734e+02
   2.293584e+02  -2.153251e+02
   3.112853e+02   8.366208e+01
   2.659501e+02   2.673168e+02
   9.940849e+01   2.300669e+02
  -1.096587e+02   1.914881e+02
  -1.991469e+02   5.624506e+01
  -6.770125e+01  -3.095024e+01
   1.159632e+02   4.276436e+01
   4.736345e+01   1.146011e+02
  -1.264867e+02   1.180013e+02
  -1.875588e+02   1.545672e+01
  -6.595250e+01  -7.178321e+01
   7.372981e+01  -2.866451e+01
   6.023581e+01   7.324243e+01
  -1.285020e+02   1.000447e+02
  -2.836405e+02   1.500053e+01
  -2.627528e+02  -1.149690e+02
  -7.036510e+01  -2.462555e+02
   1.538704e+02  -2.604060e+02
   3.122391e+02  -1.355929e+02
   1.410754e+02   4.750656e+01
  -2.570738e+01   1.135073e+02
  -8.856669e+01   1.359467e+01
   4.012909e+01  -1.353633e+02
   2.046191e+02  -9.671327e+01
   2.282578e+02   8.743878e+01
   8.231830e+01   2.494237e+02
  -8.219954e+01   1.647135e+02
  -1.578824e+02   3.188312e+01
  -8.025522e+01  -4.143294e+01
   1.958318e+01   7.313610e+00
   5.686668e+01   7.397924e+01
  -7.211310e+01   1.440450e+02
  -2.008471e+02   4.796158e+01
  -1.946650e+02  -9.631270e+01
  -2.305344e+01  -2.290299e+02
   1.559196e+02  -1.605217e+02
   1.999427e+02  -2.661896e+01
   6.827402e+01   1.402893e+02
  -8.790952e+01   1.156825e+02
  -6.248162e+01   2.465737e+01
  -1.198390e+01   1.709095e+01
   4.484338e+01   1.659994e+00
  -7.820174e+00   1.937720e+01
  -7.838478e+01  -1.666183e+01
  -7.548677e+01  -7.464050e+01
  -3.572471e+01  -1.675206e+02
   1.372833e+02  -1.572381e+02
   2.188169e+02  -6.868472e+01
   2.083309e+02   1.425360e+02
   4.136779e+01   2.577998e+02
  -1.002206e+02   1.698331e+02
  -1.413380e+02   2.323187e+01
  -6.475511e+01  -6.591350e+01
  -2.397553e+01  -4.700611e+01
  -4.587090e+01   1.845744e+01
  -8.645034e+01  -6.469545e+00
  -4.537012e+01  -4.973309e+01
   4.610388e+01  -9.371221e+01
   8.952917e+01  -4.251003e+01
   9.260583e+01   3.944074e+01
  -1.139728e+01   1.103336e+02
  -1.675132e+02   8.405528e+01
  -2.132931e+02  -3.033454e+01
  -1.030635e+02  -2.059189e+02
   1.028568e+02  -2.544797e+02
   2.889086e+02  -9.894351e+01
   2.956762e+02   8.855056e+01
   1.162988e+02   1.702941e+02
  -3.175819e+01   1.370305e+02
  -6.644239e+01   1.005634e+02
  -5.754742e+01   6.838465e+01
  -8.188341e+01   9.218969e+01
  -1.137687e+02   8.929807e+01
  -1.344735e+02  -3.509076e+01
  -1.591994e+02  -1.449180e+02
  -2.526760e+01  -2.314786e+02
   8.048313e+01  -1.991655e+02
   1.770638e+02  -4.831339e+00
   1.835088e+02   1.166382e+02
  -2.044037e+00   1.405431e+02
  -6.426561e+01   8.142432e+01
  -5.611123e+01   1.864943e+01
  -2.285495e+01  -4.760435e+01
   1.184777e+01  -2.331743e+01
  -3.301079e+01  -2.985532e+01
  -7.482962e+01  -3.489485e+01
  -6.378808e+01  -3.540728e+01
   4.773883e+01  -3.923836e+01
   1.696224e+02  -1.163806e+01
   1.309863e+02   5.267909e+01
   1.745525e+01   6.498263e+01
  -1.647267e+02   8.942261e+01
  -1.165498e+02   2.301534e+01
  -6.387066e+01  -7.916700e+01
   6.366076e+01  -3.433845e+01
   7.265116e+01   8.540976e+00
   4.437265e+00   7.590364e+01
  -6.300456e+01   4.202734e+01
  -1.146848e+02   1.938043e+00
  -5.384545e+01  -5.312923e+01
  -4.727136e+01  -3.956694e+01
  -5.335581e+01  -9.623370e+00
  -6.494380e+01   6.773522e+00
  -4.319861e+01  -9.182778e+01
   3.741568e+01  -1.434519e+02
   1.274636e+02  -1.644792e+02
   1.332224e+02  -2.897415e+01
   1.392755e+02   1.180510e+02
   2.175843e+01   1.401786e+02
  -1.120468e+02   1.258022e+01
  -4.974069e+01  -6.779588e+00
   4.570628e+01   6.971530e+00
   1.410704e+02   7.161174e+01
   8.835511e+01   1.063242e+02
  -7.480434e+01   1.239766e+02
  -1.737083e+02   6.234789e+01
  -1.787539e+02  -1.519399e+01
  -2.436332e+01  -8.816177e+01
   5.834486e+01  -8.825141e+01
   3.454607e+01   1.066250e+01
  -5.232390e+01   9.874038e+00
  -7.364712e+01  -1.907828e+01
  -5.869028e+01  -1.345457e+02
   8.848338e+01  -1.619291e+02
   1.608689e+02  -5.978329e+01
   1.602659e+02   1.076673e+02
   1.039665e+01   1.897884e+02
  -9.696518e+01   1.618027e+02
  -8.906864e+01  -3.265795e+00
  -7.985649e+01  -1.011542e+02
  -1.740265e+01  -1.254803e+02
   5.292445e+01  -8.780024e+00
   6.373100e+01   3.635592e+01
   4.335197e+01   1.325096e+01
   2.663084e+00  -1.867367e+01
   9.402010e+00   2.963540e+01
   7.509367e+01   7.761574e+01
   5.400740e+01   1.488129e+02
  -4.942905e+01   6.360662e+01
  -1.733581e+02  -1.000836e+01
  -1.232555e+02  -8.557204e+01
   3.997429e+00  -2.462584e+01
   8.818961e+01  -3.494542e+01
   8.305733e+01  -1.312541e+01
   8.625679e+00   1.817973e-01
  -4.538489e+01   3.553204e+01
  -3.536178e+01  -2.235728e+01
   5.073356e+01  -4.419912e+00
   5.867943e+00  -2.076766e+01
  -6.949865e+01  -9.171359e+00
  -1.176489e+02  -2.419611e+01
  -1.935419e+01  -8.933509e+01
   1.502148e+02  -1.226816e+02
   1.967738e+02  -5.710685e+01
   1.360542e+02   6.974474e+01
   2.877015e+01   1.883711e+02
  -7.270053e+01   1.435331e+02
  -1.089223e+02   6.740639e+01
  -6.901113e+01  -4.172533e+01
  -4.076517e+01  -5.461258e+01
   1.428375e+01  -2.146752e+01
   5.585240e+00   1.032631e+01
  -2.746250e+01  -5.307698e+01
  -1.580700e+01  -8.827107e+01
   5.149663e+01  -6.877631e+01
   1.003155e+02   4.742234e+01
   7.975592e+01   1.317465e+02
   5.536980e+00   1.119552e+02
  -1.084580e+02   2.826003e+01
  -6.915177e+01  -7.198004e+01
  -6.998003e+01  -1.088553e+02
   7.311019e+01  -6.152559e+01
   1.090381e+02   2.938574e+01
   2.457260e+01   7.388074e+01
  -4.708031e+01   7.160404e+01
  -3.487997e+01   3.492112e+01
   1.600348e+01   1.446843e+01
   7.460455e+01  -1.964140e+01
   1.722876e+01   2.769828e+00
  -6.462813e+01   7.397606e+01
  -1.179913e+02   4.416453e+01
  -8.404435e+01   6.343653e+00
  -9.131263e+00  -1.238999e+02
   5.772975e+01  -7.773822e+01
   2.752036e+01   2.725611e+01
   2.331484e+01   3.951241e+01
  -3.570270e+01   7.574111e+01
  -6.193831e+01   1.896358e-01
  -1.205150e+01  -5.237296e+01
  -8.252133e+00  -1.016658e+01
   1.098552e+01   2.125893e+01
   5.045580e+01   1.391453e+01
   1.566412e+01   4.318062e-01
  -9.389327e+00   4.679426e+00
  -4.319827e+01   8.061995e+00
  -1.504122e+01   3.173326e+01
  -1.295641e+01   3.652972e+01
  -3.633033e+01   1.128955e+00
  -3.225415e+01  -5.494678e+01
   3.198716e+00  -5.516279e+01
   5.811438e+01  -3.488837e+01
   4.181389e+01   3.322227e+01
   2.298842e+01   5.140241e+01
  -4.215833e+01   2.348016e+01
  -9.388631e+01   2.195514e+00
  -6.888419e+01  -6.474561e+01
   2.022321e+01  -5.632413e+01
   4.365672e+01  -1.915291e+01
   2.288535e+01  -1.826694e+01
  -5.114228e+01   1.924697e+01
  -2.819944e+01  -2.251829e+01
   4.712462e+01  -2.469844e+01
   9.308419e+01  -3.149361e+01
