
 $NMID
 id='ANONYMOUS ', fmtdat='(2E16.6)'
 volume=1.0
 tramp=1.0
 $END
  -4.105036e+03   4.209923e+02
  -2.864271e+03  -2.346776e+03
   6.552325e+02  -2.461496e+03
   2.002579e+03  -9.656361e+02
   9.206583e+02   5.080338e+02
  -4.784398e+02   5.024457e+02
  -8.633003e+02  -3.273238e+02
  -1.351423e+02  -1.087503e+03
   7.105688e+02  -8.182744e+02
   8.591221e+02   1.179110e+01
   5.186254e+02   7.861031e+02
  -1.450808e+02   8.814348e+02
  -5.688732e+02   1.695074e+02
  -3.916937e+02  -6.551504e+02
   1.826228e+02  -7.502037e+02
   6.143796e+02  -5.558515e+01
   3.113068e+02   6.697072e+02
  -2.488109e+02   6.859132e+02
  -5.708905e+02   1.807088e+02
  -4.512974e+02  -3.154811e+02
  -7.983811e+01  -4.368516e+02
   1.972695e+02  -2.727490e+02
   1.961589e+02  -4.348185e+01
  -1.180170e+02   2.824819e+01
  -4.027253e+02  -1.356393e+02
  -1.916721e+02  -4.254261e+02
   4.791789e+02  -3.695655e+02
   8.145927e+02  -2.218751e+00
   5.098617e+02   5.212256e+02
  -4.110007e+02   4.345308e+02
  -6.626662e+02   5.307458e+00
  -3.561368e+02  -4.277353e+02
   2.101582e+02  -5.419537e+02
   5.382150e+02  -1.845397e+02
   4.207190e+02   1.890993e+02
   3.723238e+01   4.090343e+02
  -1.688571e+02   3.098461e+02
  -1.101573e+02  -2.001123e+02
   1.284170e+02  -4.151336e+02
   3.921611e+02  -1.868029e+01
   3.328834e+02   5.860978e+02
  -3.043528e+02   7.000841e+02
  -6.098306e+02   1.333694e+02
  -2.250207e+02  -4.749415e+02
   2.539786e+02  -3.079130e+02
   3.799723e+02   2.770090e+02
  -1.573821e+01   5.518328e+02
  -5.307978e+02   1.582129e+02
  -6.147616e+02  -3.710478e+02
  -2.062707e+02  -5.694060e+02
   3.246976e+02  -3.423789e+02
   5.896685e+02   6.883031e+00
   4.183144e+02   3.546601e+02
  -1.336295e+02   3.529930e+02
  -4.221727e+02   8.427209e+01
  -2.438721e+02  -1.811916e+02
   8.873939e+01  -9.123130e+01
   1.534830e+02   1.384671e+02
  -1.258320e+02   1.850133e+02
  -3.452430e+02  -4.424144e+01
  -1.854193e+02  -2.841050e+02
   1.598598e+02  -2.614367e+02
   3.328706e+02  -5.689291e+01
   2.342645e+02   7.328769e+01
  -1.066427e+00   2.556859e+02
  -2.331772e+02   3.276661e+02
  -3.391824e+02   2.285324e+02
  -2.539450e+02  -1.613134e+02
  -9.605869e+01  -4.047084e+02
   6.297736e+01  -3.725905e+02
   9.179397e+01  -1.396826e+02
   2.360484e+01  -2.360302e+01
   4.570287e+01  -6.379069e+01
   2.037709e+02  -1.246892e+02
   2.864829e+02   5.470573e+01
   1.193199e+02   2.848168e+02
  -5.214880e+01   2.514932e+02
  -2.221582e+02   3.497966e+01
  -1.835097e+02  -2.282683e+02
   2.357134e+01  -2.962739e+02
   2.647193e+02  -9.554985e+01
   3.772973e+02   1.295031e+02
   2.298083e+02   3.375034e+02
  -9.930947e+01   2.930992e+02
  -2.294726e+02   1.415746e+02
  -1.605292e+02  -1.939765e+01
  -8.867593e+01   3.389099e+01
  -2.242322e+02   2.587763e+01
  -4.199071e+02  -3.152531e+01
  -3.414551e+02  -2.513728e+02
  -1.927715e+01  -4.438334e+02
   3.471123e+02  -4.120263e+02
   4.926398e+02  -2.306715e+02
   3.373894e+02   7.670927e+01
   6.918313e+01   2.667050e+02
  -1.190651e+02   2.687903e+02
  -8.243201e+01   2.250639e+01
   9.170336e+01  -1.088952e+02
   1.640228e+02  -8.749102e+00
   4.115498e+01   1.745265e+02
  -1.007355e+02   1.471026e+02
  -1.891754e+02  -4.671913e+01
  -3.024624e+01  -1.977950e+02
   2.003009e+02  -6.970518e+01
   1.859501e+02   2.378877e+02
  -5.011379e+01   3.475410e+02
  -2.214830e+02   2.124629e+02
  -3.539073e+02  -1.996603e+01
  -2.927456e+02  -2.266602e+02
  -1.272499e+02  -2.679767e+02
   9.696799e+01  -1.509559e+02
   1.954499e+02  -2.950727e+01
   7.945018e+01   1.815499e+01
  -8.967859e+01  -3.493914e+01
  -3.766100e+01  -1.069539e+02
   1.333717e+02  -8.274752e+01
   1.774597e+02   4.667190e+01
   5.845370e+01   4.449474e+01
  -8.115148e+01   1.681419e+01
  -4.350003e+01  -1.129644e+02
   1.140903e+02  -1.147815e+02
   2.793274e+02   2.247754e+00
   2.714647e+02   1.235373e+02
   5.213617e+01   2.509600e+02
  -1.654631e+02   2.821726e+02
  -2.681338e+02   1.326595e+02
  -1.411479e+02  -5.210905e+00
   2.663881e+01  -1.059474e+02
   8.935213e+01  -3.311180e+01
  -3.778008e+01   1.305633e+02
  -1.727087e+02   7.245271e+01
  -2.159130e+02  -9.315919e+01
  -8.609913e+01  -2.184212e+02
   9.371295e+01  -1.823607e+02
   1.387027e+02  -3.005130e+01
   6.370084e+01   3.245534e+01
  -6.978008e+00   9.677230e+00
  -2.143065e+01  -8.874308e+01
   7.133849e+01  -1.155535e+02
   1.999103e+02  -4.075566e+01
   1.929258e+02   1.230339e+02
   2.732795e+00   2.249289e+02
  -1.442556e+02   1.812845e+02
  -2.017917e+02   3.104504e-01
  -5.726879e+01  -8.472910e+01
   4.093465e+01  -1.243518e+02
   8.908739e+01  -3.757120e+01
  -4.401721e+00   2.439439e+01
  -1.812322e+01   3.671972e+01
   2.445128e+01  -8.186011e+00
   6.468610e+01   1.207398e+01
   7.848890e+01   8.972724e+01
   3.029885e+01   1.908938e+02
  -1.133612e+02   1.512685e+02
  -2.532085e+02   3.875612e+01
  -2.004281e+02  -1.576654e+02
  -4.259864e+01  -2.531647e+02
   1.123104e+02  -1.698793e+02
   1.408337e+02  -2.758074e+01
   6.217651e+01   3.958994e+01
   1.964434e+01   3.407085e+01
   7.477293e+01  -2.604677e+01
   8.957869e+01  -3.944512e+00
   6.445557e+01   6.483688e+01
  -4.002096e+01   9.674786e+01
  -1.012593e+02   7.066270e+01
  -1.100941e+02  -5.804512e+01
   3.201286e+01  -1.436546e+02
   1.228713e+02  -5.703491e+01
   1.905817e+02   6.885211e+01
   1.025785e+02   2.037615e+02
  -9.704214e+01   2.597813e+02
  -2.707664e+02   1.339855e+02
  -2.483655e+02  -8.538499e+01
  -1.182305e+02  -1.715477e+02
   3.596614e+01  -1.588737e+02
   1.027809e+02  -1.025862e+02
   5.908393e+01  -8.370646e+01
   6.678786e+01  -7.715922e+01
   8.524551e+01  -5.513088e+01
   1.281211e+02   2.932405e+01
   1.657856e+02   1.523014e+02
   3.908406e+01   2.229826e+02
  -9.304613e+01   1.569362e+02
  -1.511036e+02   1.426807e+01
  -1.607678e+02  -1.323750e+02
  -1.052914e+01  -1.720611e+02
   8.932168e+01  -9.532915e+01
   3.263902e+01   3.346164e+01
   9.943819e-01   4.391146e+01
  -1.052045e+01   4.963737e+01
   6.140611e+00   7.315951e+00
   8.191580e+01   1.302936e+01
   3.856312e+01   3.659043e+01
  -4.191136e+01   4.554041e+01
  -2.059875e+02   3.977226e+00
  -1.337385e+02  -3.992971e+01
   2.088455e+00  -9.608651e+01
   1.262897e+02  -7.398838e+01
   1.569401e+02  -4.282954e+01
   2.113062e+01   6.562046e+01
  -7.206608e+01   7.247653e+01
  -9.343952e+01  -1.753147e+01
  -8.835045e+00  -5.568998e+01
   6.948089e+01  -4.138343e+01
   6.821514e+01   1.516463e+01
   7.616440e+01   5.093872e+01
   4.720908e+01   4.309723e+01
   6.249844e+01   4.156406e+00
   5.676082e+01   4.604236e+00
   3.764939e+01   6.405021e+01
  -3.175650e+01   1.478199e+02
  -1.180487e+02   1.729699e+02
  -1.565690e+02   2.577698e+01
  -1.315955e+02  -9.436260e+01
   8.292850e+00  -1.160318e+02
   7.780229e+01  -4.469644e+01
   4.748599e+01   2.895550e+01
  -4.254159e+01   1.323394e+01
  -1.403429e+02  -5.145280e+01
  -9.537692e+01  -1.004050e+02
   6.423739e+01  -1.034072e+02
   1.944789e+02  -7.062468e+01
   1.698484e+02   2.143816e+01
   1.929027e+01   1.083575e+02
  -3.039208e+01   6.196339e+01
  -4.785039e+01  -1.354773e+01
   4.308317e+01  -9.585565e+00
   9.560165e+01   3.756057e+01
   2.076405e+01   1.111055e+02
  -5.425125e+01   1.756618e+02
  -1.926659e+02   8.803007e+01
  -1.305545e+02  -7.530217e+01
  -8.732926e+00  -1.982056e+02
   7.750179e+01  -1.535715e+02
   1.234960e+02  -3.975255e-01
   9.337461e+01   1.206842e+02
  -1.259977e+01   1.078782e+02
  -3.852895e+01   1.725502e+01
  -6.719025e+01  -3.038935e+01
  -5.038580e+01   1.501079e+01
  -1.342837e+01   1.797240e+01
  -2.425424e+01  -2.930216e+00
  -6.622437e+01  -9.541782e+01
  -5.496900e+01  -1.051263e+02
   1.969781e+01  -4.891708e+01
   1.393248e+02   6.029886e+01
   1.389925e+02   8.106568e+01
   1.092843e+01   6.807668e+01
  -9.093720e+01   2.293118e+01
  -9.373645e+01   2.391514e+01
  -2.372638e+01  -9.383657e+00
   4.560562e+01  -5.114403e+01
   2.827777e+01  -3.829299e+01
  -3.765103e+01  -4.015617e+01
  -9.570228e+00  -3.537037e+01
   7.890031e+01   6.388853e+00
   7.655141e+01   1.629312e+01
   2.252958e+01   6.002287e+01
  -1.109206e+02   1.058947e+02
  -1.825557e+02   5.921305e+01
  -1.351044e+02  -5.984204e+01
  -2.166702e+01  -1.532552e+02
   5.516096e+01  -1.552228e+02
   9.700543e+01  -4.000210e+01
   7.396021e+01  -3.899455e+00
   2.988500e+01   5.867153e+01
  -5.254086e+00   2.085096e+01
   2.431995e+00  -1.692387e+01
   1.312894e+01   3.301955e+01
   7.465251e+00   9.502110e+01
  -3.773648e+01   8.493773e+01
  -8.558565e+01  -2.755244e+01
  -8.588017e+01  -1.055783e+02
  -1.164714e+01  -1.380679e+02
   7.579689e+01  -1.612207e+01
   9.361753e+01   9.324629e+01
   4.376077e+01   8.877756e+01
  -7.086148e+01   6.921986e+01
  -8.878998e+01   8.364273e+00
  -3.228978e+01  -6.288812e+01
   5.221471e+01  -6.403838e+01
   1.921095e+01  -1.026149e+01
  -5.952471e+01   8.787728e+00
  -9.181763e+01  -7.142089e+00
  -2.607803e+01  -6.437715e+00
   6.318639e+01  -3.699197e+01
   1.190249e+02  -4.341560e+01
   8.010252e+01   6.609751e+00
   6.321130e+00   9.697213e+01
  -6.379694e+01   7.641046e+01
  -3.404251e+01   7.774434e+00
  -4.807159e+00  -5.614981e+01
   2.149460e+01  -5.483895e+01
   3.429111e+01   8.094030e+00
   5.447994e+01   4.607625e+01
  -4.001931e+00   4.136927e+01
  -1.460030e+01  -1.753914e+01
  -3.622504e+01  -1.284252e+01
  -1.444139e+01   1.125075e+01
   1.500242e+01   1.479054e+01
   1.878603e+01   5.814439e-01
  -4.316041e+00  -2.633557e+01
   8.103912e+00  -5.885137e+01
   7.283706e+01  -2.163363e+01
   4.433449e+01   8.344579e+01
  -2.511405e+01   4.420464e+01
  -5.115639e+01   6.738004e+00
  -8.440065e+01  -3.930574e+01
  -9.749195e-01  -6.097103e+01
   4.498366e+01  -4.920342e+01
   9.326223e+01  -2.274198e+01
   6.108315e+01   6.169119e+01
  -3.722493e+01   3.348340e+01
  -7.161830e+01   3.010513e+01
   1.608270e+01   2.824984e+01
   5.923384e+01   7.498236e-02
   3.453596e+01   2.358462e+01
  -5.120316e+01   1.345531e+01
  -8.902431e+01   3.003080e+01
