
 $NMID
 id='ANONYMOUS ', fmtdat='(2E16.6)'
 volume=1.0
 tramp=1.0
 $END
   4.411840e+03  -3.564440e+02
   2.938748e+03   2.354380e+03
  -6.916412e+02   2.795108e+03
  -2.168658e+03   1.210133e+03
  -1.109300e+03  -4.256880e+02
   4.899339e+02  -6.447008e+02
   9.097272e+02   3.075392e+02
   1.546769e+02   1.012217e+03
  -7.557010e+02   8.099145e+02
  -9.125289e+02   3.542142e+01
  -4.989193e+02  -8.111372e+02
   1.308587e+02  -9.361448e+02
   5.769451e+02  -1.905432e+02
   4.228286e+02   6.177995e+02
  -1.797734e+02   7.047029e+02
  -5.884010e+02   4.890870e+01
  -3.285456e+02  -6.077665e+02
   2.441439e+02  -6.785015e+02
   5.877017e+02  -2.001443e+02
   4.481179e+02   2.866115e+02
   4.161096e+01   4.616133e+02
  -2.401793e+02   3.037579e+02
  -2.095445e+02   5.529654e+01
   1.230562e+02  -6.341461e+01
   3.923016e+02   1.291798e+02
   1.942289e+02   3.594603e+02
  -3.998806e+02   3.389516e+02
  -8.192371e+02   8.046287e+00
  -4.879939e+02  -5.076136e+02
   3.184023e+02  -4.434439e+02
   6.800697e+02   4.205923e+01
   3.699922e+02   4.501865e+02
  -2.515039e+02   5.065433e+02
  -5.463083e+02   1.892725e+02
  -4.460625e+02  -2.073135e+02
  -6.021739e+01  -4.177346e+02
   1.499338e+02  -3.016912e+02
   8.336697e+01   1.395065e+02
  -9.274652e+01   4.195526e+02
  -4.043825e+02   5.100729e+01
  -3.050800e+02  -6.144938e+02
   2.503391e+02  -6.973394e+02
   6.347857e+02  -1.441766e+02
   2.799036e+02   5.150938e+02
  -2.680362e+02   2.832423e+02
  -3.726166e+02  -2.468139e+02
  -1.114022e+01  -5.296001e+02
   5.577874e+02  -1.659052e+02
   6.162114e+02   3.654893e+02
   1.873571e+02   5.833744e+02
  -3.517497e+02   3.612845e+02
  -6.532360e+02  -5.677959e+01
  -4.227205e+02  -3.765407e+02
   1.141970e+02  -3.661204e+02
   3.990661e+02  -1.233670e+02
   2.815983e+02   1.679256e+02
  -5.068879e+01   1.371350e+02
  -1.735982e+02  -1.124688e+02
   1.377924e+02  -2.032370e+02
   3.518459e+02  -2.088343e+01
   2.002764e+02   2.818875e+02
  -1.657350e+02   2.786148e+02
  -3.455601e+02   7.446701e+01
  -1.970606e+02  -8.247090e+01
   3.079565e+01  -2.332462e+02
   2.408366e+02  -3.185989e+02
   3.305548e+02  -2.029128e+02
   2.846319e+02   1.565740e+02
   1.202596e+02   4.108190e+02
  -7.673746e+01   4.110741e+02
  -7.437174e+01   1.362438e+02
  -3.200904e+01   1.560452e+01
  -5.424784e+01   5.529471e+01
  -1.845640e+02   1.057514e+02
  -2.510530e+02  -5.541200e+01
  -1.403003e+02  -2.921736e+02
   4.827917e+01  -2.507715e+02
   2.014897e+02  -1.921756e+01
   1.704331e+02   2.296761e+02
  -2.146804e+01   3.026411e+02
  -2.366799e+02   1.289923e+02
  -3.524237e+02  -9.761542e+01
  -2.143178e+02  -3.450379e+02
   1.189225e+02  -3.583886e+02
   2.510571e+02  -1.634789e+02
   1.989811e+02  -2.711889e+00
   1.111721e+02  -2.953354e+01
   2.173507e+02  -2.887254e+01
   4.066349e+02   6.751245e+00
   3.126738e+02   2.888571e+02
  -8.206698e-01   4.553954e+02
  -3.574464e+02   4.213084e+02
  -4.495778e+02   2.383520e+02
  -3.570165e+02  -9.826826e+01
  -5.061032e+01  -2.791041e+02
   9.952337e+01  -2.656557e+02
   7.072551e+01  -4.826677e+01
  -9.827105e+01   1.206008e+02
  -1.410613e+02  -1.463149e+01
  -7.044669e+01  -1.663517e+02
   1.533743e+02  -1.760204e+02
   1.748554e+02   7.190115e+01
  -6.762463e+00   1.797876e+02
  -1.675497e+02   4.964856e+01
  -1.499115e+02  -2.287527e+02
   1.751156e+01  -3.539079e+02
   2.575034e+02  -2.025612e+02
   3.311433e+02   5.300522e+01
   2.684638e+02   2.379367e+02
   1.332028e+02   2.535709e+02
  -6.863232e+01   1.616793e+02
  -1.806145e+02   2.591004e+01
  -2.928098e+01  -1.796389e+01
   5.550257e+01   4.862520e+01
  -1.278773e+00   1.191038e+02
  -1.189585e+02   9.800191e+01
  -1.688428e+02  -1.838056e+01
  -6.965882e+01  -3.769909e+01
   7.808058e+01   1.272185e-02
   4.663516e+01   8.019145e+01
  -1.455055e+02   8.483162e+01
  -2.820833e+02   7.517946e+00
  -2.741288e+02  -1.261590e+02
  -7.197543e+01  -2.027385e+02
   1.714843e+02  -2.830694e+02
   2.834574e+02  -1.608403e+02
   1.685257e+02   1.963826e+01
  -1.928797e+01   8.371608e+01
  -9.306745e+01   1.939746e+01
   3.582925e+01  -7.603035e+01
   2.186928e+02  -8.937591e+01
   2.064950e+02   6.091881e+01
   5.320244e+01   1.825678e+02
  -9.412480e+01   1.776960e+02
  -1.249941e+02   4.991120e+01
  -9.937072e+01  -1.864404e+01
   2.698857e+01   1.880549e+01
   4.218577e+01   7.182487e+01
  -7.487413e+01   9.469070e+01
  -2.124805e+02   1.500208e+01
  -1.910986e+02  -9.493785e+01
  -2.000120e+01  -2.190644e+02
   1.728221e+02  -1.912773e+02
   1.959015e+02  -1.325007e+01
   7.376585e+01   9.943717e+01
  -4.678575e+01   9.666952e+01
  -1.005601e+02   2.543964e+01
  -1.229408e+01  -3.278501e+01
   3.228222e+01  -1.021001e+01
   1.819156e+00   2.330061e+00
  -4.942931e+01   1.128022e+01
  -9.504802e+01  -5.786405e+01
  -3.132351e+01  -1.658168e+02
   1.087093e+02  -1.512394e+02
   2.653319e+02  -1.984232e+01
   1.930505e+02   1.270816e+02
   1.861264e+01   2.578012e+02
  -9.811719e+01   1.672196e+02
  -1.548993e+02  -1.064914e+01
  -1.016386e+02  -4.236977e+01
  -2.702703e+01  -3.886284e+00
  -7.652913e+01   2.536916e+01
  -8.735909e+01   2.677311e+01
  -6.001004e+01  -3.388912e+01
   5.683018e+01  -7.705483e+01
   8.710668e+01  -6.122704e+01
   9.898056e+01   5.195876e+01
  -2.236382e+01   1.169729e+02
  -1.175641e+02   8.881809e+01
  -2.004652e+02  -6.527889e+01
  -1.010604e+02  -2.184788e+02
   7.917564e+01  -2.647818e+02
   2.629667e+02  -1.159531e+02
   2.783896e+02   7.885970e+01
   1.004537e+02   1.996711e+02
  -1.303736e+01   1.431690e+02
  -9.021497e+01   9.147959e+01
  -8.759785e+01   7.608708e+01
  -8.908879e+01   1.146122e+02
  -7.799032e+01   8.236153e+01
  -1.414413e+02  -2.096352e+01
  -1.122823e+02  -1.366200e+02
  -4.531098e+01  -1.815809e+02
   1.201539e+02  -1.729236e+02
   1.837905e+02   3.861651e-01
   1.316166e+02   1.130246e+02
   1.012221e+01   1.942624e+02
  -5.434697e+01   9.206042e+01
  -2.833353e+01  -8.082822e+00
  -5.252990e+00  -3.333252e+01
   1.589121e+01  -2.996818e+01
  -3.092780e+01  -3.268705e+00
  -6.611067e+01   1.030823e+01
  -2.613676e+01  -4.650690e+01
   7.138370e+01  -6.728816e+01
   1.544188e+02   1.821909e+01
   1.509961e+02   6.748795e+01
   3.746417e+01   1.074554e+02
  -1.094438e+02   8.546316e+01
  -1.416925e+02   2.291749e+01
  -5.003148e+01  -6.173465e+01
   7.580235e+01  -5.170466e+01
   7.886557e+01   3.531776e+01
   2.055456e+01   7.036369e+01
  -5.886806e+01   9.057449e+01
  -7.265082e+01   5.861143e+00
  -3.079186e+01  -4.349457e+01
  -4.169113e+01  -6.042029e+01
  -2.205680e+01   2.298071e+01
  -5.624963e+01  -8.106331e+00
  -1.408827e+01  -6.193946e+01
   2.922421e+01  -1.404236e+02
   1.149260e+02  -1.263422e+02
   1.961382e+02  -3.304077e+01
   1.022926e+02   7.869360e+01
   9.680271e+00   1.008051e+02
  -7.863702e+01   5.379783e+01
  -5.486492e+01  -1.311465e+01
   4.499902e+01  -3.206718e+01
   1.264890e+02   8.277411e+00
   8.488424e+01   1.097807e+02
  -8.078171e+01   1.143841e+02
  -2.168238e+02   3.426150e+01
  -1.655526e+02  -3.425082e+01
  -3.627089e+01  -8.440602e+01
   2.992290e+01  -7.489726e+01
   3.904358e+01   5.403280e-01
  -3.905303e+01   3.835481e+01
  -7.847502e+01  -8.090192e+00
  -5.075492e+01  -1.110325e+02
   1.073977e+02  -1.419270e+02
   1.810019e+02  -6.804514e+01
   1.425443e+02   1.001317e+02
  -3.861251e-01   1.924971e+02
  -6.813503e+01   1.397171e+02
  -1.097168e+02  -9.270352e+00
  -7.545799e+01  -1.061679e+02
   1.651840e+01  -1.145231e+02
   5.837597e+01  -9.010585e-01
   4.372987e+01   1.385613e+01
   2.966843e+01  -9.757746e+00
   4.740470e+00  -3.134802e+01
  -1.482336e+01   3.041167e+01
   5.806126e+01   8.490635e+01
   6.015358e+01   7.612799e+01
  -1.512297e+01   4.399640e+01
  -1.362988e+02  -4.773873e+01
  -1.311473e+02  -7.795054e+01
  -1.068602e+01  -3.442205e+01
   9.565757e+01  -1.716046e+01
   8.741637e+01  -3.037041e+01
   1.124126e+01   2.053687e+01
  -3.798748e+01   5.165861e+01
  -2.899652e+01   3.839679e+01
  -1.792872e+00   2.790472e+01
  -1.646495e+01   2.685079e+00
  -9.962614e+01  -2.308243e+01
  -8.537220e+01  -4.512324e+01
  -1.081207e+01  -9.459903e+01
   1.235115e+02  -1.030092e+02
   1.933380e+02  -5.650064e+01
   1.259448e+02   6.303567e+01
   7.621808e+01   1.426669e+02
  -7.848679e+01   1.576104e+02
  -9.272329e+01   8.405477e+01
  -9.044135e+01  -5.426165e+01
  -1.147485e+01  -4.757391e+01
   9.529050e-01  -2.394270e+00
  -1.201833e+01  -2.078901e+01
  -2.634853e+01  -6.774704e+01
  -6.579078e+01  -1.052321e+02
   2.121891e+01  -7.820628e+01
   6.966146e+01   1.190521e+01
   6.638718e+01   1.007014e+02
  -9.402827e+00   9.923989e+01
  -9.779150e+01   2.078237e+01
  -1.012766e+02  -4.673129e+01
  -2.475685e+01  -1.029363e+02
   5.430873e+01  -5.267479e+01
   9.862299e+01   1.256871e+01
   5.033800e+01   4.360441e+01
  -5.124313e+01   5.037127e+01
  -3.698786e+01   2.741859e+01
   6.993007e+01  -9.694194e+00
   6.213073e+01  -2.079241e+01
   1.227959e+01   3.746163e+01
  -7.462097e+01   1.030123e+02
  -1.189380e+02   6.939228e+01
  -7.215657e+01  -3.922691e+01
  -5.844317e+00  -9.509670e+01
   4.863664e+01  -6.678881e+01
   5.344433e+01  -2.414549e+01
  -1.778405e+01   5.017917e+01
  -1.091708e+01   3.989583e+01
  -2.613521e+01  -1.612163e+01
  -3.109301e+01  -5.832297e+01
   1.645195e+01  -3.942882e+01
   3.298079e+01   1.745173e+01
   3.402093e+01   7.608863e+00
   2.889463e+01  -9.427808e+00
   1.744857e+00  -2.853373e+01
  -2.004222e+00  -2.639881e+01
   1.536904e+01   2.341998e+01
  -1.720949e+01   1.436711e+01
  -3.255158e+01   2.342026e+01
  -3.585503e+01  -3.986965e+01
  -1.027941e+01  -6.033623e+01
   7.593629e+01  -1.589229e+00
   4.044038e+01   3.676380e+01
   3.315022e+01   4.107751e+01
  -5.500608e+01   6.158308e+01
  -9.741474e+01  -2.962246e+01
  -4.301460e+01  -3.302494e+01
   3.772813e+01  -3.440479e+01
   4.768220e+01  -3.449445e+01
   4.930700e+01   7.897549e+00
  -2.717753e+01   5.782665e+00
  -4.098214e+01  -5.745164e-01
   1.588703e+01  -3.468193e+01
   7.928951e+01  -7.752102e+00
