
 $NMID
 id='ANONYMOUS ', fmtdat='(2E16.6)'
 volume=1.0
 tramp=1.0
 $END
  -4.745254e+03   3.375674e+02
  -2.958511e+03  -2.808333e+03
   5.471937e+02  -2.742699e+03
   2.478915e+03  -1.074244e+03
   1.060848e+03   7.486248e+02
  -6.769489e+02   8.282472e+02
  -1.068474e+03  -4.314870e+02
  -8.498104e+01  -1.217086e+03
   8.545721e+02  -8.148597e+02
   9.120418e+02   9.936573e+01
   5.547444e+02   8.670055e+02
  -1.851337e+02   9.754569e+02
  -7.415287e+02   1.913982e+02
  -4.664849e+02  -8.183973e+02
   2.360267e+02  -8.545763e+02
   7.233070e+02  -2.509827e+01
   3.026679e+02   7.440384e+02
  -3.648224e+02   6.756606e+02
  -6.503607e+02   1.308059e+02
  -4.634744e+02  -4.628275e+02
  -1.619786e+01  -4.905843e+02
   2.628214e+02  -2.979423e+02
   2.462410e+02  -3.307066e+01
  -1.261942e+02   8.268425e+01
  -4.183498e+02  -9.494115e+01
  -2.583756e+02  -4.246335e+02
   4.578254e+02  -4.434332e+02
   8.814477e+02  -9.589031e+00
   4.683096e+02   5.171227e+02
  -4.015168e+02   4.883432e+02
  -7.832959e+02   8.500284e+01
  -4.075928e+02  -4.863865e+02
   2.270324e+02  -5.837585e+02
   6.089069e+02  -1.968012e+02
   4.655627e+02   2.773010e+02
   3.965698e+01   4.917244e+02
  -1.634481e+02   3.752321e+02
  -1.977854e+02  -2.515306e+02
   7.826564e+01  -4.892201e+02
   4.622105e+02  -7.856820e+01
   3.653031e+02   6.232842e+02
  -3.106586e+02   7.672200e+02
  -6.737155e+02   1.106471e+02
  -2.561873e+02  -5.994387e+02
   3.161111e+02  -3.471568e+02
   3.981935e+02   3.156769e+02
  -1.003151e+01   6.038158e+02
  -5.935086e+02   1.833347e+02
  -5.766175e+02  -3.880885e+02
  -2.318830e+02  -5.838802e+02
   3.900577e+02  -3.424526e+02
   6.518606e+02   2.934751e+01
   4.275877e+02   4.232506e+02
  -2.180297e+02   4.349883e+02
  -5.115330e+02   4.965329e+01
  -3.051978e+02  -2.411958e+02
   1.514037e+02  -1.458179e+02
   1.736355e+02   1.517406e+02
  -1.474903e+02   2.469377e+02
  -3.873319e+02  -6.701229e+01
  -1.770492e+02  -2.659682e+02
   1.959643e+02  -2.804109e+02
   3.441462e+02  -4.504628e+01
   1.732051e+02   7.944077e+01
  -4.648025e+01   2.196139e+02
  -2.090954e+02   3.156273e+02
  -3.115222e+02   2.121230e+02
  -2.910546e+02  -1.581247e+02
  -1.254117e+02  -4.829700e+02
   9.006685e+01  -4.264602e+02
   1.140624e+02  -1.188040e+02
   7.082333e+00   7.826394e+00
   1.803400e+01  -5.030470e+01
   2.300105e+02  -1.351317e+02
   2.877317e+02   3.274279e+01
   1.141505e+02   3.052537e+02
  -4.875079e+01   2.731648e+02
  -2.016563e+02   1.424929e+01
  -1.922658e+02  -2.406344e+02
   1.076155e+01  -3.074170e+02
   2.820817e+02  -1.327394e+02
   3.815466e+02   1.449161e+02
   2.283430e+02   3.370188e+02
  -1.135323e+02   3.238246e+02
  -2.509411e+02   1.300146e+02
  -1.754718e+02  -1.830788e+01
  -8.891407e+01   2.450843e+01
  -2.188372e+02   7.940419e+01
  -4.000815e+02  -4.661815e+01
  -3.232121e+02  -2.844040e+02
   8.362967e+00  -4.419031e+02
   3.582120e+02  -4.230171e+02
   4.818545e+02  -2.344201e+02
   3.262241e+02   7.880621e+01
   4.893066e+01   3.016216e+02
  -1.199726e+02   2.746900e+02
  -9.143765e+01   6.618570e+01
   9.291834e+01  -1.369338e+02
   1.913530e+02  -1.697215e+00
   6.706869e+01   2.159644e+02
  -1.446605e+02   2.066743e+02
  -2.018315e+02  -5.359157e+01
  -2.159812e+01  -1.804555e+02
   2.199851e+02  -6.211335e+01
   1.793174e+02   2.375344e+02
  -1.878826e+01   3.522498e+02
  -2.247290e+02   1.826959e+02
  -3.264586e+02  -4.992114e+01
  -2.767847e+02  -2.147440e+02
  -7.374034e+01  -2.392986e+02
   1.304305e+02  -1.436457e+02
   1.672023e+02  -5.215204e+01
   9.094558e+01   7.167850e+01
  -5.861336e+01  -5.676922e+01
  -4.649471e+01  -1.071283e+02
   1.339528e+02  -1.236310e+02
   1.848213e+02   2.387686e+01
   7.599169e+01   8.179107e+01
  -8.321214e+01   3.923243e+01
  -6.084665e+01  -8.750628e+01
   1.180548e+02  -9.999050e+01
   2.897904e+02  -1.588371e+01
   2.636338e+02   1.488250e+02
   6.237468e+01   2.470544e+02
  -1.662648e+02   2.692434e+02
  -3.072583e+02   1.312262e+02
  -1.662631e+02  -5.383833e+01
   1.761738e+01  -1.064348e+02
   1.079049e+02  -4.336094e+01
  -1.364168e+01   8.430743e+01
  -1.937605e+02   4.714934e+01
  -2.048222e+02  -1.079288e+02
  -8.388899e+01  -1.956127e+02
   1.025593e+02  -1.894443e+02
   1.677613e+02  -1.658950e+01
   9.602870e+01   4.038765e+01
  -3.466937e+01   3.220807e+00
  -5.892564e+01  -5.988894e+01
   6.009563e+01  -1.051545e+02
   2.174399e+02  -3.614065e+01
   1.659192e+02   1.308821e+02
   4.896127e+01   2.182776e+02
  -1.540754e+02   1.543569e+02
  -2.036141e+02   1.051202e+01
  -4.901878e+01  -1.403670e+02
   5.313364e+01  -1.187635e+02
   8.417338e+01  -1.955327e+01
   1.260111e+01   1.470642e+01
  -2.292821e+01  -3.308615e-01
   3.255779e+01  -1.329347e+01
   6.974790e+01   2.343925e+01
   7.073432e+01   5.733772e+01
   4.272502e+01   1.324155e+02
  -1.054345e+02   1.417279e+02
  -2.263308e+02   3.992992e+01
  -2.057550e+02  -1.525756e+02
  -3.329785e+01  -2.628659e+02
   1.115921e+02  -1.342548e+02
   1.268665e+02  -2.159965e+01
   1.064346e+02   4.232907e+01
   2.169322e+01   3.875093e+01
   2.327657e+01   1.523665e+01
   8.207170e+01   1.377899e+01
   2.873649e+01   4.639895e+01
  -6.446876e+01   8.461733e+01
  -8.967314e+01   4.653573e+01
  -7.919253e+01  -2.645769e+01
   1.231201e+01  -1.163757e+02
   1.352638e+02  -7.372029e+01
   1.954094e+02   2.773221e+01
   8.202341e+01   1.970203e+02
  -7.745168e+01   2.694509e+02
  -3.015148e+02   1.213943e+02
  -2.649924e+02  -8.235498e+01
  -1.298795e+02  -1.557887e+02
   3.064329e+01  -1.728459e+02
   1.092115e+02  -8.416271e+01
   5.956302e+01  -5.253960e+01
   8.482472e+01  -1.044632e+02
   9.550020e+01  -5.717747e+01
   1.110516e+02   1.228709e+01
   1.068555e+02   1.512142e+02
   3.888954e+01   2.397253e+02
  -1.353098e+02   1.728896e+02
  -1.382959e+02   7.376901e+00
  -1.354155e+02  -9.337169e+01
  -1.153110e+01  -1.697353e+02
   4.675558e+01  -9.094308e+01
   7.382583e+01   1.387600e+01
  -2.156480e+01   3.356296e+01
   1.058981e+01   1.897793e+01
   3.580612e+01   2.080270e+01
   7.626362e+01   1.878559e+01
   5.767482e+01   5.066918e+01
  -5.712032e+01   4.416737e+01
  -1.462473e+02  -8.433697e+00
  -1.297931e+02  -6.489452e+01
  -4.915389e+01  -7.915404e+01
   1.117856e+02  -9.262791e+01
   1.416856e+02  -2.926623e+01
   6.141752e+01   3.553378e+01
  -5.243056e+01   4.277076e+01
  -8.981696e+01  -1.003586e+01
  -3.462687e+00  -7.481096e+01
   4.005068e+01  -4.520399e+01
   7.107170e+01  -3.456779e+00
   5.281352e+01   4.595907e+01
   4.636438e+01   4.960147e+01
   6.469929e+01  -1.707870e+01
   6.856785e+01  -6.752304e+00
   4.961285e+01   5.232756e+01
  -3.483067e+00   1.647371e+02
  -1.190779e+02   1.476420e+02
  -1.183002e+02   4.078028e+00
  -1.134254e+02  -8.713137e+01
  -4.471204e+00  -1.386992e+02
   7.858935e+01  -3.838848e+01
   5.930534e+01   1.983153e+01
  -4.959872e+01  -3.570151e+00
  -1.204871e+02  -2.886981e+01
  -8.737053e+01  -9.256711e+01
   6.794918e+01  -1.020576e+02
   1.697035e+02  -5.225959e+01
   1.487161e+02   3.963177e+01
   3.262051e+01   1.047224e+02
  -5.180704e+01   7.056971e+01
  -5.616827e+01  -5.814900e+00
   2.544358e+01  -1.819201e+01
   1.034324e+02   3.031848e+01
   1.052077e+01   1.349863e+02
  -8.141516e+01   1.573548e+02
  -1.954534e+02   8.014112e+01
  -1.518035e+02  -1.045224e+02
   6.647680e+00  -1.981191e+02
   7.656448e+01  -1.431660e+02
   1.028542e+02  -1.390727e+01
   5.644966e+01   1.385895e+02
   1.758030e+01   1.008237e+02
  -6.021054e+01   1.696699e+01
  -5.956821e+01  -1.443804e+01
  -4.581237e+01   1.067161e+00
  -2.232612e+00   2.553924e+01
  -1.688983e+01   4.481923e+00
  -7.023055e+01  -9.682796e+01
  -6.014064e+01  -1.060570e+02
   2.615884e+01  -4.282932e+01
   1.418843e+02   5.008511e+01
   1.098007e+02   7.890377e+01
   8.607672e+00   9.481389e+00
  -8.386021e+01   7.232280e+00
  -8.234339e+01   1.765188e+01
  -4.136418e+01  -1.918699e+01
   4.891460e+01  -2.546433e+01
  -2.333277e+00  -2.476123e+01
  -3.047091e+01   2.878697e+01
  -5.046560e+00   3.588162e+01
   5.541661e+01   1.694954e+01
   8.357962e+01   8.219635e+00
  -6.576533e+00   5.591925e+01
  -1.116807e+02   1.200229e+02
  -2.018997e+02   5.944643e+01
  -1.489089e+02  -6.972381e+01
  -2.660653e+01  -1.826131e+02
   6.866143e+01  -1.459593e+02
   1.022531e+02  -4.757482e+01
   8.057105e+01   1.386601e+01
   4.097739e+01   3.353815e+01
   7.420999e+00  -1.472004e+01
   3.786050e+00  -6.262018e+00
   6.003953e+00   5.933510e+01
   5.310770e+01   8.380118e+01
  -2.727917e+01   9.232220e+01
  -8.792283e+01  -2.383067e+01
  -9.030648e+01  -1.022450e+02
  -2.818536e-01  -1.278584e+02
   1.148471e+02  -2.097437e+01
   9.956490e+01   6.212642e+01
   2.291004e+01   1.205813e+02
  -6.043024e+01   6.219817e+01
  -1.078060e+02  -1.290954e+01
  -2.526276e+01  -2.122965e+01
   2.830955e+01  -6.056155e+01
   2.342580e+01  -4.478963e+01
  -1.657235e+01  -1.727121e+01
  -8.646012e+01   1.141628e+01
  -2.021940e+00  -1.131810e+01
   1.107768e+02  -7.839278e+01
   1.058323e+02  -5.969931e+01
   5.640010e+01  -3.842476e+00
   9.322429e+00   7.964553e+01
  -7.259235e+01   8.285762e+01
  -4.341117e+01   8.239348e-01
  -3.753084e+00  -4.582311e+01
   1.954918e+01  -4.660274e+01
   5.859032e+01   6.921952e+00
   2.078016e+01   6.656509e+01
  -5.703356e+00   2.214933e+01
  -3.172181e+01  -4.003755e+01
  -1.111832e+01  -6.698546e+00
  -1.108977e+00  -2.173615e+01
  -1.704155e+01   3.639362e+00
   2.923627e+00  -1.718470e+01
   2.630116e+01  -5.555103e+01
   4.261713e+01  -3.558420e+01
   4.114905e+01  -3.135215e+01
   4.457869e+01   5.928814e+01
  -2.292144e+01   6.910840e+01
  -5.532412e+01   2.298913e+01
  -5.824812e+01  -6.087267e+01
  -1.439491e+01  -7.580062e+01
   3.574553e+01  -3.860908e+00
   6.316598e+01   1.739504e+01
   5.421600e+01   4.014535e+01
  -4.078763e+01   8.610541e+01
  -7.834972e+01   3.223696e+01
  -5.636478e+00  -3.233275e+00
   3.896685e+01  -4.748544e+00
   3.323052e+01   2.434938e+01
  -3.414577e+01   3.078247e+01
  -1.165580e+02   2.736614e+01
