
 $NMID
 id='ANONYMOUS ', fmtdat='(2E16.6)'
 volume=1.0
 tramp=1.0
 $END
   4.696032e+03  -1.979766e+02
   2.952536e+03   2.923746e+03
  -7.038877e+02   2.769864e+03
  -2.513128e+03   1.040174e+03
  -1.093003e+03  -7.443116e+02
   7.075046e+02  -8.168185e+02
   9.807165e+02   4.889631e+02
   1.477685e+01   1.219193e+03
  -8.554076e+02   8.631160e+02
  -9.755196e+02  -1.044362e+02
  -5.717361e+02  -8.985701e+02
   2.120569e+02  -9.809884e+02
   7.536920e+02  -2.003524e+02
   4.326988e+02   8.229336e+02
  -2.148327e+02   8.908346e+02
  -7.053332e+02   4.943316e+01
  -2.619876e+02  -7.598730e+02
   4.076937e+02  -7.503799e+02
   6.952576e+02  -8.959814e+01
   4.527404e+02   4.657270e+02
   3.710456e+00   4.909927e+02
  -2.821204e+02   2.872007e+02
  -2.594638e+02   5.362918e+01
   1.289864e+02  -8.853504e+01
   4.371692e+02   9.854272e+01
   2.695806e+02   4.291249e+02
  -4.546990e+02   4.534914e+02
  -8.738001e+02  -2.943422e+01
  -4.920100e+02  -5.271362e+02
   4.057687e+02  -5.253812e+02
   8.355017e+02  -6.315381e+01
   3.971492e+02   4.931110e+02
  -2.714205e+02   5.396982e+02
  -6.130664e+02   2.050459e+02
  -4.588040e+02  -2.720276e+02
  -6.787389e+01  -5.028001e+02
   1.946388e+02  -3.825671e+02
   1.695621e+02   2.517728e+02
  -1.128459e+02   5.027061e+02
  -4.674972e+02   7.302973e+01
  -3.557573e+02  -6.097114e+02
   3.307869e+02  -8.268664e+02
   6.739824e+02  -9.004881e+01
   2.423671e+02   5.717372e+02
  -3.163430e+02   3.367769e+02
  -3.950763e+02  -3.468213e+02
   4.609862e+00  -5.928476e+02
   5.992126e+02  -1.730911e+02
   6.069607e+02   3.919969e+02
   2.265220e+02   6.236256e+02
  -3.684866e+02   3.646621e+02
  -6.720972e+02  -3.757034e+01
  -4.037478e+02  -4.155708e+02
   2.071888e+02  -4.625603e+02
   5.007840e+02  -5.492096e+01
   2.905629e+02   2.466290e+02
  -1.090304e+02   1.550338e+02
  -1.931697e+02  -1.283994e+02
   1.611188e+02  -2.449266e+02
   3.971102e+02   6.331321e+01
   1.703396e+02   2.576747e+02
  -2.106100e+02   2.896163e+02
  -3.376302e+02   4.308207e+01
  -2.019861e+02  -1.179072e+02
   7.058838e+01  -1.968967e+02
   2.147596e+02  -3.133322e+02
   3.432713e+02  -2.115138e+02
   2.977104e+02   1.359275e+02
   9.379321e+01   4.553907e+02
  -1.068744e+02   4.210936e+02
  -1.065462e+02   1.432977e+02
  -1.284689e+01  -4.033111e+01
  -6.268850e+00   7.441813e+01
  -1.749033e+02   1.296792e+02
  -2.481381e+02  -6.236405e+01
  -1.331042e+02  -3.086311e+02
   4.635295e+01  -2.771192e+02
   2.171090e+02   5.829003e-01
   2.145572e+02   2.763154e+02
   9.301217e+00   2.843107e+02
  -2.551311e+02   1.607105e+02
  -4.016552e+02  -1.566718e+02
  -2.015327e+02  -4.108377e+02
   1.012577e+02  -3.120084e+02
   2.441351e+02  -1.336771e+02
   1.570745e+02   6.481887e+00
   1.371544e+02  -1.852298e+01
   2.190782e+02  -5.524695e+01
   4.022328e+02   3.822957e+01
   3.347443e+02   2.990105e+02
  -3.408367e+01   4.445624e+02
  -3.488440e+02   4.054446e+02
  -5.161905e+02   2.122126e+02
  -3.193226e+02  -3.796060e+01
  -6.016966e+01  -3.034938e+02
   1.363092e+02  -2.839221e+02
   8.893146e+01  -3.433628e+01
  -8.516268e+01   9.856856e+01
  -2.084741e+02  -1.806657e+01
  -6.704290e+01  -2.166560e+02
   1.338259e+02  -2.193766e+02
   1.617758e+02   2.880471e+01
  -6.087307e+00   1.788876e+02
  -2.133407e+02   3.430226e+01
  -1.834594e+02  -2.551498e+02
   6.589492e+01  -3.306227e+02
   2.142158e+02  -1.999651e+02
   3.482031e+02   6.501030e+01
   2.698880e+02   2.519559e+02
   1.088173e+02   2.671831e+02
  -9.349920e+01   1.768319e+02
  -1.738221e+02   3.441400e+01
  -4.229622e+01  -4.718907e+01
   5.423920e+01   4.995662e+01
   3.553983e+01   1.208916e+02
  -1.111712e+02   1.048276e+02
  -1.790274e+02  -2.053677e+01
  -8.925175e+01  -6.996168e+01
   8.192624e+01  -2.197884e+01
   9.498812e+01   7.348969e+01
  -1.233963e+02   7.170415e+01
  -2.793674e+02   1.148812e+01
  -2.715836e+02  -1.513968e+02
  -6.289307e+01  -2.543539e+02
   1.753254e+02  -2.893641e+02
   3.066844e+02  -1.590087e+02
   1.657303e+02   4.848864e+01
  -2.555178e+01   1.214535e+02
  -8.889284e+01  -3.761657e+00
   2.030310e+01  -1.055197e+02
   1.721013e+02  -4.163459e+01
   2.248513e+02   1.000974e+02
   5.677143e+01   2.250398e+02
  -9.371025e+01   1.895074e+02
  -1.607464e+02   4.278370e+01
  -8.259826e+01  -2.829345e+01
   2.738364e+01  -1.152513e+00
   4.775344e+01   5.699605e+01
  -7.611013e+01   1.207962e+02
  -2.257154e+02   4.058731e+01
  -1.869014e+02  -1.286166e+02
  -3.659450e+01  -2.476891e+02
   1.483624e+02  -1.652744e+02
   1.888685e+02  -2.128033e+01
   6.566115e+01   1.169924e+02
  -9.121186e+01   1.219911e+02
  -7.367898e+01   2.080244e+01
   7.536328e+00  -1.388785e+01
   8.118014e+00  -1.057811e+01
  -2.172994e+01   1.608243e+01
  -4.890796e+01   1.021422e+01
  -7.235418e+01  -7.151099e+01
  -1.517070e+01  -1.227659e+02
   1.181094e+02  -1.519743e+02
   2.338230e+02  -2.643832e+01
   2.166291e+02   1.709933e+02
   3.967054e+01   2.437205e+02
  -1.289189e+02   1.656638e+02
  -1.222826e+02   2.789734e+01
  -6.753583e+01  -5.538506e+01
  -3.237065e+01  -3.195205e+01
  -5.077227e+01   7.808009e+00
  -9.049577e+01   9.356803e+00
  -2.798826e+01  -4.587923e+01
   5.507175e+01  -6.925623e+01
   1.091463e+02  -2.207984e+01
   6.112207e+01   1.534639e+01
  -2.521892e+01   1.134787e+02
  -1.375474e+02   7.454066e+01
  -1.892811e+02  -6.675690e+01
  -9.937589e+01  -1.960983e+02
   1.039773e+02  -2.294466e+02
   3.048133e+02  -1.085570e+02
   2.751218e+02   7.870752e+01
   1.080110e+02   1.548932e+02
  -4.752855e+01   1.746174e+02
  -1.071449e+02   7.723162e+01
  -8.463408e+01   6.164050e+01
  -8.760600e+01   8.566711e+01
  -9.865811e+01   7.305625e+01
  -1.399388e+02  -3.698170e+01
  -1.065938e+02  -1.600183e+02
  -3.078299e+01  -2.064466e+02
   1.151823e+02  -1.888459e+02
   1.882969e+02   7.500263e+00
   1.394263e+02   9.363326e+01
  -7.670107e+00   1.835301e+02
  -7.056680e+01   8.321198e+01
  -6.888796e+01  -2.250959e+00
   1.682221e+01  -3.925197e+01
   8.485788e+00  -6.637312e+00
  -3.948443e+01  -8.751622e+00
  -8.886020e+01  -3.293789e+01
  -4.286883e+01  -7.204839e+01
   7.419198e+01  -2.271166e+01
   1.496505e+02  -1.699051e+01
   1.276218e+02   5.436328e+01
   3.665231e+01   6.339063e+01
  -1.128135e+02   4.214273e+01
  -1.413143e+02   2.199577e+01
  -1.823546e+01  -4.717121e+01
   7.522971e+01  -5.297698e+01
   8.187819e+01   2.055065e+01
  -1.587238e+01   5.102832e+01
  -4.749531e+01   7.264876e+01
  -7.023062e+01   2.061297e+01
  -7.234947e+01  -2.625858e+01
  -5.287138e+01  -4.111812e+01
  -7.325937e+01  -1.064595e+01
  -5.763174e+01  -8.411877e+00
  -3.026642e+01  -5.159658e+01
   3.084055e+01  -1.592115e+02
   9.313405e+01  -1.394003e+02
   1.395764e+02  -1.097758e+01
   1.081040e+02   6.294548e+01
   7.348105e+00   1.474596e+02
  -8.109800e+01   2.955225e+01
  -7.050771e+01  -1.240925e+01
   6.444574e+01  -2.653563e+01
   1.503156e+02   4.853983e+01
   9.212008e+01   1.213097e+02
  -7.408183e+01   1.070933e+02
  -1.932197e+02   8.623597e+01
  -1.716767e+02  -5.146755e+01
  -5.066131e+01  -7.409445e+01
   7.624328e+01  -6.336121e+01
   6.522946e+01  -8.527737e+00
  -4.228722e+01   2.733731e+01
  -1.195335e+02  -3.899580e+01
  -3.938589e+01  -1.374309e+02
   1.018447e+02  -1.512746e+02
   1.853769e+02  -7.368675e+01
   1.523846e+02   1.255965e+02
   4.128940e+00   1.763565e+02
  -6.944832e+01   1.403219e+02
  -1.286385e+02   5.381624e+00
  -4.885153e+01  -1.090381e+02
  -2.278028e+01  -1.199655e+02
   6.122529e+01  -2.178043e+01
   8.257904e+01   1.554078e+01
   3.907494e+01   3.368679e+00
   2.182314e+01  -1.822802e+01
   4.758653e+00   2.910354e+00
   3.289491e+01   6.570709e+01
   5.132754e+01   1.092028e+02
  -4.847915e+01   3.097393e+01
  -1.215138e+02  -6.275336e+01
  -1.502763e+02  -9.239249e+01
  -2.871818e+01  -5.560646e+01
   9.682211e+01  -1.556270e+00
   8.184602e+01  -4.230481e+00
   2.146888e+01   1.129640e+01
  -5.069346e+01   1.997222e+01
  -2.711174e+01   5.669698e+01
   1.584736e+01   6.828185e+00
  -3.240388e+00  -1.546340e+01
  -7.551466e+01   7.517265e+00
  -8.480422e+01  -2.271115e+01
   1.914848e+01  -7.487660e+01
   1.237541e+02  -1.142443e+02
   1.941129e+02  -4.159536e+01
   1.412920e+02   8.151926e+01
   1.952222e+01   1.644557e+02
  -8.139022e+01   1.646885e+02
  -1.170326e+02   5.433018e+01
  -8.589610e+01  -3.870275e+01
  -1.581910e+01  -4.208524e+01
  -1.204168e+01   3.672141e+00
  -1.987509e+01   7.323553e+00
  -4.282701e+01  -7.209689e+01
  -3.537967e+00  -7.337923e+01
   3.384725e+01  -7.455015e+01
   9.119088e+01   3.739805e+01
   7.476409e+01   1.193141e+02
   7.469976e+00   1.248714e+02
  -9.150746e+01   2.885779e+01
  -9.951689e+01  -5.503995e+01
  -1.928648e+01  -1.074046e+02
   5.498898e+01  -5.238186e+01
   9.501835e+01   2.400049e+01
   3.010529e+01   3.948949e+01
   8.018482e+00   3.000197e+01
  -1.227245e+01   3.355842e+01
   5.701478e+00   3.123447e+01
   6.644199e+01  -5.295996e+00
  -7.535707e+00   1.821425e+01
  -8.355512e+01   7.651136e+01
  -1.294595e+02   5.552460e+01
  -5.984889e+01   1.426889e+01
   5.378751e+00  -7.206890e+01
   3.307775e+01  -5.345499e+01
   2.034288e+01  -9.260268e-01
   1.908314e+01   4.248835e+01
  -4.598416e+01   3.448120e+01
  -3.410117e+01  -2.077388e+01
  -3.571843e+01  -5.208118e+01
   1.193980e+01  -1.732236e+01
   6.943076e+01   4.445056e+00
   1.233336e+01  -1.350292e+01
   1.430183e+01   3.506820e+01
  -4.760531e+00  -3.987760e+01
  -7.229856e+00   1.885438e+01
  -9.675153e+00   3.147674e+01
  -3.353542e+01   5.120019e+01
  -2.150747e+01   5.047944e+00
  -1.786943e+01  -4.503144e+01
   9.414024e-01  -6.628830e+01
   4.906738e+01  -5.068396e+01
   2.528043e+01   4.382122e+01
   1.548222e+00   7.212433e+01
  -4.094589e+01   2.092208e+01
  -1.023993e+02  -2.532145e+01
  -3.357912e+01  -4.177240e+01
   4.701599e+01  -6.213680e+01
   7.181761e+01  -2.160677e+01
   4.852676e+01   6.489814e+00
  -7.657115e+01  -3.443992e+00
  -1.861592e+01  -1.059458e+01
   3.698715e+01  -6.291194e+01
   1.446112e+02  -1.456380e+01
