
 $NMID
 id='ANONYMOUS ', fmtdat='(2E16.6)'
 volume=1.0
 tramp=1.0
 $END
  -4.659353e+03  -3.821551e+01
  -2.756166e+03  -2.862568e+03
   8.134968e+02  -2.836381e+03
   2.507294e+03  -9.091534e+02
   1.040879e+03   7.228265e+02
  -7.402416e+02   8.301887e+02
  -9.648647e+02  -5.124338e+02
   3.769083e+01  -1.148507e+03
   8.694962e+02  -8.508017e+02
   9.446179e+02   1.163864e+02
   4.969442e+02   9.322138e+02
  -2.378051e+02   9.041490e+02
  -7.557661e+02   1.819827e+02
  -4.268737e+02  -7.868012e+02
   2.249488e+02  -8.788639e+02
   6.933143e+02   5.647207e-01
   2.726055e+02   7.654474e+02
  -3.956768e+02   6.693001e+02
  -6.840856e+02   6.994312e+01
  -4.220466e+02  -4.362219e+02
   1.123903e+01  -4.833047e+02
   2.947553e+02  -3.145364e+02
   2.579238e+02  -1.579383e+01
  -1.448916e+02   6.610024e+01
  -4.136130e+02  -1.161902e+02
  -2.660666e+02  -4.274729e+02
   5.030781e+02  -4.322237e+02
   8.372550e+02   5.771431e+01
   4.286425e+02   5.471859e+02
  -3.765231e+02   4.997437e+02
  -8.090350e+02   4.622211e+01
  -3.588101e+02  -4.990763e+02
   2.778848e+02  -5.391503e+02
   5.990234e+02  -2.208255e+02
   4.382626e+02   3.005013e+02
   4.222679e+01   4.829214e+02
  -1.980215e+02   3.637405e+02
  -1.831578e+02  -2.583115e+02
   1.702198e+02  -4.553261e+02
   4.577294e+02  -1.426656e+01
   3.306886e+02   6.554424e+02
  -3.974335e+02   7.846296e+02
  -6.766371e+02   2.176326e+01
  -2.392547e+02  -5.788875e+02
   3.440185e+02  -3.010574e+02
   3.964221e+02   3.720573e+02
  -8.843721e+00   6.112343e+02
  -5.788691e+02   1.769229e+02
  -5.959897e+02  -3.978632e+02
  -2.032728e+02  -6.452952e+02
   4.087761e+02  -3.593622e+02
   6.340675e+02   4.649845e+01
   4.083221e+02   4.329365e+02
  -1.983693e+02   4.085403e+02
  -4.702905e+02   5.783108e+01
  -2.881822e+02  -2.705279e+02
   1.440127e+02  -1.374277e+02
   2.027144e+02   1.385409e+02
  -1.346230e+02   2.175399e+02
  -3.578229e+02  -7.379682e+01
  -1.651162e+02  -2.899722e+02
   2.052874e+02  -2.738980e+02
   3.577354e+02  -2.477390e+01
   1.862811e+02   1.210747e+02
  -6.139713e+01   2.134427e+02
  -2.631857e+02   3.398388e+02
  -3.424407e+02   2.351922e+02
  -3.044058e+02  -1.552084e+02
  -9.340521e+01  -4.465398e+02
   1.258555e+02  -4.232827e+02
   1.363289e+02  -1.109198e+02
   2.300085e+01   3.074113e+01
   3.842707e+01  -7.477441e+01
   2.082786e+02  -1.195022e+02
   2.927761e+02   6.935215e+01
   1.314026e+02   3.112932e+02
  -8.220092e+01   2.667875e+02
  -2.228227e+02  -6.544334e+00
  -1.990329e+02  -2.925697e+02
   2.279099e+01  -2.575121e+02
   2.657141e+02  -1.240769e+02
   3.898355e+02   1.554134e+02
   2.211125e+02   3.827040e+02
  -9.810337e+01   3.256965e+02
  -2.534274e+02   1.567706e+02
  -1.852999e+02  -1.565660e+01
  -1.190199e+02   3.480258e+01
  -2.106802e+02   7.983738e+01
  -4.101481e+02  -8.377857e+01
  -3.148420e+02  -2.896684e+02
  -6.797570e-01  -4.336137e+02
   3.897312e+02  -4.291712e+02
   5.117605e+02  -1.951144e+02
   3.313031e+02   6.989308e+01
   6.330066e+01   2.905380e+02
  -1.461712e+02   2.785142e+02
  -8.254396e+01   5.042897e+01
   1.047830e+02  -1.069972e+02
   2.011888e+02   8.716640e+00
   5.712202e+01   1.941355e+02
  -1.710783e+02   2.131861e+02
  -1.828155e+02  -5.673956e+01
  -1.830532e+01  -1.908737e+02
   2.247132e+02  -3.233264e+01
   1.744304e+02   2.672718e+02
  -4.548359e+01   3.545067e+02
  -2.456366e+02   1.729526e+02
  -3.398873e+02  -5.881185e+01
  -2.614742e+02  -2.302878e+02
  -8.000624e+01  -2.831587e+02
   1.279675e+02  -1.673833e+02
   1.571793e+02  -1.776101e+01
   7.199132e+01   3.078481e+01
  -6.759348e+01  -4.170126e+01
  -3.894821e+01  -1.457811e+02
   9.139733e+01  -1.156052e+02
   1.720999e+02   1.771432e+01
   5.157306e+01   7.008307e+01
  -9.321469e+01   2.466801e+01
  -6.178845e+01  -7.102349e+01
   1.384408e+02  -9.100970e+01
   2.754311e+02   1.031890e+01
   2.541634e+02   1.535673e+02
   5.659456e+01   2.543650e+02
  -1.495154e+02   2.745862e+02
  -2.701469e+02   1.637781e+02
  -1.381722e+02  -5.400822e+01
   3.355282e+01  -1.092805e+02
   1.079857e+02   7.443763e+00
  -4.597892e+01   1.138034e+02
  -2.135154e+02   4.830139e+01
  -2.179468e+02  -1.200946e+02
  -6.310494e+01  -2.042265e+02
   1.232694e+02  -1.616066e+02
   1.571799e+02  -4.539722e+01
   9.344356e+01   1.582794e+01
  -2.866643e+01   1.375007e+01
  -4.192635e+01  -6.881464e+01
   6.575572e+01  -1.156195e+02
   2.114137e+02  -4.393686e+01
   2.065094e+02   1.261543e+02
   5.407823e+01   2.226705e+02
  -1.820642e+02   1.476746e+02
  -1.929996e+02   9.964160e+00
  -8.269743e+01  -1.328866e+02
   9.246996e+01  -1.006588e+02
   8.236368e+01  -3.672466e+01
   2.698586e+01   3.708969e+01
   1.859913e+01   2.473795e+01
   1.817386e+01   4.807207e+00
   4.095851e+01   2.671208e+01
   5.355569e+01   8.544172e+01
   1.608529e+01   1.333221e+02
  -1.609578e+02   1.735075e+02
  -2.400453e+02   2.058884e+01
  -1.978835e+02  -1.497224e+02
  -2.061881e+01  -2.413635e+02
   1.305785e+02  -1.474189e+02
   1.354032e+02  -1.762535e+01
   3.375835e+01   4.815718e+01
   6.329173e+00   3.676596e+01
   4.984892e+01  -1.128302e+01
   9.490577e+01  -1.896934e+01
   1.467444e+01   3.000554e+01
  -4.828447e+01   8.067237e+01
  -1.077100e+02   2.476100e+01
  -5.460050e+01  -2.828354e+01
   3.982015e+01  -1.171234e+02
   1.460981e+02  -5.896004e+01
   1.752292e+02   6.730910e+01
   1.096785e+02   2.192459e+02
  -1.202906e+02   2.404568e+02
  -2.990980e+02   1.159014e+02
  -2.512321e+02  -9.054788e+01
  -1.390570e+02  -1.920808e+02
   3.927148e+01  -1.613090e+02
   1.052339e+02  -8.508086e+01
   1.071024e+02  -5.477405e+01
   6.558450e+01  -8.931980e+01
   7.516484e+01  -8.537806e+01
   1.305794e+02   2.411761e+01
   8.251431e+01   1.624833e+02
   7.002407e+00   2.221412e+02
  -9.925895e+01   1.802181e+02
  -2.008571e+02   1.259243e+01
  -1.776153e+02  -1.251247e+02
  -2.432957e-01  -1.778107e+02
   8.053705e+01  -8.100181e+01
   6.165561e+01   8.350624e+00
  -6.882663e+00   3.852730e+01
  -6.987659e+00   1.323284e+01
   2.788158e+01   8.837484e+00
   9.840092e+01   1.205607e+01
   5.048005e+01   4.403675e+01
  -6.236452e+01   1.953899e+01
  -1.359464e+02  -2.655700e+01
  -1.218590e+02  -6.614968e+01
  -8.089319e+00  -8.710828e+01
   1.342658e+02  -5.652017e+01
   1.437614e+02  -4.849244e+01
   4.871663e+01   3.847970e+01
  -6.405888e+01   3.416467e+01
  -7.721327e+01  -1.390079e+01
  -1.841122e+01  -7.314005e+01
   8.461039e+01  -8.284649e+01
   5.962658e+01  -5.028584e+00
   6.603250e+01   6.140332e+01
   5.438849e+01   5.089508e+01
   5.101407e+01   1.672850e+00
   7.929787e+01   7.290571e+00
   3.755520e+01   6.266178e+01
  -1.510710e+01   1.264715e+02
  -1.314571e+02   1.368557e+02
  -1.485975e+02   2.298809e+01
  -1.284954e+02  -1.074999e+02
  -1.422384e+01  -1.279872e+02
   9.402338e+01  -6.717669e+01
   3.903590e+01   3.673453e+01
  -7.472442e+01   4.040884e+01
  -1.072710e+02  -2.321353e+01
  -9.380044e+01  -1.338019e+02
   9.032308e+01  -1.044537e+02
   2.145339e+02  -7.779499e+01
   1.764456e+02   2.834616e+01
   6.659791e+01   1.137902e+02
  -9.791467e+01   8.594275e+01
  -6.101830e+01   1.221112e+00
   3.965133e+01  -3.234499e+01
   1.151760e+02   5.124529e+01
   4.106099e+01   1.503556e+02
  -1.065696e+02   1.724898e+02
  -1.950661e+02   6.957111e+01
  -1.362275e+02  -8.908239e+01
   4.973834e+00  -1.816525e+02
   7.906460e+01  -1.402940e+02
   1.244689e+02   1.867408e+01
   2.653986e+01   1.266435e+02
   6.022395e+00   1.058327e+02
  -4.797581e+01   2.945259e+01
  -5.547386e+01  -2.463119e+01
  -3.613746e+01  -2.057516e+01
  -8.328231e+00   5.257821e+00
  -1.644197e+01   1.684306e+01
  -2.527616e+01  -8.289914e+01
  -4.810932e+01  -1.381276e+02
   5.186894e+01  -4.382513e+01
   1.284431e+02   6.327847e+01
   1.550660e+02   8.112884e+01
  -9.391183e+00   3.696951e+01
  -1.181121e+02  -9.685964e+00
  -6.305274e+01   1.769022e+00
  -2.140758e+01   2.438694e+00
   1.830813e+01  -3.364878e+00
  -1.593614e+01  -2.856875e+01
  -2.166267e+00  -1.980063e+00
   6.148618e+00   2.835057e+01
   5.381992e+01   8.981848e+00
   9.313647e+01   3.264711e+01
   2.644534e+01   7.074239e+01
  -1.128912e+02   1.104781e+02
  -1.757361e+02   4.333179e+01
  -1.197731e+02  -8.699511e+01
  -3.043091e+01  -1.550828e+02
   8.249844e+01  -1.455931e+02
   1.167490e+02  -4.806976e+01
   9.300960e+01   3.389567e+01
   8.635872e+00   3.984415e+01
   9.495330e+00   7.590580e+00
   4.176403e+01  -8.451958e+00
   3.174338e+01   6.244664e+01
   1.169805e+01   8.500309e+01
  -3.296772e+01   5.838253e+01
  -9.284557e+01  -3.797012e+01
  -6.076514e+01  -1.149402e+02
  -5.848307e+00  -1.340552e+02
   9.795747e+01  -8.959156e+00
   9.925783e+01   4.356415e+01
   1.963598e+01   1.007620e+02
  -7.306147e+01   3.859617e+01
  -1.000837e+02  -4.051561e+00
  -2.827227e+01  -3.340648e+01
   2.586210e+01  -7.605956e+01
   4.486950e+01  -1.314383e+01
  -4.959440e+01  -2.607915e+01
  -5.259643e+01   1.332839e+01
  -2.558624e+01  -1.711081e+01
   9.443756e+01  -6.549063e+01
   1.136056e+02  -5.641130e+01
   8.987815e+01   2.533781e+01
  -1.431625e+01   8.121400e+01
  -4.596046e+01   7.869503e+01
  -3.893824e+01   2.247562e+01
   6.281933e-01  -5.398504e+01
   1.580926e+01  -2.716771e+01
   2.540537e+01   2.949588e+01
   2.570373e+01   3.703733e+01
   7.780995e+00   3.368211e+01
  -4.230345e+01  -3.050436e+01
  -4.367178e+01  -2.925136e+01
  -3.083747e+01   1.862588e+01
   1.376967e+01   3.072328e+01
  -1.340319e+00  -2.219586e+01
   2.316156e+01  -2.961406e+01
   3.978691e+01  -4.257553e+01
   2.244207e+01  -2.349710e+01
   4.598552e+01   8.572307e+01
  -1.804227e+01   6.112322e+01
  -3.889736e+01   2.305813e+01
  -3.499793e+01  -4.653858e+01
  -2.418487e+01  -6.946921e+01
   8.057465e+00  -5.740873e+01
   1.115738e+02   1.666904e+01
   3.168412e+01   6.546229e+01
  -1.587689e+01   7.024058e+01
  -7.421198e+01   1.209574e+01
  -1.775116e+01   2.128611e+01
   3.524039e+01   4.695420e+00
   6.134582e+01  -2.481687e-01
  -3.216921e+01   2.713404e+01
  -1.009416e+02   1.503354e+01
