
 $NMID
 id='ANONYMOUS ', fmtdat='(2E16.6)'
 volume=1.0
 tramp=1.0
 $END
  -4.206926e+03   1.486012e+02
  -2.645671e+03  -2.739083e+03
   8.471569e+02  -2.799173e+03
   2.327639e+03  -8.753482e+02
   1.004784e+03   8.209106e+02
  -8.873138e+02   6.127359e+02
  -9.939367e+02  -5.445966e+02
   4.573307e+01  -1.193947e+03
   8.775551e+02  -7.679307e+02
   9.049883e+02   8.563598e+01
   4.397166e+02   9.847255e+02
  -2.505787e+02   8.887023e+02
  -7.580039e+02   8.004034e+01
  -4.778529e+02  -8.806055e+02
   3.688181e+02  -8.411425e+02
   6.596403e+02   2.558354e+01
   2.495156e+02   6.868250e+02
  -3.725015e+02   6.640338e+02
  -6.326316e+02   5.944268e+01
  -4.219283e+02  -4.069836e+02
  -1.563429e+01  -4.214110e+02
   2.896740e+02  -2.474215e+02
   2.693155e+02  -3.132541e+01
  -1.235944e+02   9.159879e+01
  -4.552771e+02  -1.490878e+02
  -2.217636e+02  -4.783169e+02
   5.156016e+02  -5.069874e+02
   9.676881e+02   3.350782e+01
   5.304350e+02   6.391606e+02
  -4.075413e+02   4.895281e+02
  -8.503077e+02  -4.727500e+00
  -4.040970e+02  -5.077949e+02
   3.010994e+02  -5.015056e+02
   5.956807e+02  -2.424195e+02
   4.154648e+02   2.192218e+02
   2.571268e+01   4.537443e+02
  -2.494271e+02   3.195169e+02
  -1.934005e+02  -2.656177e+02
   1.586648e+02  -4.685277e+02
   4.841215e+02   3.233441e+01
   2.794140e+02   8.350993e+02
  -3.687921e+02   8.032506e+02
  -7.042695e+02  -1.367002e+01
  -2.711806e+02  -5.452655e+02
   2.886743e+02  -3.145476e+02
   4.034152e+02   3.345789e+02
  -7.386544e+01   5.860127e+02
  -5.495230e+02   9.054482e+01
  -5.639059e+02  -4.184010e+02
  -1.349805e+02  -6.275061e+02
   4.320381e+02  -3.757884e+02
   6.423047e+02   9.032821e+01
   4.111178e+02   4.304221e+02
  -1.567865e+02   4.115780e+02
  -5.112361e+02   5.987808e+01
  -2.258073e+02  -1.926487e+02
   1.286937e+02  -1.134172e+02
   1.853101e+02   1.672703e+02
  -2.101404e+02   2.009054e+02
  -3.963975e+02  -8.848599e+01
  -1.335231e+02  -3.059537e+02
   2.238578e+02  -2.682625e+02
   3.915587e+02  -5.205695e+01
   2.014668e+02   9.816384e+01
  -2.428064e+01   2.519966e+02
  -2.346618e+02   3.237799e+02
  -3.430703e+02   2.241335e+02
  -3.436978e+02  -1.577042e+02
  -5.747805e+01  -4.670517e+02
   1.484520e+02  -3.749284e+02
   1.238174e+02  -1.433114e+02
   3.432562e+01   1.095556e+01
   2.223173e+01  -8.607420e+01
   1.847917e+02  -1.691194e+02
   3.233263e+02   7.170404e+01
   1.610384e+02   2.600326e+02
  -5.168538e+01   2.930076e+02
  -2.567589e+02   1.856820e+01
  -1.911247e+02  -2.352836e+02
   1.671502e+01  -3.166182e+02
   2.794903e+02  -1.148511e+02
   3.641958e+02   1.594806e+02
   1.826696e+02   3.797187e+02
  -1.149904e+02   2.906753e+02
  -2.716424e+02   9.115623e+01
  -1.445841e+02  -3.792097e+00
  -1.094977e+02   2.802007e+01
  -2.578742e+02   7.509790e+01
  -4.166762e+02  -1.594087e+01
  -3.289115e+02  -2.633002e+02
  -2.316153e+01  -4.565770e+02
   3.856673e+02  -4.735727e+02
   5.101669e+02  -2.014708e+02
   3.271119e+02   8.206925e+01
   5.608768e+01   3.137668e+02
  -1.451251e+02   2.859021e+02
  -1.150144e+02   3.184419e+01
   1.206166e+02  -1.193819e+02
   2.209554e+02   1.605385e+01
   4.942637e+01   2.127528e+02
  -1.737944e+02   1.932328e+02
  -1.890902e+02  -6.567220e+01
   2.443810e+01  -2.299017e+02
   1.800697e+02  -3.298696e+01
   1.879550e+02   2.845146e+02
  -2.919577e+01   4.049718e+02
  -2.755491e+02   1.857368e+02
  -3.506190e+02  -8.680944e+01
  -2.661798e+02  -2.360098e+02
  -1.112478e+02  -2.902818e+02
   1.453765e+02  -1.836240e+02
   1.787444e+02  -2.372775e+01
   5.574774e+01   4.943357e+01
  -1.036521e+02  -4.815212e+01
  -2.737464e+01  -1.305937e+02
   1.381775e+02  -1.079626e+02
   2.289164e+02   1.963899e+01
   6.679036e+01   9.198003e+01
  -3.658845e+01   1.593356e+01
  -7.158655e+01  -5.782328e+01
   1.411925e+02  -9.485909e+01
   2.852951e+02  -1.814042e+01
   2.834108e+02   1.335100e+02
   5.016996e+01   2.458092e+02
  -1.694493e+02   2.907275e+02
  -2.950470e+02   1.404173e+02
  -2.067236e+02  -4.573981e+01
   4.201527e+01  -1.324900e+02
   9.883048e+01  -2.048615e+01
  -2.817888e+01   9.163407e+01
  -2.163420e+02   5.837210e+01
  -2.076986e+02  -1.002121e+02
  -8.185364e+01  -2.089608e+02
   9.267816e+01  -1.532303e+02
   1.722249e+02  -3.301825e+01
   8.540979e+01   2.475500e+01
  -4.059736e+01   4.534565e+00
  -1.817122e+01  -7.107887e+01
   5.122723e+01  -1.131912e+02
   2.140013e+02  -3.783445e+01
   1.818189e+02   1.099372e+02
   3.671118e+01   2.592313e+02
  -1.679012e+02   1.522930e+02
  -2.063657e+02  -3.260073e+00
  -4.974782e+01  -1.059979e+02
   5.347096e+01  -1.171844e+02
   7.946299e+01  -4.857761e+01
   3.325523e+01   4.545609e-02
  -8.782468e+00  -3.186224e+00
   6.091470e+00  -8.439063e+00
   8.727080e+01   9.458713e+00
   9.468765e+01   5.193895e+01
   1.372962e+01   1.348832e+02
  -1.136121e+02   1.764984e+02
  -2.613030e+02   3.509419e+01
  -2.357400e+02  -1.763433e+02
  -3.176916e+01  -2.334705e+02
   1.489940e+02  -1.957074e+02
   1.479784e+02  -4.080763e+01
   4.790735e+01   7.444838e+01
   3.985175e+01   6.127554e+01
   9.231236e+01  -4.685239e+00
   6.368301e+01  -8.580390e+00
   6.647275e+01   4.401675e+01
  -3.905759e+01   8.486316e+01
  -9.919930e+01   6.078160e+01
  -9.052895e+01  -4.606674e+01
   2.755166e+01  -1.367184e+02
   1.489257e+02  -7.429537e+01
   2.071972e+02   4.024814e+01
   1.194494e+02   1.952821e+02
  -1.198540e+02   2.218760e+02
  -2.789602e+02   1.162438e+02
  -2.774608e+02  -6.624499e+01
  -9.202930e+01  -1.872999e+02
   3.770487e+01  -1.647479e+02
   1.161361e+02  -1.268456e+02
   1.010199e+02  -6.939381e+01
   6.438781e+01  -8.157480e+01
   8.363702e+01  -7.924542e+01
   1.340880e+02   4.486085e+01
   1.195993e+02   1.653853e+02
   3.408069e+01   2.369897e+02
  -8.883976e+01   1.592948e+02
  -2.121284e+02   4.140498e+01
  -1.582447e+02  -1.159004e+02
  -5.369853e+01  -1.488385e+02
   4.673675e+01  -1.125132e+02
   6.430832e+01  -4.704016e+00
   3.555890e+00   5.265812e+01
   7.945516e+00   4.156768e+01
   3.670609e+01   3.846971e+01
   7.578189e+01   9.074396e+00
   3.809471e+01   3.115080e+01
  -7.081764e+01   4.400429e+01
  -1.246455e+02   1.116434e+01
  -1.730158e+02  -5.336978e+01
  -1.965639e+01  -9.510927e+01
   1.129057e+02  -8.527583e+01
   1.946873e+02  -2.760981e+01
   3.397429e+01   4.308879e+01
  -9.278270e+01   2.014276e+01
  -5.183624e+01  -2.555299e+01
   1.186873e+01  -5.174141e+01
   4.587999e+01  -4.722101e+01
   6.367381e+01   1.740658e+01
   4.967438e+01   6.767406e+01
   5.781571e+01   3.452787e+01
   8.182394e+01  -6.911444e+00
   6.251302e+01  -4.900830e+00
   2.657768e+01   6.407846e+01
  -3.220333e+01   1.761911e+02
  -1.155922e+02   1.159785e+02
  -1.585261e+02   3.449170e+01
  -1.648038e+02  -8.916551e+01
  -3.015519e+01  -1.496522e+02
   1.161688e+02  -6.460084e+01
   5.151012e+01   2.193836e+01
  -5.959312e+01   3.437686e+01
  -1.656840e+02  -5.323257e+01
  -9.766394e+01  -9.966931e+01
   1.134243e+02  -1.066850e+02
   2.106609e+02  -7.184104e+01
   1.802890e+02   5.931933e+01
   5.093641e+01   5.602362e+01
  -5.139111e+01   6.752204e+01
  -6.735986e+01   3.538071e+01
   4.384735e+01  -2.891865e+01
   7.753114e+01   2.761207e+01
   6.059228e+01   1.287302e+02
  -8.552869e+01   1.950292e+02
  -1.627169e+02   6.843126e+01
  -1.020871e+02  -1.137790e+02
   2.167764e+00  -1.979549e+02
   7.814717e+01  -1.273500e+02
   9.707150e+01   1.103120e+00
   5.044287e+01   1.325540e+02
   6.834604e+00   1.142425e+02
  -3.982580e+01   4.605815e+01
  -4.524358e+01  -5.483190e+00
  -1.453886e+01  -3.167933e+01
   2.095611e-01   1.578399e+00
  -2.876713e+01  -7.070078e+00
  -5.095515e+01  -8.574910e+01
  -5.554708e+01  -1.272746e+02
   3.181040e+01  -5.660695e+01
   1.249046e+02   2.144544e+01
   1.421163e+02   8.064278e+01
   3.014281e+01   6.771283e+01
  -8.760426e+01   2.711677e+01
  -1.013102e+02  -8.509634e+00
   1.328361e+01   2.057918e+01
   3.146631e+01  -1.647774e+01
  -9.175355e+00  -2.136271e+00
  -1.865054e+01   1.011819e+01
   1.330025e+01  -5.347282e+00
   8.027522e+01   2.863703e+01
   8.211654e+01   2.200857e+01
   1.994987e+01   1.024851e+02
  -1.245184e+02   9.295684e+01
  -1.955198e+02   3.062521e+01
  -1.590687e+02  -6.642172e+01
  -3.783158e+00  -1.678043e+02
   8.879697e+01  -1.487831e+02
   1.364427e+02  -9.206977e+01
   8.288356e+01   2.502409e+01
   5.432136e+01   5.779782e+01
   4.697578e+00   1.954958e+01
   3.928795e+01  -4.676872e+00
   2.851525e+01   5.393672e+01
   5.289922e+01   1.049242e+02
  -3.344762e+01   4.733871e+01
  -5.414690e+01  -2.389184e+01
  -8.725736e+01  -1.241233e+02
  -1.405343e+01  -1.178661e+02
   5.887803e+01  -1.708958e+01
   1.045960e+02   8.386108e+01
   3.903016e+01   8.985888e+01
  -5.449441e+01   7.470184e+01
  -7.831296e+01   3.736722e+00
  -4.275860e+01  -1.928095e+01
   1.128885e+01  -1.989533e+01
   3.029709e+01  -2.514265e+01
  -2.131612e+01  -8.209331e+00
  -7.551119e+01   1.498549e+01
  -3.250166e+01  -2.060626e+01
   6.696709e+01  -5.205637e+01
   1.473897e+02  -8.748210e+01
   3.689193e+01   2.221679e+01
  -4.493791e+00   9.532980e+01
  -5.022314e+01   8.698216e+01
  -4.809265e+01  -1.566978e+00
   6.053571e+00  -6.412766e+01
   6.844596e+00  -5.253184e+01
   4.898894e+01   2.428528e+01
   1.979740e+01   3.546592e+01
  -4.445447e+00   4.682148e+01
  -3.749449e+01   3.325011e+00
  -4.802486e+01  -1.607722e+01
   6.086896e+00   1.867343e+01
   1.505866e+01   1.484770e+01
   5.908365e+00   7.243686e+00
  -4.266312e+00  -4.850886e+01
   5.800080e+01  -3.617330e+01
   1.714775e+01  -6.762115e+00
   5.742140e+01   4.753225e+01
  -4.977978e+00   5.015233e+01
  -5.993398e+01   1.976954e+01
  -4.541304e+01  -1.593921e+01
  -3.599587e+01  -6.703949e+01
   7.546602e+01  -1.972805e+01
   9.398606e+01   4.045180e+01
   4.728954e+01   4.564169e+01
  -1.087120e+01   4.088052e+01
  -4.794168e+01  -2.143487e+00
  -2.280776e+01  -4.163834e+00
   2.040283e+01   1.833548e+01
   5.779059e+01   1.504564e+01
  -5.306012e+01   4.915793e+01
  -1.184349e+02   2.772242e+01
