
 $NMID
 id='ANONYMOUS ', fmtdat='(2E16.6)'
 volume=1.0
 tramp=1.0
 $END
  -3.603185e+03  -6.701784e+00
  -2.406153e+03  -2.188420e+03
   3.092618e+02  -2.257809e+03
   1.832808e+03  -1.069494e+03
   1.127241e+03   6.577736e+01
  -3.073901e+02   4.313197e+02
  -6.822089e+02  -2.798946e+02
  -1.028110e+02  -8.454092e+02
   6.301414e+02  -6.706185e+02
   7.058500e+02  -6.079618e+01
   4.131130e+02   6.521092e+02
  -9.538055e+01   7.126180e+02
  -4.527987e+02   1.986583e+02
  -3.909159e+02  -6.079549e+02
   1.271787e+02  -6.244486e+02
   5.114960e+02  -9.005628e+01
   2.942490e+02   5.494667e+02
  -2.096500e+02   6.785411e+02
  -5.606640e+02   1.678117e+02
  -4.332159e+02  -2.916536e+02
  -9.453168e+01  -4.114168e+02
   1.609758e+02  -2.684967e+02
   1.496928e+02  -5.266485e+01
  -1.278307e+02  -2.390251e+01
  -3.287166e+02  -1.844504e+02
  -1.116703e+02  -3.756212e+02
   4.499488e+02  -3.044421e+02
   7.941262e+02   1.396479e+02
   3.326729e+02   4.820024e+02
  -3.594847e+02   3.455661e+02
  -5.733565e+02  -5.938892e+01
  -3.148613e+02  -4.347687e+02
   2.930361e+02  -3.862151e+02
   4.922140e+02  -1.951404e+02
   3.719827e+02   2.005237e+02
   8.436600e+01   3.865803e+02
  -1.115056e+02   2.734652e+02
  -6.383188e+01  -1.168671e+02
   1.630588e+02  -3.012958e+02
   3.089138e+02   9.257771e+01
   1.275093e+02   5.951067e+02
  -2.522462e+02   5.916145e+02
  -5.132630e+02   1.926726e+01
  -1.513692e+02  -4.068533e+02
   1.846521e+02  -2.228353e+02
   2.629672e+02   2.887815e+02
  -5.931774e+01   4.581024e+02
  -4.608062e+02   9.807772e+01
  -4.827402e+02  -3.608847e+02
  -1.544122e+02  -5.415922e+02
   3.285117e+02  -3.039809e+02
   5.339627e+02   6.168597e+01
   3.834358e+02   3.409969e+02
  -5.998301e+01   3.114974e+02
  -3.973827e+02   1.291368e+02
  -2.662477e+02  -1.033771e+02
   4.461755e+01  -8.164511e+01
   1.093553e+02   1.130985e+02
  -1.319261e+02   1.530944e+02
  -2.981022e+02  -8.144745e+01
  -1.149836e+02  -2.244817e+02
   1.850716e+02  -2.460028e+02
   3.532886e+02  -1.139375e+02
   2.478411e+02   9.981414e+01
  -4.470537e+01   2.770239e+02
  -2.421998e+02   3.083485e+02
  -3.190599e+02   2.245618e+02
  -2.646780e+02  -1.611499e+02
  -6.464614e+01  -3.864449e+02
   6.043047e+01  -3.197220e+02
   8.560431e+01  -1.501934e+02
   6.033516e+01  -4.836807e+01
   8.399801e+01  -1.018343e+02
   2.001972e+02  -1.039293e+02
   2.829486e+02   5.335461e+01
   1.272083e+02   2.509274e+02
  -7.396330e+01   2.732537e+02
  -2.025277e+02  -2.091506e+01
  -1.405698e+02  -2.211903e+02
   5.072965e+01  -2.798731e+02
   2.367656e+02  -5.770752e+01
   3.332328e+02   1.440936e+02
   1.828749e+02   3.249191e+02
  -9.907057e+01   2.812671e+02
  -2.116040e+02   1.303650e+02
  -1.464050e+02   5.134435e+01
  -1.337616e+02   3.726816e+01
  -2.503568e+02   4.079074e+01
  -4.306553e+02  -6.971746e+01
  -3.073545e+02  -3.040894e+02
   3.486070e+01  -4.329299e+02
   3.810475e+02  -4.229326e+02
   5.052603e+02  -1.827241e+02
   3.183937e+02   9.516447e+01
   3.128820e+01   2.506320e+02
  -9.122823e+01   2.475199e+02
  -4.149209e+01   5.719676e+01
   9.056331e+01  -6.647731e+01
   1.273264e+02   2.724013e+01
   4.903699e+01   1.649866e+02
  -1.233436e+02   1.545607e+02
  -1.343338e+02  -6.517133e+01
  -5.595043e+00  -1.541602e+02
   1.754516e+02  -5.569363e+00
   1.911050e+02   2.331498e+02
  -1.635744e+01   3.373800e+02
  -2.451609e+02   2.017592e+02
  -3.651462e+02  -7.920887e+01
  -2.478793e+02  -2.389768e+02
  -9.379045e+01  -2.740902e+02
   1.360268e+02  -1.686104e+02
   1.808738e+02  -2.791183e+01
   4.342031e+01   4.484095e+01
  -5.708951e+01  -3.577854e+01
   1.299867e+01  -1.352514e+02
   1.281351e+02  -1.032540e+02
   1.626592e+02   2.014798e+01
   3.340717e+01   7.717395e+01
  -7.930757e+01  -7.271067e+00
  -4.818302e+01  -9.279665e+01
   1.341176e+02  -8.566172e+01
   3.009661e+02   1.810154e+01
   2.755569e+02   1.343064e+02
   4.330232e+01   2.259382e+02
  -2.071216e+02   2.571008e+02
  -2.583204e+02   1.181788e+02
  -1.711794e+02  -5.410185e+01
   9.543070e+00  -9.234161e+01
   7.878539e+01  -2.324665e+01
  -3.529191e+01   9.871691e+01
  -2.027973e+02   4.695960e+01
  -2.006201e+02  -7.406217e+01
  -5.646415e+01  -1.647032e+02
   1.197248e+02  -1.490802e+02
   1.512110e+02  -2.196680e+01
   5.910604e+01   4.393349e+01
  -2.900639e+01  -6.103891e+00
  -3.937895e+01  -8.534280e+01
   7.797661e+01  -9.343061e+01
   2.236807e+02  -3.482437e+01
   1.920928e+02   1.172282e+02
   7.089334e+00   2.335525e+02
  -1.717439e+02   1.532167e+02
  -1.774751e+02   8.375685e+00
  -7.092137e+01  -8.436311e+01
   8.108227e+01  -9.820627e+01
   8.803408e+01  -1.962767e+01
  -9.003499e+00   4.447751e+01
  -4.117148e+01   1.672752e+01
   4.914113e+00  -4.844032e+00
   5.796049e+01   3.680178e+00
   9.605981e+01   9.686189e+01
   3.483715e+00   1.719075e+02
  -1.481812e+02   1.628066e+02
  -2.564021e+02   3.707374e+01
  -2.006036e+02  -1.513093e+02
  -3.743747e+01  -2.345124e+02
   1.318149e+02  -1.822098e+02
   1.493533e+02  -2.300136e+01
   7.737274e+01   4.311263e+01
   4.948611e+01   2.632188e+01
   4.023893e+01  -8.481503e+00
   8.833470e+01  -1.400998e+01
   5.755256e+01   5.658079e+01
  -5.078295e+01   8.958711e+01
  -1.196162e+02   5.777470e+01
  -9.726731e+01  -6.599172e+01
   1.025496e+01  -1.253477e+02
   1.196298e+02  -8.536599e+01
   1.952093e+02   6.118177e+01
   7.206768e+01   2.123225e+02
  -1.314238e+02   2.170774e+02
  -2.419578e+02   1.102385e+02
  -2.757955e+02  -8.211631e+01
  -7.918583e+01  -1.853561e+02
   4.155804e+01  -1.321266e+02
   1.092882e+02  -1.086485e+02
   5.947593e+01  -9.603165e+01
   7.173813e+01  -7.858852e+01
   8.501058e+01  -8.768522e+01
   1.084264e+02   1.449920e+01
   8.713346e+01   1.447812e+02
   4.689896e+01   2.189647e+02
  -6.666807e+01   1.447566e+02
  -1.781729e+02   1.396280e+01
  -9.475532e+01  -1.242968e+02
   8.184484e+00  -1.746201e+02
   9.969704e+01  -7.477274e+01
   5.626613e+01   3.224826e+01
   6.109395e+00   5.370410e+01
  -2.955039e+01   3.830480e+01
   2.716967e+01   6.527138e+00
   8.995951e+01   3.025796e+01
   3.728192e+01   3.714764e+01
  -5.989507e+01   6.283374e+01
  -1.754511e+02   1.358503e+01
  -1.621324e+02  -6.564704e+01
   7.366310e+00  -1.077562e+02
   1.187204e+02  -7.910351e+01
   1.473994e+02  -1.641162e+01
   6.039324e+01   3.720651e+01
  -4.695255e+01   1.248418e+01
  -5.188639e+01  -3.989464e+01
  -1.468389e+01  -7.027678e+01
   2.995689e+01  -7.861443e+01
   7.753712e+01   2.256239e+01
   7.800083e+01   5.019749e+01
   8.290754e+00   6.117899e+01
   4.452296e+01   2.189338e+00
   4.345116e+01   3.659657e+01
   2.888377e+01   3.663257e+01
  -3.897799e+01   1.642004e+02
  -1.143214e+02   1.204482e+02
  -2.040314e+02   4.220355e+01
  -1.246107e+02  -8.463746e+01
   6.964574e+00  -1.254053e+02
   6.407477e+01  -6.151126e+01
   3.719541e+01   3.167392e+01
  -6.329272e+01   2.509328e+01
  -1.426759e+02  -5.136637e+01
  -5.228768e+01  -1.017728e+02
   6.638444e+01  -1.387781e+02
   2.211933e+02  -6.674666e+01
   1.740486e+02   3.520419e+01
   2.504123e+01   6.376882e+01
  -4.079677e+01   5.558089e+01
  -6.276133e+01  -2.863263e+01
   4.737267e+01  -2.670839e+01
   1.014635e+02   3.613823e+01
   3.649076e+01   1.448833e+02
  -8.919260e+01   1.694888e+02
  -1.681514e+02   1.076231e+02
  -1.349174e+02  -1.035544e+02
   1.116719e+00  -1.961949e+02
   1.072036e+02  -1.423176e+02
   8.784644e+01   1.248759e+01
   6.009699e+01   1.083452e+02
  -2.559747e+01   1.065684e+02
  -8.327273e+01   9.213224e+00
  -3.183554e+01   4.713190e+00
  -1.930018e+01   1.469174e+01
  -3.373211e+01   3.660461e+01
   1.401367e+00   1.583350e+01
  -7.142245e+01  -7.606072e+01
  -2.615591e+01  -1.010452e+02
   1.850470e+01  -4.962285e+01
   1.825365e+02   4.298294e+01
   1.466114e+02   8.926700e+01
   2.131452e+00   4.403441e+01
  -7.161832e+01  -4.483947e-01
  -8.444529e+01   1.848256e+01
  -1.763191e+01  -9.197136e+00
   4.974081e+01  -3.050459e+01
   3.312695e+00  -9.248338e+00
  -8.818093e+00   2.417310e+01
  -2.194105e+00  -4.887114e+01
   7.710513e+01   1.434435e+01
   7.219926e+01   1.573611e+01
   6.992966e+00   7.338575e+01
  -9.685649e+01   1.243553e+02
  -1.984156e+02   6.659901e+01
  -1.655005e+02  -5.072780e+01
  -4.069969e+01  -1.663804e+02
   6.359638e+01  -1.617799e+02
   1.024931e+02  -7.332760e+01
   8.882430e+01   3.537842e+01
   2.756599e+01   1.740835e+01
   1.024072e+01   5.273489e+01
   2.948655e+00  -7.361370e+00
   3.454915e+01   5.987296e+01
   2.697759e+01   1.025121e+02
  -8.763869e+00   4.742582e+01
  -6.198446e+01  -8.970047e+00
  -5.558940e+01  -6.877436e+01
   1.196397e+00  -9.595239e+01
   4.387858e+01  -6.706522e+00
   8.836024e+01   6.241112e+01
   3.605211e+01   1.071123e+02
  -6.688061e+01   4.655893e+01
  -1.083984e+02   5.394430e+00
  -4.589056e+01  -3.673841e+01
   1.799652e+01  -3.963656e+01
   2.268988e+01  -1.584639e+01
  -3.872829e+01   9.064555e+00
  -7.771671e+01   1.706530e+00
  -1.590141e+01  -1.192189e+01
   5.675761e+01  -6.424654e+01
   1.063756e+02  -3.745268e+01
   8.754455e+01   1.053794e+01
   2.372812e+01   8.345449e+01
  -6.800882e+01   7.227047e+01
  -1.886601e+01   2.037524e+00
   1.083697e+01  -6.884902e+01
   3.771678e+01  -4.151493e+01
   1.958733e+01   1.908638e+01
   4.780242e+01   3.646543e+01
   6.548052e-01   4.157869e+01
  -1.304180e+01  -3.736046e+00
  -9.161732e+00  -1.828956e+01
  -2.077480e+01   2.290371e+01
  -1.133917e+01   4.746937e+01
   1.245852e+01   2.083292e+01
  -1.123317e+01  -3.288252e+01
   1.196491e+01  -3.650054e+01
   1.020907e+01  -1.239820e+01
   3.166658e+01   6.740054e+01
   9.842854e+00   7.266630e+01
  -2.644006e+01   1.228298e+01
  -7.136391e+01  -1.190048e+01
  -4.391795e+00  -4.080315e+01
   4.954374e+01  -6.716286e+01
   1.221037e+02   5.567957e+01
   7.123726e+01   6.352272e+01
  -7.165825e+00   2.705847e+01
  -7.057064e+01   4.715191e+01
  -8.552089e+00   8.633853e+00
   4.202181e+01   4.966717e+00
   3.200330e+01   2.478541e+01
  -1.918227e+01   3.005336e+01
  -8.415511e+01   4.814676e+01
