
 $NMID
 id='ANONYMOUS ', fmtdat='(2E16.6)'
 volume=1.0
 tramp=1.0
 $END
   3.209606e+03   2.536239e+01
   2.212568e+03   1.953014e+03
  -1.797807e+02   2.116469e+03
  -1.655735e+03   1.069629e+03
  -1.037207e+03   5.318694e+01
   2.474502e+02  -3.069100e+02
   5.556540e+02   2.141409e+02
   5.851338e+01   7.526238e+02
  -5.735609e+02   5.842835e+02
  -6.576686e+02   8.694465e+01
  -3.826539e+02  -5.737214e+02
   4.562172e+01  -6.619909e+02
   4.375522e+02  -1.816973e+02
   3.305417e+02   5.370403e+02
  -8.142292e+01   5.763400e+02
  -5.068177e+02   4.857267e+01
  -3.242209e+02  -5.072080e+02
   1.769751e+02  -6.344243e+02
   5.400605e+02  -1.884551e+02
   4.439057e+02   2.499961e+02
   1.359299e+02   4.143095e+02
  -1.277418e+02   2.130502e+02
  -1.429043e+02   5.314573e+01
   1.351943e+02   6.561090e+01
   3.470903e+02   2.084135e+02
   7.632824e+01   3.398708e+02
  -4.374354e+02   2.526182e+02
  -7.413152e+02  -1.617359e+02
  -3.111952e+02  -4.680578e+02
   3.343514e+02  -3.068161e+02
   5.200139e+02   8.065484e+01
   3.058189e+02   4.279435e+02
  -2.802726e+02   3.334720e+02
  -4.188078e+02   1.747467e+02
  -3.745603e+02  -1.916928e+02
  -9.999707e+01  -3.495362e+02
   1.086422e+02  -2.173392e+02
  -3.214915e+01   8.874952e+01
  -1.335726e+02   2.312385e+02
  -3.054800e+02  -1.001194e+02
  -7.982445e+01  -5.382089e+02
   2.414534e+02  -5.112026e+02
   4.851422e+02   2.551023e+00
   1.068557e+02   3.464859e+02
  -1.703661e+02   1.740641e+02
  -2.155409e+02  -2.768319e+02
   1.320762e+02  -4.263989e+02
   4.659762e+02  -1.025619e+02
   4.519295e+02   3.649413e+02
   1.361609e+02   5.159556e+02
  -2.934302e+02   2.640106e+02
  -5.129778e+02  -8.927540e+01
  -3.412746e+02  -3.052109e+02
   5.020063e+01  -2.522995e+02
   3.475261e+02  -1.304148e+02
   2.375403e+02   6.929642e+01
  -2.264892e+01   5.265861e+01
  -7.135387e+01  -6.189857e+01
   1.307399e+02  -1.066535e+02
   2.758200e+02   6.092688e+01
   1.213447e+02   2.469597e+02
  -1.466248e+02   2.606720e+02
  -3.508138e+02   9.720634e+01
  -2.662110e+02  -9.388080e+01
   3.843731e+01  -2.749433e+02
   2.522777e+02  -3.234820e+02
   3.130033e+02  -2.001207e+02
   2.613089e+02   1.644786e+02
   5.912708e+01   3.418472e+02
  -7.372449e+01   2.745382e+02
  -3.921977e+01   1.441002e+02
  -5.829665e+01   6.423939e+01
  -9.473960e+01   1.210995e+02
  -2.483088e+02   9.783794e+01
  -2.770920e+02  -9.899434e+01
  -1.079319e+02  -2.555488e+02
   9.383336e+01  -2.265501e+02
   2.099045e+02   2.371198e+01
   1.711450e+02   2.181380e+02
  -4.910135e+01   2.616573e+02
  -2.346246e+02   6.717654e+01
  -3.751624e+02  -1.601347e+02
  -1.534916e+02  -3.469782e+02
   7.426322e+01  -2.664701e+02
   1.972799e+02  -1.683164e+02
   1.499431e+02  -7.329473e+01
   1.052808e+02  -4.893050e+01
   2.551409e+02  -2.870173e+01
   4.182419e+02   7.860145e+01
   3.074910e+02   2.802112e+02
  -3.674855e+01   4.415083e+02
  -3.937240e+02   4.270587e+02
  -5.013479e+02   1.488094e+02
  -2.833617e+02  -8.203759e+01
  -3.206255e+01  -2.028685e+02
   1.135601e+02  -1.999691e+02
   5.286728e+01  -5.056213e+01
  -1.181394e+02   2.567050e+01
  -1.557635e+02  -1.409797e+01
  -1.122788e+01  -1.706202e+02
   1.334282e+02  -1.238770e+02
   1.312543e+02   5.195428e+01
  -5.407172e+01   1.395386e+02
  -1.779449e+02   3.594107e+01
  -1.904207e+02  -2.405245e+02
   3.817920e+01  -3.421416e+02
   2.488444e+02  -2.043929e+02
   3.649496e+02   9.683818e+01
   2.725734e+02   2.164864e+02
   1.034474e+02   2.851388e+02
  -1.266242e+02   1.201206e+02
  -1.548385e+02   1.063258e+01
  -3.965412e+01  -5.020191e+01
   5.440277e+01   5.075864e+01
   8.235274e+00   1.317960e+02
  -1.270020e+02   5.465223e+01
  -1.554392e+02  -3.351474e+01
  -4.118664e+01  -3.259111e+01
   8.775685e+01  -1.505480e+01
   5.694714e+01   5.469315e+01
  -1.295930e+02   8.187812e+01
  -3.091640e+02  -1.629980e+01
  -2.648027e+02  -1.418970e+02
  -9.446919e+00  -2.299741e+02
   2.117205e+02  -2.674904e+02
   2.529306e+02  -9.806302e+01
   1.690919e+02   4.416052e+01
  -3.833056e+01   6.846718e+01
  -7.199084e+01   2.026835e+01
   4.051957e+01  -1.035326e+02
   1.843172e+02  -3.861113e+01
   1.801003e+02   6.968487e+01
   7.058250e+01   1.944790e+02
  -7.438096e+01   1.514830e+02
  -1.367473e+02   1.543363e+01
  -7.556970e+01  -4.957927e+01
   6.426196e+01   3.532030e+00
   5.078952e+01   9.059154e+01
  -8.811594e+01   1.118578e+02
  -2.325747e+02   8.182163e+00
  -1.722336e+02  -1.519344e+02
  -1.491475e+01  -2.015134e+02
   1.812687e+02  -1.486726e+02
   1.779846e+02  -1.721022e+01
   5.093942e+01   1.035540e+02
  -6.718459e+01   7.601028e+01
  -1.007939e+02   2.808524e+01
  -3.196557e+01  -4.407129e+01
   2.069326e+01  -2.423447e+01
   8.392520e+00   2.296380e+01
  -9.474474e+01  -7.978906e+00
  -8.855369e+01  -8.103161e+01
   2.385545e+01  -1.985726e+02
   1.449605e+02  -1.620486e+02
   2.450697e+02  -1.690338e+01
   2.117034e+02   1.659575e+02
   1.668956e+01   2.307543e+02
  -1.123761e+02   1.771814e+02
  -1.334758e+02   4.216758e+01
  -9.500186e+01  -3.033464e+01
  -6.350441e+01  -5.689946e+00
  -5.481429e+01  -1.819208e+01
  -1.158393e+02  -1.205119e+00
  -4.932171e+01  -4.889378e+01
   5.873715e+01  -9.832107e+01
   1.284243e+02  -5.431408e+01
   6.949900e+01   3.028005e+01
  -2.456386e+01   1.303868e+02
  -1.285594e+02   8.067040e+01
  -2.231140e+02  -7.859730e+01
  -7.646334e+01  -1.872168e+02
   8.951876e+01  -2.210633e+02
   2.412578e+02  -9.566568e+01
   2.714055e+02   8.684938e+01
   1.113913e+02   1.944730e+02
  -5.942087e+01   1.404195e+02
  -8.600088e+01   9.298097e+01
  -8.862873e+01   9.700127e+01
  -6.518189e+01   8.191115e+01
  -9.396799e+01   7.008565e+01
  -9.954263e+01  -1.258674e+01
  -1.075760e+02  -1.604024e+02
  -4.461730e+01  -2.083455e+02
   8.581643e+01  -1.752771e+02
   2.016805e+02  -7.839830e+00
   1.190420e+02   1.272981e+02
  -1.860881e+01   1.630062e+02
  -6.430119e+01   1.144333e+02
  -5.650771e+01  -4.005245e+01
   3.493147e+01  -6.983074e+01
   1.210531e+01  -4.707042e+01
  -3.355034e+01   1.686118e+01
  -8.251596e+01  -1.062248e+01
  -1.656715e+01  -3.592497e+01
   6.622279e+01  -4.883721e+01
   1.440310e+02  -1.694127e+01
   1.738946e+02   6.176527e+01
   1.142082e+01   9.803131e+01
  -1.448542e+02   7.222221e+01
  -1.628050e+02   2.602986e+01
  -5.215868e+01  -5.186631e+01
   2.503895e+01  -4.321651e+01
   8.901896e+01   4.467760e+01
   4.695896e+01   6.403899e+01
  -5.814358e+01   6.635291e+01
  -6.762683e+01  -1.466308e+01
  -7.426992e+01  -5.357233e+01
  -4.785086e+01  -6.423831e+01
  -3.649604e+01  -7.795264e+00
  -4.255439e+01   2.580217e+01
  -2.471884e+01  -4.167011e+01
   3.233442e+01  -1.654741e+02
   1.141399e+02  -1.411310e+02
   2.113820e+02  -2.556162e+01
   1.191434e+02   1.133301e+02
  -1.277450e+01   1.232094e+02
  -7.703274e+01   5.271093e+01
  -4.126904e+01  -3.990484e+01
   5.656094e+01  -1.916326e+01
   1.356145e+02   1.494175e+01
   3.941629e+01   6.672553e+01
  -9.131624e+01   1.133038e+02
  -2.112940e+02   6.276913e+01
  -1.651311e+02  -3.218892e+01
  -5.301962e+01  -6.611572e+01
   5.230688e+01  -7.333412e+01
   5.223470e+01   2.898482e+01
  -5.290788e+01   3.235180e+01
  -9.786587e+01  -3.609617e+01
  -3.065666e+01  -1.174273e+02
   8.860822e+01  -1.524854e+02
   1.482010e+02  -1.067074e+02
   1.324469e+02   8.780577e+01
   4.744216e-01   1.838455e+02
  -7.237563e+01   1.532371e+02
  -1.066200e+02   1.549627e+01
  -5.724619e+01  -9.164209e+01
   2.146887e+01  -9.812014e+01
   7.150739e+01  -9.444709e+00
   3.701890e+01   1.028582e+01
   1.821847e+01  -9.021808e+00
  -1.363634e+01  -2.701618e+00
   1.939261e+01   5.657208e-01
   6.818202e+01   9.613403e+01
   2.280619e+01   8.213219e+01
  -3.016894e+01   3.054948e+01
  -1.549048e+02  -2.756899e+01
  -1.359712e+02  -5.255609e+01
  -2.159950e+01  -5.788536e+01
   8.956722e+01   8.166782e+00
   8.348239e+01  -3.285906e+01
   8.311424e+00   1.661942e+00
  -4.540085e+01   1.630736e+01
  -3.778940e+01   3.054684e+00
   2.364156e+01  -1.033860e-01
  -2.685362e+01   1.816509e+01
  -6.876663e+01  -2.848181e+00
  -5.749516e+01  -2.776060e+01
  -5.608989e+00  -8.164099e+01
   1.005101e+02  -1.292844e+02
   1.884471e+02  -5.535704e+01
   1.645090e+02   6.520517e+01
   5.408753e+01   1.388775e+02
  -6.052077e+01   1.619080e+02
  -1.286936e+02   8.115918e+01
  -7.273204e+01  -3.781746e+01
  -3.533426e+00  -2.286766e+01
   1.786931e+01  -1.961893e+01
  -1.260760e+01  -8.066235e-01
  -3.975408e+01  -6.022675e+01
  -1.208953e+00  -1.074513e+02
   2.945213e+01  -7.332846e+01
   4.549180e+01   5.334205e+00
   9.594639e+01   8.412069e+01
   1.926416e+01   1.234391e+02
  -6.446382e+01   4.617816e+01
  -1.119084e+02  -8.579257e+01
  -3.250203e+01  -1.013434e+02
   8.193014e+01  -7.320495e+01
   9.179975e+01   6.466711e+00
   2.675370e+01   5.408231e+01
  -4.191105e+01   9.664720e+01
  -2.725786e+01   1.843096e+01
   2.182669e+01  -5.271189e+00
   6.583001e+01  -2.130442e+01
   2.352659e+01   9.868270e+00
  -6.219861e+01   6.508150e+01
  -1.292116e+02   5.003264e+01
  -9.917772e+01   2.447567e-01
   6.569884e+00  -7.627432e+01
   6.712118e+01  -9.425496e+01
   3.512494e+01  -8.372864e+00
  -3.600746e-01   5.533905e+01
  -1.991783e+01   1.861924e+01
  -2.137686e+01  -3.921262e+00
  -2.796759e+01  -2.896377e+01
  -8.417523e-01  -3.806109e+01
   2.682363e+01  -1.813726e+01
   2.113680e+01   1.400993e+01
   2.387061e+01  -2.433545e+01
  -1.313998e+01  -3.301187e+01
  -4.263764e+00  -1.187250e+01
   1.188020e+01   3.680413e+01
  -6.746658e-01   5.227785e+01
  -3.018266e+01   2.038416e+01
  -2.832714e+01  -2.484389e+01
  -8.128939e+00  -7.250187e+01
   5.516701e+01  -4.025369e+01
   8.591701e+01   2.775009e+01
   3.937351e+01   4.410016e+01
  -6.189007e+01   2.991281e+01
  -8.501468e+01  -3.548008e+01
  -7.333518e+01  -2.568712e+01
   3.113984e+01  -4.464149e+01
   4.844802e+01  -3.108214e+01
   1.556041e+01  -3.460721e+01
  -2.123553e+01  -2.097083e+01
  -4.736739e+01  -8.493979e+00
   1.988911e+01  -1.500030e+01
   8.268861e+01  -2.034247e+01
