
 $NMID
 id='ANONYMOUS ', fmtdat='(2E16.6)'
 volume=1.0
 tramp=1.0
 $END
  -4.070668e+03  -1.871706e+02
  -2.616817e+03  -2.804119e+03
   7.114103e+02  -2.731257e+03
   2.352654e+03  -7.531843e+02
   9.289504e+02   6.664281e+02
  -8.996323e+02   6.584858e+02
  -9.178782e+02  -4.320541e+02
   8.361771e+01  -1.155662e+03
   8.483261e+02  -6.830161e+02
   8.606488e+02   9.522796e+01
   4.172359e+02   9.039052e+02
  -2.820821e+02   8.533521e+02
  -7.449133e+02   7.476455e+01
  -4.133367e+02  -8.150541e+02
   3.514786e+02  -8.215410e+02
   6.779209e+02   3.081301e+01
   2.610144e+02   6.731227e+02
  -3.850626e+02   6.436237e+02
  -6.460345e+02   5.604494e+01
  -3.860924e+02  -4.247339e+02
  -5.939889e+00  -4.261657e+02
   2.725192e+02  -2.815993e+02
   2.605576e+02  -2.878615e+00
  -1.450028e+02   8.021837e+01
  -4.775724e+02  -1.445390e+02
  -2.143309e+02  -4.929316e+02
   5.559361e+02  -4.459714e+02
   9.150991e+02   4.782879e+01
   4.892808e+02   5.731921e+02
  -4.192012e+02   4.616251e+02
  -8.528567e+02  -4.414696e+01
  -3.619566e+02  -5.636627e+02
   2.770554e+02  -5.232527e+02
   5.855309e+02  -1.791586e+02
   4.270536e+02   2.173745e+02
   7.832856e+01   4.554583e+02
  -2.745346e+02   3.372837e+02
  -1.596803e+02  -2.369884e+02
   2.005757e+02  -4.406242e+02
   4.747850e+02   2.017538e+01
   2.324519e+02   7.810686e+02
  -3.709196e+02   7.602068e+02
  -7.074572e+02  -7.879858e+00
  -2.437787e+02  -5.277233e+02
   2.788000e+02  -2.891968e+02
   3.677267e+02   3.383803e+02
  -8.650901e+01   6.482539e+02
  -5.514999e+02   1.091573e+02
  -5.906257e+02  -4.051459e+02
  -1.463359e+02  -6.578895e+02
   4.111231e+02  -3.535023e+02
   5.979304e+02   9.274359e+01
   3.747841e+02   4.292996e+02
  -1.723725e+02   3.810600e+02
  -5.025383e+02   3.933090e+01
  -2.144624e+02  -2.058334e+02
   1.446418e+02  -1.121210e+02
   1.399633e+02   1.819423e+02
  -1.762577e+02   1.976170e+02
  -3.655104e+02  -7.819038e+01
  -1.473955e+02  -2.932023e+02
   1.928889e+02  -2.512029e+02
   3.605300e+02  -6.106620e+01
   1.950621e+02   1.148514e+02
  -3.120765e+01   2.127245e+02
  -2.410468e+02   3.110039e+02
  -3.434378e+02   2.282865e+02
  -3.534488e+02  -1.683963e+02
  -5.866341e+01  -4.491599e+02
   1.273518e+02  -4.130778e+02
   1.088971e+02  -1.194818e+02
   2.224037e+01   3.305730e+01
   1.199692e+01  -8.020066e+01
   1.763288e+02  -1.244490e+02
   3.251652e+02   5.644881e+01
   1.220318e+02   2.831755e+02
  -7.072544e+01   2.597466e+02
  -2.435419e+02   7.585887e+00
  -2.249151e+02  -2.498535e+02
   3.308358e+01  -3.108599e+02
   2.669344e+02  -1.045832e+02
   3.768120e+02   1.762997e+02
   1.980911e+02   3.510805e+02
  -9.420241e+01   3.066946e+02
  -2.333794e+02   1.405729e+02
  -1.371348e+02  -1.371576e+01
  -1.289071e+02   3.698750e+01
  -2.370883e+02   7.130360e+01
  -3.927837e+02  -6.507402e+01
  -3.310163e+02  -2.926377e+02
   1.574409e+01  -4.271501e+02
   4.200029e+02  -4.458815e+02
   5.301099e+02  -2.068514e+02
   3.295140e+02   9.431182e+01
   3.949492e+01   3.153698e+02
  -1.628913e+02   2.701917e+02
  -9.714982e+01   2.663378e+01
   1.113754e+02  -1.004092e+02
   1.757929e+02   1.392408e+01
   8.635281e+01   2.140698e+02
  -1.615040e+02   1.993093e+02
  -2.217581e+02  -8.498427e+01
   3.578385e+00  -2.049606e+02
   2.271907e+02  -5.421761e+01
   1.759125e+02   2.558422e+02
  -5.484507e+01   3.910550e+02
  -2.428194e+02   2.265176e+02
  -3.489857e+02  -1.041775e+02
  -2.728799e+02  -2.354883e+02
  -1.041034e+02  -2.752741e+02
   1.824969e+02  -1.974624e+02
   1.827770e+02  -2.693146e+01
   6.849608e+01   4.434273e+01
  -7.492679e+01  -7.126557e+01
  -4.546108e+01  -1.346078e+02
   1.225717e+02  -8.110998e+01
   1.851737e+02   5.291335e+00
   7.647268e+01   7.886950e+01
  -7.587159e+01   1.614895e+01
  -7.595660e+01  -8.041748e+01
   1.443367e+02  -7.442781e+01
   3.129242e+02   1.789209e+00
   2.535977e+02   1.314584e+02
   6.950497e+01   2.418053e+02
  -2.170881e+02   2.883037e+02
  -3.113016e+02   1.770268e+02
  -2.017109e+02  -9.030400e+01
   4.344840e+01  -1.389470e+02
   1.124904e+02   5.154871e+00
  -4.308976e+01   1.062157e+02
  -1.810662e+02   5.431246e+01
  -2.304768e+02  -8.154466e+01
  -9.601522e+01  -1.975716e+02
   9.538994e+01  -1.552258e+02
   1.581352e+02  -1.423067e+01
   8.493432e+01   4.687160e+01
  -6.319512e+01  -9.004405e+00
  -5.292317e+01  -8.730479e+01
   6.436723e+01  -1.000478e+02
   2.027589e+02  -4.170475e+01
   1.927558e+02   1.165218e+02
   6.042637e-01   2.038002e+02
  -1.706174e+02   1.872717e+02
  -2.353984e+02  -1.052363e+01
  -6.063599e+01  -1.251820e+02
   9.151690e+01  -1.201613e+02
   1.144678e+02  -3.048341e+01
   1.952699e+01   3.062712e+01
  -2.748668e+01   2.524082e+01
   7.122644e+00   6.267494e+00
   7.438971e+01   6.377057e+00
   6.218626e+01   1.044359e+02
   2.296240e+01   1.856770e+02
  -1.324232e+02   1.535981e+02
  -2.401568e+02   1.238459e+01
  -2.292903e+02  -1.584861e+02
  -2.809722e+01  -2.569925e+02
   1.121986e+02  -1.673965e+02
   1.523225e+02  -5.524855e+01
   6.733666e+01   5.184670e+01
   4.328929e+01   2.174234e+01
   6.053335e+01   9.650970e-02
   6.916255e+01  -1.039358e+01
   2.852235e+01   1.800067e+01
  -4.734005e+01   1.080595e+02
  -6.998483e+01   7.924368e+01
  -6.469726e+01  -3.813610e+01
  -9.983110e+00  -1.309514e+02
   1.467573e+02  -7.732990e+01
   2.084444e+02   5.246227e+01
   1.068384e+02   2.214706e+02
  -9.564616e+01   2.381698e+02
  -2.638947e+02   1.060131e+02
  -2.821637e+02  -6.945150e+01
  -1.092949e+02  -1.601804e+02
   6.064079e+01  -1.904279e+02
   9.461710e+01  -9.986132e+01
   9.878242e+01  -7.367883e+01
   5.936018e+01  -8.340476e+01
   8.885547e+01  -5.432450e+01
   1.511526e+02   2.021865e+01
   1.027914e+02   1.732335e+02
   2.196029e+01   2.280815e+02
  -1.220830e+02   1.785970e+02
  -1.694539e+02   5.052852e+01
  -1.416266e+02  -1.293293e+02
  -4.810883e+01  -1.716109e+02
   8.472590e+01  -8.453594e+01
   6.000532e+01  -5.711760e+00
   1.922603e+00   4.118213e+01
   2.402177e+01   4.493726e+01
   4.850976e+01   1.269713e+01
   7.878032e+01   1.657131e+01
   5.479853e+01   3.486737e+01
  -7.429003e+01   1.507400e+00
  -1.508847e+02  -3.659282e+00
  -1.340184e+02  -6.043350e+01
  -3.083000e+01  -1.033956e+02
   1.101026e+02  -5.913353e+01
   1.430654e+02  -3.608257e+01
   6.138091e+01   5.314503e+01
  -9.074073e+01   1.734304e+01
  -7.257820e+01  -4.052647e+01
  -1.662642e+01  -5.124841e+01
   5.819532e+01  -5.370199e+01
   5.526105e+01  -1.537707e+01
   4.612549e+01   6.550073e+01
   4.779448e+01   4.401386e+01
   6.814214e+01   1.096743e+01
   7.147858e+01  -7.089402e+00
   2.652591e+01   6.833052e+01
  -4.488123e+01   1.665529e+02
  -1.146698e+02   1.421750e+02
  -1.650326e+02   1.747627e+01
  -1.557915e+02  -1.084600e+02
  -1.437721e+01  -1.339202e+02
   1.196698e+02  -5.720118e+01
   7.591724e+01   2.772758e+00
  -6.449221e+01   2.486479e+01
  -1.255165e+02  -3.664895e+01
  -1.087979e+02  -1.240308e+02
   6.794642e+01  -8.025344e+01
   1.897027e+02  -6.392035e+01
   1.799657e+02   2.318986e+01
   5.065262e+01   8.573144e+01
  -7.148548e+01   8.359863e+01
  -6.799868e+01   2.661065e+01
   5.182087e+01  -4.471846e+01
   9.659877e+01   2.121123e+01
   3.152751e+01   1.148952e+02
  -9.335063e+01   1.736216e+02
  -1.279628e+02   5.466943e+01
  -1.165650e+02  -8.853171e+01
  -3.207730e+01  -1.807015e+02
   6.953222e+01  -1.508088e+02
   1.162893e+02   1.125972e+01
   5.007054e+01   1.138571e+02
   5.158370e+00   1.268057e+02
  -6.092078e+01   6.135746e+01
  -6.581666e+01  -4.193666e+01
  -2.329114e+01  -1.893216e+01
  -3.763276e+00  -5.363415e+00
  -2.440022e+01  -1.298018e+00
  -3.088640e+01  -7.394427e+01
  -1.883246e+01  -1.285035e+02
   6.099553e+01  -5.307343e+01
   1.513200e+02   3.370971e+01
   1.433878e+02   9.601823e+01
   1.673860e+01   5.345993e+01
  -8.519772e+01   1.544995e+01
  -9.765759e+01  -2.192935e+00
  -2.885003e+00  -8.537721e+00
   5.677980e+01  -2.184698e+01
  -3.067827e+01  -1.998430e+01
  -3.303461e+01  -1.552435e+00
   2.433019e+00   2.379418e+01
   1.026353e+02   2.912881e-01
   1.160159e+02   2.947104e+01
  -1.033917e+01   9.930230e+01
  -1.248747e+02   1.062252e+02
  -1.673802e+02   5.124310e+01
  -1.576479e+02  -5.821875e+01
  -1.369309e+01  -1.607318e+02
   9.439821e+01  -1.502163e+02
   1.331850e+02  -5.192325e+01
   1.059005e+02   3.450708e+01
   1.240874e+01   4.710664e+01
   7.495994e+00   1.989193e+01
   3.719315e+01   8.254047e-02
   3.386836e+01   4.515402e+01
   2.838115e+01   7.013341e+01
  -3.303667e+01   6.213782e+01
  -6.567873e+01  -1.257679e+01
  -1.081711e+02  -1.279078e+02
   9.614037e+00  -1.149517e+02
   7.637266e+01  -3.890086e+01
   1.395988e+02   7.066909e+01
   3.710103e+01   1.011306e+02
  -8.295485e+01   9.276411e+01
  -9.609010e+01  -1.812026e+01
  -1.830928e+01  -2.254129e+01
   1.339360e+01  -6.009512e+01
   1.805321e+01  -2.842147e+01
  -2.057944e+01   1.082616e+00
  -6.494011e+01   1.468187e+01
  -2.131251e+00  -3.265290e+01
   7.404146e+01  -5.795977e+01
   1.265689e+02  -9.619917e+01
   7.587947e+01  -1.522699e+01
  -1.933001e+01   7.233003e+01
  -4.809590e+01   7.816911e+01
  -3.105900e+01   2.412196e+01
  -1.043823e+01  -6.723294e+01
   2.591119e+01  -3.533908e+01
   2.949463e+01   4.067044e+01
   1.737747e+01   7.941444e+01
  -1.323959e+01   1.117012e+01
  -3.945647e+01   7.731426e+00
  -3.964997e+01  -1.927640e+01
  -3.139877e+01   1.980204e+00
   3.315957e+01   2.036123e+01
   4.138063e+00  -5.130543e+00
   3.476252e+01  -5.515272e+01
   8.345162e+00  -4.612064e+01
   3.264964e+01  -2.816133e+01
   1.639833e+01   3.330893e+01
   7.077850e+00   5.742725e+01
  -3.989793e+01   3.670161e+01
  -5.015644e+01  -4.464775e+01
  -1.511757e-01  -6.178749e+01
   4.988749e+01  -1.907573e+01
   7.558289e+01  -1.559767e+01
   3.083798e+01   6.237791e+01
  -2.826356e+01   4.134573e+01
  -8.618441e+01   4.597266e+01
  -3.754400e+01   3.240552e+00
   1.528991e+01   1.539371e+00
   4.095360e+01   2.374291e+01
  -3.103183e+01   2.057206e+01
  -1.176922e+02   2.761230e+01
