
 $NMID
 id='ANONYMOUS ', fmtdat='(2E16.6)'
 volume=1.0
 tramp=1.0
 $END
  -5.048601e+03   1.660126e+02
  -2.454555e+03  -3.040349e+03
   6.750768e+02  -2.866208e+03
   2.312600e+03  -8.300268e+02
   9.654111e+02   7.199527e+02
  -7.681450e+02   6.080412e+02
  -1.036406e+03  -5.102356e+02
   7.865597e+01  -1.206279e+03
   9.293859e+02  -8.303767e+02
   1.047934e+03   1.080663e+02
   3.955663e+02   9.641345e+02
  -2.599422e+02   9.149445e+02
  -7.362751e+02   5.987269e+01
  -4.408264e+02  -8.496495e+02
   4.101443e+02  -7.835908e+02
   6.700403e+02   2.307964e+01
   2.771235e+02   7.138346e+02
  -3.752825e+02   6.312577e+02
  -5.603915e+02   4.709357e+01
  -3.794402e+02  -3.841162e+02
   8.567978e+00  -4.410441e+02
   2.654033e+02  -2.479713e+02
   2.380738e+02  -9.474848e+00
  -1.162930e+02   8.161194e+01
  -4.134306e+02  -1.026552e+02
  -2.571146e+02  -5.173821e+02
   4.464328e+02  -4.608621e+02
   9.217249e+02   3.605950e+01
   4.889234e+02   5.964498e+02
  -3.876377e+02   5.437548e+02
  -8.368525e+02  -7.910150e+01
  -4.007836e+02  -5.241780e+02
   3.535479e+02  -5.480812e+02
   6.175542e+02  -2.302042e+02
   4.445119e+02   2.299750e+02
   8.146455e+01   4.771156e+02
  -2.331740e+02   2.799799e+02
  -2.263431e+02  -2.226331e+02
   1.684921e+02  -4.943372e+02
   5.164123e+02   1.955689e+01
   1.897507e+02   7.358982e+02
  -3.488499e+02   8.272398e+02
  -6.448464e+02   2.689866e+00
  -3.219394e+02  -6.136863e+02
   2.691281e+02  -3.412177e+02
   4.351227e+02   3.368505e+02
  -1.141537e+02   6.282162e+02
  -6.051061e+02   1.384039e+02
  -6.383982e+02  -4.064212e+02
  -1.271674e+02  -6.259489e+02
   3.989698e+02  -3.717530e+02
   6.893367e+02   1.000797e+02
   4.065611e+02   4.238358e+02
  -1.754989e+02   4.381435e+02
  -5.075678e+02   3.439074e+01
  -2.845093e+02  -2.512576e+02
   1.566643e+02  -1.374019e+02
   1.657189e+02   2.122554e+02
  -2.314209e+02   1.828196e+02
  -3.564109e+02  -9.341401e+01
  -1.734693e+02  -3.147929e+02
   2.438641e+02  -2.624989e+02
   3.632875e+02  -7.221211e+01
   2.012908e+02   1.084500e+02
  -4.262469e+01   2.344393e+02
  -2.194219e+02   3.180875e+02
  -3.392908e+02   2.641932e+02
  -2.985206e+02  -1.274141e+02
  -8.384855e+01  -4.666948e+02
   1.422364e+02  -4.092060e+02
   1.296336e+02  -1.289836e+02
   2.069825e+01   4.875102e+01
   1.479534e+01  -7.878277e+01
   2.045024e+02  -1.898719e+02
   2.692892e+02   4.414506e+01
   1.896062e+02   2.335482e+02
  -6.044573e+01   2.567562e+02
  -2.188230e+02   1.998303e+01
  -2.141147e+02  -2.581147e+02
   1.359406e+01  -3.148828e+02
   2.958742e+02  -1.282801e+02
   3.876071e+02   1.772079e+02
   2.346428e+02   3.987688e+02
  -8.933143e+01   3.286700e+02
  -2.585464e+02   1.028591e+02
  -1.612811e+02   2.858094e+00
  -8.637863e+01   5.739124e+00
  -2.374422e+02   7.061588e+01
  -4.273115e+02  -3.803574e+01
  -3.788636e+02  -2.856437e+02
   3.763232e+00  -4.588424e+02
   3.576981e+02  -4.369488e+02
   5.181886e+02  -2.171032e+02
   3.513565e+02   1.085349e+02
   6.817104e+01   3.052105e+02
  -1.414473e+02   2.451861e+02
  -1.077697e+02   3.025123e+01
   1.116224e+02  -1.370973e+02
   1.960326e+02   5.475163e+00
   4.585714e+01   1.943829e+02
  -1.765355e+02   2.009267e+02
  -1.709118e+02  -7.857031e+01
   1.801691e+01  -2.055878e+02
   2.222328e+02  -2.340431e+01
   1.661237e+02   2.350179e+02
   3.383095e+00   3.499179e+02
  -2.076517e+02   2.378358e+02
  -3.115294e+02  -7.343621e+01
  -3.173731e+02  -2.384961e+02
  -1.136003e+02  -2.482791e+02
   9.705381e+01  -1.695746e+02
   1.780543e+02  -2.361825e+01
   6.006636e+01   4.863434e+01
  -6.796323e+01  -2.413562e+01
  -5.668357e+01  -1.389864e+02
   1.309164e+02  -1.078549e+02
   2.065435e+02  -2.150919e+00
   8.916502e+01   8.160008e+01
  -9.236903e+01   4.337057e+01
  -6.052254e+01  -8.379276e+01
   1.212121e+02  -1.066444e+02
   2.851241e+02  -1.142683e+01
   2.819587e+02   1.179213e+02
   1.007907e+02   2.613588e+02
  -1.886798e+02   2.582169e+02
  -2.926851e+02   1.323007e+02
  -1.734918e+02  -5.454470e+01
   5.745813e+01  -1.029664e+02
   1.137862e+02   3.695304e+00
  -2.651649e+01   9.913962e+01
  -2.245103e+02   1.095578e+02
  -2.234179e+02  -7.660981e+01
  -6.408033e+01  -2.048133e+02
   8.438681e+01  -1.739690e+02
   1.524488e+02  -3.043661e+01
   1.071910e+02   4.778730e+01
  -1.422867e+01  -8.715185e+00
  -3.736960e+01  -5.401692e+01
   7.417070e+01  -1.183816e+02
   1.847245e+02  -8.758609e+00
   2.087720e+02   1.262165e+02
   4.882142e+01   2.443245e+02
  -1.589804e+02   1.785516e+02
  -1.989048e+02  -7.103335e+00
  -9.678437e+01  -9.120449e+01
   7.428121e+01  -1.257116e+02
   8.792937e+01  -1.777308e+01
   1.972028e+01  -2.178381e+00
  -1.252284e+01   1.953695e+01
  -1.274224e+01  -1.140534e+01
   8.394770e+01   1.452150e+01
   6.345766e+01   5.877497e+01
   2.198665e+01   1.693141e+02
  -9.931856e+01   1.568496e+02
  -2.351998e+02   5.543989e+01
  -2.014265e+02  -1.386390e+02
  -5.348351e+01  -2.565339e+02
   9.594450e+01  -1.718103e+02
   1.251288e+02  -3.072804e+01
   6.367360e+01   6.098903e+01
   2.884883e+01   4.409837e+01
   5.857673e+01  -1.007974e+01
   9.471290e+01  -1.484950e+01
   3.829317e+01   2.589071e+01
  -4.820568e+01   1.005825e+02
  -8.966837e+01   6.272791e+01
  -8.013092e+01  -2.878563e+01
   1.444694e+01  -1.137329e+02
   1.195726e+02  -8.343338e+01
   1.850947e+02   1.956204e+01
   8.394922e+01   1.983215e+02
  -1.092763e+02   2.540535e+02
  -2.783048e+02   1.005069e+02
  -3.034291e+02  -7.470533e+01
  -9.793829e+01  -1.848864e+02
   7.091446e+01  -1.864492e+02
   1.110634e+02  -8.192020e+01
   5.930536e+01  -7.671463e+01
   6.953931e+01  -1.142061e+02
   6.628999e+01  -6.210184e+01
   1.213620e+02   2.023537e+01
   1.382304e+02   1.624526e+02
   2.201924e+01   2.409959e+02
  -9.941030e+01   2.111271e+02
  -1.951947e+02   4.390987e+01
  -1.456954e+02  -1.394745e+02
  -2.956392e+01  -1.705018e+02
   5.490261e+01  -1.071374e+02
   5.421452e+01  -2.554175e+01
   2.405784e+01   5.172564e+01
  -2.527421e+01   6.152972e+01
   7.214668e+01   2.635120e+01
   6.365824e+01   2.179324e+01
   4.686849e+01   4.075699e+01
  -7.095543e+01   5.818151e+01
  -1.482693e+02   2.010345e+01
  -1.358054e+02  -6.357332e+01
  -3.071335e+01  -8.109518e+01
   1.260339e+02  -9.921137e+01
   1.707052e+02  -3.695239e+01
   6.421987e+01   5.066747e+01
  -7.754026e+01   2.464253e+01
  -6.352033e+01  -2.528420e+00
   2.464167e-01  -8.090464e+01
   4.525120e+01  -5.287926e+01
   4.854146e+01   2.532883e+00
   4.694895e+01   1.928025e+01
   3.995831e+01   4.081202e+01
   7.958357e+01  -7.781653e+00
   1.016178e+02  -1.852464e+00
   7.737848e+00   7.193999e+01
  -3.771280e+01   1.562744e+02
  -1.435045e+02   1.579539e+02
  -1.837517e+02   3.849672e+01
  -1.262718e+02  -7.978610e+01
  -3.737662e+01  -1.498178e+02
   8.859910e+01  -7.982306e+01
   7.114653e+01   1.825156e+01
  -7.637917e+01   1.477740e+01
  -1.582794e+02  -5.767304e+01
  -8.803133e+01  -1.016204e+02
   8.007129e+01  -9.965361e+01
   2.004915e+02  -8.164843e+01
   1.698431e+02   2.272366e+01
   5.133727e+01   9.870772e+01
  -8.223291e+01   7.359091e+01
  -4.772753e+01   1.913073e+01
   3.882453e+01  -3.959927e+01
   8.059845e+01   1.548309e+01
   2.883704e+01   1.077745e+02
  -1.126620e+02   1.603391e+02
  -1.695337e+02   8.390222e+01
  -1.325347e+02  -9.385661e+01
  -8.059654e+00  -2.245668e+02
   9.185430e+01  -1.357565e+02
   1.089791e+02  -1.386921e+01
   8.142984e+01   1.312869e+02
   1.112231e+01   1.185620e+02
  -6.453544e+01   1.101454e+01
  -5.452405e+01  -2.269587e+01
  -4.157150e+01  -3.510179e-01
  -1.737019e+01   1.949009e+01
  -2.416716e+01  -2.780433e+01
  -5.229565e+01  -8.425760e+01
  -2.597174e+01  -1.193114e+02
   5.943956e+01  -6.215063e+01
   1.716297e+02   3.581751e+00
   1.349826e+02   9.827159e+01
   4.729870e+01   3.608933e+01
  -5.381712e+01   9.050815e+00
  -1.011460e+02   1.700437e+01
   1.773846e+01   3.592159e+00
   5.352648e+01   1.230351e+01
   1.624440e+01   2.174039e+00
   2.371022e+01   3.120590e+00
  -1.235881e+00   8.915906e-01
   6.504633e+01  -4.261099e+00
   9.324349e+01   4.740849e+01
  -1.603082e+00   8.629514e+01
  -1.050876e+02   1.123159e+02
  -1.605824e+02   4.766817e+01
  -1.424988e+02  -7.164325e+01
  -3.841056e+01  -1.706429e+02
   6.358104e+01  -1.667818e+02
   9.308534e+01  -5.522809e+01
   7.814966e+01   1.259931e+01
   1.549676e+01   3.509198e+01
  -2.111408e+00  -1.141867e+01
   3.503960e+01   5.775151e+00
   2.506247e+01   6.381420e+01
   4.308122e+01   7.898017e+01
  -2.233546e+01   3.547720e+01
  -7.281277e+01  -1.294296e+01
  -7.869798e+01  -1.229519e+02
   2.342003e+01  -1.113092e+02
   9.371848e+01  -7.660816e+00
   1.231530e+02   9.509950e+01
   1.698097e+01   1.224978e+02
  -8.897828e+01   4.531418e+01
  -8.569944e+01   3.640866e+00
  -2.391761e+01  -4.829769e+01
   2.145468e+01  -4.361868e+01
   3.201537e+01  -4.470713e+01
  -3.009219e+01  -4.168045e+00
  -6.423094e+01   8.607408e+00
  -2.176738e+00  -1.413729e+01
   8.766825e+01  -6.387381e+01
   9.770382e+01  -5.966515e+01
   8.211307e+01   3.232670e+01
  -9.408372e+00   8.695314e+01
  -3.021970e+01   9.562195e+01
  -3.993324e+01   2.138042e+01
  -1.693891e+01  -4.857889e+01
   7.643766e+00  -4.645754e+01
   2.403025e+01  -2.395778e+00
   1.238972e+01   8.044957e+01
   1.120394e+01   7.320511e+00
  -2.041543e+01  -6.455075e+00
  -5.127518e+01  -6.048564e+00
  -1.119231e+01   1.073792e+01
  -9.445459e+00   2.765132e+01
   3.772416e+01   8.314989e+00
  -1.446063e+01  -5.805742e+01
   2.192259e+01  -5.583833e+01
   4.548159e+01  -2.153003e+01
   1.143100e+01   2.259260e+01
  -9.933646e+00   4.534473e+01
  -5.585357e+01   1.364539e+01
  -6.273786e+01  -4.414425e+01
  -1.346646e+01  -5.121582e+01
   4.797483e+01  -3.378810e+01
   7.999172e+01   7.395756e+01
   6.211603e+01   4.125108e+01
  -1.826445e+01   1.032634e+01
  -8.791130e+01   2.479118e+01
  -2.927059e+01  -1.440465e+01
   2.028110e+01  -1.912978e+01
   3.565942e+01   3.158801e+01
  -2.931913e+01   4.347509e+01
  -1.242590e+02   3.915236e+01
