
 $NMID
 id='ANONYMOUS ', fmtdat='(2E16.6)'
 volume=1.0
 tramp=1.0
 $END
   4.747292e+03  -5.344980e+01
   2.445622e+03   2.798627e+03
  -6.232379e+02   2.649403e+03
  -2.172740e+03   9.480756e+02
  -1.001112e+03  -6.349669e+02
   6.721786e+02  -6.150421e+02
   1.006041e+03   4.674382e+02
  -1.672791e+01   1.151768e+03
  -9.043660e+02   8.083063e+02
  -9.974973e+02  -9.468710e+01
  -3.968575e+02  -9.202999e+02
   2.497315e+02  -8.799658e+02
   6.874701e+02  -5.529188e+01
   4.375785e+02   7.759607e+02
  -3.740558e+02   7.672537e+02
  -6.385984e+02  -9.117637e+00
  -2.771172e+02  -7.261277e+02
   3.427579e+02  -6.722151e+02
   5.765110e+02  -4.948783e+01
   3.996781e+02   3.524010e+02
   2.744766e+01   4.291077e+02
  -2.659501e+02   2.383544e+02
  -2.242177e+02  -3.507848e-01
   9.320913e+01  -6.429623e+01
   3.769093e+02   1.154740e+02
   2.309753e+02   4.852563e+02
  -4.188350e+02   4.200752e+02
  -8.744460e+02  -8.762930e+01
  -4.236692e+02  -5.302816e+02
   3.905337e+02  -4.985549e+02
   7.802303e+02   8.275913e+01
   3.550255e+02   5.216540e+02
  -3.272178e+02   5.283915e+02
  -6.086599e+02   2.183446e+02
  -4.569144e+02  -2.253003e+02
  -7.651233e+01  -4.898753e+02
   2.224636e+02  -2.550769e+02
   1.846462e+02   1.834917e+02
  -1.814557e+02   4.698845e+02
  -4.913933e+02  -4.032880e+01
  -1.890683e+02  -7.080197e+02
   3.163188e+02  -8.124235e+02
   5.921823e+02  -6.998963e-01
   3.170173e+02   5.633470e+02
  -2.695690e+02   3.480296e+02
  -3.923626e+02  -3.276229e+02
   1.124843e+02  -5.901618e+02
   5.822153e+02  -1.566201e+02
   6.049150e+02   3.908598e+02
   1.375685e+02   5.844606e+02
  -3.764924e+02   3.729457e+02
  -6.743616e+02  -8.106849e+01
  -3.838250e+02  -4.098804e+02
   1.626649e+02  -4.299838e+02
   4.792602e+02  -6.090463e+01
   2.660567e+02   2.416259e+02
  -1.354146e+02   1.411963e+02
  -1.843852e+02  -1.879469e+02
   1.957167e+02  -1.628759e+02
   3.379141e+02   7.474766e+01
   1.671649e+02   2.912991e+02
  -2.312290e+02   2.642921e+02
  -3.196857e+02   9.959707e+01
  -2.134783e+02  -1.041277e+02
   2.161204e+01  -2.512764e+02
   2.298257e+02  -3.337256e+02
   3.253630e+02  -2.687594e+02
   2.667700e+02   1.079711e+02
   9.172676e+01   4.944621e+02
  -1.353072e+02   4.037838e+02
  -1.273834e+02   1.286640e+02
  -4.690506e+01  -3.854691e-01
  -3.914345e+01   9.390316e+01
  -1.957895e+02   1.574953e+02
  -2.309439e+02  -2.694326e+01
  -1.750420e+02  -2.487684e+02
   7.748205e+01  -2.792085e+02
   1.961633e+02   3.261851e+00
   2.146140e+02   2.384725e+02
  -1.635411e+01   3.244163e+02
  -2.633752e+02   9.889362e+01
  -3.832398e+02  -1.980853e+02
  -2.101481e+02  -3.874635e+02
   7.464886e+01  -3.194515e+02
   2.342969e+02  -1.131705e+02
   1.800712e+02  -2.006524e+01
   1.051344e+02  -4.686120e+01
   2.252706e+02  -7.967374e+01
   4.075398e+02   5.116851e+01
   3.561248e+02   2.796549e+02
  -8.820538e+00   4.666392e+02
  -3.717636e+02   4.217714e+02
  -4.645709e+02   1.664185e+02
  -3.495343e+02  -1.018904e+02
  -5.531777e+01  -3.079388e+02
   1.188333e+02  -2.838353e+02
   9.076411e+01  -3.289407e+01
  -1.118547e+02   1.334601e+02
  -2.202749e+02  -1.140383e+01
  -6.421055e+01  -2.084061e+02
   1.777672e+02  -1.738690e+02
   1.681244e+02   4.711328e+01
  -3.373555e+01   1.862116e+02
  -2.013414e+02   4.309321e+01
  -1.592705e+02  -2.669735e+02
   1.623143e+01  -3.455684e+02
   2.299336e+02  -1.827880e+02
   3.268110e+02   5.455645e+01
   3.119265e+02   2.651626e+02
   8.486224e+01   2.664783e+02
  -1.236691e+02   1.626597e+02
  -1.851726e+02   2.042104e+01
  -6.330694e+01  -5.350823e+01
   6.595145e+01   4.341495e+01
   2.513750e+01   1.245023e+02
  -1.409826e+02   9.482861e+01
  -1.872989e+02   2.884794e+01
  -5.159332e+01  -8.307286e+01
   9.921142e+01  -2.686041e+01
   5.815168e+01   7.325082e+01
  -1.206350e+02   7.939452e+01
  -3.085292e+02   4.868472e+00
  -2.922746e+02  -1.298155e+02
  -8.808348e+01  -2.796490e+02
   1.848196e+02  -2.678809e+02
   3.123360e+02  -1.153561e+02
   1.584201e+02   6.567822e+01
  -3.317950e+01   1.242688e+02
  -8.013635e+01   2.342745e+01
   4.578454e+01  -1.229824e+02
   2.366092e+02  -5.381074e+01
   2.453742e+02   9.247200e+01
   8.923592e+01   2.040886e+02
  -9.770281e+01   1.623443e+02
  -1.266163e+02   2.304159e+01
  -6.288659e+01  -2.820441e+01
   4.254421e+01  -6.209097e-02
   2.572514e+01   5.661467e+01
  -6.306373e+01   1.149838e+02
  -2.032448e+02   1.924590e+01
  -1.960186e+02  -1.233555e+02
  -5.289622e+01  -2.423887e+02
   1.821011e+02  -1.713461e+02
   1.994285e+02  -1.637751e+01
   9.798538e+01   1.087424e+02
  -6.867468e+01   1.175437e+02
  -9.321652e+01   1.797781e+01
  -9.940603e+00  -2.878065e+01
   3.364955e+01   3.177142e+00
  -8.234813e+00   1.086339e+01
  -5.940109e+01  -2.366068e+01
  -8.661613e+01  -7.904349e+01
   2.185041e+00  -1.895123e+02
   9.759913e+01  -1.592138e+02
   2.352469e+02  -3.955559e+01
   2.108521e+02   1.559172e+02
   5.011249e+01   2.365085e+02
  -1.037856e+02   1.659325e+02
  -1.533199e+02   1.977357e+01
  -7.924608e+01  -7.016200e+01
  -5.031038e+01  -3.185257e+01
  -7.687576e+01   3.762206e+00
  -9.195846e+01   1.320604e+01
  -4.398361e+01  -2.856231e+01
   5.493031e+01  -8.340139e+01
   1.032008e+02  -5.662572e+01
   6.098739e+01   3.359009e+01
  -3.808455e+01   9.408361e+01
  -1.162767e+02   9.951210e+01
  -1.975120e+02  -5.208793e+01
  -9.653288e+01  -1.789894e+02
   9.258976e+01  -2.327235e+02
   2.721636e+02  -7.748110e+01
   2.938569e+02   5.577485e+01
   1.395778e+02   1.914262e+02
  -2.690531e+01   1.534824e+02
  -1.099918e+02   1.009640e+02
  -7.857952e+01   8.302859e+01
  -8.399222e+01   1.236262e+02
  -6.561898e+01   5.629710e+01
  -1.148800e+02  -2.513054e+01
  -1.407477e+02  -2.004202e+02
  -7.203723e-01  -2.413571e+02
   1.175829e+02  -2.068003e+02
   1.868019e+02  -2.533164e+01
   1.141392e+02   1.299015e+02
   2.881145e+01   1.667536e+02
  -4.714956e+01   1.375132e+02
  -7.118104e+01  -1.927433e+01
   3.352199e+01  -4.566153e+01
   8.785938e+00  -3.593497e+01
  -4.698905e+01  -9.724616e+00
  -9.985459e+01  -5.957955e+00
  -5.046736e+01  -5.822831e+01
   9.366676e+01  -4.080480e+01
   1.694475e+02  -3.736381e+01
   1.647353e+02   9.145998e+01
   3.377217e+01   1.095819e+02
  -1.061223e+02   8.120885e+01
  -1.554350e+02   4.643162e+00
  -7.328055e+01  -2.730741e+01
   7.152293e+01  -5.207686e+01
   5.597349e+01   2.199109e+00
   2.453223e+00   7.160196e+01
  -6.636451e+01   7.931100e+01
  -6.410311e+01  -1.041806e+01
  -4.752754e+01  -5.931958e+01
  -3.498426e+01  -4.053463e+01
  -8.821684e+01  -1.040044e+01
  -5.735512e+01  -3.268494e+01
  -3.817516e+01  -7.443938e+01
   6.179987e+01  -1.599617e+02
   1.189126e+02  -1.435215e+02
   1.771282e+02  -2.336796e+01
   1.351161e+02   7.554389e+01
   1.094821e+01   1.352449e+02
  -7.791349e+01   8.205205e+01
  -6.519891e+01  -2.920543e+01
   6.873602e+01  -3.370438e+01
   1.461400e+02   4.355753e+01
   7.783294e+01   8.842204e+01
  -9.702369e+01   1.223932e+02
  -1.845537e+02   5.727308e+01
  -1.750498e+02  -2.183910e+01
  -4.555833e+01  -8.882067e+01
   2.228597e+01  -6.131560e+01
   4.424734e+01  -9.010492e+00
  -4.187560e+01   3.324691e+01
  -8.159210e+01  -2.947243e+01
  -3.837125e+01  -1.293474e+02
   1.137712e+02  -1.451630e+02
   1.789022e+02  -7.465261e+01
   1.404980e+02   7.980987e+01
   1.952957e+01   2.086144e+02
  -6.600014e+01   1.400132e+02
  -1.064857e+02  -8.848010e+00
  -4.957983e+01  -9.497257e+01
  -2.507105e+01  -1.012814e+02
   5.161241e+01  -2.232123e+01
   6.122481e+01   3.439903e+01
   3.733358e+01   1.475173e+01
   3.348644e+00  -6.569258e+01
   3.207394e+01  -1.632468e+00
   5.538090e+01   8.813584e+01
   2.658279e+01   1.152306e+02
  -2.448351e+01   5.776934e+01
  -1.447138e+02  -3.377408e+01
  -1.283400e+02  -7.993638e+01
  -2.867212e+01  -4.058614e+01
   7.639093e+01  -1.302490e+01
   1.107449e+02  -3.839271e+01
  -7.232934e+00  -1.201293e+01
  -7.170614e+01   1.608012e+01
  -1.096515e+01   7.889081e+00
   1.168277e+00  -1.537553e+00
  -1.565600e+01  -1.197822e+01
  -7.190585e+01  -2.707251e+01
  -1.128128e+02  -2.161241e+01
   5.304205e+00  -8.431365e+01
   1.196051e+02  -1.057914e+02
   1.892304e+02  -5.202416e+01
   1.424688e+02   7.454892e+01
   4.339320e+01   1.609078e+02
  -8.281618e+01   1.786230e+02
  -7.052657e+01   7.471265e+01
  -8.318614e+01  -2.158619e+01
  -8.652847e+00  -3.260583e+01
   8.614017e+00  -1.620466e+00
  -1.287009e+01   1.095420e+01
  -3.866563e+00  -4.367657e+01
  -2.440205e+01  -9.645943e+01
   3.570948e+01  -8.180909e+01
   1.013666e+02   2.916031e+01
   5.742958e+01   1.220085e+02
  -1.622661e+01   9.731406e+01
  -1.019838e+02   2.491043e+01
  -1.036367e+02  -6.457421e+01
  -1.160519e+01  -8.754221e+01
   7.443642e+01  -5.208604e+01
   9.881472e+01   1.304068e+01
   2.064544e+01   2.681260e+01
  -1.543963e+01   4.506517e+01
  -2.358652e+01   1.820521e+01
   4.993946e+01  -2.063697e+01
   8.154194e+01  -1.251733e+00
  -1.934295e-01   2.165715e+01
  -9.896375e+01   8.428848e+01
  -9.655391e+01   7.392342e+01
  -4.252076e+01  -1.247422e+01
   4.964769e+00  -8.079856e+01
   2.859278e+01  -8.123691e+01
   4.270935e+01  -1.058600e+01
  -2.462353e+00   3.654805e+01
  -1.948625e+01   3.341084e+01
  -9.902662e+00  -4.209240e+01
  -2.381462e+01  -6.694894e+01
   9.857766e+00  -3.491242e+01
   2.581031e+01   1.816052e+01
   3.800387e+01   1.531516e+01
   2.172854e+01  -4.013836e+00
   1.893450e-01  -4.846453e+00
  -1.764159e+01  -4.079468e+00
   1.850786e+01   2.750039e+01
  -5.964371e+00   4.321661e+01
  -5.399428e+01  -6.036330e+00
  -7.307709e+00  -5.649637e+01
   1.590839e+01  -3.260141e+01
   7.664909e+01  -3.226949e+01
   6.866029e+01   4.103355e+01
   1.310666e+01   5.827423e+01
  -2.959254e+01   4.710096e+01
  -1.051849e+02  -2.128198e+01
  -5.828820e+01  -8.029386e+01
   1.016967e+01  -2.225191e+01
   5.431431e+01  -2.019511e+01
   1.558077e+01  -1.444681e+01
  -5.512221e+01   4.447219e+00
  -2.900440e+01  -1.644573e+01
   3.420262e+01  -1.831051e+01
   1.034536e+02  -3.567971e+01
