
 $NMID
 id='ANONYMOUS ', fmtdat='(2E16.6)'
 volume=1.0
 tramp=1.0
 $END
  -4.463360e+03  -2.359424e+02
  -2.366419e+03  -2.730939e+03
   5.234129e+02  -2.567027e+03
   2.013148e+03  -9.851640e+02
   9.993670e+02   4.251375e+02
  -5.628071e+02   5.246552e+02
  -8.205234e+02  -3.841271e+02
   2.891518e+01  -1.090055e+03
   8.263643e+02  -7.303682e+02
   8.922088e+02   6.787913e+01
   3.688213e+02   8.234745e+02
  -2.502327e+02   8.056092e+02
  -6.206836e+02   1.052914e+02
  -3.816172e+02  -7.267928e+02
   3.208510e+02  -7.109008e+02
   6.079168e+02   1.469138e+00
   2.788605e+02   6.769157e+02
  -3.556110e+02   6.428636e+02
  -5.344639e+02   8.857431e+01
  -4.052471e+02  -3.469777e+02
  -6.255906e+01  -4.199407e+02
   2.138046e+02  -2.663203e+02
   1.789445e+02   1.940479e+01
  -1.174355e+02   6.685036e+00
  -3.142958e+02  -1.547357e+02
  -1.838337e+02  -4.469516e+02
   4.143598e+02  -3.511731e+02
   8.106931e+02   1.357853e+02
   3.745006e+02   5.045971e+02
  -3.460840e+02   4.257121e+02
  -7.254776e+02  -1.003581e+02
  -3.121483e+02  -4.888063e+02
   3.325077e+02  -4.798402e+02
   5.723328e+02  -1.829500e+02
   4.295400e+02   2.448376e+02
   8.553150e+01   4.408348e+02
  -1.971153e+02   2.319535e+02
  -1.382014e+02  -1.489982e+02
   2.033789e+02  -4.132374e+02
   4.387203e+02   8.665191e+01
   1.299185e+02   6.783753e+02
  -3.075054e+02   7.082935e+02
  -5.667751e+02  -2.688184e+01
  -2.263633e+02  -5.469414e+02
   2.461359e+02  -2.903889e+02
   3.553006e+02   2.953419e+02
  -1.264124e+02   5.706120e+02
  -5.740230e+02   1.017247e+02
  -5.702721e+02  -3.889683e+02
  -1.328207e+02  -6.106379e+02
   3.436915e+02  -3.371850e+02
   6.292218e+02   1.135118e+02
   3.819425e+02   3.973181e+02
  -1.456341e+02   3.958389e+02
  -4.515977e+02   4.780371e+01
  -2.396136e+02  -1.946936e+02
   1.118681e+02  -1.247323e+02
   1.530511e+02   1.331831e+02
  -1.630819e+02   1.976684e+02
  -3.315532e+02  -1.035506e+02
  -1.350778e+02  -2.574419e+02
   2.043273e+02  -2.433756e+02
   3.201720e+02  -7.403746e+01
   2.054710e+02   1.017852e+02
  -7.593476e+01   2.537393e+02
  -2.675802e+02   3.302101e+02
  -3.665409e+02   2.641259e+02
  -2.631060e+02  -1.253157e+02
  -7.795871e+01  -4.522640e+02
   1.319467e+02  -3.841958e+02
   9.460273e+01  -1.325688e+02
   3.440750e+01  -9.693515e+00
   3.997144e+01  -7.612914e+01
   1.945372e+02  -1.423984e+02
   2.799083e+02   2.920272e+01
   1.737141e+02   2.504208e+02
  -7.622973e+01   2.505329e+02
  -1.810617e+02  -2.068099e-01
  -1.913875e+02  -2.461068e+02
   1.143009e+01  -2.865679e+02
   2.860925e+02  -8.606364e+01
   3.981898e+02   2.079455e+02
   2.154106e+02   4.000508e+02
  -8.068875e+01   2.991291e+02
  -2.600869e+02   1.408702e+02
  -1.537790e+02   1.526888e+01
  -8.474675e+01   3.592377e+01
  -2.484554e+02   7.672405e+01
  -4.356684e+02  -6.243447e+01
  -3.097544e+02  -2.968421e+02
   1.704803e+01  -4.699440e+02
   3.747578e+02  -3.855620e+02
   4.766540e+02  -1.747281e+02
   3.437931e+02   1.415064e+02
   1.316016e+01   3.000760e+02
  -1.269253e+02   2.450116e+02
  -5.656829e+01   4.443190e+01
   1.276734e+02  -1.033086e+02
   1.997377e+02   1.056366e+01
   5.153375e+01   1.878855e+02
  -1.794876e+02   1.467800e+02
  -1.429259e+02  -5.298863e+01
   4.830718e+01  -1.633035e+02
   1.838179e+02  -9.434380e+00
   1.406957e+02   2.416226e+02
   1.190882e+01   3.556978e+02
  -2.209625e+02   1.960437e+02
  -3.103614e+02  -6.939723e+01
  -2.759164e+02  -2.587634e+02
  -8.974070e+01  -2.649012e+02
   1.268905e+02  -1.986912e+02
   1.895048e+02  -2.078978e+01
   5.389109e+01   5.831613e+00
  -7.452966e+01  -1.922760e+01
  -4.211757e+01  -1.278350e+02
   1.368450e+02  -8.590740e+01
   2.206238e+02   3.180431e+00
   4.634653e+01   6.255789e+01
  -7.895124e+01   1.219213e+01
  -3.601538e+01  -8.687763e+01
   1.351755e+02  -1.025804e+02
   3.016702e+02   5.132588e+00
   3.094140e+02   1.396619e+02
   4.954497e+01   2.579254e+02
  -2.142303e+02   2.515015e+02
  -3.224391e+02   1.283999e+02
  -1.394586e+02  -5.546923e+01
   3.522899e+01  -1.210851e+02
   1.170371e+02  -2.594666e+01
  -3.204163e+01   1.054139e+02
  -2.297524e+02   5.718901e+01
  -2.197613e+02  -1.080968e+02
  -4.685296e+01  -1.969213e+02
   1.127400e+02  -1.345839e+02
   1.489878e+02  -1.369987e+01
   5.984562e+01   3.836664e+01
  -2.623865e+01  -2.590681e+01
  -1.755817e+01  -6.437121e+01
   9.366928e+01  -1.015975e+02
   2.029723e+02  -4.090045e+01
   2.005960e+02   1.310690e+02
   2.691589e+01   2.357443e+02
  -1.827866e+02   1.406493e+02
  -1.917434e+02   2.502553e+01
  -5.874429e+01  -9.782433e+01
   8.758352e+01  -9.423525e+01
   7.707100e+01  -3.092697e+01
   3.769382e+00   3.786861e+01
  -3.359364e+01   1.391175e+01
   2.690573e+00   1.094710e+00
   5.452795e+01   1.387671e+01
   8.702287e+01   9.135650e+01
  -7.905271e+00   1.799963e+02
  -1.148868e+02   1.545315e+02
  -2.445358e+02   5.020431e+01
  -1.923819e+02  -1.489169e+02
  -5.531270e+01  -2.439403e+02
   1.163773e+02  -1.707596e+02
   1.322225e+02  -3.769560e+01
   9.161491e+01   5.176268e+01
   1.387608e+01   3.698731e+01
   5.192175e+01  -8.812088e+00
   7.791295e+01  -3.863311e+01
   3.262329e+01   5.638759e+01
  -3.761643e+01   1.040850e+02
  -1.180132e+02   4.083816e+01
  -1.044836e+02  -3.432653e+01
   1.267616e+01  -9.466770e+01
   1.488399e+02  -6.368358e+01
   1.923980e+02   5.731692e+01
   7.577846e+01   2.038936e+02
  -1.208506e+02   2.185631e+02
  -3.100025e+02   8.632372e+01
  -3.038773e+02  -7.568877e+01
  -1.225806e+02  -1.930868e+02
   3.577887e+01  -1.650194e+02
   9.030561e+01  -9.648474e+01
   8.995655e+01  -8.013763e+01
   9.289929e+01  -8.667343e+01
   1.028291e+02  -4.120123e+01
   1.426130e+02   1.971380e+01
   1.385424e+02   1.476147e+02
   1.527548e+01   2.318931e+02
  -8.628254e+01   1.907145e+02
  -1.877860e+02   2.999524e+01
  -1.360530e+02  -1.168739e+02
  -3.510248e+01  -1.760814e+02
   6.497847e+01  -1.331940e+02
   7.710626e+01  -1.344598e+01
  -1.036798e+01   5.681078e+01
  -4.687047e+00   4.981728e+01
   1.884488e+01   1.096005e+01
   6.551107e+01   1.161436e+01
   4.313722e+01   3.257879e+01
  -7.240741e+01   3.888634e+01
  -1.694972e+02   2.791844e+01
  -1.435492e+02  -7.742558e+01
  -1.875954e+01  -6.787854e+01
   1.361690e+02  -7.554741e+01
   1.691360e+02  -1.770546e+01
   4.590503e+01   4.776603e+01
  -5.435250e+01   5.099789e+01
  -4.365580e+01  -4.121045e+01
   2.096098e+01  -7.575070e+01
   5.774595e+01  -8.143833e+01
   9.096670e+01   1.447824e+01
   3.675021e+01   5.804074e+01
   5.390400e+01   6.376784e+01
   7.689854e+01  -1.957974e+01
   8.639859e+01   2.755580e+01
  -2.558821e+00   5.845951e+01
  -2.860489e+01   1.423331e+02
  -1.347585e+02   1.478924e+02
  -1.768338e+02   3.665083e+01
  -1.329377e+02  -9.742232e+01
   1.145708e+01  -1.324256e+02
   9.494370e+01  -5.272396e+01
   5.247379e+01   2.725807e+01
  -8.296221e+01   6.878196e+00
  -1.467743e+02  -4.178012e+01
  -6.904094e+01  -1.185255e+02
   9.907116e+01  -1.468321e+02
   1.970940e+02  -5.568785e+01
   1.925268e+02   6.121180e+01
   4.365256e+01   6.289378e+01
  -5.250391e+01   8.022737e+01
  -3.985413e+01   7.989968e-01
   4.315946e+01  -4.256145e+01
   7.721270e+01   4.524960e+01
   3.772069e+01   1.154506e+02
  -8.999540e+01   1.498067e+02
  -1.854571e+02   6.965552e+01
  -1.241138e+02  -1.103485e+02
  -1.233789e+01  -2.116687e+02
   7.169130e+01  -1.298827e+02
   1.018626e+02  -3.866562e+00
   5.861600e+01   1.015453e+02
  -2.376815e+01   1.105749e+02
  -3.968492e+01   4.030567e+01
  -5.077393e+01  -3.489182e+01
  -3.704411e+01  -1.909621e+01
  -1.640763e+01   6.097525e+00
  -2.907374e+01   9.564742e+00
  -5.400740e+01  -9.482687e+01
  -1.409561e+01  -1.005617e+02
   4.864032e+01  -6.456095e+01
   1.624593e+02   5.553221e+01
   1.246398e+02   8.971534e+01
   8.781809e+00   6.808737e+01
  -7.485391e+01   3.137566e+00
  -1.065099e+02   2.287828e+01
  -4.611873e-01   1.285533e+01
   3.983270e+01  -3.690033e+01
   2.967311e+01  -1.491222e+01
  -6.686695e+00  -1.631768e+01
  -6.466442e+00   6.594894e+00
   4.328351e+01  -2.431287e+01
   7.553051e+01   3.498715e+01
   2.228871e+00   7.717583e+01
  -1.051154e+02   1.197279e+02
  -1.801443e+02   3.861239e+01
  -1.583302e+02  -5.932991e+01
  -1.004931e+01  -1.637686e+02
   5.869961e+01  -1.727763e+02
   7.645508e+01  -4.630244e+01
   7.779651e+01   4.455017e+01
   8.183439e+00   2.378608e+01
  -1.404031e+01   3.352515e+01
  -3.098322e+00   4.074053e+00
   2.489001e+01   7.432564e+01
   2.767058e+01   6.230974e+01
  -1.713755e+01   7.849133e+01
  -1.091428e+02  -1.958465e+01
  -9.009048e+01  -1.211068e+02
   3.355933e-01  -1.108332e+02
   8.147009e+01  -3.328044e+01
   1.114411e+02   6.558200e+01
   1.826113e+01   8.446619e+01
  -7.054555e+01   6.481819e+01
  -7.498206e+01  -1.077855e+01
  -4.828107e+01  -5.875705e+01
   1.181907e+01  -5.650783e+01
   2.740813e+01  -2.750304e+01
  -4.047761e+01  -3.197821e+01
  -6.788675e+01   1.571859e+01
  -5.610718e+00  -5.625594e+00
   8.451844e+01  -6.792308e+01
   1.143369e+02  -6.101771e+01
   8.154266e+01   1.670410e+01
  -2.235193e+01   6.995616e+01
  -4.259758e+01   9.486806e+01
  -3.792985e+01   1.097757e+01
   1.781517e+00  -3.815849e+01
  -2.403862e+00  -5.818559e+01
   1.857174e+01   2.813102e+01
   2.408454e+01   8.214122e+01
   1.228259e+01   2.283286e+01
  -8.585096e+00  -2.006465e+01
  -4.187221e+01  -1.747643e+01
  -2.520329e+01  -1.270536e+01
   7.301669e+00   1.913986e+01
   1.185052e+01  -1.674797e+01
  -2.353404e+01  -3.241295e+01
   1.781985e+01  -3.157697e+01
   3.442311e+01  -3.140372e+01
   2.953610e+01   2.827619e+01
   1.468451e+01   5.100420e+01
  -5.673904e+01   6.708703e+01
  -6.184070e+01  -5.133064e+01
  -4.477445e+00  -2.839171e+01
   5.058428e+01  -6.768243e+01
   9.850923e+01   3.274523e+01
   5.491203e+01   7.265465e+01
  -4.741264e+01   4.487560e+01
  -7.181262e+01   1.728787e+01
  -3.048591e+01   2.416570e+01
   2.605372e+01   9.132367e+00
   5.075658e+01   2.616157e+01
  -5.982908e+01   2.955199e+01
  -9.096304e+01   2.693185e+01
