
 $NMID
 id='ANONYMOUS ', fmtdat='(2E16.6)'
 volume=1.0
 tramp=1.0
 $END
   4.033464e+03   4.299870e+02
   2.183126e+03   2.460668e+03
  -1.465652e+02   2.112198e+03
  -1.695472e+03   9.871698e+02
  -1.016125e+03  -1.655405e+02
   3.103212e+02  -3.598692e+02
   6.491612e+02   3.122131e+02
   1.300312e+01   8.586781e+02
  -7.184005e+02   6.112786e+02
  -7.557186e+02   9.292894e+00
  -3.859962e+02  -6.817561e+02
   1.977526e+02  -6.956047e+02
   4.734566e+02  -1.122376e+02
   3.386003e+02   5.683199e+02
  -2.480291e+02   6.368621e+02
  -5.251538e+02   4.574590e+01
  -2.832187e+02  -6.111597e+02
   2.558504e+02  -6.277868e+02
   4.550179e+02  -1.208679e+02
   4.121645e+02   2.682837e+02
   5.145734e+01   3.873639e+02
  -1.990559e+02   2.513550e+02
  -1.358042e+02   1.681267e+01
   1.612303e+02   3.146527e+01
   2.917071e+02   1.980115e+02
   7.758149e+01   4.382412e+02
  -3.792598e+02   2.396150e+02
  -6.899092e+02  -2.267534e+02
  -2.717107e+02  -4.641953e+02
   3.430031e+02  -3.275383e+02
   6.180851e+02   1.482783e+02
   2.415839e+02   4.735873e+02
  -3.028309e+02   4.238596e+02
  -4.856143e+02   1.822549e+02
  -4.090482e+02  -2.284698e+02
  -1.099389e+02  -3.660242e+02
   1.293194e+02  -1.735879e+02
   4.420002e+01   1.405515e+02
  -2.396121e+02   3.272938e+02
  -3.627662e+02  -1.170545e+02
  -3.857894e+01  -6.050957e+02
   2.545182e+02  -5.982579e+02
   4.608372e+02   4.913769e+01
   1.783228e+02   4.381627e+02
  -2.076702e+02   1.890718e+02
  -2.723312e+02  -2.976064e+02
   1.392362e+02  -5.029130e+02
   5.472864e+02  -4.927628e+01
   5.058081e+02   3.725383e+02
   8.588454e+01   5.687135e+02
  -2.962301e+02   2.968870e+02
  -5.929144e+02  -9.845814e+01
  -3.277096e+02  -3.449765e+02
   7.420087e+01  -3.325485e+02
   3.845954e+02  -3.111291e+01
   2.099079e+02   1.119077e+02
  -5.648902e+01   4.905445e+01
  -8.042956e+01  -1.065366e+02
   1.549603e+02  -1.129681e+02
   2.841687e+02   9.620616e+01
   1.018505e+02   2.689841e+02
  -2.002304e+02   2.460303e+02
  -3.245594e+02   8.737063e+01
  -2.649169e+02  -8.084434e+01
   4.304151e+01  -2.876675e+02
   2.566000e+02  -3.533399e+02
   3.711223e+02  -2.041285e+02
   2.463276e+02   1.486437e+02
   2.842966e+01   3.853236e+02
  -8.365431e+01   3.489709e+02
  -5.585507e+01   1.733724e+02
  -5.922197e+01   3.185704e+01
  -7.567376e+01   9.695457e+01
  -2.126081e+02   8.504156e+01
  -2.524993e+02  -8.481425e+01
  -1.369132e+02  -2.305830e+02
   6.953063e+01  -2.540021e+02
   1.826773e+02  -1.431846e+01
   1.539103e+02   2.345273e+02
  -2.272295e+01   2.864148e+02
  -2.840889e+02   3.073805e+01
  -3.752742e+02  -1.789117e+02
  -1.853907e+02  -3.638188e+02
   6.310706e+01  -2.601403e+02
   2.072409e+02  -1.707753e+02
   1.488263e+02  -4.568617e+01
   9.454936e+01  -4.857349e+01
   2.519265e+02  -6.435421e+01
   4.419341e+02   7.763345e+01
   3.021902e+02   3.136337e+02
  -1.069910e+01   4.439306e+02
  -3.639682e+02   3.382748e+02
  -4.731975e+02   1.426840e+02
  -3.033025e+02  -1.395794e+02
   1.018111e+01  -2.863355e+02
   1.145729e+02  -2.422744e+02
   8.136089e+01  -7.298712e+00
  -1.341868e+02   6.010419e+01
  -1.638512e+02  -2.515285e+01
  -3.632480e+01  -1.748479e+02
   1.901264e+02  -1.477275e+02
   1.284250e+02   7.221062e+01
  -6.023133e+01   1.475320e+02
  -1.609189e+02   1.268886e+01
  -1.765136e+02  -2.273878e+02
   2.069275e+01  -3.388470e+02
   2.069712e+02  -1.987826e+02
   3.148973e+02   6.225450e+01
   2.943102e+02   2.804494e+02
   6.267601e+01   2.796982e+02
  -1.401771e+02   1.478636e+02
  -1.454808e+02  -2.116822e+01
  -4.292873e+01  -4.272679e+01
   3.810954e+01   3.374678e+01
   7.146482e+00   1.150273e+02
  -1.349469e+02   6.958869e+01
  -1.973291e+02  -1.899961e+01
  -2.953705e+01  -5.449348e+01
   1.173182e+02  -1.663608e+00
   6.501127e+01   8.698724e+01
  -1.421007e+02   1.276907e+02
  -2.908114e+02  -1.399368e+01
  -3.029112e+02  -1.461555e+02
  -5.902093e+01  -2.719072e+02
   2.072315e+02  -2.536300e+02
   3.013564e+02  -1.010880e+02
   1.409113e+02   4.665980e+01
  -3.309926e+01   1.104762e+02
  -9.087031e+01   1.192355e+01
   5.894315e+01  -8.199610e+01
   2.420183e+02  -1.577619e+01
   1.942842e+02   9.204671e+01
   4.957005e+01   2.034773e+02
  -1.192820e+02   1.238648e+02
  -1.345173e+02   3.078941e+01
  -6.611783e+01  -1.685369e+01
   4.459366e+01   3.307699e+01
   2.154780e+01   8.463320e+01
  -9.648859e+01   1.376466e+02
  -2.545652e+02   1.536858e+01
  -1.914571e+02  -1.230748e+02
  -2.530530e+01  -2.133186e+02
   1.819120e+02  -1.216488e+02
   1.715337e+02   1.825215e+01
   5.119167e+01   9.078377e+01
  -5.238026e+01   9.155033e+01
  -7.171710e+01   3.623294e+01
   7.877817e+00  -2.696567e+01
   2.963813e+01  -1.505924e+01
   6.452064e+00   1.068997e+01
  -6.682475e+01  -7.897438e-01
  -9.586933e+01  -6.800115e+01
   3.141344e+01  -1.595122e+02
   1.187154e+02  -1.567662e+02
   2.437192e+02  -4.120199e+01
   1.899151e+02   1.221598e+02
   3.484959e+01   2.203704e+02
  -1.042890e+02   1.613168e+02
  -1.450310e+02   2.441924e+01
  -9.885980e+01  -6.035068e+01
  -5.066625e+01  -5.076568e+01
  -6.209028e+01  -6.987405e+00
  -9.317496e+01  -1.554352e+00
  -3.794158e+01  -4.992899e+01
   4.568081e+01  -9.978816e+01
   9.572855e+01  -6.885579e+01
   9.794905e+01   5.077915e+01
  -2.098934e+01   1.110337e+02
  -1.147213e+02   8.379429e+01
  -1.921870e+02  -4.368965e+01
  -8.758658e+01  -2.026392e+02
   1.162821e+02  -2.262527e+02
   2.736056e+02  -9.803445e+01
   2.636599e+02   5.725354e+01
   1.038837e+02   1.694497e+02
  -4.665243e+01   1.518272e+02
  -9.038578e+01   7.593375e+01
  -5.903890e+01   7.843335e+01
  -8.878613e+01   9.708374e+01
  -7.481753e+01   7.860899e+01
  -1.315418e+02  -1.402490e+01
  -1.360912e+02  -1.652754e+02
  -6.789948e+00  -2.562662e+02
   1.032130e+02  -1.713494e+02
   1.474367e+02  -1.975849e+01
   1.094296e+02   1.283550e+02
   3.400757e+01   1.643222e+02
  -7.877749e+01   7.667807e+01
  -6.367831e+01  -2.595928e+01
  -1.024486e+01  -8.218839e+01
   8.092620e+00  -1.454593e+01
  -7.946008e+00  -1.477759e+00
  -8.734597e+01  -2.369757e+01
  -3.530440e+01  -5.170341e+01
   9.485020e+01  -5.377174e+01
   1.582711e+02  -5.557198e+00
   1.432561e+02   7.426031e+01
   1.547291e+01   9.215876e+01
  -1.283034e+02   7.848201e+01
  -1.436657e+02  -1.435499e+01
  -3.302646e+01  -4.247492e+01
   5.346754e+01  -3.368297e+01
   6.225252e+01   4.082162e+01
   3.157402e+01   7.861181e+01
  -7.264103e+01   6.685295e+01
  -7.411510e+01  -9.194303e+00
  -4.069851e+01  -5.402398e+01
  -4.167136e+01  -5.875025e+01
  -4.174877e+01  -9.215240e+00
  -7.666189e+01  -2.405652e+01
  -1.631511e+01  -6.137104e+01
   3.815786e+01  -1.226188e+02
   1.363291e+02  -1.572832e+02
   1.830831e+02  -5.092788e+01
   1.319131e+02   7.376144e+01
  -1.617620e+00   1.340812e+02
  -9.538222e+01   5.269453e+01
  -5.180616e+01  -4.980941e+01
   7.576800e+01  -3.291012e+01
   1.231376e+02   1.955948e+01
   4.517352e+01   1.198774e+02
  -7.203468e+01   1.466532e+02
  -2.022593e+02   5.126312e+01
  -1.660763e+02  -6.336952e+01
  -5.890011e+01  -6.799387e+01
   6.971416e+01  -2.648356e+01
   4.992509e+01   2.153152e+01
  -4.351969e+01   5.248667e+01
  -7.582612e+01  -3.369221e+01
  -4.135384e+01  -1.250215e+02
   9.845760e+01  -1.247910e+02
   1.785932e+02  -7.617313e+01
   1.097572e+02   6.858311e+01
   9.668597e+00   2.243702e+02
  -8.005441e+01   1.577453e+02
  -1.013535e+02  -1.441516e+01
  -4.572064e+01  -1.162888e+02
   1.115707e+01  -1.225862e+02
   7.514801e+01  -3.023810e+01
   5.535803e+01   3.919004e+01
   4.089288e+01   2.486046e+01
  -1.440544e+01   1.512755e+01
   1.795062e+01   2.021118e+00
   3.298687e+01   5.900780e+01
   3.378231e+01   1.109440e+02
  -2.889118e+01   1.619852e+01
  -1.553546e+02  -7.884310e+01
  -1.162113e+02  -7.301458e+01
   6.562972e+00  -3.167797e+01
   7.486010e+01   5.941149e+00
   7.321348e+01  -1.971831e+01
   4.210522e+01  -8.150536e+00
  -3.825103e+01   3.047976e+01
  -3.065321e+01   1.208489e+01
   4.304203e+00  -2.146935e+01
  -4.069799e+00  -1.819855e+00
  -7.753334e+01   5.653433e+00
  -6.705959e+01  -1.551373e+01
  -3.580668e+01  -8.332763e+01
   8.381150e+01  -1.152913e+02
   1.704422e+02  -7.989482e+01
   1.236135e+02   6.182549e+01
   3.218389e+01   1.449485e+02
  -7.259800e+01   1.430800e+02
  -1.148377e+02   6.540298e+01
  -6.811833e+01  -3.694703e+01
  -4.023195e+01  -3.146285e+01
  -9.677796e-01  -2.715222e+01
   2.447636e+00  -1.302552e+01
  -2.607174e+01  -4.565015e+01
  -1.255645e+01  -8.626563e+01
   2.492394e+01  -6.081482e+01
   9.312069e+01   1.583342e+01
   7.798924e+01   1.027910e+02
   3.147410e+00   9.771370e+01
  -7.895328e+01   1.473439e+01
  -9.731150e+01  -6.452217e+01
  -4.482886e+01  -1.026805e+02
   4.494418e+01  -6.615013e+01
   8.719445e+01  -2.228049e+01
   3.316203e+01   6.015373e+01
  -2.848200e+01   5.273569e+01
  -5.891372e+01   2.574869e+01
   1.162895e+01   1.798586e+01
   7.500172e+01  -7.698760e+00
   3.263199e+01   3.074680e+01
  -9.230953e+01   7.591752e+01
  -1.222137e+02   7.254707e+01
  -6.231998e+01   1.273823e+01
  -1.634711e+00  -7.330442e+01
   5.483099e+01  -7.447118e+01
   4.414157e+01   2.194441e+01
  -3.200906e+01   4.360312e+01
  -1.540888e+01   6.781189e+01
  -2.610382e+01  -1.074863e+01
  -7.526606e+00  -5.921530e+01
  -1.270675e+01  -6.997435e+01
  -5.163625e+00  -3.588772e+00
   2.168530e+01   2.750668e+01
   2.908119e+01  -2.411280e+01
  -1.545136e+01  -1.983805e+01
  -6.730313e+00  -8.417270e+00
  -8.486623e+00   9.995056e+00
  -2.755419e+01   4.879325e+01
  -1.601895e+01   1.336511e+01
  -2.848530e+01  -6.290407e+01
  -1.299852e+01  -5.308974e+01
   4.151476e+01  -6.430438e+00
   5.056480e+01   2.860042e+01
   2.229974e+01   4.131507e+01
  -4.016891e+01   5.256068e+01
  -9.638388e+01  -2.093077e+01
  -7.801687e+01  -5.543155e+01
   3.964520e+01  -5.033759e+01
   6.103367e+01  -4.042959e+01
   1.602897e+01  -8.532617e+00
  -1.140289e+01   1.971204e+01
  -2.196317e+01  -2.414501e+01
   1.326870e+01  -2.424266e+01
   7.220165e+01  -2.492042e+01
