
 $NMID
 id='ANONYMOUS ', fmtdat='(2E16.6)'
 volume=1.0
 tramp=1.0
 $END
  -4.015285e+03  -5.033329e+02
  -2.009946e+03  -2.591795e+03
   2.292395e+02  -2.170816e+03
   1.610592e+03  -8.516240e+02
   9.028733e+02   1.848175e+02
  -3.785717e+02   2.592056e+02
  -6.328619e+02  -3.411418e+02
   3.926640e+01  -8.291658e+02
   6.874123e+02  -5.575462e+02
   7.649951e+02   2.095637e+00
   3.588527e+02   7.193415e+02
  -1.934656e+02   6.890457e+02
  -4.497532e+02   1.441991e+02
  -2.774943e+02  -5.745058e+02
   2.494270e+02  -6.061460e+02
   5.474611e+02  -2.271954e+01
   2.119467e+02   6.046500e+02
  -2.892451e+02   6.141944e+02
  -4.628051e+02   1.412008e+02
  -3.878480e+02  -2.763277e+02
  -7.190255e+01  -4.041446e+02
   1.941398e+02  -2.405011e+02
   1.058653e+02  -4.918590e+00
  -1.730437e+02  -4.057922e+01
  -3.335330e+02  -2.382443e+02
  -1.007197e+02  -4.492138e+02
   4.242676e+02  -2.555852e+02
   7.125689e+02   2.170872e+02
   2.699221e+02   4.966163e+02
  -3.662814e+02   3.101846e+02
  -6.135272e+02  -1.476103e+02
  -2.090850e+02  -4.704039e+02
   3.364619e+02  -4.394468e+02
   4.771226e+02  -1.807262e+02
   3.646046e+02   2.314775e+02
   7.753189e+01   3.700201e+02
  -1.486246e+02   1.999164e+02
  -2.044982e+01  -1.469142e+02
   2.744013e+02  -3.173469e+02
   3.889305e+02   1.627326e+02
   3.458979e+01   6.410670e+02
  -2.959409e+02   5.668275e+02
  -5.100236e+02  -7.339550e+01
  -1.773690e+02  -4.576614e+02
   2.374248e+02  -1.980697e+02
   2.478479e+02   2.697190e+02
  -1.538374e+02   4.790478e+02
  -5.535137e+02   2.904317e+01
  -4.946881e+02  -4.180311e+02
  -1.376081e+02  -5.497685e+02
   3.050401e+02  -3.004148e+02
   5.841421e+02   1.237099e+02
   3.364415e+02   3.652080e+02
  -1.120673e+02   2.961491e+02
  -3.485490e+02   2.766357e+01
  -1.743594e+02  -1.161046e+02
   8.204743e+01  -7.755865e+01
   6.815027e+01   1.081433e+02
  -1.893703e+02   1.009035e+02
  -2.754533e+02  -1.239754e+02
  -8.238583e+01  -2.644784e+02
   1.637548e+02  -2.401699e+02
   3.062288e+02  -1.233571e+02
   2.315090e+02   9.874713e+01
  -1.682889e+01   2.997485e+02
  -2.792023e+02   3.686711e+02
  -3.528930e+02   2.097137e+02
  -2.491537e+02  -1.654057e+02
  -3.751275e+01  -4.094055e+02
   1.047419e+02  -3.402327e+02
   4.628504e+01  -1.296658e+02
   5.163762e+01  -3.517914e+01
   7.709339e+01  -9.980464e+01
   2.043228e+02  -1.025951e+02
   2.525634e+02   1.119509e+02
   1.533470e+02   2.666920e+02
  -1.181595e+02   2.316313e+02
  -1.908910e+02  -1.728462e+01
  -1.828058e+02  -2.490690e+02
   3.286045e+01  -3.008526e+02
   2.799670e+02  -8.142383e+01
   3.404579e+02   2.002493e+02
   1.916683e+02   3.427989e+02
  -7.913424e+01   2.698445e+02
  -2.043398e+02   1.445806e+02
  -1.233989e+02   4.829854e+01
  -1.121688e+02   3.910928e+01
  -2.621799e+02   4.168536e+01
  -4.290697e+02  -9.413819e+01
  -3.199558e+02  -3.365534e+02
   3.103424e+01  -4.313997e+02
   3.564633e+02  -3.672939e+02
   4.763606e+02  -1.739512e+02
   3.153672e+02   1.174279e+02
  -1.444442e+01   2.530923e+02
  -1.342711e+02   2.210351e+02
  -6.742239e+01   4.521663e+00
   1.271780e+02  -7.544311e+01
   1.359675e+02   3.021243e+01
   1.185109e+01   1.694432e+02
  -1.523861e+02   1.115004e+02
  -1.614304e+02  -8.265630e+01
   3.982226e+01  -1.551773e+02
   1.944532e+02  -1.720718e+00
   1.606845e+02   2.356389e+02
  -1.960742e+01   3.558541e+02
  -2.135740e+02   1.928894e+02
  -3.252738e+02  -1.052495e+02
  -2.872568e+02  -2.524529e+02
  -5.540434e+01  -2.433921e+02
   1.320530e+02  -1.449431e+02
   1.541743e+02   4.391797e+00
   8.714824e+00   3.504007e+01
  -5.784979e+01  -5.837294e+01
  -1.037621e+01  -1.175662e+02
   1.480290e+02  -4.865224e+01
   2.164354e+02   2.967136e+01
   1.539734e+01   4.207620e+01
  -1.026141e+02  -1.050095e+01
  -4.592665e+01  -8.605868e+01
   1.177326e+02  -1.000762e+02
   3.036564e+02  -7.943599e+00
   2.981485e+02   1.858167e+02
   3.189358e+01   2.568661e+02
  -2.372836e+02   2.523560e+02
  -2.661395e+02   9.684791e+01
  -1.200295e+02  -5.875332e+01
   4.600830e+01  -1.000425e+02
   9.488128e+01   6.871617e+00
  -8.027910e+01   8.087465e+01
  -2.029954e+02   3.155361e+01
  -1.946370e+02  -8.285939e+01
  -4.958642e+01  -2.230640e+02
   9.909147e+01  -1.485062e+02
   1.365180e+02  -5.625216e+00
   6.093402e+01   3.589636e+01
  -4.708174e+01  -8.612629e+00
  -9.991320e+00  -9.640764e+01
   1.002828e+02  -9.746358e+01
   2.131889e+02  -1.860470e+01
   1.920211e+02   1.418339e+02
   3.423654e+01   2.053326e+02
  -1.774178e+02   1.398438e+02
  -1.527880e+02  -8.499438e-01
  -4.920039e+01  -9.995379e+01
   7.671369e+01  -1.083885e+02
   5.201780e+01  -4.148975e+01
   9.575757e+00   2.990121e+01
  -4.197721e-01   1.467817e+01
   1.685312e+01  -3.580847e+00
   7.258122e+01  -4.083524e+00
   8.379509e+01   8.727906e+01
  -3.829950e+00   1.881678e+02
  -1.426527e+02   1.173626e+02
  -2.220545e+02   3.303182e+01
  -2.043991e+02  -1.478832e+02
  -5.929262e+01  -2.499342e+02
   8.571845e+01  -1.531636e+02
   1.354335e+02  -4.414830e+01
   7.554754e+01   3.554565e+01
   3.819891e+01   3.159359e+01
   2.717945e+01   7.731481e+00
   7.730049e+01   6.851284e+00
   2.636923e+01   4.860479e+01
  -3.417541e+01   6.132387e+01
  -1.300486e+02   6.801761e+01
  -8.898666e+01  -2.003312e+01
  -1.404298e+00  -1.212597e+02
   1.496406e+02  -6.932097e+01
   1.775127e+02   7.686808e+01
   7.343615e+01   2.308475e+02
  -1.304592e+02   2.345169e+02
  -2.642571e+02   8.037033e+01
  -2.447592e+02  -7.324483e+01
  -7.858744e+01  -1.977199e+02
   3.363736e+01  -1.688939e+02
   7.429282e+01  -8.264872e+01
   6.791567e+01  -8.216869e+01
   8.530794e+01  -7.111788e+01
   6.550593e+01  -3.854237e+01
   1.362021e+02   2.483585e+01
   1.141504e+02   1.741375e+02
   1.680573e+01   2.307748e+02
  -9.650607e+01   2.016385e+02
  -1.396223e+02   3.213882e+01
  -1.234734e+02  -1.267253e+02
  -1.460055e+01  -1.885489e+02
   7.376827e+01  -1.033030e+02
   3.876599e+01   2.551151e+01
   2.853191e+01   4.189324e+01
   5.486871e+00   5.797294e+01
   2.341735e+01  -1.742141e+01
   7.605288e+01   2.482645e+01
   4.926164e+01   4.611362e+01
  -5.887835e+01   5.542791e+01
  -1.742834e+02   9.636464e+00
  -1.577039e+02  -7.235770e+01
  -6.632053e+00  -1.124923e+02
   1.259103e+02  -4.974968e+01
   1.638273e+02   5.130649e+00
   3.783137e+01   3.359134e+01
  -4.840982e+01   5.630880e+01
  -9.612032e+01  -6.418647e+01
  -8.920744e+00  -6.178642e+01
   5.578514e+01  -5.339748e+01
   4.967974e+01   3.800388e-01
   5.419376e+01   6.181333e+01
   3.143421e+01   4.622532e+01
   4.709210e+01  -6.297744e+00
   7.134709e+01  -8.229501e+00
   2.814642e+01   8.959994e+01
  -1.105834e+01   1.425471e+02
  -1.190445e+02   1.332720e+02
  -2.039065e+02   3.219839e+01
  -1.356774e+02  -8.089305e+01
   1.240481e+01  -1.000034e+02
   7.840262e+01  -6.283866e+01
   5.483260e+01   1.841339e+01
  -4.758882e+01   3.469286e+01
  -1.550120e+02  -5.097978e+01
  -9.135693e+01  -1.045134e+02
   1.121883e+02  -1.134238e+02
   1.799825e+02  -5.192430e+01
   1.475174e+02   4.622172e+01
   2.560244e+01   7.802621e+01
  -8.056635e+01   7.640392e+01
  -3.923560e+01   2.900428e+00
   5.715202e+01  -2.547073e+01
   1.023872e+02   2.620916e+01
   4.568729e+01   9.666940e+01
  -1.010487e+02   1.568136e+02
  -1.814558e+02   6.201187e+01
  -9.853687e+01  -9.681413e+01
  -1.121254e+01  -2.148572e+02
   9.234207e+01  -1.347778e+02
   7.727592e+01   1.402202e+01
   4.852856e+01   1.299320e+02
  -6.705650e+00   1.123301e+02
  -6.441475e+01   1.593554e+01
  -5.203417e+01  -1.188966e+01
  -2.201224e+01   1.878649e+01
   7.999303e-01   2.960042e+01
  -6.320523e+01  -2.444321e+01
  -4.377480e+01  -8.218335e+01
  -1.417070e+01  -1.224211e+02
   3.657214e+01  -3.518435e+01
   1.368795e+02   4.677952e+01
   1.315314e+02   6.715303e+01
   1.116874e+01   8.259755e+01
  -7.267095e+01   1.811131e+01
  -9.242056e+01  -1.173682e+01
  -2.678979e+01  -8.038139e+00
   3.305778e+01  -2.710606e+01
   5.932187e+00  -2.867473e+01
  -1.375045e+00  -2.586880e+00
   1.570908e+01  -8.096184e+00
   7.892899e+01  -3.216930e+00
   8.503763e+01   1.559628e+01
   2.689989e+01   7.997875e+01
  -9.037116e+01   1.227803e+02
  -1.895283e+02   5.822365e+01
  -1.498636e+02  -5.341184e+01
  -4.560095e+01  -1.751377e+02
   7.519652e+01  -1.459132e+02
   8.660613e+01  -6.453538e+01
   6.182107e+01   1.737971e+01
   2.325299e+01   7.134502e+00
   4.833621e+00   1.848116e+00
   1.544949e+01  -6.716313e+00
   3.948034e+01   4.003928e+01
   8.996807e+00   7.680138e+01
  -2.259664e+01   8.273520e+01
  -9.939094e+01  -9.913939e+00
  -8.315307e+01  -1.120494e+02
  -7.737348e+00  -1.008155e+02
   8.350911e+01  -2.098777e+01
   1.212274e+02   6.970528e+01
   1.979347e+01   9.940271e+01
  -5.779024e+01   7.037911e+01
  -9.354452e+01  -4.614867e+00
  -7.664963e+01  -3.736638e+01
   2.646501e+01  -4.202024e+01
   1.539145e+01  -5.529423e+01
  -2.589029e+01   9.620643e+00
  -7.152761e+01   2.356088e+01
  -9.505489e+00  -4.547965e+01
   7.666981e+01  -7.026729e+01
   9.465003e+01  -3.861026e+01
   6.659084e+01   3.207745e+00
   1.007753e+01   6.223644e+01
  -6.383616e+01   8.860697e+01
  -2.883027e+01  -7.001252e+00
   5.405003e-01  -4.919369e+01
   2.700899e+01  -4.703239e+01
   3.266724e+01   1.650040e+01
   3.841803e+01   7.513469e+01
   2.996859e+00   4.839622e+01
  -2.145719e+01  -1.154045e+01
  -1.151979e+01  -2.604139e+01
  -4.466059e+01   4.747754e+00
  -5.121901e+00   2.701051e+01
  -2.913140e+00   1.309707e+01
  -2.683167e+00  -1.401019e+01
   1.661427e+01  -7.636813e+01
   2.991893e+01  -3.176409e+00
   3.538579e+01   1.474190e+01
  -1.154344e+00   5.638594e+01
  -4.128875e+01   1.305671e+01
  -6.547845e+01  -3.096126e+01
  -1.880956e+01  -5.042469e+01
   7.645648e+01  -3.621750e+01
   1.125709e+02   2.893306e+01
   6.815839e+01   4.724132e+01
  -8.514006e+00   3.104456e+01
  -3.449589e+01   3.145274e+01
  -2.652354e+01   2.983163e+01
   4.690200e+01   4.356025e+00
   2.780329e+01  -1.357278e+00
  -3.727351e+01   1.011391e+01
  -8.179240e+01   3.114336e+01
