
 $NMID
 id='ANONYMOUS ', fmtdat='(2E16.6)'
 volume=1.0
 tramp=1.0
 $END
   5.033262e+03  -3.440299e+01
   2.771755e+03   2.848251e+03
  -5.986285e+02   3.367931e+03
  -2.303491e+03   7.839034e+02
  -1.030613e+03  -8.258725e+02
   8.213102e+02  -7.553805e+02
   1.042145e+03   4.934257e+02
  -2.303523e+01   1.178611e+03
  -8.445759e+02   8.719007e+02
  -1.034503e+03  -6.312904e+01
  -5.106907e+02  -9.858076e+02
   2.798522e+02  -9.884222e+02
   8.126086e+02  -1.131822e+02
   4.352763e+02   7.925981e+02
  -3.351813e+02   8.591934e+02
  -6.490233e+02  -7.029166e+01
  -3.004272e+02  -7.289770e+02
   4.098615e+02  -6.248659e+02
   5.968080e+02  -3.178758e+01
   3.579167e+02   3.762582e+02
  -1.479045e+01   4.664069e+02
  -2.961379e+02   2.969398e+02
  -2.518173e+02   7.207101e-01
   1.329109e+02  -8.392224e+01
   3.836911e+02   7.817730e+01
   2.495771e+02   4.640716e+02
  -4.289772e+02   4.082335e+02
  -9.083979e+02  -8.262213e+01
  -4.992455e+02  -6.273170e+02
   3.982520e+02  -5.376175e+02
   8.425555e+02   3.836100e+01
   3.543990e+02   5.382320e+02
  -3.333280e+02   6.047882e+02
  -6.124342e+02   2.240995e+02
  -4.384848e+02  -2.652134e+02
  -9.633548e+01  -5.213460e+02
   2.457560e+02  -3.116926e+02
   1.894530e+02   2.185441e+02
  -1.857678e+02   5.028365e+02
  -5.016441e+02  -1.747984e+01
  -2.940312e+02  -7.628757e+02
   3.296806e+02  -7.969350e+02
   7.083603e+02   1.349773e+00
   2.917890e+02   6.230960e+02
  -2.616782e+02   3.717597e+02
  -4.088714e+02  -3.018845e+02
   1.089913e+02  -5.980531e+02
   5.711164e+02  -1.468239e+02
   6.367943e+02   4.075290e+02
   1.788995e+02   6.523186e+02
  -4.013290e+02   4.023729e+02
  -7.476929e+02  -9.560995e+01
  -3.915308e+02  -4.077705e+02
   1.705459e+02  -3.967143e+02
   4.920089e+02  -1.131298e+01
   2.568872e+02   2.289184e+02
  -1.512547e+02   1.119104e+02
  -1.437783e+02  -1.384289e+02
   1.949111e+02  -2.256968e+02
   3.779026e+02   1.148957e+02
   1.415358e+02   3.077678e+02
  -2.301390e+02   2.946045e+02
  -3.211560e+02   6.167978e+01
  -1.587785e+02  -7.771224e+01
   3.041831e+01  -2.197306e+02
   2.201677e+02  -3.410520e+02
   3.455819e+02  -2.255548e+02
   3.399049e+02   1.334007e+02
   4.932918e+01   4.519767e+02
  -1.310184e+02   4.276580e+02
  -1.132904e+02   1.082390e+02
  -5.355862e+01  -5.736663e+01
  -5.410502e+00   9.671698e+01
  -2.027781e+02   1.245753e+02
  -2.640572e+02  -4.348933e+01
  -1.868644e+02  -2.705301e+02
   6.917620e+01  -2.838188e+02
   2.042982e+02  -1.609360e+01
   2.535508e+02   2.583790e+02
   1.188850e+01   3.321964e+02
  -2.901826e+02   1.228885e+02
  -3.566896e+02  -2.203406e+02
  -1.927731e+02  -3.813353e+02
   1.096078e+02  -3.544173e+02
   2.634483e+02  -1.210996e+02
   1.385877e+02   2.865934e+00
   1.029374e+02  -5.114540e+01
   2.411613e+02  -7.984350e+01
   4.371632e+02   7.915737e+01
   3.807510e+02   2.718123e+02
   1.092342e+01   4.630858e+02
  -3.509847e+02   4.300039e+02
  -5.349480e+02   1.978164e+02
  -3.719922e+02  -6.754700e+01
  -5.495983e+01  -3.161594e+02
   1.141531e+02  -2.822361e+02
   1.038221e+02  -3.359538e+01
  -1.035720e+02   1.363874e+02
  -2.304294e+02   4.582806e+00
  -6.849810e+01  -2.211675e+02
   1.820402e+02  -1.856521e+02
   1.940104e+02   4.903621e+01
  -2.192384e+01   2.216087e+02
  -2.028644e+02   5.649172e+01
  -1.827457e+02  -2.468243e+02
  -1.108635e+01  -3.592243e+02
   2.140623e+02  -2.095348e+02
   3.187143e+02   7.361129e+01
   3.122078e+02   2.551218e+02
   9.881241e+01   2.410763e+02
  -1.304834e+02   1.534711e+02
  -1.727007e+02   1.815751e+01
  -6.787432e+01  -4.805264e+01
   7.551316e+01   4.366435e+01
   1.300313e+01   1.196153e+02
  -1.282105e+02   1.347788e+02
  -2.121044e+02   9.645358e+00
  -7.272371e+01  -5.483313e+01
   5.896712e+01  -2.488732e+01
   6.676941e+01   8.496395e+01
  -1.226295e+02   7.402887e+01
  -2.985167e+02  -7.617756e+00
  -2.775025e+02  -1.071546e+02
  -6.910645e+01  -2.445338e+02
   1.887036e+02  -3.032419e+02
   2.978584e+02  -1.426803e+02
   1.376288e+02   1.755302e+01
  -2.932428e+01   1.299270e+02
  -1.066917e+02   8.356255e+00
   3.055506e+01  -1.167029e+02
   1.795441e+02  -8.051784e+01
   2.005401e+02   9.256683e+01
   7.161813e+01   2.329438e+02
  -1.045905e+02   1.645422e+02
  -1.437704e+02   2.501796e+01
  -8.376892e+01  -6.807297e+01
   2.609579e+01   2.879664e+00
   3.348227e+01   6.743023e+01
  -4.740138e+01   1.381126e+02
  -1.887997e+02   4.958849e+01
  -1.799995e+02  -1.124204e+02
  -2.996305e+01  -1.938989e+02
   1.729488e+02  -1.973030e+02
   1.992618e+02  -1.870405e+01
   6.769452e+01   1.330282e+02
  -7.061028e+01   9.659551e+01
  -7.515673e+01   5.518393e+01
  -1.259507e+01  -3.759164e+00
   7.652972e+00  -3.634976e+01
   1.688259e+00   1.364039e+01
  -7.551946e+01  -3.593575e+01
  -1.021406e+02  -1.023621e+02
  -7.612299e+00  -1.649688e+02
   1.294162e+02  -1.453246e+02
   2.141551e+02  -3.591310e+01
   2.217647e+02   1.641270e+02
   5.074390e+01   2.377691e+02
  -1.118831e+02   1.776000e+02
  -1.368160e+02   5.427308e+01
  -9.451301e+01  -5.025180e+01
  -4.197728e+01  -4.910765e+01
  -6.455696e+01   1.572860e+01
  -7.315746e+01   1.517907e+01
  -5.070517e+01  -5.117546e+01
   6.091975e+01  -7.661713e+01
   9.586466e+01  -2.505500e+01
   9.003075e+01   2.022779e+01
  -2.873166e+00   1.301988e+02
  -1.094794e+02   7.774266e+01
  -1.799372e+02  -4.912679e+01
  -1.299950e+02  -2.068161e+02
   8.498004e+01  -2.259395e+02
   3.115035e+02  -9.942597e+01
   2.639119e+02   6.355603e+01
   1.207949e+02   1.590317e+02
  -6.546409e+01   1.497659e+02
  -1.273448e+02   9.518183e+01
  -7.736410e+01   8.270377e+01
  -4.042895e+01   1.025797e+02
  -8.235450e+01   9.035076e+01
  -1.389024e+02  -4.014091e+01
  -1.207028e+02  -1.370929e+02
  -2.396395e+01  -2.052664e+02
   7.058161e+01  -1.978782e+02
   1.964207e+02  -5.718251e+01
   1.301195e+02   1.151283e+02
   2.343002e+01   1.486844e+02
  -7.350193e+01   1.115464e+02
  -5.585429e+01   1.696295e+01
  -1.646552e+01  -4.353675e+01
   2.169427e+01  -2.112191e+01
  -3.977838e+01   3.454217e+00
  -6.631828e+01  -1.347945e+01
  -5.610954e+01  -3.834570e+01
   7.351673e+01  -2.526669e+01
   1.759418e+02  -2.920185e+01
   1.318771e+02   7.667376e+01
   1.351922e+01   7.731062e+01
  -1.085249e+02   7.199863e+01
  -1.543444e+02   2.594702e+00
  -5.387076e+01  -3.391348e+01
   6.875992e+01  -6.024827e+01
   7.620532e+01   3.203217e+01
   4.963506e+00   6.380635e+01
  -1.747228e+01   6.460714e+01
  -9.841532e+01  -2.323541e+01
  -3.648353e+01  -8.526130e+01
  -5.528623e+01  -7.873621e+01
  -5.263989e+01   2.499002e+01
  -8.103743e+01   5.423592e+00
  -2.001332e+01  -6.459376e+01
   1.487713e+01  -1.509279e+02
   1.259288e+02  -1.545351e+02
   1.633805e+02  -2.334759e+01
   1.296640e+02   6.039306e+01
   2.077594e+01   1.107390e+02
  -9.247338e+01   5.506031e+01
  -4.001359e+01  -2.577548e+01
   7.200716e+01  -1.795120e+01
   1.462052e+02   4.479241e+01
   9.067263e+01   1.629923e+02
  -6.849600e+01   1.068929e+02
  -1.896670e+02   6.155672e+01
  -1.944438e+02  -1.354751e+01
  -4.987097e+01  -8.690977e+01
   4.393504e+01  -6.024892e+01
   7.220933e+01  -1.917335e+01
  -2.804314e+01   3.915138e+01
  -1.110940e+02  -2.613893e+01
  -3.776099e+01  -1.014784e+02
   8.258265e+01  -1.745150e+02
   1.494204e+02  -5.426461e+01
   1.073291e+02   1.075546e+02
   1.633357e+01   2.014418e+02
  -1.051130e+02   1.388535e+02
  -9.938953e+01  -5.037376e-01
  -7.702435e+01  -1.241524e+02
   1.964899e+01  -1.159751e+02
   6.671183e+01  -7.339385e+00
   3.673677e+01   3.001713e+01
   1.872864e+01   3.437595e+01
   1.283181e+01  -4.204809e+01
  -1.968613e+01   2.201759e+01
   5.732272e+01   8.801021e+01
   5.437139e+01   1.130961e+02
  -3.976783e+01   5.092166e+01
  -1.597593e+02  -2.177199e+01
  -1.453262e+02  -6.002223e+01
  -3.084749e+01  -5.150931e+01
   8.627221e+01  -2.821233e+01
   1.192635e+02   1.265525e+00
   3.573717e+01   8.030881e+00
  -3.784663e+01   1.365134e+01
  -2.644096e+01   6.033350e+01
   2.777801e+01   1.164199e+01
   1.040632e+01  -3.333005e+01
  -9.188470e+01  -4.079704e+01
  -7.511361e+01  -3.425094e+01
   3.014591e+00  -9.532676e+01
   1.133407e+02  -1.383792e+02
   2.049802e+02  -6.723420e+01
   1.406973e+02   9.563538e+01
   8.610623e+00   1.643541e+02
  -6.992545e+01   1.367730e+02
  -9.567949e+01   6.086239e+01
  -8.008624e+01  -3.606252e+01
  -9.670162e+00  -2.540058e+01
  -8.875369e+00  -9.968419e+00
  -2.130507e+01   1.677235e+01
  -5.707565e+01  -2.575817e+01
  -2.594861e+01  -9.710157e+01
   1.792288e+01  -7.324544e+01
   1.145136e+02  -7.620587e+00
   8.859093e+01   1.184213e+02
   1.462750e+01   1.265579e+02
  -9.189885e+01   2.058226e+01
  -1.172042e+02  -7.718652e+01
  -5.237843e+01  -1.177529e+02
   5.997804e+01  -4.309686e+01
   9.508562e+01   4.078091e+00
   5.658600e+01   2.419292e+01
  -2.529217e+01   2.659289e+01
  -3.592118e+01   7.427419e+01
   3.521886e+01  -1.561945e+01
   7.574639e+01  -3.239961e+01
   1.643996e+01   1.866934e+01
  -8.446498e+01   7.166904e+01
  -1.030574e+02   5.432810e+01
  -6.559522e+01   2.186000e+01
  -3.225589e-01  -7.533778e+01
   3.727776e+01  -8.396232e+01
   4.385690e+01  -1.960024e+01
  -5.648308e+00   7.005061e+01
  -1.966279e+01   2.043777e+01
  -4.041241e+01  -8.016514e+00
  -1.897430e+01  -1.000918e+02
   1.419797e+01  -4.651975e+01
   1.587723e+01   1.751631e+01
   3.597834e+01   7.651216e+00
   5.729504e+00  -1.887942e+00
  -1.857414e+01  -6.700899e+00
   2.878829e+00  -7.396332e-01
  -1.683316e+01   6.455149e+01
  -1.197960e+01   4.551300e+01
  -3.155154e+01  -2.435209e+01
  -4.544382e+01  -4.839030e+01
   2.131313e+00  -6.787148e+01
   3.166105e+01  -2.518366e+01
   4.941262e+01   4.255387e+01
  -1.152728e+00   8.408409e+01
  -3.739511e+01   4.476664e+01
  -5.845660e+01  -9.701830e+00
  -6.893118e+01  -3.294086e+01
   1.384891e+00  -2.584404e+01
   5.574344e+01  -2.145996e+01
   4.196413e+01  -3.921744e+00
  -3.914198e+01  -2.191264e+01
  -5.598084e+01  -1.754541e+01
   4.014579e+01  -3.963604e+01
   1.030566e+02  -9.695898e+00
