
 $NMID
 id='ANONYMOUS ', fmtdat='(2E16.6)'
 volume=1.0
 tramp=1.0
 $END
  -4.978356e+03   9.163138e+01
  -2.444945e+03  -3.040484e+03
   7.252592e+02  -2.928484e+03
   2.374235e+03  -6.279325e+02
   8.470433e+02   8.013685e+02
  -1.002802e+03   4.808271e+02
  -9.962469e+02  -4.945631e+02
   1.192401e+02  -1.219212e+03
   9.456638e+02  -7.904655e+02
   9.747925e+02   1.420719e+02
   4.106574e+02   9.341787e+02
  -2.839187e+02   8.933216e+02
  -7.582191e+02   3.101941e+01
  -3.864138e+02  -8.162003e+02
   3.919430e+02  -8.359819e+02
   7.074419e+02   8.299864e+01
   2.751541e+02   7.309271e+02
  -3.719784e+02   6.001103e+02
  -5.867878e+02  -3.323684e+01
  -3.091304e+02  -3.825972e+02
  -1.243941e+01  -4.466380e+02
   2.772035e+02  -2.712400e+02
   2.429245e+02   5.291391e+01
  -1.160797e+02   9.000388e+01
  -4.295899e+02  -6.043416e+01
  -2.651118e+02  -5.504567e+02
   5.317593e+02  -5.046294e+02
   9.652234e+02   5.181621e+01
   5.102327e+02   5.989703e+02
  -4.244632e+02   5.600356e+02
  -9.202569e+02  -7.533458e+01
  -3.980930e+02  -5.210576e+02
   3.435870e+02  -5.782402e+02
   6.208942e+02  -2.465537e+02
   4.788030e+02   2.544897e+02
   7.047392e+01   5.175120e+02
  -2.622322e+02   2.716674e+02
  -2.208387e+02  -2.355884e+02
   2.163735e+02  -5.140303e+02
   5.490224e+02   9.129116e+00
   2.341126e+02   7.911404e+02
  -3.453608e+02   8.331448e+02
  -7.022750e+02  -2.507536e+01
  -2.936045e+02  -5.943451e+02
   2.866534e+02  -4.115329e+02
   4.610094e+02   3.183964e+02
  -1.034685e+02   6.380313e+02
  -6.291178e+02   1.469648e+02
  -6.704148e+02  -3.998554e+02
  -1.124818e+02  -6.405988e+02
   4.400910e+02  -3.682198e+02
   7.397819e+02   8.052285e+01
   4.034842e+02   4.227040e+02
  -1.645030e+02   3.905299e+02
  -5.044344e+02   1.382156e+01
  -2.405677e+02  -2.570632e+02
   1.496872e+02  -1.250096e+02
   1.657252e+02   2.057189e+02
  -2.222190e+02   2.362782e+02
  -3.925923e+02  -7.789457e+01
  -1.416556e+02  -3.075872e+02
   2.670879e+02  -2.677553e+02
   3.240435e+02  -9.339401e+01
   1.967469e+02   9.223337e+01
  -7.247628e+00   2.367608e+02
  -2.027631e+02   3.620301e+02
  -3.689547e+02   2.888076e+02
  -3.177573e+02  -1.210939e+02
  -5.362331e+01  -4.710184e+02
   1.657750e+02  -3.981876e+02
   1.041601e+02  -1.262898e+02
   3.437208e+01   4.316071e+01
   1.364263e+01  -1.019559e+02
   1.705823e+02  -1.559900e+02
   3.278680e+02   3.961071e+01
   1.783178e+02   2.660211e+02
  -7.457223e+01   2.687656e+02
  -2.503004e+02   1.263637e+01
  -2.131557e+02  -2.654357e+02
  -1.304068e+01  -3.242367e+02
   2.984114e+02  -1.135191e+02
   4.242133e+02   1.674079e+02
   2.112173e+02   3.773344e+02
  -9.664637e+01   3.148698e+02
  -2.412477e+02   1.120048e+02
  -1.218216e+02  -1.708632e+01
  -5.765485e+01   2.164076e+01
  -2.565628e+02   8.260082e+01
  -4.259588e+02  -1.304318e+01
  -3.491588e+02  -2.807340e+02
  -2.391761e+01  -4.433016e+02
   3.725256e+02  -4.242446e+02
   5.105120e+02  -2.141173e+02
   3.460026e+02   7.927518e+01
   7.223733e+01   2.916261e+02
  -1.481074e+02   2.693628e+02
  -1.341834e+02   3.827395e+01
   1.161724e+02  -9.872016e+01
   2.051316e+02  -1.312561e+01
   3.704736e+01   2.277768e+02
  -2.186854e+02   1.978047e+02
  -2.099679e+02  -8.379827e+01
  -1.399845e+00  -2.069448e+02
   1.888757e+02  -2.961798e+01
   1.638680e+02   2.728208e+02
   1.651838e+00   3.742629e+02
  -2.296793e+02   2.182613e+02
  -3.285816e+02  -4.992297e+01
  -3.088520e+02  -2.228426e+02
  -1.327831e+02  -2.697376e+02
   1.203573e+02  -1.819252e+02
   2.024968e+02  -2.251435e+01
   7.820088e+01   3.222887e+01
  -6.163188e+01  -3.364652e+01
  -5.685164e+01  -1.601641e+02
   1.623107e+02  -1.089457e+02
   2.122370e+02   3.147932e+00
   9.014998e+01   6.999444e+01
  -7.789364e+01   1.713002e+01
  -4.174809e+01  -7.778135e+01
   1.299511e+02  -7.050408e+01
   3.063087e+02  -2.215240e+00
   2.838758e+02   1.013045e+02
   1.099596e+02   2.599646e+02
  -1.730030e+02   2.680369e+02
  -3.043301e+02   1.361358e+02
  -1.729957e+02  -5.076042e+01
   4.156525e+01  -1.324598e+02
   9.016408e+01  -1.046504e+01
  -3.899100e+01   1.323676e+02
  -2.252997e+02   9.395196e+01
  -2.356413e+02  -1.176286e+02
  -8.447722e+01  -2.122227e+02
   8.719542e+01  -1.649405e+02
   1.681732e+02  -3.053004e+01
   5.455966e+01   2.294790e+01
  -2.234317e+01   1.487799e+01
  -4.239616e+01  -8.338546e+01
   5.168362e+01  -1.153022e+02
   1.674957e+02  -6.225780e+01
   2.293889e+02   1.187363e+02
   3.999328e+01   2.453146e+02
  -1.783761e+02   1.610831e+02
  -2.318753e+02  -5.734897e+00
  -9.611583e+01  -1.301482e+02
   6.438651e+01  -1.061479e+02
   1.165129e+02  -3.023834e+01
   3.461972e+01   2.993791e+01
  -3.216587e+01   1.588493e+01
   1.488308e+01  -1.321871e+01
   6.819224e+01  -8.978015e+00
   6.532003e+01   3.510532e+01
   7.686512e+00   1.689938e+02
  -1.010838e+02   1.744213e+02
  -2.197407e+02   5.329665e+01
  -2.223977e+02  -1.609906e+02
  -3.955875e+01  -2.504658e+02
   1.234708e+02  -1.851457e+02
   1.108087e+02  -6.016923e+01
   8.041870e+01   3.994605e+01
   2.767660e+01   3.159288e+01
   6.512408e+01  -1.524394e+01
   1.052926e+02  -1.410129e+01
   2.503878e+01   3.927688e+01
  -6.072349e+01   8.653523e+01
  -9.844331e+01   2.951250e+01
  -5.416667e+01  -3.100202e+01
   7.674040e+00  -1.020096e+02
   1.346652e+02  -8.403737e+01
   1.946797e+02   1.783649e+01
   1.095496e+02   2.172557e+02
  -4.537760e+01   2.097265e+02
  -2.867818e+02   8.999339e+01
  -2.709590e+02  -4.798490e+01
  -1.016989e+02  -1.869323e+02
   4.945641e+01  -1.634662e+02
   1.054733e+02  -8.235728e+01
   8.010806e+01  -8.821151e+01
   7.469033e+01  -8.550537e+01
   8.656235e+01  -9.593828e+01
   1.327834e+02   2.161015e+01
   1.211124e+02   1.632868e+02
   3.822945e+01   2.441327e+02
  -7.740030e+01   1.959985e+02
  -1.781551e+02   3.620815e+01
  -1.634239e+02  -1.255601e+02
  -4.363741e+01  -1.615536e+02
   6.679055e+01  -1.000897e+02
   5.958694e+01   5.362724e+00
  -3.193699e+00   6.176255e+01
  -3.565197e+00   2.389620e+01
   7.817974e+01   2.636044e+01
   8.653773e+01   5.176469e+01
   4.950707e+01   5.179124e+01
  -6.025949e+01   2.479858e+01
  -1.527346e+02   1.468708e+01
  -1.559298e+02  -4.738628e+01
  -1.790582e+01  -8.536619e+01
   1.387021e+02  -1.050266e+02
   1.502958e+02  -2.052969e+01
   5.445273e+01   5.281459e+01
  -6.655093e+01   4.767193e+01
  -3.894109e+01   1.117940e+01
  -1.048486e+00  -7.240612e+01
   4.884100e+01  -1.883577e+01
   7.569810e+01   4.998193e+00
   5.128581e+01   4.665714e+01
   4.861136e+01   6.101833e+01
   6.898388e+01   9.784801e+00
   7.723561e+01  -5.244651e+00
   1.838048e+01   6.878635e+01
  -2.713470e+01   1.296616e+02
  -1.231838e+02   1.324239e+02
  -1.631473e+02   4.522067e+01
  -1.302864e+02  -7.366743e+01
   3.104391e+00  -1.265365e+02
   1.042148e+02  -5.558807e+01
   7.242579e+01   3.350821e+01
  -5.240885e+01   6.937798e+00
  -1.337161e+02  -4.076374e+01
  -6.147453e+01  -9.896651e+01
   7.602589e+01  -9.949385e+01
   2.005350e+02  -6.331275e+01
   1.753658e+02   2.712279e+01
   5.762589e+01   1.068635e+02
  -4.711461e+01   7.251699e+01
  -7.235020e+01   8.165469e+00
   3.910608e+01  -3.881776e+01
   1.146249e+02   1.140889e+01
   5.709770e+01   1.191123e+02
  -1.017775e+02   1.721784e+02
  -1.659771e+02   7.292941e+01
  -1.205676e+02  -9.578061e+01
  -4.281639e+01  -2.025920e+02
   1.059380e+02  -1.299184e+02
   1.032719e+02  -6.251078e+00
   6.975446e+01   1.136289e+02
  -9.491398e+00   1.241384e+02
  -5.324791e+01   2.755864e+01
  -5.722214e+01  -2.174292e+01
  -2.395485e+01   1.422702e+00
  -1.003009e+01   2.490320e+01
  -9.204613e+00  -6.972898e+00
  -4.170478e+01  -8.197310e+01
  -2.950843e+01  -1.321532e+02
   4.577641e+01  -3.639133e+01
   1.529871e+02   1.373721e+01
   1.474275e+02   8.403490e+01
   6.234796e+00   6.006975e+01
  -9.592126e+01   3.810673e+01
  -8.728653e+01  -8.706413e-01
  -1.044568e+01   1.328299e+01
   6.059863e+01  -2.911118e+01
   3.515105e+01   2.092804e+01
  -4.923990e+01  -1.107255e+01
  -1.953894e+01   2.201563e+01
   6.680401e+01  -3.538085e+01
   9.541487e+01   2.759426e+01
  -3.824289e+01   6.930250e+01
  -1.115551e+02   1.034786e+02
  -2.004823e+02   8.205666e+01
  -1.476845e+02  -6.515303e+01
  -1.197856e+01  -1.448826e+02
   7.900048e+01  -1.529640e+02
   1.150633e+02  -8.390951e+01
   9.495924e+01   1.692392e+01
   3.317123e+01   4.032516e+01
   1.189496e+01   1.698160e+01
   4.808846e+01   2.793238e+01
   2.572336e+01   4.768949e+01
   1.850591e+01   8.775802e+01
  -2.216662e+01   8.077069e+01
  -1.007850e+02   6.227397e+00
  -9.350349e+01  -1.317363e+02
   5.391096e+00  -9.486242e+01
   7.986013e+01  -1.342729e+01
   1.472535e+02   7.450284e+01
   1.274529e+01   1.180729e+02
  -7.210818e+01   4.596073e+01
  -8.418376e+01  -2.966404e+01
  -4.927195e+01  -3.904646e+01
   4.870062e+01  -3.940282e+01
   1.114370e+01  -1.144866e+01
  -3.590341e+01  -5.608956e+00
  -5.527443e+01  -1.003975e+01
  -1.084278e+01  -9.581597e+00
   6.186375e+01  -5.980386e+01
   1.241033e+02  -5.242979e+01
   5.032907e+01   1.107470e+01
  -1.215567e+01   7.535550e+01
  -5.202883e+01   6.068056e+01
  -4.322360e+01   1.503351e+01
   1.450629e+01  -5.257649e+01
  -1.059841e+01  -4.524449e+01
   3.491749e+01   2.233120e+01
   1.715728e+01   9.156602e+01
   3.537956e+00   4.496582e+01
  -2.856133e+01  -1.443733e+01
  -5.189054e+01  -6.141142e+00
  -3.271046e+01   1.836588e+01
   1.016648e+01  -2.928055e+00
   9.039597e+00   3.433121e-01
  -8.019148e+00  -6.550878e+01
   2.280102e+01  -4.789111e+01
   2.217308e+01  -3.640726e+00
   3.096627e+01   6.227835e+01
  -2.379191e+01   4.134966e+01
  -4.206540e+01   3.150703e+01
  -1.789089e+01  -5.771094e+01
  -4.144934e+01  -7.909986e+01
   6.480754e+01  -5.341057e+01
   9.249280e+01   1.716949e+01
   4.342390e+01   5.673421e+01
  -1.889008e+01   2.729776e+01
  -5.258309e+01   1.755409e+01
  -1.742250e+01   2.108914e+01
   2.506866e+01  -1.080471e+01
   1.257839e+01   4.230117e+01
  -6.452010e+01   1.831942e+01
  -8.884548e+01   2.633021e+01
