
 $NMID
 id='ANONYMOUS ', fmtdat='(2E16.6)'
 volume=1.0
 tramp=1.0
 $END
  -4.784683e+03  -1.663481e+02
  -2.435802e+03  -2.965938e+03
   8.652307e+02  -2.831219e+03
   2.262474e+03  -5.975084e+02
   9.627092e+02   7.665718e+02
  -8.775494e+02   4.897895e+02
  -1.050820e+03  -6.216704e+02
   3.143881e+01  -1.156588e+03
   8.968697e+02  -8.733214e+02
   1.097117e+03   1.222137e+02
   4.768489e+02   9.207688e+02
  -2.894351e+02   9.515638e+02
  -6.870365e+02   4.525138e+01
  -3.252796e+02  -8.034118e+02
   3.420871e+02  -7.942724e+02
   6.055801e+02   3.551220e+01
   2.600008e+02   7.668127e+02
  -3.852505e+02   6.246831e+02
  -5.706627e+02   5.734599e+01
  -3.472961e+02  -3.688188e+02
   1.679244e+01  -4.721376e+02
   2.869343e+02  -2.518253e+02
   2.135194e+02   6.051090e+00
  -1.074523e+02   1.238595e+02
  -4.120953e+02  -5.623859e+01
  -2.630808e+02  -4.933979e+02
   4.474911e+02  -4.671766e+02
   8.945468e+02  -2.687698e+01
   4.906183e+02   6.128530e+02
  -3.900800e+02   5.492646e+02
  -8.257771e+02  -9.042207e+01
  -3.901520e+02  -4.925724e+02
   2.912520e+02  -6.207139e+02
   6.624611e+02  -2.121347e+02
   4.379848e+02   2.620762e+02
   3.656780e+01   5.120475e+02
  -2.315964e+02   2.850844e+02
  -2.379982e+02  -2.100413e+02
   2.322748e+02  -5.476721e+02
   5.299589e+02   1.024065e+01
   2.758527e+02   7.916925e+02
  -4.210746e+02   7.292574e+02
  -6.499426e+02   4.131828e+00
  -3.339418e+02  -6.202588e+02
   3.348703e+02  -3.607279e+02
   4.414116e+02   3.279241e+02
  -9.887532e+01   6.284556e+02
  -5.850711e+02   1.945287e+02
  -6.610788e+02  -4.245545e+02
  -1.452629e+02  -5.830456e+02
   4.196907e+02  -3.551147e+02
   6.965295e+02   6.842788e+01
   3.763120e+02   3.965772e+02
  -1.680114e+02   4.243448e+02
  -4.861303e+02   5.150214e+01
  -2.577455e+02  -2.673400e+02
   1.793277e+02  -1.545319e+02
   1.760825e+02   2.138359e+02
  -2.224040e+02   2.113020e+02
  -3.698860e+02  -8.209400e+01
  -1.394334e+02  -3.159817e+02
   2.268839e+02  -2.710544e+02
   3.129124e+02  -5.434589e+01
   1.990954e+02   6.536995e+01
  -2.981937e+01   1.989556e+02
  -1.819846e+02   2.924539e+02
  -3.607780e+02   2.520542e+02
  -2.862485e+02  -1.450498e+02
  -1.340415e+02  -4.640683e+02
   1.678970e+02  -4.090553e+02
   1.640061e+02  -7.599123e+01
   2.497387e+01   2.175796e+01
   8.823039e+00  -1.102871e+02
   2.154559e+02  -1.801937e+02
   3.004116e+02   2.072763e+01
   1.594936e+02   2.754892e+02
  -5.286702e+01   2.787342e+02
  -2.333729e+02   4.639148e+01
  -2.352759e+02  -2.573495e+02
   4.304084e+01  -3.074941e+02
   2.587243e+02  -1.565544e+02
   3.945332e+02   1.444517e+02
   2.034632e+02   3.683801e+02
  -1.108308e+02   3.130645e+02
  -2.663136e+02   1.171530e+02
  -1.227577e+02  -3.701923e+00
  -9.283516e+01   5.329970e+01
  -2.187530e+02   9.259755e+01
  -4.004266e+02  -3.414770e+01
  -3.629631e+02  -3.031243e+02
  -3.367775e+01  -4.366923e+02
   3.558263e+02  -4.145927e+02
   4.866488e+02  -2.347868e+02
   3.562443e+02   8.579988e+01
   4.997213e+01   2.742958e+02
  -1.529114e+02   2.661461e+02
  -1.167022e+02   2.411328e+01
   1.101738e+02  -1.452759e+02
   2.260367e+02  -5.598753e+01
   5.965094e+01   1.886544e+02
  -1.738869e+02   1.872685e+02
  -1.846351e+02  -6.838376e+01
  -2.016895e+01  -2.002676e+02
   1.807477e+02  -5.072045e+01
   1.358110e+02   2.301535e+02
  -2.653958e+01   3.387393e+02
  -2.212058e+02   1.911837e+02
  -3.347692e+02  -1.681756e+01
  -2.915804e+02  -2.312744e+02
  -9.242122e+01  -2.644114e+02
   9.753010e+01  -1.833295e+02
   1.893451e+02  -2.779024e+01
   8.424587e+01   6.506152e+01
  -7.584119e+01  -6.352492e+00
  -4.876133e+01  -1.442407e+02
   1.561848e+02  -1.164654e+02
   1.632162e+02   1.893515e+01
   8.494453e+01   7.977774e+01
  -8.315200e+01   3.244766e+01
  -5.361138e+01  -6.151155e+01
   1.140493e+02  -1.039479e+02
   2.694789e+02  -2.057681e+01
   2.654224e+02   1.199721e+02
   8.363339e+01   2.429857e+02
  -1.684418e+02   2.723274e+02
  -2.695498e+02   1.580271e+02
  -1.557533e+02  -2.732264e+01
   6.747986e+01  -1.390810e+02
   1.081533e+02  -2.496882e+01
  -1.325622e+00   1.054445e+02
  -2.033766e+02   1.018081e+02
  -2.478177e+02  -7.171679e+01
  -5.859462e+01  -2.379998e+02
   9.347386e+01  -1.681090e+02
   1.711445e+02  -3.663839e+01
   7.898115e+01   4.260081e+01
  -1.374031e+01  -1.091724e+01
  -5.787070e+01  -7.056341e+01
   8.095134e+01  -9.973257e+01
   1.842543e+02  -4.789831e+01
   2.035373e+02   1.167889e+02
   2.314939e+01   2.412830e+02
  -1.935209e+02   1.819616e+02
  -1.887967e+02  -6.755155e+00
  -7.004144e+01  -1.014046e+02
   6.335107e+01  -1.272171e+02
   1.015106e+02  -2.170400e+01
  -5.295693e+00   2.247704e+01
  -3.648575e+01  -8.994339e-01
   1.105968e+01  -1.275274e+01
   5.967725e+01  -3.832941e+00
   7.599057e+01   5.983419e+01
   1.606041e+01   1.518475e+02
  -7.202354e+01   1.752366e+02
  -2.150016e+02   3.173596e+01
  -1.916288e+02  -1.391965e+02
  -5.510434e+01  -2.369425e+02
   1.006143e+02  -1.808799e+02
   1.221872e+02  -3.879293e+01
   7.278930e+01   7.976448e+01
   4.919971e+01   5.591343e+01
   4.960483e+01  -1.691744e+01
   8.832010e+01   7.621321e-01
   3.326960e+01   3.616307e+01
  -6.458096e+01   6.876648e+01
  -1.009718e+02   4.771368e+01
  -1.095989e+02  -4.026242e+01
  -1.980910e+01  -1.196119e+02
   1.302224e+02  -8.567132e+01
   2.067987e+02   4.927288e+01
   1.130447e+02   2.017139e+02
  -6.433350e+01   2.247999e+02
  -2.869055e+02   1.169839e+02
  -2.633761e+02  -9.114941e+01
  -1.025943e+02  -1.935458e+02
   2.984105e+01  -1.459520e+02
   1.166001e+02  -8.719734e+01
   8.527581e+01  -1.110697e+02
   6.375992e+01  -8.569596e+01
   8.008620e+01  -9.498988e+01
   1.381384e+02   1.889507e+01
   1.483610e+02   1.751516e+02
   3.091360e+01   2.332143e+02
  -1.190135e+02   1.923993e+02
  -1.754997e+02   1.544822e+01
  -1.681736e+02  -1.211659e+02
  -3.166826e+01  -1.365814e+02
   7.124139e+01  -1.022324e+02
   8.104272e+01  -6.334370e+00
   1.121078e+01   5.441622e+01
  -1.522922e+01   3.893506e+01
   5.196225e+01   2.484495e+01
   8.020393e+01  -2.252935e+01
   4.032409e+01   4.282741e+01
  -6.013214e+01   3.110926e+01
  -1.689566e+02   1.841227e+01
  -1.486885e+02  -5.076584e+01
  -4.564796e+01  -7.770861e+01
   1.005960e+02  -7.992427e+01
   1.476818e+02  -2.129609e+01
   4.067955e+01   6.789979e+01
  -5.077321e+01   2.955944e+01
  -6.180441e+01  -1.196951e+01
  -9.191103e+00  -6.390080e+01
   6.521433e+01  -4.216535e+01
   6.209231e+01  -1.378078e+01
   3.331900e+01   6.796846e+01
   5.945950e+01   2.986894e+01
   6.473499e+01  -1.008421e+01
   5.950375e+01   1.879877e+01
   6.042695e+01   6.986469e+01
  -4.610261e+01   1.534936e+02
  -9.889539e+01   1.579883e+02
  -1.536025e+02   4.826996e+01
  -1.319159e+02  -1.038603e+02
   2.605188e+00  -1.256286e+02
   9.019019e+01  -7.076308e+01
   8.214239e+01   1.995308e+01
  -7.222034e+01   1.595609e+01
  -1.504398e+02  -3.674010e+01
  -5.649107e+01  -1.123033e+02
   1.110751e+02  -1.205418e+02
   1.748037e+02  -5.367633e+01
   1.835917e+02   5.533861e+00
   4.964283e+01   9.543937e+01
  -9.514671e+01   7.462380e+01
  -6.880645e+01   1.492843e+01
   5.116158e+01  -2.516196e+01
   1.149360e+02   3.003008e+01
   3.049623e+01   1.120144e+02
  -7.398663e+01   1.651708e+02
  -1.323464e+02   8.427813e+01
  -1.423474e+02  -9.170875e+01
  -2.248128e+01  -1.906929e+02
   6.528695e+01  -1.475465e+02
   1.176713e+02   3.023545e+01
   5.841808e+01   9.940220e+01
   5.044781e-01   1.245112e+02
  -5.073577e+01   4.095469e+01
  -6.698870e+01  -3.170475e+01
  -2.442296e+01  -1.675436e+01
  -7.563862e+00   3.193983e+01
  -1.969078e+01  -1.481187e+00
  -5.775368e+01  -7.016130e+01
  -6.042652e+01  -1.080277e+02
   3.934210e+01  -6.969046e+01
   1.225825e+02   2.177726e+01
   1.306439e+02   9.869746e+01
   2.014325e+01   6.622250e+01
  -1.050107e+02   2.135235e+01
  -9.070347e+01   3.187584e+01
   2.873557e+00   3.937236e+00
   4.048083e+01  -4.417385e+01
   2.199220e+01  -1.485787e+01
  -1.691511e+01   2.859495e+01
  -9.227182e+00  -1.954317e+00
   6.943998e+01   1.136211e+01
   8.797533e+01  -3.214225e+00
  -1.930830e+01   8.956759e+01
  -1.349262e+02   9.094387e+01
  -1.834526e+02   4.674518e+01
  -1.551893e+02  -6.885414e+01
  -2.142805e+01  -1.481296e+02
   5.323186e+01  -1.348261e+02
   1.156517e+02  -5.302794e+01
   7.108520e+01   2.436663e+01
   3.454218e+01   6.039237e+01
   5.109840e+00  -1.002460e+01
   4.909302e+00  -1.351795e+01
   2.108798e+01   6.095984e+01
   8.376565e+00   8.301344e+01
  -5.498988e+00   6.745612e+01
  -8.788420e+01  -1.701839e+01
  -9.354054e+01  -1.263188e+02
   1.103266e+01  -9.792900e+01
   8.256814e+01  -6.649907e+00
   8.982909e+01   9.941205e+01
   1.454740e+00   1.136539e+02
  -9.328520e+01   4.929056e+01
  -1.235181e+02   6.706051e+00
  -2.858006e+01  -3.419806e+01
   1.823188e+01  -4.800872e+01
   3.753323e+01  -2.683344e+01
  -7.613581e+00   1.140016e+01
  -6.094301e+01   1.658813e+01
  -2.261154e+01  -2.339492e+01
   8.633785e+01  -6.741784e+01
   1.154213e+02  -6.357349e+01
   7.397705e+01   1.881313e+01
  -1.680992e+01   8.483029e+01
  -4.020556e+01   5.607888e+01
   1.242314e+00   1.659318e+01
   1.774828e+01  -7.773129e+01
   2.043995e+00   2.940204e+00
   3.384187e+01   2.378284e+01
   1.020324e+01   7.146212e+01
   3.548657e+01   5.369913e+01
  -2.480326e+01  -2.620569e+00
  -6.347986e+01  -2.171383e+00
   1.100097e+01   1.629332e+01
   1.462211e+01  -3.854438e+00
   4.063958e+01  -8.896507e+00
  -2.593192e-01  -6.304617e+01
   8.773939e+00  -6.173503e+01
   3.478429e+01  -1.427925e+01
   1.825136e+01   5.240429e+01
  -5.153154e+00   4.488951e+01
  -2.769890e+01   2.674435e+01
  -3.845533e+01  -2.876409e+01
   1.214147e+01  -5.612522e+01
   7.455873e+01  -4.865986e+01
   9.227786e+01   3.397135e+01
   5.529404e+01   4.842460e+01
  -1.566499e+01   3.030358e+01
  -5.743026e+01   1.259970e+01
  -6.191439e+00  -1.005325e+01
   1.059728e+01  -5.725321e-01
   2.781826e+01   3.501178e+01
  -3.657292e+01   4.204999e+01
  -8.442610e+01   1.164507e+01
