
 $NMID
 id='ANONYMOUS ', fmtdat='(2E16.6)'
 volume=1.0
 tramp=1.0
 $END
  -4.893953e+03  -4.491280e+02
  -2.253679e+03  -3.111266e+03
   1.146010e+03  -2.986066e+03
   2.143327e+03  -6.585849e+02
   8.373354e+02   6.640530e+02
  -7.569790e+02   4.237619e+02
  -8.895013e+02  -6.901501e+02
   2.301319e+02  -1.062060e+03
   9.667367e+02  -7.808088e+02
   1.022082e+03   2.423088e+02
   4.520223e+02   9.547614e+02
  -3.917634e+02   9.495956e+02
  -6.496110e+02   7.454967e+00
  -2.737488e+02  -8.253234e+02
   3.702509e+02  -8.073661e+02
   6.111430e+02   8.968058e+01
   1.730512e+02   7.813316e+02
  -3.716990e+02   5.876047e+02
  -5.825547e+02   2.655022e+01
  -3.450599e+02  -3.643700e+02
   7.052528e+01  -4.383608e+02
   2.962086e+02  -2.225981e+02
   2.098388e+02   2.733102e+01
  -1.053680e+02   8.623054e+01
  -4.766537e+02  -1.287224e+02
  -2.124037e+02  -5.151038e+02
   5.173844e+02  -3.999590e+02
   8.992083e+02   1.708704e+02
   4.037346e+02   6.585680e+02
  -4.719287e+02   5.087103e+02
  -8.686797e+02  -1.044768e+02
  -3.143185e+02  -5.541443e+02
   3.620564e+02  -5.829016e+02
   6.390314e+02  -1.262408e+02
   3.826115e+02   2.991486e+02
   7.600156e+01   5.262848e+02
  -2.523580e+02   2.450264e+02
  -1.683593e+02  -2.383704e+02
   2.694349e+02  -5.448813e+02
   5.195733e+02   8.926750e+01
   2.658820e+02   8.220916e+02
  -4.554398e+02   7.701755e+02
  -6.107376e+02  -8.916863e+01
  -2.532157e+02  -6.586648e+02
   3.906855e+02  -3.619893e+02
   4.049204e+02   3.733427e+02
  -1.811214e+02   5.849153e+02
  -5.978127e+02   1.311763e+02
  -6.671728e+02  -5.198586e+02
  -1.453653e+02  -6.161242e+02
   4.727090e+02  -3.582554e+02
   7.074760e+02   1.117317e+02
   3.493774e+02   4.677602e+02
  -1.890957e+02   3.598325e+02
  -4.496938e+02   7.671234e-01
  -2.269520e+02  -2.499002e+02
   1.601185e+02  -7.797734e+01
   9.316273e+01   2.071595e+02
  -2.227234e+02   1.738869e+02
  -3.763998e+02  -1.311366e+02
  -1.081538e+02  -3.204944e+02
   2.314106e+02  -2.842247e+02
   3.118215e+02  -3.474109e+01
   1.722893e+02   8.380543e+01
  -2.347407e+01   2.249868e+02
  -2.214205e+02   3.578028e+02
  -3.512150e+02   1.935356e+02
  -3.030969e+02  -1.618620e+02
  -5.991376e+01  -4.315983e+02
   1.643021e+02  -4.226691e+02
   1.277156e+02  -8.570662e+01
   1.873719e+01   1.181327e+01
   2.159771e+01  -1.063997e+02
   2.255902e+02  -1.618685e+02
   2.603000e+02   6.217167e+01
   1.412886e+02   3.255618e+02
  -9.725062e+01   2.540578e+02
  -2.711188e+02  -2.305425e+01
  -2.216495e+02  -2.970795e+02
   4.176840e+01  -3.246413e+02
   2.986169e+02  -1.480574e+02
   3.693354e+02   1.975747e+02
   1.624706e+02   3.759453e+02
  -1.377960e+02   2.944094e+02
  -2.231360e+02   1.153087e+02
  -1.406100e+02  -1.883691e+01
  -9.687792e+01   1.809559e+01
  -2.477285e+02   6.974697e+01
  -3.894440e+02  -7.025672e+01
  -3.638719e+02  -3.014053e+02
   1.436649e+01  -4.549773e+02
   3.768925e+02  -4.217216e+02
   5.015000e+02  -2.162871e+02
   3.917141e+02   1.100170e+02
   4.211807e+01   2.975330e+02
  -1.425665e+02   2.483625e+02
  -9.410244e+01   5.837648e+00
   1.335644e+02  -1.316666e+02
   1.940149e+02   1.042910e+01
   3.058648e+01   2.451605e+02
  -1.852130e+02   2.088436e+02
  -2.108548e+02  -1.011960e+02
   7.591847e+01  -2.044100e+02
   2.065146e+02  -1.997496e+01
   1.542747e+02   2.800996e+02
  -6.885817e+01   3.832503e+02
  -2.468492e+02   1.577482e+02
  -3.658426e+02  -5.330030e+01
  -2.930369e+02  -2.637294e+02
  -1.080768e+02  -2.740033e+02
   1.190047e+02  -1.704803e+02
   1.864026e+02  -8.756685e+00
   6.917955e+01   6.171285e+01
  -8.930404e+01  -4.237470e+01
  -2.407306e+01  -1.481227e+02
   1.673183e+02  -9.661614e+01
   2.127085e+02   3.361801e+01
   4.813790e+01   7.371676e+01
  -1.060384e+02   4.412417e+01
  -4.092632e+01  -6.322465e+01
   1.561502e+02  -7.805452e+01
   3.037575e+02  -1.713828e+01
   2.890314e+02   1.641376e+02
   2.935360e+01   3.145596e+02
  -1.976180e+02   2.697882e+02
  -3.105704e+02   1.182895e+02
  -1.519419e+02  -5.534892e+01
   3.939856e+01  -1.270793e+02
   9.397896e+01   5.888381e+00
  -3.056679e+01   1.180668e+02
  -2.133477e+02   5.656746e+01
  -2.104262e+02  -9.485034e+01
  -8.449115e+01  -2.256794e+02
   1.112383e+02  -1.643776e+02
   1.700341e+02  -2.174364e+01
   5.651172e+01   6.543649e+01
  -4.905795e+01   4.220935e+01
  -6.903489e+01  -1.043223e+02
   7.807521e+01  -1.166506e+02
   2.040649e+02  -2.419910e+01
   1.855375e+02   1.609304e+02
  -4.324331e+00   2.604113e+02
  -1.950479e+02   1.464834e+02
  -1.958339e+02   1.184129e+01
  -5.159937e+01  -1.506067e+02
   6.421349e+01  -9.485230e+01
   6.295786e+01  -2.537988e+01
   3.802199e+01   2.114204e+01
   1.678065e+01   3.934393e+01
   1.324737e+01  -2.632448e+01
   6.944068e+01  -1.913230e+01
   9.550612e+01   1.060217e+02
   3.950966e+01   1.586992e+02
  -1.185407e+02   1.624240e+02
  -2.537005e+02   1.452359e+01
  -1.809379e+02  -1.411848e+02
  -4.479540e+01  -2.565938e+02
   1.410519e+02  -1.442976e+02
   1.279303e+02  -3.232568e+01
   8.624059e+01   8.237008e+01
   2.801250e+01   3.595597e+01
   4.849345e+01   1.586204e+00
   9.328922e+01  -1.472712e+01
   2.750698e+01   4.673687e+01
  -5.378886e+01   7.981134e+01
  -1.031401e+02   5.088821e+01
  -9.805798e+01  -2.369915e+01
   3.502265e+01  -1.178690e+02
   1.518252e+02  -8.546103e+01
   1.828994e+02   8.773341e+01
   1.155614e+02   2.296962e+02
  -1.002564e+02   2.265705e+02
  -2.533928e+02   6.669166e+01
  -2.903175e+02  -1.127418e+02
  -1.154964e+02  -1.709119e+02
   3.727408e+01  -1.328292e+02
   1.139666e+02  -8.384814e+01
   9.734043e+01  -4.697579e+01
   8.241343e+01  -9.006655e+01
   8.798513e+01  -9.267073e+01
   1.263934e+02  -6.609374e+00
   1.321863e+02   1.730852e+02
   2.900487e+01   2.036814e+02
  -1.417647e+02   1.745221e+02
  -1.632632e+02   9.608099e+00
  -1.440694e+02  -1.300441e+02
   1.260344e+01  -1.775894e+02
   9.313459e+01  -9.800472e+01
   7.459270e+01   2.714877e+01
   7.634338e+00   3.959565e+01
  -9.720187e-01   4.392094e+01
   1.941342e+01  -1.125879e+01
   7.181357e+01   2.478774e+00
   2.425039e+01   6.119374e+01
  -6.434246e+01  -9.718420e+00
  -1.422709e+02  -1.184231e+01
  -1.620433e+02  -5.229046e+01
  -3.863783e+01  -1.215595e+02
   1.228732e+02  -8.477638e+01
   1.640283e+02  -3.694028e+01
   5.135618e+01   6.889069e+01
  -4.497302e+01   3.732168e+01
  -9.161541e+01  -3.470218e+01
  -1.559510e+01  -6.980834e+01
   8.394881e+01  -7.202829e+01
   5.915390e+01  -2.678315e+01
   3.990371e+01   5.054530e+01
   2.521989e+01   2.435878e+01
   6.269903e+01   3.559226e+01
   6.645243e+01   2.032618e+01
   2.241493e+01   6.324838e+01
  -3.597841e+01   1.694064e+02
  -1.000914e+02   1.641499e+02
  -1.633908e+02   7.603825e+00
  -1.151234e+02  -1.270735e+02
  -8.080982e+00  -1.559707e+02
   1.000285e+02  -4.459000e+01
   6.767559e+01   2.635961e+01
  -7.000593e+01   1.860584e+01
  -1.137871e+02  -3.462433e+01
  -9.235665e+01  -1.244327e+02
   8.218586e+01  -1.039374e+02
   2.291054e+02  -4.841344e+01
   1.676234e+02   5.227291e+01
   5.006246e+01   8.907964e+01
  -5.250045e+01   5.538059e+01
  -5.432812e+01   3.479899e+00
   4.907314e+01  -2.922086e+01
   8.903404e+01   1.055765e+01
   5.973104e+01   1.106090e+02
  -8.702029e+01   1.290374e+02
  -1.683166e+02   5.038562e+01
  -1.332571e+02  -1.187881e+02
  -2.852382e+01  -2.076087e+02
   9.029117e+01  -1.464728e+02
   8.952136e+01   1.906876e+00
   6.383372e+01   1.273459e+02
   2.000568e+01   1.188999e+02
  -2.146935e+01   4.084936e+01
  -5.985557e+01  -5.359899e+01
   4.398236e+00  -1.958779e+01
  -1.497737e+01   7.381481e+00
  -4.773251e+01  -3.351932e+01
  -2.929677e+01  -7.154844e+01
  -2.539324e+01  -1.432015e+02
   2.731527e+01  -1.042453e+01
   1.134970e+02   4.692172e+01
   1.221754e+02   8.892687e+01
   4.016357e+01   3.278614e+01
  -1.004544e+02   1.865141e+01
  -5.770243e+01   2.911399e+00
  -1.083788e+01  -4.055956e-01
   2.885448e+01  -2.534102e+01
   3.325421e+01  -3.702476e+01
  -2.220147e+01  -8.546522e+00
   2.107059e+01  -6.414760e+00
   5.002400e+01   5.980138e+01
   8.453632e+01   1.367274e+01
  -1.679106e+01   6.908424e+01
  -1.535366e+02   1.334569e+02
  -1.976999e+02   6.145269e+01
  -1.874902e+02  -7.312804e+01
  -3.245931e+01  -1.596390e+02
   8.423166e+01  -1.646786e+02
   1.096377e+02  -3.381647e+01
   8.012542e+01   2.879276e+01
   7.288358e+00   5.257514e+01
   8.986110e+00   2.460711e+01
   1.898270e-01   1.126290e+01
   2.350976e+01   7.333957e+01
   2.770954e+01   1.090947e+02
  -3.705202e+01   7.519544e+01
  -6.671708e+01  -5.213455e+01
  -6.067555e+01  -1.153773e+02
   7.528005e+00  -8.540009e+01
   8.424456e+01  -1.621207e+01
   9.952794e+01   8.780140e+01
   3.207265e+01   1.071401e+02
  -1.121261e+02   7.109168e+01
  -9.229485e+01  -2.390247e+00
  -4.452335e+01  -5.040100e+01
   2.923704e+01  -4.567855e+01
   2.617667e+01  -3.655161e+01
  -5.887349e+01   7.482635e+00
  -8.851090e+01  -2.281117e+00
  -1.160341e+01  -1.517925e+01
   8.413151e+01  -5.857780e+01
   1.186300e+02  -5.589037e+01
   5.556329e+01   2.111587e+01
  -1.052271e+01   1.091825e+02
  -5.628194e+01   1.080830e+02
  -3.461483e+01  -1.878496e+01
  -1.157736e+01  -8.344489e+01
   2.751323e+01  -1.654839e+01
   6.973209e+01   2.616096e+01
   2.341437e+01   4.688707e+01
  -7.537963e+00   2.813225e+01
  -3.001172e+01  -8.738570e-01
  -4.029297e+01  -4.176728e+01
   4.428173e+00   7.668494e-01
   1.285960e+01  -5.804897e+00
   1.978022e+01   1.156494e+01
   1.906074e+00  -2.004137e+01
   3.387780e+00  -5.791068e+01
   3.071473e+01  -4.321699e+00
   6.601137e-01   4.058148e+01
  -1.636241e+01   6.251796e+01
  -7.359704e+01   2.875149e+01
  -6.977208e+01  -3.584098e+01
  -3.687689e+01  -6.740906e+01
   5.873971e+01  -3.121625e+01
   7.704558e+01   2.233850e+01
   5.161259e+01   3.546092e+01
  -4.271616e+01   4.299808e+01
  -7.028247e+01   1.176718e+01
  -4.096406e+01  -4.928365e+00
   3.248558e+01   1.822535e+01
   3.349572e+01   2.529838e+01
  -3.740725e+01   1.869115e+01
  -9.708266e+01   3.771456e+01
