
 $NMID
 id='ANONYMOUS ', fmtdat='(2E16.6)'
 volume=1.0
 tramp=1.0
 $END
  -4.788585e+03  -2.032640e+00
  -2.813259e+03  -2.873615e+03
   8.612023e+02  -3.140610e+03
   2.020087e+03  -9.679697e+02
   1.035423e+03   7.663144e+02
  -8.104723e+02   6.585485e+02
  -1.033820e+03  -5.144837e+02
  -5.794522e+01  -1.125148e+03
   8.835771e+02  -8.858858e+02
   1.081969e+03   1.299535e+02
   5.363915e+02   1.038802e+03
  -2.537759e+02   1.011268e+03
  -7.020800e+02   3.061041e+01
  -3.534481e+02  -7.921418e+02
   3.130560e+02  -7.872273e+02
   6.071375e+02   8.486524e-01
   3.240335e+02   7.463077e+02
  -3.720304e+02   6.647135e+02
  -6.089085e+02   6.474976e+01
  -3.763286e+02  -3.232379e+02
   2.277829e+01  -4.785097e+02
   2.973405e+02  -2.646949e+02
   2.206481e+02   5.589594e+00
  -9.663269e+01   1.035918e+02
  -3.633583e+02  -3.192248e+01
  -2.513500e+02  -4.602374e+02
   3.640689e+02  -4.845933e+02
   9.226246e+02   5.300010e+01
   4.324173e+02   5.763923e+02
  -3.683302e+02   5.393576e+02
  -8.103867e+02  -5.099351e+01
  -3.794795e+02  -5.214619e+02
   3.502122e+02  -6.356230e+02
   6.301723e+02  -1.790392e+02
   4.146112e+02   2.485158e+02
   8.797477e+01   5.168386e+02
  -2.179365e+02   3.149047e+02
  -1.968454e+02  -2.093636e+02
   1.761769e+02  -5.450641e+02
   4.932024e+02  -3.190041e+01
   2.878548e+02   7.698803e+02
  -3.200830e+02   7.699317e+02
  -6.505957e+02   4.685429e+01
  -3.591725e+02  -6.512523e+02
   2.661635e+02  -3.963868e+02
   4.379622e+02   2.966459e+02
  -6.720794e+01   5.746582e+02
  -5.889166e+02   2.367776e+02
  -6.753477e+02  -4.146077e+02
  -1.647638e+02  -6.244792e+02
   4.415191e+02  -3.759615e+02
   7.307669e+02   8.257861e+01
   4.010052e+02   4.275070e+02
  -1.930517e+02   3.955637e+02
  -4.171065e+02   7.342316e+01
  -2.839902e+02  -2.364595e+02
   1.664998e+02  -1.350731e+02
   1.099322e+02   1.911933e+02
  -1.834389e+02   2.146138e+02
  -3.349737e+02  -9.853930e+01
  -1.391865e+02  -3.418546e+02
   2.254851e+02  -2.903452e+02
   3.293659e+02  -3.882397e+01
   1.874621e+02   7.070968e+01
  -2.321365e+01   2.173096e+02
  -2.068280e+02   3.452641e+02
  -3.367458e+02   2.153951e+02
  -3.101082e+02  -1.116846e+02
  -1.209868e+02  -4.706945e+02
   1.622394e+02  -4.350311e+02
   1.464955e+02  -9.997121e+01
   3.775237e+01   6.324840e+01
   3.375129e+01  -9.837932e+01
   1.707059e+02  -1.585561e+02
   2.647422e+02   3.195997e+01
   1.734263e+02   2.756878e+02
  -7.389444e+01   2.676159e+02
  -2.311262e+02   5.179848e+01
  -2.353260e+02  -2.621413e+02
  -3.342491e+00  -3.351145e+02
   2.918510e+02  -1.552115e+02
   3.489091e+02   1.388314e+02
   2.027958e+02   3.650076e+02
  -1.421190e+02   3.348271e+02
  -2.201334e+02   1.119886e+02
  -1.229881e+02   1.043921e+01
  -8.865608e+01   4.400467e+01
  -2.567252e+02   7.460716e+01
  -4.270801e+02  -3.928769e+00
  -3.544923e+02  -3.133549e+02
  -6.789653e+00  -4.355709e+02
   3.377894e+02  -4.158609e+02
   4.700165e+02  -2.378383e+02
   3.597653e+02   2.068986e+01
   7.385264e+01   3.227642e+02
  -1.388134e+02   2.114742e+02
  -1.071116e+02   4.497172e+01
   1.080419e+02  -1.464941e+02
   2.040566e+02  -3.643204e+01
   6.125440e+01   2.253914e+02
  -1.931393e+02   1.976996e+02
  -1.952830e+02  -7.028509e+01
   1.123226e+01  -2.165065e+02
   2.249818e+02  -7.109820e+01
   1.861828e+02   2.192849e+02
  -5.200255e+01   3.612934e+02
  -2.307162e+02   1.690927e+02
  -3.177983e+02  -4.140931e+01
  -3.067909e+02  -2.462788e+02
  -1.281400e+02  -2.489378e+02
   7.868796e+01  -1.811272e+02
   1.787008e+02  -2.221966e+01
   4.155801e+01   2.574730e+01
  -6.568394e+01  -5.749294e+01
  -3.008210e+01  -1.396383e+02
   1.129375e+02  -8.864866e+01
   1.862216e+02   4.972617e+00
   5.344637e+01   7.674946e+01
  -8.760110e+01   2.433144e+01
  -5.002327e+01  -7.920886e+01
   1.370691e+02  -4.459083e+01
   2.807075e+02  -1.362702e+01
   2.810021e+02   1.203932e+02
   7.862897e+01   2.819051e+02
  -1.635569e+02   2.779935e+02
  -3.136985e+02   1.275937e+02
  -1.752101e+02  -5.072195e+01
   1.374913e+01  -8.885114e+01
   1.267649e+02  -4.001888e+01
  -4.299488e+01   1.023252e+02
  -1.784062e+02   5.460687e+01
  -2.063315e+02  -7.231121e+01
  -6.755932e+01  -2.100130e+02
   1.047760e+02  -1.666898e+02
   1.654332e+02  -5.534115e+01
   9.145262e+01   4.611985e+01
  -1.921389e+01   6.927075e-01
  -3.366067e+01  -6.322583e+01
   5.322280e+01  -9.569776e+01
   1.744010e+02  -2.627410e+01
   2.117118e+02   1.229985e+02
   1.568519e+01   2.149491e+02
  -1.656710e+02   1.642320e+02
  -1.837717e+02  -1.872159e+01
  -8.489738e+01  -1.193025e+02
   5.499743e+01  -1.162478e+02
   8.403632e+01  -1.088104e+01
   1.109620e+01  -4.121824e+00
  -7.270693e+00   1.572614e+01
   4.368370e-01  -2.288417e+01
   3.071206e+01   5.771442e+00
   8.982286e+01   6.862765e+01
   1.982109e+01   1.401203e+02
  -1.107831e+02   1.492573e+02
  -2.149529e+02   6.017960e+01
  -2.251095e+02  -1.507031e+02
  -1.810300e+01  -2.508451e+02
   1.035048e+02  -1.562926e+02
   1.676875e+02  -4.523527e+01
   7.637954e+01   6.178639e+01
   2.753167e+01   3.022287e+01
   3.934217e+01   2.494072e+00
   7.751699e+01  -2.626415e+01
   3.057427e+01   4.697846e+01
  -4.991937e+01   9.079418e+01
  -9.877691e+01   5.390528e+01
  -7.445316e+01  -4.288876e+01
   7.948900e+00  -1.108720e+02
   1.416784e+02  -9.002328e+01
   1.783330e+02   5.186441e+01
   1.238802e+02   1.876826e+02
  -1.173372e+02   2.134642e+02
  -2.657796e+02   9.829426e+01
  -2.801887e+02  -8.417258e+01
  -1.320780e+02  -1.714262e+02
   2.010321e+01  -1.418827e+02
   1.155827e+02  -6.847587e+01
   1.083010e+02  -8.973723e+01
   6.634566e+01  -9.592975e+01
   9.418289e+01  -7.246199e+01
   1.264736e+02   2.846630e+01
   1.031723e+02   1.459859e+02
   2.171308e+01   2.152303e+02
  -1.010648e+02   1.705373e+02
  -1.484091e+02   9.468062e+00
  -1.240603e+02  -9.850397e+01
  -3.885306e+01  -1.422060e+02
   8.000633e+01  -9.686180e+01
   6.597076e+01  -7.343025e+00
   2.119829e+01   4.366731e+01
   1.312461e+01   3.389209e+01
   4.143367e+01  -6.656541e+00
   6.020543e+01   3.638059e+01
   6.695287e+01   3.718926e+01
  -6.723010e+01   3.762568e+01
  -1.610509e+02   8.266374e+00
  -1.410478e+02  -4.195449e+01
  -1.144836e+01  -8.290507e+01
   9.679788e+01  -1.172134e+02
   1.112073e+02  -1.498175e+01
   5.932813e+01   5.660350e+01
  -6.610208e+01   2.389670e+01
  -5.887580e+01  -1.577018e+01
   1.189277e+01  -6.761644e+01
   1.830540e+01  -5.604972e+01
   8.946447e+01  -5.559427e+00
   4.164841e+01   5.147271e+01
   5.824868e+01   5.042638e+01
   6.689400e+01   8.779360e+00
   6.008562e+01  -2.142620e+01
   2.345882e+01   4.168674e+01
  -1.836143e+01   1.424276e+02
  -1.113040e+02   1.579792e+02
  -1.643069e+02   2.474091e+01
  -1.287884e+02  -8.866498e+01
  -4.939923e+00  -9.991665e+01
   1.020798e+02  -8.212915e+01
   7.532632e+01   2.459484e+01
  -8.284974e+01   7.418328e+00
  -1.317922e+02  -4.487010e+01
  -1.004612e+02  -9.710703e+01
   7.032375e+01  -1.170649e+02
   1.906478e+02  -5.944674e+01
   1.890109e+02   2.938283e+01
   3.382730e+01   9.792581e+01
  -4.638782e+01   6.361187e+01
  -5.908840e+01  -1.373244e+00
   3.846114e+01  -2.993612e+01
   8.243833e+01   3.534021e+01
   4.068315e+01   9.459045e+01
  -8.619433e+01   1.419426e+02
  -1.569614e+02   6.325962e+01
  -1.213623e+02  -1.068499e+02
  -2.455490e+01  -1.935598e+02
   1.038426e+02  -1.599442e+02
   9.882947e+01   2.102111e+01
   9.643998e+01   1.240326e+02
   1.624159e+01   9.321380e+01
  -5.242707e+01   1.505277e+01
  -5.238615e+01  -5.086911e+01
  -3.194762e+01   6.394499e+00
  -1.199738e+01   2.705756e+01
  -7.928227e+00  -2.654878e+01
  -8.265857e+01  -7.944099e+01
  -3.746114e+01  -1.220027e+02
   3.947148e+01  -3.682046e+01
   1.268479e+02   7.427312e+01
   1.407864e+02   8.621987e+01
  -2.462490e+00   5.598555e+01
  -9.642801e+01   5.527929e+01
  -9.542514e+01   1.430236e+01
  -1.716579e+01  -2.294122e+01
   2.532339e+01  -2.324231e+01
   1.048733e+01  -2.350903e+01
  -1.540802e+01  -3.195208e+00
  -7.922678e+00   3.648356e+00
   6.021603e+01   4.065421e+00
   9.510648e+01   3.913325e+01
  -2.341082e+01   9.296384e+01
  -1.289523e+02   1.447632e+02
  -1.855062e+02   7.191888e+01
  -1.630328e+02  -1.012949e+02
  -2.608640e+01  -1.627648e+02
   8.316041e+01  -1.214842e+02
   1.074030e+02  -7.709518e+01
   8.522328e+01   1.463598e+01
   2.775044e+01   2.409765e+01
   2.400600e+01   3.883997e+01
   2.726210e+01   2.715399e+01
   2.443500e+01   5.271952e+01
   3.308392e+01   6.208639e+01
  -4.048322e+01   6.340888e+01
  -7.859062e+01  -2.874532e+00
  -5.629709e+01  -1.337224e+02
   1.693418e+01  -9.189554e+01
   6.769743e+01  -2.897100e+01
   1.099835e+02   9.390965e+01
   3.099234e+01   8.463024e+01
  -4.931189e+01   4.590212e+01
  -7.723968e+01  -3.687327e+01
  -1.548306e+01  -7.174095e+01
   5.921047e+01  -6.408440e+01
   3.333563e+01  -5.313391e+00
  -3.331662e+01   1.332061e+01
  -3.440447e+01   4.754761e+00
   2.826938e+00   1.250555e+00
   6.693112e+01  -7.066601e+01
   1.148081e+02  -8.730673e+01
   6.417567e+01  -5.815147e+00
  -2.520947e+01   9.551033e+01
  -7.575310e+01   6.985163e+01
  -3.339805e+01   9.084237e+00
   3.304409e+01  -4.798538e+01
   5.467270e+01  -3.444358e+01
   5.209043e+01   1.235576e+01
   5.082853e+01   4.743227e+01
  -4.917161e-01   4.557396e+01
  -1.553394e+01   4.451253e+00
  -4.211167e+01  -4.781423e+01
  -1.479053e+01  -2.542503e+01
  -2.883399e+00   7.674261e+00
   8.228637e+00  -1.583027e+00
   1.167087e+01  -3.155470e+01
   4.419517e+01  -3.091018e+01
   1.629549e+01   4.132690e+01
   2.463355e+01   5.244423e+01
  -2.095935e+01   4.758330e+01
  -3.636119e+01   2.396050e+01
  -5.918739e+01  -5.508364e+01
  -7.622049e+00  -7.360205e+01
   5.457436e+01  -1.827649e+01
   8.514196e+01   7.474539e+00
   7.669422e+01   2.335127e+01
  -1.381999e+01   5.671661e+01
  -4.955838e+01   3.793969e+01
  -8.061695e+00  -2.748213e+01
   4.416686e+01  -1.470360e+01
   3.624681e+01   9.219794e+00
  -5.151697e+01   2.412206e+01
  -7.403151e+01   1.866489e+01
