
 $NMID
 id='ANONYMOUS ', fmtdat='(2E16.6)'
 volume=1.0
 tramp=1.0
 $END
  -4.435190e+03  -1.545487e+02
  -2.593966e+03  -2.490210e+03
   9.672126e+02  -2.891293e+03
   2.153534e+03  -6.834710e+02
   9.269789e+02   9.379478e+02
  -7.146380e+02   5.715463e+02
  -8.620777e+02  -5.433077e+02
   4.084416e+01  -1.073073e+03
   8.706503e+02  -8.800214e+02
   1.017239e+03   1.487566e+02
   5.283843e+02   8.809344e+02
  -3.173240e+02   9.435511e+02
  -6.680052e+02   2.116902e+01
  -4.144420e+02  -8.387999e+02
   3.266597e+02  -7.263379e+02
   6.243530e+02   1.118057e+02
   2.105858e+02   7.006624e+02
  -3.748035e+02   6.205452e+02
  -6.189555e+02   7.030559e+01
  -3.416108e+02  -4.215475e+02
   2.021549e+01  -4.464950e+02
   2.347541e+02  -2.197011e+02
   2.399628e+02  -4.640737e+00
  -1.210777e+02   1.462874e+02
  -4.561121e+02  -5.600634e+01
  -2.368756e+02  -4.148894e+02
   4.776132e+02  -5.023201e+02
   9.440016e+02   5.817961e+01
   4.564427e+02   6.105971e+02
  -3.884689e+02   5.746626e+02
  -7.615062e+02  -4.877568e+01
  -3.565392e+02  -5.109670e+02
   2.975430e+02  -4.909689e+02
   6.031429e+02  -1.654247e+02
   3.821472e+02   2.721154e+02
   4.868498e+01   4.678177e+02
  -2.443076e+02   2.816366e+02
  -2.449705e+02  -2.793229e+02
   2.116028e+02  -4.697894e+02
   4.610850e+02  -4.064892e+00
   3.038348e+02   7.089484e+02
  -3.618504e+02   7.322452e+02
  -6.583328e+02   5.701955e+00
  -2.926540e+02  -5.934697e+02
   3.444559e+02  -3.590423e+02
   4.274962e+02   3.066253e+02
  -4.610419e+01   5.583963e+02
  -5.509011e+02   1.590156e+02
  -6.251391e+02  -4.196002e+02
  -1.547095e+02  -5.630190e+02
   3.972026e+02  -3.541026e+02
   6.663069e+02   8.763544e+01
   3.810739e+02   4.130916e+02
  -1.903457e+02   3.678383e+02
  -4.839756e+02   4.830746e+01
  -1.808008e+02  -2.329620e+02
   1.690546e+02  -1.096424e+02
   1.738347e+02   1.632260e+02
  -1.682721e+02   2.007476e+02
  -3.382078e+02  -9.349184e+01
  -1.519717e+02  -3.248535e+02
   1.958080e+02  -2.519617e+02
   3.420829e+02  -4.653068e+01
   1.743639e+02   9.012946e+01
  -7.897234e+01   2.015409e+02
  -2.365324e+02   2.964390e+02
  -3.518605e+02   2.091228e+02
  -2.742061e+02  -1.147656e+02
  -8.479071e+01  -4.417937e+02
   9.372601e+01  -3.932945e+02
   1.607320e+02  -1.149305e+02
   1.048296e+01   5.234684e+01
   4.199985e+01  -7.702052e+01
   1.945720e+02  -1.247776e+02
   3.083318e+02   2.403537e+01
   1.740924e+02   2.671970e+02
  -8.021048e+01   2.775777e+02
  -2.288615e+02   4.554505e+00
  -1.718788e+02  -2.401003e+02
   3.774511e+01  -2.872937e+02
   2.486234e+02  -1.465161e+02
   3.217320e+02   1.465137e+02
   2.022086e+02   3.975058e+02
  -9.777359e+01   2.683143e+02
  -2.536174e+02   1.474107e+02
  -9.840858e+01  -1.232540e+01
  -7.468042e+01   1.935569e+00
  -2.083191e+02   5.894620e+01
  -3.809995e+02  -6.750204e+01
  -3.268975e+02  -2.693784e+02
  -4.099544e+00  -4.402351e+02
   4.011230e+02  -4.020068e+02
   4.750005e+02  -2.266944e+02
   3.311698e+02   7.098966e+01
   7.552366e+01   2.864407e+02
  -1.176040e+02   2.341359e+02
  -1.177085e+02   3.771017e+01
   8.462584e+01  -1.151432e+02
   2.387280e+02  -2.333665e+00
   4.363025e+01   2.211438e+02
  -1.316314e+02   1.795496e+02
  -1.995557e+02  -6.676156e+01
  -2.725805e+00  -2.332936e+02
   1.966801e+02  -5.502132e+01
   1.488056e+02   2.409540e+02
  -4.746610e+01   3.391901e+02
  -1.974263e+02   1.682508e+02
  -3.282788e+02  -5.724203e+01
  -2.667323e+02  -2.095483e+02
  -9.250675e+01  -2.647089e+02
   1.096401e+02  -1.655343e+02
   1.842940e+02  -1.983488e+01
   7.046169e+01   2.381287e+01
  -6.836840e+01  -7.645343e+00
  -3.916964e+01  -1.212984e+02
   1.523277e+02  -1.089532e+02
   2.008017e+02   7.694650e+00
   8.255982e+01   6.743448e+01
  -6.891389e+01   5.856401e+01
  -6.469266e+01  -5.507017e+01
   8.777422e+01  -5.336770e+01
   2.628023e+02  -8.040212e-01
   2.635025e+02   1.165486e+02
   5.919267e+01   2.399612e+02
  -2.049541e+02   2.775225e+02
  -2.513496e+02   1.200580e+02
  -1.739834e+02  -6.755062e+01
   1.118662e+01  -1.069846e+02
   9.820373e+01  -1.074440e+01
  -5.324751e+01   7.081117e+01
  -1.893068e+02   4.551710e+01
  -2.066035e+02  -1.053573e+02
  -4.496965e+01  -2.148964e+02
   6.323022e+01  -1.588898e+02
   1.329544e+02  -3.747183e+01
   8.827720e+01   2.647513e+01
   1.470892e+00   2.206102e+01
  -1.905926e+01  -8.782420e+01
   7.289237e+01  -1.186850e+02
   1.887555e+02  -2.493269e+01
   1.803054e+02   1.405871e+02
   2.993428e+01   2.070998e+02
  -1.653052e+02   1.707318e+02
  -1.855066e+02  -8.152470e+00
  -9.136555e+01  -1.034212e+02
   3.944664e+01  -1.205098e+02
   9.453691e+01  -4.025623e+01
   2.170750e+01   1.340157e+01
  -1.940146e+00   1.944428e+01
   2.996502e+01  -1.839897e+01
   4.632499e+01   8.685218e+00
   8.147784e+01   9.761698e+01
   4.347165e+01   1.470807e+02
  -8.310309e+01   1.764349e+02
  -2.626233e+02   2.486057e+01
  -1.925691e+02  -1.581169e+02
  -3.227671e+01  -2.456236e+02
   1.111117e+02  -1.810137e+02
   1.512372e+02  -2.922900e+01
   7.418225e+01   3.245775e+01
   3.268240e+01   6.116947e+01
   5.325811e+01   2.242449e+00
   8.378868e+01  -2.339159e+01
   2.011501e+01   5.732271e+01
  -5.993236e+01   9.337192e+01
  -9.683067e+01   7.013856e+01
  -6.842372e+01  -1.264209e+01
   1.007427e+00  -9.096282e+01
   1.214917e+02  -6.813368e+01
   1.782209e+02   4.792555e+01
   1.169875e+02   1.783205e+02
  -1.266637e+02   2.182760e+02
  -2.507103e+02   1.349041e+02
  -2.671769e+02  -1.084390e+02
  -9.991099e+01  -1.581109e+02
   6.649474e+01  -1.766593e+02
   1.202213e+02  -1.194416e+02
   7.504320e+01  -9.269921e+01
   6.654264e+01  -1.111797e+02
   7.290331e+01  -6.158346e+01
   1.224534e+02  -5.197410e+00
   1.167063e+02   1.366018e+02
   6.121669e+01   2.463993e+02
  -9.208566e+01   1.742411e+02
  -1.891819e+02  -2.882844e+00
  -1.450669e+02  -1.492536e+02
  -2.695690e+01  -1.445378e+02
   5.930451e+01  -7.548003e+01
   7.158221e+01  -8.622077e+00
  -1.528669e+00   5.232720e+01
   5.147037e+00   5.517686e+01
   6.696835e+01   2.247127e+01
   8.267806e+01  -1.675985e+00
   3.207696e+01   2.239176e+01
  -6.124787e+01   9.159039e+00
  -1.483486e+02  -9.307213e+00
  -1.320575e+02  -2.506442e+01
   3.147762e+00  -8.261430e+01
   1.136263e+02  -6.981998e+01
   1.800411e+02   7.484832e+00
   4.177379e+01   6.792719e+01
  -9.541880e+00   3.218052e+01
  -8.108938e+01  -9.752725e+00
  -1.974348e+01  -1.015018e+02
   5.058862e+01  -4.598438e+01
   6.230851e+01   1.298432e+01
   4.291155e+01   4.502605e+01
   6.752782e+01   4.282371e+01
   5.637884e+01   3.454876e+00
   6.106681e+01  -1.887191e+00
   2.004214e+01   6.068376e+01
  -4.061637e+01   1.716458e+02
  -1.230652e+02   1.534789e+02
  -1.475155e+02   7.235141e+01
  -1.123978e+02  -9.497987e+01
  -1.387542e+01  -1.059798e+02
   9.258826e+01  -3.271671e+01
   7.323489e+01  -4.990061e+00
  -5.744271e+01  -3.549264e+00
  -1.423236e+02  -7.337744e+01
  -6.856539e+01  -1.037015e+02
   1.029143e+02  -1.080492e+02
   1.822382e+02  -3.881304e+01
   1.623706e+02   8.884862e+00
   4.406833e+01   5.891162e+01
  -6.464089e+01   7.315417e+01
  -5.133951e+01   1.436659e+01
   5.434070e+01  -2.172116e+01
   7.839759e+01   1.191939e+01
   4.192958e+01   1.203899e+02
  -9.264970e+01   1.368212e+02
  -1.750751e+02   7.226012e+01
  -1.099902e+02  -1.182282e+02
  -5.938066e+00  -2.085472e+02
   8.329427e+01  -1.114962e+02
   9.318459e+01  -9.813929e+00
   4.571165e+01   8.559893e+01
  -1.402298e+01   1.219600e+02
  -4.834714e+01   7.260829e+00
  -7.505658e+01  -4.064558e+01
  -2.449314e+01  -4.769993e+01
   3.262907e+01   3.211896e+01
  -1.504408e+01  -5.179701e+00
  -5.559353e+01  -8.852642e+01
  -5.752113e+01  -9.105429e+01
   4.861540e+01  -3.403634e+01
   1.504200e+02   5.279234e+01
   1.509631e+02   6.240329e+01
  -1.064381e+01   4.889100e+01
  -9.392306e+01   5.875819e+00
  -1.059309e+02   5.350535e+00
  -7.674413e+00  -2.077193e+01
   3.670260e+01  -2.466117e+01
  -1.800970e+00   3.051772e+00
  -1.949739e+01  -8.945297e+00
   9.835831e+00  -6.176099e+00
   9.703574e+01  -3.168706e+00
   7.212492e+01   3.363234e+01
  -4.580625e+00   1.008814e+02
  -1.323636e+02   7.599488e+01
  -1.907877e+02   4.889738e+01
  -1.346235e+02  -5.800956e+01
  -2.508580e+01  -1.539548e+02
   5.152701e+01  -1.420788e+02
   1.054475e+02  -2.127591e+01
   9.978029e+01   3.786766e+01
   1.558053e+01   6.185296e+01
  -2.080481e+01   1.383122e+01
   5.146389e-01  -2.807448e+01
   2.923732e+01   4.807552e+01
   3.415718e+01   8.595881e+01
  -2.824597e+01   9.061269e+01
  -8.611988e+01  -4.178128e+01
  -8.088311e+01  -1.252226e+02
   1.010460e+00  -8.559530e+01
   9.840339e+01  -1.281127e+01
   8.178793e+01   7.762872e+01
   1.259650e+01   1.263637e+02
  -4.552597e+01   4.270923e+01
  -1.114771e+02  -3.378472e+01
  -2.316818e+01  -5.622420e+01
   4.189012e+01  -3.632769e+01
   3.405569e+01  -3.532495e+01
  -2.020223e+01  -1.022613e+01
  -5.789248e+01   1.537256e+01
  -4.665914e+00  -2.142493e+01
   5.318776e+01  -6.304473e+01
   1.348682e+02  -6.239324e+01
   6.908653e+01   2.151134e+01
  -1.183572e+01   8.153269e+01
  -4.456201e+01   6.049479e+01
  -3.068811e+01   8.723176e+00
   1.173592e+01  -5.284805e+01
   2.282586e+01  -3.922378e+01
   2.567927e+01   3.087964e+01
   1.736794e+01   5.711640e+01
  -1.185341e+01   3.195941e+01
  -4.500393e+01  -1.567932e+00
  -5.438323e+01  -2.854230e+01
  -4.517740e+00   1.697854e+01
   1.024929e+00   1.673838e+00
   1.499854e+01   1.695603e+01
  -1.162640e+00  -3.821638e+01
   3.453203e+01  -3.843849e+01
   2.301088e+00  -1.091234e+01
   2.248119e+01   4.821919e+01
  -1.447534e-01   4.569716e+01
  -4.000986e+01   4.241796e+01
  -3.436442e+01  -2.708979e+01
   1.501954e-01  -4.630182e+01
   3.431178e+01  -3.864561e+01
   8.520190e+01   2.430891e+01
   3.500128e+01   4.957121e+01
  -2.404256e+01   4.288416e+01
  -5.458997e+01   2.820754e+01
  -1.841390e+01   1.154608e+01
   2.607382e+01  -1.005744e+01
   4.334602e+01   3.193610e+01
  -1.785845e+01   3.800438e+01
  -1.262657e+02   1.695626e-01
