
 $NMID
 id='ANONYMOUS ', fmtdat='(2E16.6)'
 volume=1.0
 tramp=1.0
 $END
  -4.414193e+03  -3.012087e+02
  -2.574773e+03  -2.682129e+03
   1.159517e+03  -2.792436e+03
   2.054635e+03  -7.350649e+02
   1.003486e+03   8.958832e+02
  -8.731517e+02   5.005265e+02
  -9.421937e+02  -6.096315e+02
   1.321546e+02  -1.147272e+03
   8.918165e+02  -9.196447e+02
   1.093464e+03   1.594725e+02
   5.402427e+02   1.002124e+03
  -3.001305e+02   9.198911e+02
  -6.936495e+02   4.691112e+01
  -4.416650e+02  -8.144011e+02
   2.857136e+02  -7.938599e+02
   6.246825e+02   5.467617e+01
   2.494438e+02   7.055141e+02
  -3.546800e+02   6.326697e+02
  -6.254548e+02   5.508111e+01
  -3.577479e+02  -3.643031e+02
   2.199316e+01  -4.677209e+02
   2.833409e+02  -2.545963e+02
   2.261425e+02  -6.753638e+00
  -9.400839e+01   1.260744e+02
  -4.987666e+02  -8.129324e+01
  -2.088848e+02  -4.624363e+02
   4.948616e+02  -5.216131e+02
   9.989196e+02   1.051247e+02
   3.921343e+02   6.374353e+02
  -4.308557e+02   5.698421e+02
  -8.254085e+02  -3.256383e+01
  -3.810263e+02  -5.684143e+02
   3.530285e+02  -5.561406e+02
   6.365425e+02  -2.081808e+02
   4.391025e+02   2.586549e+02
   9.622518e+00   5.358288e+02
  -2.979314e+02   2.610541e+02
  -2.658800e+02  -2.847938e+02
   2.056025e+02  -5.052889e+02
   5.129331e+02   3.592300e+01
   2.784593e+02   7.515369e+02
  -3.903330e+02   6.869093e+02
  -6.488303e+02  -3.532244e+01
  -2.696542e+02  -6.160395e+02
   3.351802e+02  -3.068762e+02
   4.411915e+02   3.231249e+02
  -9.308245e+01   5.609750e+02
  -5.729452e+02   1.569718e+02
  -6.118828e+02  -4.202934e+02
  -1.677639e+02  -6.186997e+02
   4.867768e+02  -3.543629e+02
   6.483191e+02   1.365404e+02
   3.407859e+02   4.272529e+02
  -2.104739e+02   3.476605e+02
  -5.095308e+02   6.545465e+01
  -2.420284e+02  -2.062595e+02
   1.409696e+02  -1.091178e+02
   1.485378e+02   1.726431e+02
  -2.049653e+02   1.959487e+02
  -3.685630e+02  -1.112595e+02
  -1.396189e+02  -3.068524e+02
   2.215477e+02  -2.707107e+02
   3.386954e+02  -8.315854e+01
   1.948827e+02   8.181931e+01
  -2.725729e+01   2.076223e+02
  -2.007395e+02   3.265460e+02
  -3.511854e+02   2.264630e+02
  -3.177693e+02  -1.676905e+02
  -1.286892e+02  -4.804766e+02
   1.662877e+02  -4.073854e+02
   1.674469e+02  -1.092037e+02
   2.756151e+01   4.125231e+01
  -8.507443e+00  -1.073473e+02
   2.296279e+02  -1.662320e+02
   3.191351e+02   3.520426e+01
   1.780119e+02   3.144156e+02
  -8.624566e+01   2.882081e+02
  -2.857656e+02   4.256037e+00
  -2.266487e+02  -2.840269e+02
   2.214686e+01  -3.279073e+02
   2.732187e+02  -1.631643e+02
   3.807940e+02   1.628131e+02
   1.327300e+02   3.881039e+02
  -1.431067e+02   2.901340e+02
  -2.376991e+02   8.326744e+01
  -1.659764e+02   1.680076e+00
  -8.193407e+01   2.584247e+01
  -2.679658e+02   1.014523e+02
  -3.964903e+02  -6.260831e+01
  -3.474009e+02  -2.934909e+02
   1.806084e+01  -4.488355e+02
   3.983461e+02  -4.639289e+02
   5.141352e+02  -1.988492e+02
   3.632786e+02   7.800568e+01
   5.232531e+01   2.969006e+02
  -1.473952e+02   2.742064e+02
  -8.706879e+01   1.837867e+00
   1.357420e+02  -1.087988e+02
   2.363219e+02  -5.265677e+01
   3.168798e+01   2.061583e+02
  -1.927965e+02   2.177015e+02
  -1.878664e+02  -1.012143e+02
   2.698469e+00  -1.795123e+02
   2.126033e+02  -2.491290e+01
   1.589847e+02   2.330423e+02
  -5.223481e+01   3.620515e+02
  -2.073117e+02   2.045509e+02
  -3.675670e+02  -6.556896e+01
  -2.649275e+02  -2.682069e+02
  -1.125908e+02  -2.807806e+02
   1.075147e+02  -1.631177e+02
   2.198906e+02  -4.379245e+00
   6.836880e+01   2.712844e+01
  -8.410091e+01  -4.506918e+01
  -4.189693e+01  -1.559008e+02
   1.150868e+02  -9.078023e+01
   1.949367e+02   2.718943e+01
   5.209919e+01   8.909453e+01
  -8.681993e+01   2.924043e+01
  -6.305390e+01  -6.840835e+01
   1.332875e+02  -7.337869e+01
   2.878950e+02  -2.390459e+01
   2.865854e+02   1.076729e+02
   9.955169e+01   2.801636e+02
  -1.937810e+02   2.592715e+02
  -2.995692e+02   1.372684e+02
  -1.927642e+02  -5.216646e+01
   2.054759e+01  -1.101220e+02
   1.141441e+02  -2.506577e+01
  -6.648060e+01   1.396089e+02
  -1.876247e+02   8.536011e+01
  -2.067100e+02  -1.010132e+02
  -5.758489e+01  -1.916797e+02
   8.983565e+01  -1.789914e+02
   1.453471e+02  -2.661889e+01
   7.851189e+01   3.740811e+01
  -4.451592e+01   8.017260e+00
  -5.475572e+01  -7.752688e+01
   7.756652e+01  -1.355441e+02
   1.844184e+02  -1.578697e+01
   2.082795e+02   1.064929e+02
   2.394358e+01   2.216139e+02
  -1.498742e+02   1.739045e+02
  -1.718364e+02  -5.891990e+00
  -7.986873e+01  -1.514665e+02
   8.586370e+01  -1.302697e+02
   7.721976e+01  -2.299496e+01
   3.144456e+01   1.467472e+01
  -2.655623e+01   3.103725e+01
   1.605968e+01  -2.478849e+01
   7.204778e+01   5.706533e+00
   1.158253e+02   4.616121e+01
   1.618722e+01   1.777360e+02
  -1.132604e+02   1.620269e+02
  -2.650671e+02   3.603724e+01
  -2.228150e+02  -1.647290e+02
  -3.386689e+01  -2.153340e+02
   1.227916e+02  -1.562117e+02
   1.705773e+02  -2.047109e+01
   8.941255e+01   4.997140e+01
   3.524156e+01   5.464444e+01
   4.642269e+01  -1.671282e+01
   8.348370e+01  -2.166409e+01
   5.513073e+01   1.689726e+01
  -7.207749e+01   7.135679e+01
  -5.964956e+01   9.179507e+01
  -9.584145e+01  -3.782590e+01
   6.604993e+00  -9.318040e+01
   1.325163e+02  -8.582674e+01
   2.034921e+02   6.817204e+01
   1.372432e+02   1.753466e+02
  -8.301748e+01   2.263615e+02
  -2.528110e+02   1.058602e+02
  -2.603308e+02  -1.103554e+02
  -1.199782e+02  -1.722858e+02
   4.039409e+01  -1.518986e+02
   1.192252e+02  -7.618383e+01
   1.088614e+02  -3.029654e+01
   4.085433e+01  -9.145185e+01
   1.028115e+02  -6.938788e+01
   1.145797e+02   2.803653e+01
   1.306561e+02   1.459007e+02
   6.927767e+01   2.460841e+02
  -9.353986e+01   1.686105e+02
  -2.075896e+02   2.996365e+01
  -1.331901e+02  -1.249530e+02
  -1.428058e+01  -1.789046e+02
   5.944617e+01  -1.242822e+02
   6.446221e+01  -1.023948e+01
   1.092616e+01   7.488207e+01
  -1.303763e+00   3.106910e+01
   1.573182e+01  -2.250516e+00
   7.004201e+01   3.785292e+01
   5.287144e+01   5.944282e+01
  -4.884395e+01   5.488387e+01
  -1.805665e+02   9.564656e-01
  -1.171510e+02  -4.699744e+01
  -3.656910e+01  -5.717858e+01
   1.306373e+02  -6.885816e+01
   1.610294e+02  -2.056864e+01
   5.815243e+01   3.114543e+01
  -6.736154e+01   2.424288e+01
  -8.134143e+01  -2.099717e+01
  -1.991224e+01  -5.857121e+01
   5.818032e+01  -5.818827e+01
   4.576480e+01   8.024668e+00
   3.375976e+01   7.511100e+01
   4.623750e+01   3.124606e+01
   8.322881e+01   1.140994e+01
   5.308354e+01   1.744307e+01
   2.777868e+01   6.196557e+01
  -1.474381e+01   1.682872e+02
  -1.076796e+02   1.155201e+02
  -1.554381e+02   2.356986e+01
  -1.137024e+02  -1.353249e+02
   9.035651e+00  -1.207532e+02
   9.133430e+01  -7.042181e+01
   7.047497e+01   2.033206e+01
  -4.351198e+01   2.019643e+01
  -1.467629e+02  -3.461607e+01
  -6.392000e+01  -9.544125e+01
   7.597378e+01  -1.161912e+02
   1.882470e+02  -5.301846e+01
   1.670560e+02   2.880972e+01
   2.566407e+01   6.182137e+01
  -5.801673e+01   8.252555e+01
  -3.736339e+01   1.196912e+01
   2.361379e+01  -4.180940e+00
   6.688598e+01   8.844050e+00
   9.765301e+00   1.498371e+02
  -1.037577e+02   1.521874e+02
  -1.781315e+02   6.035613e+01
  -1.013446e+02  -1.025989e+02
   1.360055e+00  -1.809228e+02
   6.075834e+01  -1.263913e+02
   1.059453e+02   1.398409e+01
   7.116316e+01   8.432680e+01
   1.105379e+01   1.146608e+02
  -2.603033e+01   1.010920e+01
  -6.101430e+01  -5.796187e+01
  -2.893835e+00  -1.474480e+01
  -1.895076e+01   3.787199e+01
  -4.779115e+01  -3.186414e+01
  -4.477642e+01  -9.612837e+01
  -4.766832e+01  -1.304055e+02
   5.410095e+01  -3.415213e+01
   1.283509e+02   3.664374e+01
   1.228990e+02   8.829261e+01
   3.857050e+01   5.460553e+01
  -8.178003e+01  -4.488317e-01
  -9.520703e+01   5.126845e+00
  -1.773679e+01  -5.067256e+01
   3.810089e+01   8.866506e+00
  -5.100138e+00  -2.474866e+01
  -2.719235e+01   6.660916e+00
  -6.396583e+00  -1.783937e+00
   7.861377e+01  -4.730157e+00
   8.577517e+01   3.229776e+01
   9.859109e+00   8.607544e+01
  -1.359031e+02   1.115418e+02
  -1.856567e+02   4.289691e+01
  -1.295949e+02  -7.789263e+01
  -1.860976e+01  -1.609203e+02
   8.411465e+01  -1.424358e+02
   9.980393e+01  -6.536587e+01
   9.455208e+01   2.527888e+01
   8.622380e+00   3.127767e+01
   2.689618e+00   1.405571e+01
   1.715306e+01  -8.459792e+00
   2.164454e+01   4.595720e+01
   1.836560e+01   9.983714e+01
  -4.548569e+01   7.409774e+01
  -7.062800e+01  -2.072401e+01
  -9.402404e+01  -1.220922e+02
   3.040188e+00  -1.288925e+02
   1.041468e+02   6.605120e+00
   1.071214e+02   7.624958e+01
   3.987452e+01   1.207791e+02
  -6.233143e+01   6.865375e+01
  -1.178300e+02  -7.872322e+00
  -1.450048e+01  -8.178503e+01
   5.245557e+01  -6.998783e+01
   3.165125e+01  -1.617830e+01
  -2.882763e+01   1.363570e+01
  -5.311739e+01   2.182885e+01
  -1.392919e+01  -3.149489e+01
   6.124215e+01  -8.964218e+01
   1.163159e+02  -6.821973e+01
   5.467461e+01  -2.710815e+01
  -2.248594e+01   1.082776e+02
  -5.414864e+01   9.442534e+01
  -4.276943e+01   1.617341e+01
  -2.935927e+01  -6.475052e+01
   2.382024e+01  -7.165505e+01
   4.944624e+01   6.213276e+00
   2.905121e+01   4.980075e+01
  -2.776145e+01   3.842247e+01
  -8.724450e+00  -1.403614e+01
  -2.658756e+01  -4.050792e+01
   7.975518e+00  -8.616895e+00
   2.076334e+01   2.597198e+01
   1.657645e+01   1.355267e+00
  -9.522717e+00  -2.069999e+01
   6.181473e+00  -3.357039e+01
   2.261976e+01  -1.701826e+01
   6.266982e+00   2.863205e+01
   1.080027e+01   6.545003e+01
  -5.222920e+01   9.385692e+00
  -4.396444e+01  -2.684705e+01
  -1.362055e+01  -6.788630e+01
   5.963967e+01  -1.781780e+01
   6.820304e+01   2.288379e+01
   5.196783e+01   5.488308e+01
  -2.837416e+01   5.347492e+01
  -7.798978e+01  -7.809073e-01
  -1.016012e+01  -4.906682e+00
   4.415216e+01   2.091539e+01
   4.928563e+01   2.844446e+01
  -2.859193e+01   4.142406e+01
  -8.288906e+01   2.008695e+01
