
 $NMID
 id='ANONYMOUS ', fmtdat='(2E16.6)'
 volume=1.0
 tramp=1.0
 $END
  -4.229884e+03   2.572093e+01
  -2.729948e+03  -2.382553e+03
   1.026560e+03  -2.895161e+03
   2.022040e+03  -7.741399e+02
   8.915816e+02   7.774875e+02
  -7.615132e+02   4.333506e+02
  -8.925252e+02  -5.623532e+02
   6.455944e+01  -1.110305e+03
   7.556625e+02  -8.359602e+02
   9.413996e+02   1.455577e+02
   4.554073e+02   8.692505e+02
  -2.040998e+02   9.397067e+02
  -6.452803e+02   6.421817e+01
  -3.407549e+02  -6.855944e+02
   2.145941e+02  -7.276602e+02
   5.855761e+02   1.391633e+01
   2.261966e+02   6.799337e+02
  -3.353864e+02   6.048107e+02
  -6.312285e+02   7.092265e+01
  -4.033840e+02  -3.561230e+02
   2.185247e+01  -4.302520e+02
   2.221940e+02  -2.393731e+02
   2.217060e+02  -2.741583e+00
  -9.694701e+01   1.264046e+02
  -3.901119e+02  -6.681248e+01
  -2.441960e+02  -3.967076e+02
   4.281465e+02  -4.798722e+02
   8.612693e+02   9.276674e+01
   4.205824e+02   5.709784e+02
  -3.842123e+02   5.291957e+02
  -6.928272e+02   7.297693e+00
  -3.509663e+02  -5.140626e+02
   2.865416e+02  -4.780821e+02
   5.741993e+02  -2.347695e+02
   3.901863e+02   1.949877e+02
   4.264869e+01   4.899065e+02
  -2.172519e+02   2.748814e+02
  -2.370537e+02  -2.373807e+02
   1.738741e+02  -4.553271e+02
   4.669989e+02  -1.389102e+01
   2.722745e+02   7.066140e+02
  -3.391677e+02   6.833037e+02
  -6.386270e+02  -7.543913e+00
  -3.346149e+02  -5.854006e+02
   3.119712e+02  -3.764259e+02
   4.337754e+02   3.118104e+02
  -3.964205e+01   5.349062e+02
  -5.338932e+02   2.044161e+02
  -5.903717e+02  -3.742405e+02
  -1.398133e+02  -5.465950e+02
   3.967155e+02  -3.569615e+02
   6.137152e+02   1.025204e+02
   3.721231e+02   4.118850e+02
  -1.626035e+02   3.420202e+02
  -4.315885e+02   2.923708e+01
  -2.035469e+02  -2.222732e+02
   1.480283e+02  -9.440777e+01
   1.477738e+02   1.939932e+02
  -1.413609e+02   2.211316e+02
  -3.346693e+02  -5.058636e+01
  -1.882895e+02  -3.232448e+02
   2.145840e+02  -2.475248e+02
   2.974056e+02  -6.719830e+01
   2.064547e+02   5.776799e+01
  -4.398395e+01   1.797197e+02
  -2.128996e+02   3.206342e+02
  -3.049422e+02   2.629889e+02
  -2.904949e+02  -1.078645e+02
  -1.190951e+02  -4.427584e+02
   1.109083e+02  -3.415376e+02
   1.494467e+02  -1.018962e+02
   3.417202e+01   3.081743e+01
   1.542962e+01  -6.770254e+01
   1.743589e+02  -1.244405e+02
   2.704789e+02   4.580542e+00
   1.785520e+02   2.571319e+02
  -6.073702e+01   2.534944e+02
  -2.366917e+02   4.717685e+01
  -1.916656e+02  -2.111794e+02
  -4.754110e+00  -2.891943e+02
   2.343876e+02  -1.380010e+02
   3.612415e+02   1.366005e+02
   2.022397e+02   3.557853e+02
  -1.370166e+02   2.712797e+02
  -2.308846e+02   1.142592e+02
  -1.387480e+02  -2.706871e+01
  -8.775535e+01   5.970424e+01
  -2.117714e+02   8.595213e+01
  -3.971329e+02  -6.161899e+01
  -3.207991e+02  -2.582627e+02
  -2.414269e+01  -4.366109e+02
   3.551356e+02  -4.229124e+02
   4.707350e+02  -2.110147e+02
   3.326340e+02   4.825919e+01
   8.842731e+01   2.552095e+02
  -1.195408e+02   2.559623e+02
  -8.246157e+01   1.444251e+00
   1.060240e+02  -1.259319e+02
   2.176073e+02   5.690177e+00
   5.797293e+01   2.095775e+02
  -1.678259e+02   1.836896e+02
  -2.059015e+02  -6.760493e+01
   2.805744e+01  -1.984248e+02
   2.164332e+02  -5.465679e+01
   1.481855e+02   2.119657e+02
  -3.472219e+01   3.299784e+02
  -2.049645e+02   1.994341e+02
  -2.896849e+02  -5.648748e+01
  -2.354905e+02  -2.043570e+02
  -1.430771e+02  -2.526728e+02
   1.073756e+02  -1.774278e+02
   1.895199e+02  -3.630903e+01
   6.335817e+01   2.317378e+01
  -7.491281e+01  -1.519096e+01
  -3.955506e+01  -1.370593e+02
   1.047099e+02  -9.985784e+01
   1.725692e+02   6.906129e+00
   5.390572e+01   1.084052e+02
  -5.169671e+01   3.168370e+01
  -6.745994e+01  -7.029487e+01
   1.101289e+02  -7.426287e+01
   2.599427e+02  -2.217251e+01
   2.581672e+02   1.158792e+02
   6.963264e+01   2.569359e+02
  -1.621156e+02   2.689589e+02
  -2.418623e+02   1.709915e+02
  -1.663660e+02  -4.959085e+01
   2.189240e+01  -1.171621e+02
   9.607967e+01  -1.679930e+01
  -1.140206e+01   8.106442e+01
  -1.717400e+02   5.378965e+01
  -1.973075e+02  -8.763942e+01
  -7.651665e+01  -1.867794e+02
   1.214226e+02  -1.747811e+02
   1.480639e+02  -4.166070e+01
   9.283270e+01   3.411304e+01
  -1.914922e+01   9.782495e+00
  -1.511707e+01  -6.844269e+01
   3.040177e+01  -1.202318e+02
   1.925015e+02  -2.498126e+01
   1.799875e+02   9.685208e+01
   3.948959e+01   1.848513e+02
  -1.436979e+02   1.431812e+02
  -1.844320e+02  -9.282426e+00
  -6.236509e+01  -1.144658e+02
   4.574034e+01  -1.369281e+02
   7.242095e+01  -4.263073e+01
   2.706813e+01   3.363362e+01
   8.902490e+00   3.086001e+01
   6.117257e+00  -1.700481e+01
   5.947104e+01   3.669484e+00
   5.653933e+01   6.482521e+01
   2.505392e+01   1.819890e+02
  -9.664620e+01   1.662382e+02
  -2.191051e+02   2.110228e+01
  -1.999805e+02  -1.195998e+02
  -2.209167e+01  -2.462097e+02
   8.374485e+01  -1.611925e+02
   1.615534e+02  -2.822066e+01
   4.646340e+01   3.307149e+01
   6.886639e+01   3.091245e+01
   3.145838e+01  -3.356568e+01
   7.147647e+01   3.775029e-01
   3.297872e+01   4.920049e+01
  -2.087368e+01   8.249412e+01
  -6.946928e+01   5.765591e+01
  -7.794067e+01  -1.961132e+01
   1.848188e+01  -1.018663e+02
   1.326859e+02  -5.274107e+01
   1.817632e+02   4.806962e+01
   1.066718e+02   1.759710e+02
  -6.570568e+01   2.007475e+02
  -2.626397e+02   1.339172e+02
  -2.511464e+02  -7.100437e+01
  -1.087887e+02  -1.679664e+02
   5.473710e+01  -1.396609e+02
   1.223734e+02  -1.058780e+02
   9.250673e+01  -7.173181e+01
   6.250947e+01  -9.982982e+01
   9.426673e+01  -6.009723e+01
   1.007878e+02   4.569747e+01
   1.262462e+02   1.410771e+02
   5.233816e+01   2.361593e+02
  -6.957075e+01   1.657232e+02
  -1.542672e+02   2.145206e+01
  -1.120408e+02  -9.315711e+01
  -3.936973e+01  -1.475361e+02
   6.575295e+01  -8.699645e+01
   5.748188e+01   9.879731e+00
   3.243702e+01   5.557069e+01
  -1.580894e+01   3.635191e+01
   3.797742e+01   3.879498e+01
   9.438445e+01   3.767704e+01
   1.048367e+01   4.748759e+01
  -5.717524e+01   2.655844e+01
  -1.270829e+02  -2.227239e+01
  -1.380847e+02  -2.263326e+01
  -2.377280e+01  -4.410873e+01
   1.028694e+02  -8.407482e+01
   1.498515e+02  -4.009750e+01
   4.411917e+01   2.669321e+01
  -8.854731e+01   5.605913e+01
  -5.711641e+01   7.376686e+00
   3.406332e+00  -4.336200e+01
   4.740238e+01  -3.970591e+01
   6.978376e+01   8.329426e+00
   5.065876e+01   5.881592e+01
   2.135838e+01   3.228041e+01
   4.283917e+01   1.034480e+01
   5.939055e+01   8.453446e+00
   1.223546e+01   6.505196e+01
  -3.492035e+01   1.288425e+02
  -1.081945e+02   1.450946e+02
  -9.980862e+01   1.225818e+01
  -1.139369e+02  -8.422363e+01
  -1.440837e+01  -1.023741e+02
   8.789918e+01  -8.647822e+01
   7.644195e+01   1.266737e+01
  -2.728157e+01   2.936194e+01
  -1.226059e+02  -6.701292e+01
  -6.536113e+01  -1.230720e+02
   5.779710e+01  -1.102320e+02
   1.541487e+02  -4.843175e+01
   1.499605e+02  -1.680043e+01
   3.352429e+01   8.222485e+01
  -5.090852e+01   7.125298e+01
  -5.493114e+01  -1.231414e+00
   3.362505e+01  -3.186662e+01
   1.219433e+02   8.000957e+00
   2.821681e+00   1.039358e+02
  -7.193215e+01   1.472531e+02
  -1.333832e+02   4.349877e+01
  -8.700819e+01  -1.267041e+02
   2.134094e+01  -1.809835e+02
   7.834875e+01  -1.221158e+02
   9.097965e+01  -9.070342e+00
   6.722182e+01   1.028341e+02
  -6.863093e+00   1.195759e+02
  -4.848844e+01   4.071768e+01
  -3.936272e+01  -3.628193e+01
  -3.871201e+01  -2.026328e+01
  -1.370568e+01   4.008819e+01
  -2.861631e+01  -1.832210e+01
  -5.756862e+01  -4.227856e+01
  -3.875302e+01  -1.015216e+02
   5.857043e+01  -6.123935e+01
   1.296900e+02   4.597051e+01
   1.267749e+02   9.186966e+01
   2.004313e+01   4.712392e+01
  -1.112868e+02  -6.528276e+00
  -1.160317e+02   1.392666e+01
  -2.155039e+01  -3.074506e+00
   4.888870e+01  -2.406604e+01
   2.117058e+01  -1.965780e+01
  -2.246177e+01  -7.221601e+00
  -2.890237e+00   1.017093e+01
   1.030191e+02   4.166974e-01
   8.451579e+01   6.823563e+00
   5.859672e+00   7.889455e+01
  -9.144643e+01   1.151139e+02
  -1.998658e+02   3.456828e+01
  -1.329224e+02  -7.783443e+01
  -4.387222e+01  -1.512333e+02
   4.268505e+01  -1.135193e+02
   8.501209e+01  -5.949308e+01
   7.978664e+01   1.658489e+01
   4.072696e+01   3.825646e+01
   1.403359e+01   7.194840e+00
  -5.446786e+00   2.220813e+00
   2.902492e+01   4.192164e+01
   1.055346e+01   9.146201e+01
  -1.592625e+01   8.175460e+01
  -7.741424e+01  -1.888320e+01
  -8.763004e+01  -8.167363e+01
   1.396363e+01  -1.005051e+02
   6.688891e+01  -1.226027e+01
   7.619829e+01   7.927846e+01
   3.444637e+01   8.445166e+01
  -6.306494e+01   6.087613e+01
  -8.969275e+01  -4.645859e+01
  -5.373297e+01  -2.918008e+01
   1.209150e+01  -5.256159e+01
   3.684039e+01  -1.956649e+01
  -3.955398e+01  -6.816656e+00
  -3.528731e+01   1.456856e+01
  -2.239419e+01  -3.470834e+01
   6.205680e+01  -7.231119e+01
   9.869720e+01  -8.167992e+01
   3.831815e+01   1.303088e+01
  -2.513873e+01   7.643309e+01
  -4.597409e+01   7.046305e+01
  -5.215429e+01  -6.662520e+00
   2.159934e+01  -8.339321e+01
   3.385485e+01  -5.246696e+01
   4.641804e+01   1.590189e+01
   3.328117e+01   3.823673e+01
  -1.225332e+01   2.762955e+01
  -4.876671e+01   3.450400e-02
  -6.582839e+01   7.884839e-01
  -1.140256e+01   8.753063e-01
   8.532290e+00   2.582981e+01
   8.309169e+00   2.067049e+00
  -5.156558e+00  -3.105099e+01
   3.061978e+01  -4.101450e+01
   1.244484e+01  -1.056431e+01
   4.949284e+01   4.860227e+01
  -7.317348e-01   4.581243e+01
  -2.537785e+01   3.393047e+01
  -4.135694e+01  -5.825402e+01
  -4.153799e+00  -8.080614e+01
   3.022982e+01  -1.496881e+01
   7.210546e+01   1.637141e+01
   6.665453e+01   2.367977e+01
  -3.769630e+01   5.603663e+01
  -5.730626e+01   5.789909e+00
  -2.286583e+01  -7.741120e+00
   3.098432e+01  -1.541196e+01
  -2.146223e+00   1.030878e+01
  -4.689451e+01   1.903280e+01
  -7.516275e+01   1.757006e+01
