
 $NMID
 id='ANONYMOUS ', fmtdat='(2E16.6)'
 volume=1.0
 tramp=1.0
 $END
   4.171910e+03   7.791862e+01
   2.693564e+03   2.745177e+03
  -8.656929e+02   2.848518e+03
  -2.289367e+03   8.018266e+02
  -1.117397e+03  -8.406274e+02
   7.936589e+02  -7.140558e+02
   7.828381e+02   5.119209e+02
  -8.629285e+00   1.104541e+03
  -9.019825e+02   8.628449e+02
  -9.134936e+02  -1.005293e+02
  -4.612581e+02  -9.707335e+02
   2.517388e+02  -9.213851e+02
   6.933646e+02  -1.179502e+02
   4.232723e+02   7.627377e+02
  -2.925998e+02   7.696896e+02
  -6.353821e+02   1.635749e+00
  -2.326368e+02  -6.727128e+02
   3.111184e+02  -6.694707e+02
   5.735816e+02  -7.178776e+01
   3.923007e+02   4.093654e+02
   6.262331e+01   3.978257e+02
  -2.374949e+02   2.721470e+02
  -2.317595e+02   4.874742e+01
   1.210400e+02  -1.215517e+02
   4.512347e+02   1.477841e+02
   2.200386e+02   4.372243e+02
  -4.914914e+02   4.987107e+02
  -8.922239e+02  -1.023200e+02
  -4.507355e+02  -5.834806e+02
   4.333855e+02  -5.228758e+02
   8.087967e+02   1.863567e+01
   3.264253e+02   4.869023e+02
  -2.455075e+02   5.096461e+02
  -5.055496e+02   2.322167e+02
  -4.441561e+02  -2.338637e+02
  -7.635917e+01  -5.264623e+02
   2.297711e+02  -2.951644e+02
   2.153303e+02   2.426159e+02
  -1.975139e+02   3.658524e+02
  -4.556615e+02  -5.774296e+01
  -1.837418e+02  -7.118897e+02
   3.581033e+02  -7.033872e+02
   6.627527e+02   1.140088e+01
   2.539552e+02   5.251240e+02
  -3.219659e+02   3.565873e+02
  -4.200439e+02  -3.385547e+02
   9.286537e+01  -5.483825e+02
   5.845155e+02  -1.060999e+02
   5.818288e+02   3.964848e+02
   1.972186e+02   6.638528e+02
  -3.657696e+02   3.501755e+02
  -5.933430e+02  -4.817317e+01
  -3.717360e+02  -3.725046e+02
   1.385337e+02  -3.567907e+02
   4.680733e+02  -8.704088e+01
   2.602602e+02   1.878184e+02
  -1.078052e+02   8.700071e+01
  -1.510609e+02  -1.302090e+02
   1.740260e+02  -1.776472e+02
   3.651884e+02   7.421113e+01
   1.681370e+02   3.106325e+02
  -2.361565e+02   2.745508e+02
  -3.021895e+02   1.069043e+02
  -1.887527e+02  -1.068082e+02
   1.271303e+01  -2.362051e+02
   2.289624e+02  -3.404285e+02
   3.303783e+02  -2.214837e+02
   3.322869e+02   1.041556e+02
   9.632368e+01   4.562620e+02
  -1.162772e+02   3.723510e+02
  -1.293192e+02   9.336919e+01
  -1.303197e+01  -2.038404e+01
  -2.331482e+01   8.572766e+01
  -2.020091e+02   1.337547e+02
  -2.930068e+02  -4.973436e+01
  -2.091231e+02  -2.841232e+02
   6.637970e+01  -2.645194e+02
   2.437063e+02  -4.519615e+01
   2.064983e+02   2.297456e+02
   6.374604e+00   2.912740e+02
  -2.624852e+02   1.320929e+02
  -3.705646e+02  -1.704106e+02
  -1.983184e+02  -4.004934e+02
   7.922714e+01  -3.218777e+02
   2.121255e+02  -1.320021e+02
   1.647830e+02  -1.166069e-01
   9.963262e+01  -3.786642e+01
   2.467629e+02  -7.763758e+01
   4.213507e+02   4.101197e+01
   3.419559e+02   2.551287e+02
   3.281268e+01   4.424636e+02
  -3.651978e+02   4.313363e+02
  -5.217008e+02   2.110838e+02
  -3.481945e+02  -1.268015e+02
  -8.580356e+01  -3.115750e+02
   1.163144e+02  -2.579644e+02
   6.820970e+01  -9.561311e+00
  -1.320229e+02   9.030258e+01
  -2.095343e+02   2.633435e+01
  -6.128443e+01  -2.115919e+02
   1.435292e+02  -1.885533e+02
   2.034511e+02   6.908272e+01
  -2.879979e+01   1.708646e+02
  -1.944446e+02   2.560817e+01
  -1.564857e+02  -2.878018e+02
   6.614588e-01  -3.310428e+02
   2.404616e+02  -2.000694e+02
   3.583799e+02   7.649541e+01
   2.803636e+02   2.517465e+02
   1.192139e+02   2.910933e+02
  -1.030859e+02   1.563470e+02
  -1.850661e+02   2.224013e+01
  -5.363182e+01  -7.033531e+01
   9.327594e+01   4.484371e+01
   2.372432e+01   1.195385e+02
  -1.110197e+02   6.882579e+01
  -1.964542e+02   3.570081e+00
  -6.313330e+01  -5.636521e+01
   7.650352e+01  -3.329844e+01
   9.433145e+01   5.071394e+01
  -1.174056e+02   1.099682e+02
  -3.005817e+02   2.460561e+01
  -2.788031e+02  -1.385500e+02
  -6.685390e+01  -2.631402e+02
   1.977557e+02  -2.527608e+02
   2.591753e+02  -1.323339e+02
   1.805579e+02   5.920045e+01
  -3.666137e+01   1.314108e+02
  -8.839397e+01   2.594654e+01
   1.258759e+01  -1.399342e+02
   1.944311e+02  -8.454532e+01
   2.439739e+02   1.145311e+02
   5.462417e+01   1.994707e+02
  -7.223180e+01   1.676697e+02
  -1.448729e+02   3.758565e+01
  -6.568608e+01  -4.053177e+01
   3.069492e+01  -6.669508e+00
   6.462359e+01   8.743173e+01
  -6.953862e+01   1.073194e+02
  -1.731881e+02   3.777686e+01
  -1.957759e+02  -1.306340e+02
  -1.247924e+01  -2.293411e+02
   1.361207e+02  -1.612574e+02
   2.040800e+02  -3.049345e+01
   9.118576e+01   1.486259e+02
  -6.455665e+01   1.209939e+02
  -9.505617e+01   1.290231e+01
  -1.478104e+01  -2.887373e+01
   3.074173e+01  -5.158215e+00
  -3.990398e-01   5.058109e+00
  -1.042510e+02  -1.613541e+01
  -9.033156e+01  -6.000223e+01
  -8.247454e+00  -1.633332e+02
   1.407005e+02  -1.598027e+02
   2.449812e+02  -4.408327e+01
   2.263878e+02   1.237093e+02
   5.425830e+01   2.056163e+02
  -1.377092e+02   1.650551e+02
  -1.292406e+02   5.308771e+01
  -8.108845e+01  -7.484197e+01
  -2.842072e+01  -3.136362e+01
  -5.077821e+01  -7.270693e+00
  -9.233931e+01   2.329224e+01
  -4.403302e+01  -1.844328e+01
   4.351249e+01  -7.638084e+01
   9.105745e+01  -6.256469e+01
   8.843806e+01   2.586670e+01
  -5.388170e+00   9.514159e+01
  -1.383493e+02   1.087780e+02
  -1.788396e+02  -4.617693e+01
  -1.028212e+02  -2.174950e+02
   9.278168e+01  -2.438473e+02
   2.830869e+02  -1.336226e+02
   2.660461e+02   8.990192e+01
   1.353846e+02   1.845857e+02
  -2.418135e+01   1.562863e+02
  -7.741071e+01   6.944221e+01
  -8.901406e+01   1.030976e+02
  -6.441543e+01   8.133040e+01
  -9.221994e+01   1.027237e+02
  -1.165627e+02  -3.449602e+01
  -1.233736e+02  -1.463527e+02
  -2.948445e+01  -2.306496e+02
   1.214776e+02  -1.624602e+02
   1.908820e+02  -2.456444e+01
   1.308252e+02   1.377999e+02
   2.667255e+01   1.493385e+02
  -5.116750e+01   9.481755e+01
  -6.974313e+01  -6.116125e+00
  -6.072041e+00  -5.103599e+01
   1.440539e+00  -1.661028e+01
  -3.036987e+01   1.239471e+00
  -1.061212e+02  -3.478095e+01
  -8.124374e+01  -3.684512e+01
   5.088925e+01  -4.650164e+01
   1.707837e+02   2.323310e+01
   1.369250e+02   6.725197e+01
   1.827911e+01   9.266796e+01
  -1.034194e+02   5.786254e+01
  -1.519608e+02   1.308130e+01
  -4.433923e+01  -3.471035e+00
   6.832722e+01  -3.293442e+01
   1.030294e+02   1.150392e+01
   8.334263e+00   6.186260e+01
  -5.529243e+01   6.328944e+01
  -5.204851e+01  -4.574292e-01
  -5.272905e+01  -7.097766e+01
  -2.121706e+01  -1.903646e+01
  -4.503335e+01   1.081950e+00
  -5.987279e+01  -2.321182e+00
  -3.668368e+01  -4.174149e+01
   2.743613e+01  -1.458668e+02
   1.231722e+02  -1.395114e+02
   2.149431e+02  -2.953857e+01
   1.397812e+02   1.020688e+02
   2.471415e+01   1.076139e+02
  -8.922535e+01   7.212488e+01
  -7.548993e+01  -2.625093e+01
   6.595849e+01   9.696252e-02
   1.266698e+02   2.295193e+01
   7.786057e+01   9.222599e+01
  -5.986260e+01   1.510312e+02
  -1.886148e+02   5.928077e+01
  -1.594343e+02  -5.505333e+01
  -5.246191e+01  -7.567903e+01
   4.890813e+01  -6.138490e+01
   4.539635e+01  -1.217895e+00
  -3.462043e+01   1.565164e+01
  -1.045003e+02  -1.603903e+01
  -4.866383e+01  -1.323669e+02
   1.004654e+02  -1.892044e+02
   1.609757e+02  -5.609339e+01
   1.221318e+02   8.439472e+01
  -6.220775e+00   1.928079e+02
  -9.447461e+01   1.617934e+02
  -7.935258e+01  -2.584215e+01
  -7.973471e+01  -1.080687e+02
  -7.655435e+00  -1.045878e+02
   3.743946e+01  -2.068262e+01
   4.104856e+01   2.333434e+01
   1.669715e+01   5.328855e+00
   1.259303e+01  -1.195963e+01
   1.760228e+01   2.199014e+00
   6.294682e+01   8.097761e+01
   3.761750e+01   1.162240e+02
  -3.163811e+01   5.531171e+01
  -1.489643e+02  -3.737233e+01
  -1.226395e+02  -6.149059e+01
  -5.522544e+01  -1.838974e+01
   1.177704e+02  -2.633686e+01
   8.417189e+01  -3.059602e+00
  -1.073116e+01   1.888040e+01
  -2.693925e+01   2.799573e+01
  -7.785779e-01  -3.197605e+00
   2.154898e+01  -1.587679e+01
   1.936957e+01  -1.284705e+01
  -5.387230e+01   9.251986e+00
  -8.813432e+01  -2.813322e+01
   2.289396e+00  -1.127577e+02
   1.254177e+02  -9.960764e+01
   1.598005e+02  -6.222525e+01
   1.337108e+02   5.370836e+01
   2.331769e+01   1.278345e+02
  -9.776985e+01   1.338056e+02
  -1.159645e+02   7.368453e+01
  -8.528080e+01  -4.428989e+01
  -7.026089e+00  -4.369888e+01
  -5.285819e+00   8.237850e+00
  -4.745049e+00  -8.125527e+00
  -3.404486e+01  -3.968890e+01
  -7.739400e+00  -1.020326e+02
   2.549382e+01  -5.130333e+01
   5.949212e+01   5.478545e+00
   2.953713e+01   9.114794e+01
  -3.521088e+00   1.180189e+02
  -7.926396e+01   4.452128e+00
  -1.037785e+02  -7.699927e+01
  -1.637128e+01  -9.607849e+01
   5.436482e+01  -4.908714e+01
   8.992926e+01   3.475876e+01
   2.331568e+01   2.816316e+01
  -3.009034e+01   6.140815e+01
  -4.381560e+01   1.636890e+01
   3.954630e+01   9.526538e+00
   8.578935e+01  -1.354370e+01
   2.600534e+01   5.444221e+01
  -8.300198e+01   4.936727e+01
  -1.065839e+02   6.499414e+01
  -4.827755e+01   1.890079e+01
  -9.170837e+00  -1.045607e+02
   4.848462e+01  -8.945722e+01
   4.755497e+01   2.710384e+01
   1.173050e+01   7.570174e+01
  -4.042452e+01   3.045131e+01
  -3.544679e+01  -1.771784e+01
  -3.106296e+01  -7.191394e+01
   1.807108e+00  -1.599952e+01
   1.136513e+01  -5.832845e-01
   9.478826e-02   5.879284e+00
   4.726612e+00   1.786667e+01
   2.370254e+00   3.786906e+00
  -8.056415e+00   5.919842e+00
  -1.836120e+00   2.712638e+01
  -7.459778e-01   3.904972e+01
  -1.688665e+01  -7.428572e+00
  -1.513450e+01  -7.068752e+01
  -1.150120e+01  -8.688477e+01
   5.155675e+01  -2.910369e+01
   5.441989e+01   1.271159e+01
   2.098536e+01   8.712871e+01
  -7.576986e+01   2.760120e+01
  -1.106670e+02  -1.268571e+01
  -4.919301e+01  -2.902796e+01
   3.344303e+01  -5.647755e+01
   6.225587e+01  -3.278291e+01
   1.171262e+01  -3.743421e+01
  -4.105762e+01  -1.116910e+01
  -4.419633e+01  -2.336821e+01
   8.131239e-01  -3.330589e+01
   9.685217e+01  -3.581325e+01
