
 $NMID
 id='ANONYMOUS ', fmtdat='(2E16.6)'
 volume=1.0
 tramp=1.0
 $END
  -4.098115e+03  -1.441292e+02
  -2.550056e+03  -2.633585e+03
   7.724446e+02  -2.987240e+03
   2.239832e+03  -7.939171e+02
   9.998669e+02   8.464417e+02
  -7.286324e+02   7.130504e+02
  -7.628769e+02  -4.794588e+02
  -4.079593e+01  -1.064971e+03
   8.941731e+02  -7.964848e+02
   9.084279e+02   1.211165e+02
   4.694868e+02   9.406342e+02
  -2.716792e+02   9.149602e+02
  -6.814415e+02   1.441055e+02
  -3.754279e+02  -7.520813e+02
   2.896672e+02  -8.217970e+02
   6.379795e+02   3.425473e+01
   2.585502e+02   6.531613e+02
  -3.127548e+02   6.382880e+02
  -5.781932e+02   1.054003e+02
  -3.924662e+02  -4.005160e+02
  -4.608935e+01  -4.094935e+02
   2.322797e+02  -2.583005e+02
   2.424915e+02  -3.439852e+01
  -1.219213e+02   1.053409e+02
  -4.491487e+02  -1.289497e+02
  -2.241034e+02  -4.185656e+02
   4.923674e+02  -4.772020e+02
   8.797704e+02   1.217414e+02
   4.493217e+02   5.895775e+02
  -4.337032e+02   5.277454e+02
  -8.288001e+02  -2.513303e+01
  -3.288571e+02  -4.895809e+02
   2.643290e+02  -5.214907e+02
   5.238971e+02  -1.988742e+02
   4.564049e+02   2.590896e+02
   6.492464e+01   5.227172e+02
  -2.471355e+02   2.977184e+02
  -2.159541e+02  -2.765096e+02
   2.169087e+02  -3.641806e+02
   4.485643e+02   5.151392e+01
   2.046272e+02   7.173797e+02
  -3.757132e+02   7.186388e+02
  -6.597599e+02   2.620350e+00
  -2.486780e+02  -5.182090e+02
   3.239658e+02  -3.556257e+02
   4.024790e+02   3.499822e+02
  -6.250625e+01   5.548780e+02
  -5.659297e+02   1.294223e+02
  -6.079907e+02  -4.028062e+02
  -1.968384e+02  -6.407709e+02
   3.909058e+02  -3.492151e+02
   6.143813e+02   6.441820e+01
   3.711705e+02   4.135930e+02
  -1.384127e+02   3.683228e+02
  -4.570392e+02   8.302162e+01
  -2.476247e+02  -1.866574e+02
   1.295432e+02  -8.160417e+01
   1.471267e+02   1.276670e+02
  -1.838686e+02   1.541683e+02
  -3.744603e+02  -8.609678e+01
  -1.856997e+02  -3.121283e+02
   2.367593e+02  -2.721273e+02
   3.398028e+02  -7.775735e+01
   1.986446e+02   1.011942e+02
  -1.735688e+01   2.458005e+02
  -2.218910e+02   3.480728e+02
  -3.318378e+02   1.906660e+02
  -3.305469e+02  -1.137520e+02
  -8.556685e+01  -4.414553e+02
   1.293055e+02  -3.787745e+02
   1.180804e+02  -1.138646e+02
  -1.101466e+01   2.224301e+01
   6.855757e+01  -7.971255e+01
   2.011531e+02  -1.448792e+02
   3.074393e+02   6.765165e+01
   2.003779e+02   2.683011e+02
  -6.430201e+01   2.621581e+02
  -2.427287e+02   1.654488e+01
  -1.997376e+02  -2.255895e+02
  -1.566464e+01  -3.040744e+02
   2.457354e+02  -1.428892e+02
   3.671582e+02   1.546410e+02
   2.077117e+02   3.786716e+02
  -9.456261e+01   3.340969e+02
  -2.208582e+02   1.461524e+02
  -1.711681e+02   1.008189e+01
  -8.325637e+01   4.630963e+01
  -2.328233e+02   6.501276e+01
  -4.090053e+02  -4.781542e+01
  -3.105943e+02  -2.581855e+02
   1.633325e+01  -4.394411e+02
   3.751820e+02  -4.359079e+02
   5.096130e+02  -2.295542e+02
   3.448803e+02   1.186429e+02
   8.214683e+01   3.322817e+02
  -1.209254e+02   2.635587e+02
  -7.523109e+01   9.763755e+00
   1.111697e+02  -8.346862e+01
   2.064192e+02  -4.021093e+01
   4.726092e+01   2.062769e+02
  -1.857324e+02   1.965043e+02
  -1.689639e+02  -3.926891e+01
   5.311910e+01  -1.700618e+02
   1.966589e+02  -3.588874e+01
   1.364636e+02   2.664149e+02
  -1.264273e+01   3.173797e+02
  -2.357832e+02   2.407587e+02
  -3.315190e+02  -8.578214e+01
  -2.987187e+02  -2.168463e+02
  -1.209569e+02  -2.619373e+02
   1.483371e+02  -1.688777e+02
   1.811775e+02  -5.458132e+00
   6.125702e+01   5.478667e+01
  -7.716492e+01  -5.346276e+01
  -2.984509e+01  -1.280088e+02
   1.374596e+02  -8.532648e+01
   1.914362e+02  -1.302175e+01
   7.529431e+01   9.290668e+01
  -7.689219e+01   1.361901e+01
  -2.660880e+01  -4.991550e+01
   1.342254e+02  -1.011954e+02
   2.848452e+02  -6.171695e-01
   2.807731e+02   1.319143e+02
   6.901818e+01   2.421220e+02
  -1.888444e+02   2.788626e+02
  -3.004403e+02   1.497175e+02
  -1.700088e+02  -4.373080e+01
   1.021174e+01  -1.296853e+02
   9.528250e+01  -2.933720e+01
  -3.339253e+01   1.240145e+02
  -2.006657e+02   8.323837e+01
  -2.246793e+02  -1.348894e+02
  -4.030170e+01  -1.972375e+02
   7.653772e+01  -1.456884e+02
   1.165629e+02  -2.597095e+01
   5.113016e+01   3.635962e+01
  -3.299544e+01   1.590875e+01
  -2.633653e+01  -7.702568e+01
   8.161805e+01  -1.043193e+02
   1.986694e+02  -2.486680e+01
   1.943661e+02   9.597916e+01
  -1.221761e+01   2.255360e+02
  -1.644086e+02   1.463013e+02
  -1.796263e+02   2.309356e+01
  -5.457181e+01  -1.245982e+02
   8.082042e+01  -9.033038e+01
   9.480149e+01  -4.369789e+01
   4.605544e+01   2.995311e+01
   4.195896e+00   6.591089e+00
   3.176679e+01   4.911184e+00
   9.583047e+01   7.693469e+00
   9.209545e+01   7.524608e+01
  -1.367247e+01   1.480536e+02
  -1.536270e+02   1.834551e+02
  -2.163558e+02   4.746157e+01
  -1.906330e+02  -1.204391e+02
  -6.380777e+01  -2.154372e+02
   8.856609e+01  -1.593925e+02
   1.221326e+02  -5.244692e+01
   7.281851e+01   5.500003e+01
   2.358327e+01   1.796177e+01
   2.289668e+01   2.240173e+01
   9.495757e+01   6.310435e+00
   3.963499e+01   2.396341e+01
  -2.449100e+01   6.717807e+01
  -6.264962e+01   5.186002e+01
  -8.238271e+01  -2.762227e+01
   4.580593e+00  -7.771366e+01
   1.582755e+02  -9.907092e+01
   2.055646e+02   6.332941e+01
   9.756300e+01   1.947617e+02
  -7.766631e+01   2.344862e+02
  -2.805600e+02   1.007941e+02
  -2.628941e+02  -7.557794e+01
  -1.111527e+02  -1.733863e+02
   3.793845e+01  -1.523265e+02
   9.091788e+01  -8.968080e+01
   6.142798e+01  -9.191776e+01
   7.350895e+01  -9.460718e+01
   1.079831e+02  -7.277601e+01
   1.055288e+02   2.984341e+01
   1.371299e+02   1.457526e+02
   3.827226e+01   2.289946e+02
  -1.087810e+02   1.625087e+02
  -1.686786e+02   3.749256e+01
  -1.195660e+02  -1.117994e+02
  -2.008562e+01  -1.551141e+02
   7.497851e+01  -8.385652e+01
   9.454658e+01   2.164986e+01
  -9.424708e+00   5.790471e+01
   2.473283e+01   2.490641e+01
   2.592159e+01   2.465325e+01
   1.100824e+02   2.849633e+01
   5.961363e+01   4.641951e+01
  -6.186379e+01   4.213963e+01
  -1.565873e+02   1.089802e+01
  -1.401625e+02  -4.416978e+01
  -1.360601e+01  -7.047160e+01
   1.102500e+02  -5.263700e+01
   1.174626e+02   1.002615e+01
   4.831108e+01   3.317270e+00
  -3.178122e+01   3.378899e+01
  -7.599246e+01  -1.112040e+01
  -1.072969e+01  -3.915502e+01
   7.747568e+01  -5.671384e+01
   7.757081e+01   1.986688e+01
   9.566314e+00   6.435713e+01
   3.894659e+01   2.817050e+01
   7.626305e+01   1.701612e+01
   7.039012e+01   2.875749e+01
   3.881603e+01   6.720399e+01
  -4.643275e+01   1.387701e+02
  -1.213232e+02   1.439068e+02
  -1.800705e+02   1.389026e+01
  -1.174611e+02  -7.626926e+01
  -1.778415e+01  -1.282996e+02
   7.713689e+01  -7.094059e+01
   6.599850e+01   1.742775e+01
  -3.523884e+01   1.000815e+01
  -1.447344e+02  -2.039169e+01
  -9.940431e+01  -8.218114e+01
   8.037879e+01  -1.227258e+02
   1.775821e+02  -4.391751e+01
   1.449154e+02   4.179915e+01
   3.104336e+01   1.020991e+02
  -4.528127e+01   6.142798e+01
  -6.338931e+01   2.653896e+01
   1.133190e+01  -2.102227e+01
   9.075742e+01   7.764002e+00
   4.168309e+01   1.316791e+02
  -1.118876e+02   1.343616e+02
  -1.983858e+02   5.415681e+01
  -1.387018e+02  -1.212921e+02
  -3.747102e+01  -2.015153e+02
   8.524369e+01  -1.736380e+02
   7.943867e+01  -7.460917e+00
   5.443454e+01   1.447695e+02
  -1.226095e+01   1.167344e+02
  -3.115434e+01   3.439138e+01
  -4.404502e+01  -2.873587e+00
  -1.133388e+01  -8.796363e+00
   1.846333e+01   1.068290e+01
   2.279815e-01   8.707395e+00
  -3.113702e+01  -1.082821e+02
  -1.174102e+01  -1.196631e+02
   4.168562e+01  -6.383582e+01
   1.646986e+02   7.928099e+00
   1.399036e+02   4.711690e+01
   4.698174e+01   5.148134e+01
  -8.814534e+01   1.865613e+00
  -1.111754e+02   2.450893e+01
  -5.795833e+00  -1.647572e+01
   2.942516e+01  -4.110153e+01
  -9.622899e+00   1.160509e+01
   7.260736e+00   1.358293e+01
  -7.710479e+00  -9.672526e+00
   6.047228e+01  -2.447405e+00
   9.317686e+01   2.442657e+01
   6.126795e+00   6.422885e+01
  -1.390418e+02   1.242722e+02
  -2.006325e+02   8.071594e+01
  -1.590662e+02  -4.234416e+01
  -2.930948e+01  -1.773287e+02
   9.653911e+01  -1.360987e+02
   1.107257e+02  -5.986234e+01
   1.041261e+02   2.872354e+01
   2.715615e+01   2.393984e+01
   1.489307e+00   2.335223e+01
   1.010547e+01   2.963732e+01
   3.796755e+01   3.471975e+01
   1.519531e+01   1.146397e+02
  -4.300760e+01   7.018844e+01
  -9.056409e+01  -3.475581e+01
  -6.321262e+01  -1.030878e+02
  -3.167730e+01  -1.336851e+02
   8.314810e+01  -2.763160e+01
   1.142897e+02   6.340477e+01
   2.345648e+01   8.284149e+01
  -8.085598e+01   5.489170e+01
  -1.081368e+02  -1.968098e+01
  -9.066793e+00  -3.876040e+01
   4.735640e+01  -3.745162e+01
   3.955455e+01  -2.167708e+01
  -5.103475e+01  -1.933323e+01
  -5.813177e+01   4.803663e+00
  -1.157191e+01  -4.408859e+01
   5.465885e+01  -6.666362e+01
   1.180628e+02  -8.420219e+01
   7.189460e+01   2.836711e+00
  -2.986502e+01   8.804825e+01
  -6.433328e+01   1.011442e+02
  -2.309249e+01  -5.847060e+00
  -4.206170e+01  -7.375302e+01
   1.885019e+01  -3.863883e+01
   3.137838e+01   3.195096e+01
   2.175378e+01   5.099225e+01
  -2.431384e+01   2.816166e+01
   1.360569e+00  -1.627741e+01
  -4.326775e+01  -1.056551e+01
  -3.362170e+01  -3.698315e+00
   5.366999e+00   2.224418e+01
   1.042705e+01  -2.298917e+00
   4.219754e+00  -1.083826e+01
   5.382291e+01  -4.213009e+01
   4.673208e+01   1.182257e+01
   2.140388e+01   4.311527e+01
   1.937134e+01   7.374237e+01
  -5.486257e+01   9.629768e+00
  -4.469233e+01  -1.129672e+01
  -2.930442e+01  -4.657440e+01
   8.299287e+01  -5.064647e+01
   7.876870e+01   2.289255e+01
   2.620834e+00   3.204402e+01
  -4.920276e+01   5.223682e+01
  -7.577348e+01   4.802188e+00
   1.641939e-01  -1.544500e+01
   3.407750e+01   2.744750e+00
   4.710501e+01   3.960012e+01
  -3.077089e+01   2.585605e+01
  -9.008792e+01   1.444382e+01
