
 $NMID
 id='ANONYMOUS ', fmtdat='(2E16.6)'
 volume=1.0
 tramp=1.0
 $END
   3.722010e+03   1.741788e+02
   2.297272e+03   2.399171e+03
  -7.973539e+02   2.326406e+03
  -1.964208e+03   8.746325e+02
  -8.997859e+02  -8.043309e+02
   6.100316e+02  -4.757501e+02
   7.339157e+02   4.331433e+02
  -9.236139e+01   1.000276e+03
  -8.423576e+02   7.452912e+02
  -8.625352e+02  -1.082206e+02
  -4.153514e+02  -8.329475e+02
   2.957320e+02  -8.311317e+02
   5.817361e+02  -9.533262e+01
   3.480965e+02   6.117773e+02
  -2.689650e+02   6.152096e+02
  -6.014595e+02  -3.637419e+01
  -1.778068e+02  -5.981968e+02
   3.107302e+02  -5.432210e+02
   4.815507e+02  -3.207062e+01
   2.886253e+02   3.535808e+02
   2.163400e+01   3.628879e+02
  -1.886016e+02   1.991790e+02
  -2.233179e+02   1.113223e+01
   8.543039e+01  -1.249402e+02
   3.909093e+02   4.751040e+01
   1.579600e+02   3.642160e+02
  -3.585265e+02   3.839514e+02
  -8.045252e+02  -7.406688e+01
  -3.885441e+02  -5.124765e+02
   3.706413e+02  -5.104732e+02
   6.374647e+02   3.979653e+01
   3.583079e+02   4.137287e+02
  -2.301456e+02   4.202192e+02
  -4.673069e+02   2.072969e+02
  -3.512925e+02  -2.487070e+02
  -6.552013e+01  -4.282191e+02
   1.804149e+02  -2.272697e+02
   1.858375e+02   2.337229e+02
  -1.197180e+02   3.557345e+02
  -3.736078e+02   2.292173e+00
  -1.536497e+02  -6.024861e+02
   2.858143e+02  -5.857215e+02
   5.744958e+02   2.074493e+01
   2.142106e+02   5.257454e+02
  -3.008118e+02   3.258372e+02
  -4.091488e+02  -3.188026e+02
   8.277034e+01  -4.597972e+02
   5.168320e+02  -1.316031e+02
   5.408180e+02   3.740484e+02
   1.334110e+02   5.611842e+02
  -2.988449e+02   3.168786e+02
  -5.469205e+02  -1.113674e+02
  -3.170710e+02  -3.535850e+02
   1.376803e+02  -3.387682e+02
   4.042176e+02   3.155758e+00
   2.077790e+02   1.552587e+02
  -9.684018e+01   9.933599e+01
  -1.021263e+02  -1.800062e+02
   1.654351e+02  -1.592134e+02
   3.502457e+02   8.667416e+01
   1.191292e+02   2.993825e+02
  -1.899226e+02   2.287193e+02
  -2.818647e+02   5.034843e+01
  -1.695736e+02  -8.070100e+01
   3.533394e+01  -1.685918e+02
   1.952921e+02  -2.868840e+02
   3.015152e+02  -1.745817e+02
   2.310574e+02   1.102313e+02
   7.532404e+01   3.778116e+02
  -9.474823e+01   3.095793e+02
  -1.405260e+02   8.522074e+01
  -3.233364e+01  -2.057831e+01
  -4.124387e+01   1.047992e+02
  -1.590651e+02   1.107457e+02
  -2.644034e+02  -2.116246e+01
  -1.505143e+02  -2.391174e+02
   5.705426e+01  -2.438704e+02
   1.963504e+02  -1.010181e+01
   1.685357e+02   2.190248e+02
   9.183630e+00   2.682166e+02
  -2.014774e+02   7.142002e+01
  -2.856832e+02  -1.440871e+02
  -1.492563e+02  -3.378496e+02
   1.035474e+02  -2.474292e+02
   2.269511e+02  -1.228024e+02
   1.315692e+02  -5.661103e+00
   7.875084e+01  -3.916784e+01
   1.941262e+02  -6.452323e+01
   3.755894e+02   5.988097e+01
   2.664471e+02   2.498134e+02
   1.824654e+01   3.689268e+02
  -3.134760e+02   3.385317e+02
  -4.432129e+02   1.253123e+02
  -3.132903e+02  -7.416884e+01
  -5.790139e+01  -2.629424e+02
   1.113957e+02  -2.284465e+02
   1.016969e+02  -4.164355e+01
  -9.951498e+01   1.138287e+02
  -1.966118e+02  -1.735703e+00
  -3.406283e+01  -1.914863e+02
   1.115546e+02  -1.201906e+02
   1.549730e+02   4.928405e+01
  -2.537030e+01   1.569880e+02
  -1.816147e+02   1.689430e+01
  -1.489233e+02  -2.296245e+02
   1.041971e+01  -2.931361e+02
   2.274748e+02  -1.471433e+02
   2.557828e+02   4.867546e+01
   2.309759e+02   1.944563e+02
   8.421616e+01   2.260086e+02
  -1.308234e+02   1.683812e+02
  -1.674572e+02   4.587677e+01
  -4.007207e+01  -3.491526e+01
   6.394303e+01   4.629900e+01
   4.543494e+01   9.164616e+01
  -9.118710e+01   1.056427e+02
  -1.528434e+02   8.533495e-01
  -3.458151e+01  -8.106336e+01
   3.674369e+01  -3.001412e+01
   3.245840e+01   4.290204e+01
  -1.083799e+02   8.949682e+01
  -2.361175e+02   6.428925e+00
  -2.337817e+02  -1.447816e+02
  -5.011857e+01  -2.111425e+02
   1.650849e+02  -2.127245e+02
   2.334350e+02  -1.042603e+02
   1.541438e+02   3.561580e+01
  -2.310174e+01   8.729021e+01
  -9.291651e+01   1.859444e+01
   3.824669e+01  -1.100789e+02
   1.499252e+02  -4.197447e+01
   1.935089e+02   7.864688e+01
   4.018349e+01   1.846728e+02
  -8.035442e+01   1.538394e+02
  -1.115718e+02   2.698547e+01
  -4.915634e+01  -4.734438e+01
   2.485080e+01  -1.457576e+01
   3.933815e+01   7.939224e+01
  -5.586252e+01   1.145249e+02
  -1.906933e+02   4.110245e+01
  -1.547233e+02  -1.408286e+02
  -8.985163e+00  -1.962924e+02
   1.711817e+02  -1.263038e+02
   1.769482e+02  -1.320786e+01
   8.660317e+01   1.159182e+02
  -4.759206e+01   1.217917e+02
  -7.937172e+01   3.333164e+01
  -9.151376e+00   2.584728e+00
  -1.128702e+01  -8.051888e+00
   7.238522e-01   9.437780e-01
  -6.207463e+01  -7.663612e+00
  -7.621208e+01  -6.860118e+01
  -8.420153e+00  -1.231534e+02
   1.184646e+02  -1.282948e+02
   2.112480e+02  -2.326268e+01
   1.701358e+02   1.423044e+02
   5.064031e+01   2.249282e+02
  -7.083136e+01   1.622102e+02
  -1.069004e+02   1.458624e+01
  -6.983509e+01  -4.969695e+01
  -4.082650e+01  -7.078329e+01
  -7.723525e+01   9.084881e+00
  -8.766113e+01  -3.659193e+00
  -1.790184e+01  -5.257163e+01
   4.146349e+01  -6.077071e+01
   7.994981e+01  -5.607581e+01
   9.580604e+01   2.256395e+01
  -1.706994e+00   8.216677e+01
  -1.033906e+02   6.479344e+01
  -1.598762e+02  -6.677280e+01
  -7.759902e+01  -1.748263e+02
   7.504401e+01  -1.864945e+02
   2.196510e+02  -9.182902e+01
   2.389842e+02   7.880368e+01
   8.937118e+01   1.494034e+02
  -3.762998e+01   1.239664e+02
  -8.541578e+01   4.416940e+01
  -7.012607e+01   6.639072e+01
  -6.209580e+01   9.634149e+01
  -7.288955e+01   8.159050e+01
  -1.137211e+02  -4.172574e+01
  -8.074620e+01  -1.253113e+02
  -1.435580e+00  -2.218525e+02
   8.272541e+01  -1.448331e+02
   1.491449e+02  -1.773119e+01
   1.071846e+02   1.129130e+02
   1.004066e+01   1.477843e+02
  -6.270154e+01   8.266728e+01
  -5.173981e+01   2.675499e+01
  -1.119398e+01  -5.929931e+01
   6.431333e+00  -3.100542e+01
  -3.781627e+01  -1.307799e+01
  -4.764669e+01  -1.482796e+01
  -1.305913e+01  -4.211933e+01
   3.648513e+01  -7.014367e+00
   1.462346e+02   7.355986e+00
   1.022212e+02   4.385763e+01
   3.933297e+01   8.104166e+01
  -9.405193e+01   6.426593e+01
  -1.265956e+02  -1.932978e+01
  -3.038694e+01  -5.634633e+01
   8.901865e+01  -3.076805e+01
   7.332103e+01   2.561456e+01
   8.615941e+00   5.844574e+01
  -3.333404e+01   6.096942e+01
  -3.052360e+01   1.032754e+01
  -3.662394e+01  -6.068961e+01
  -2.685851e+01  -7.471873e+01
  -4.377644e+01  -1.710734e+01
  -4.322014e+01  -3.189434e+00
  -3.860988e+01  -4.493128e+01
   4.217161e+01  -1.361277e+02
   1.196286e+02  -1.309334e+02
   1.399120e+02  -1.148172e+01
   1.183835e+02   6.833603e+01
   2.958733e+00   1.017170e+02
  -8.849884e+01   4.991421e+01
  -5.849233e+01   1.330323e+01
   4.442090e+01  -9.714436e-01
   1.170609e+02   3.434224e+01
   5.793352e+01   9.471604e+01
  -7.277422e+01   1.043586e+02
  -1.668386e+02   4.937369e+01
  -1.302679e+02  -3.613897e+01
  -6.633854e+01  -6.781548e+01
   6.154678e+01  -7.424691e+01
   4.857147e+01  -1.970655e+01
  -2.284297e+01   3.354154e+01
  -6.004551e+01  -2.501445e+01
  -1.993832e+01  -1.233948e+02
   9.145860e+01  -1.408117e+02
   1.505079e+02  -6.681165e+01
   8.622302e+01   9.034043e+01
   1.514264e+01   1.630452e+02
  -9.406781e+01   1.392591e+02
  -9.312313e+01  -8.581924e+00
  -2.663661e+01  -7.718298e+01
  -1.821462e+01  -8.704782e+01
   3.304478e+01  -4.997125e+01
   1.398485e+01   1.837527e+01
   1.369463e+01  -1.610557e+01
  -1.979041e+01   5.868935e-01
   4.567569e+01   1.360855e+01
   4.487906e+01   7.017341e+01
   3.865144e+01   1.235591e+02
  -3.594337e+01   5.846046e+01
  -1.087529e+02  -3.777309e+01
  -1.374591e+02  -5.860765e+01
  -4.318685e+01  -3.781193e+01
   5.333041e+01  -7.305101e+00
   1.041831e+02  -1.749862e+01
   1.996547e+01   8.827249e+00
  -2.727254e+01   3.885407e+01
   6.385459e+00  -6.279321e-01
   1.482713e+01   3.557005e+00
  -1.452873e+00  -2.053591e+01
  -8.862363e+01  -1.681828e+01
  -7.545107e+01  -3.976501e+01
   1.611510e+00  -4.248696e+01
   9.242075e+01  -9.608392e+01
   1.832745e+02  -4.333396e+01
   1.148105e+02   1.096673e+02
   2.943256e+01   1.542779e+02
  -7.679318e+01   1.591018e+02
  -9.031249e+01   3.448630e+01
  -3.659554e+01  -1.523519e+01
  -4.983459e+01  -2.962291e+01
   1.575839e+01  -1.870108e+01
   1.348874e+01   2.467751e+01
  -3.259917e+01  -4.058819e+01
  -3.713787e+01  -8.739107e+01
   5.033787e+00  -8.417642e+01
   9.389869e+01   2.852293e+01
   6.120842e+01   7.503672e+01
  -3.538187e+00   9.695393e+01
  -6.713215e+01   1.015827e+01
  -8.685596e+01  -9.994095e+01
  -1.235362e+01  -8.966015e+01
   5.780618e+01  -3.704428e+01
   7.884766e+01   4.058997e+01
   3.283679e+01   5.002594e+01
  -4.924388e+01   1.771912e+01
  -2.458483e+01   2.254451e+01
   5.387478e+00   6.916136e+00
   6.078832e+01  -5.047092e+00
   2.442999e+00   2.364955e+01
  -7.705839e+01   2.481927e+01
  -1.232501e+02   6.518381e+01
  -8.331020e+01  -2.968605e+00
  -9.485551e+00  -8.333011e+01
   2.890482e+01  -6.286023e+01
   3.840665e+01  -1.052366e+01
  -1.228603e+01   4.417132e+01
  -3.667615e+01   5.364056e+01
  -1.923795e+01  -2.722356e+01
  -2.129941e+01  -3.302806e+01
   1.796360e+01  -2.853104e+01
   3.503651e+01   2.643090e+01
   3.497585e+01   3.341997e+01
   3.688970e+01   1.122944e+01
  -1.843062e+01  -1.919142e+01
  -3.709349e+00   5.385400e+00
  -2.375267e+01   1.082706e+01
  -5.612562e+00   4.106784e+01
  -3.116791e+00  -3.124364e+00
  -2.077507e+01  -2.284089e+01
   1.507485e+01  -4.355985e+01
   5.073572e+01  -2.425596e+01
   6.079421e+01   2.780579e+01
   5.650777e+00   8.167422e+01
  -4.271719e+01   2.850769e+01
  -9.031086e+01  -3.818188e+01
  -3.595304e+01  -3.752445e+01
   2.514945e+01  -1.269248e+01
   2.478481e+01  -2.819811e+01
   3.883018e+01   7.486491e+00
  -3.313938e+01  -1.226729e+01
  -2.238308e+01  -4.458082e+01
   2.555703e+01  -2.713651e+01
   1.126937e+02  -2.294223e+01
