
 $NMID
 id='ANONYMOUS ', fmtdat='(2E16.6)'
 volume=1.0
 tramp=1.0
 $END
  -4.272538e+03   2.733870e+01
  -2.454484e+03  -2.570136e+03
   6.615791e+02  -2.937219e+03
   2.036610e+03  -8.943212e+02
   8.902990e+02   7.293883e+02
  -5.234203e+02   6.143495e+02
  -8.798872e+02  -2.987047e+02
  -1.183332e+02  -9.576138e+02
   9.258718e+02  -7.482650e+02
   9.358944e+02   7.542169e+01
   4.554234e+02   9.432222e+02
  -2.860660e+02   9.163974e+02
  -6.232287e+02   1.532938e+02
  -3.435600e+02  -7.260467e+02
   2.786315e+02  -7.824856e+02
   5.825516e+02  -2.420078e+01
   3.310770e+02   6.684999e+02
  -3.243136e+02   6.437792e+02
  -5.520217e+02   9.827792e+01
  -3.821558e+02  -3.350852e+02
  -2.982409e+01  -4.089430e+02
   2.159745e+02  -2.670170e+02
   2.260947e+02  -1.233338e+01
  -1.068485e+02   8.219523e+01
  -3.751540e+02  -8.927808e+01
  -1.455451e+02  -4.034249e+02
   4.236856e+02  -3.948466e+02
   8.202720e+02   3.975765e+01
   3.913936e+02   4.858718e+02
  -3.611975e+02   4.889826e+02
  -7.315066e+02  -7.037469e+01
  -3.767146e+02  -4.844679e+02
   2.646770e+02  -5.230279e+02
   5.365112e+02  -1.694605e+02
   4.211657e+02   2.200486e+02
   1.000497e+02   4.844482e+02
  -1.445050e+02   2.701749e+02
  -1.766003e+02  -2.068839e+02
   1.457643e+02  -4.205008e+02
   4.127528e+02   2.266466e+01
   2.419909e+02   6.293975e+02
  -2.851541e+02   7.336574e+02
  -5.693222e+02   4.331248e+01
  -2.971679e+02  -6.150470e+02
   2.909037e+02  -3.596226e+02
   4.245038e+02   3.068333e+02
  -1.114661e+02   5.383806e+02
  -5.457108e+02   1.413654e+02
  -5.711447e+02  -4.242854e+02
  -2.084407e+02  -5.588981e+02
   3.773941e+02  -3.210155e+02
   6.315144e+02   6.137969e+01
   3.878655e+02   3.692560e+02
  -1.344374e+02   3.533646e+02
  -4.222067e+02   1.132444e+02
  -2.449614e+02  -1.882099e+02
   5.930452e+01  -1.150221e+02
   1.537728e+02   1.593595e+02
  -1.506266e+02   1.769502e+02
  -3.452043e+02  -4.970265e+01
  -1.313830e+02  -3.205717e+02
   2.010793e+02  -2.562956e+02
   3.244906e+02  -6.523283e+01
   1.856746e+02   8.420786e+01
  -1.604716e+01   2.240009e+02
  -2.029855e+02   3.274251e+02
  -3.052827e+02   2.491437e+02
  -2.784521e+02  -1.417978e+02
  -9.592652e+01  -4.190389e+02
   9.142422e+01  -4.030254e+02
   1.385037e+02  -1.117356e+02
   2.493858e+01   6.240428e+00
   6.569829e+01  -4.816168e+01
   1.628071e+02  -1.314020e+02
   2.786130e+02   3.506487e+01
   1.548158e+02   2.584807e+02
  -6.258359e+01   2.465104e+02
  -2.350314e+02   3.068631e+01
  -1.878336e+02  -2.227516e+02
  -2.342939e+01  -2.885035e+02
   2.539221e+02  -1.248268e+02
   3.393410e+02   1.656705e+02
   2.080398e+02   2.861597e+02
  -7.328580e+01   3.324668e+02
  -2.177227e+02   1.462886e+02
  -1.729668e+02  -3.189111e+01
  -7.947491e+01   3.872187e+01
  -2.407892e+02   4.832090e+01
  -4.031221e+02  -6.029500e+01
  -3.258626e+02  -2.648028e+02
  -4.281446e-02  -4.293291e+02
   3.170448e+02  -3.600797e+02
   4.562958e+02  -2.002127e+02
   3.567562e+02   7.408435e+01
   6.274343e+01   2.922489e+02
  -1.246067e+02   2.199065e+02
  -7.907135e+01   3.985104e+01
   9.310349e+01  -8.278759e+01
   2.161319e+02  -9.312646e+00
   7.297690e+01   1.942735e+02
  -1.481700e+02   1.504028e+02
  -1.909352e+02  -6.123946e+01
   4.101165e+01  -1.952101e+02
   2.041620e+02  -1.507803e+01
   1.381528e+02   2.402593e+02
  -2.943053e+01   3.379472e+02
  -2.353870e+02   2.137131e+02
  -3.257223e+02  -5.251661e+01
  -2.685254e+02  -2.382663e+02
  -1.022003e+02  -2.611432e+02
   1.160218e+02  -1.675143e+02
   1.660910e+02  -3.190752e+01
   5.369018e+01   1.804038e+01
  -5.937402e+01  -3.622414e+01
  -2.772401e+01  -1.299004e+02
   1.014850e+02  -8.788055e+01
   1.413699e+02  -1.011092e+01
   4.462478e+01   5.465851e+01
  -9.237912e+01   1.774657e+01
  -6.682360e+01  -5.889588e+01
   1.032340e+02  -1.098030e+02
   2.734760e+02  -8.594404e+00
   2.743672e+02   1.307170e+02
   5.287906e+01   2.388203e+02
  -1.734886e+02   2.407022e+02
  -2.775024e+02   8.922329e+01
  -1.349327e+02  -6.501639e+01
   3.116233e+01  -8.109152e+01
   8.421620e+01  -1.451494e+01
  -8.871787e+00   1.010531e+02
  -1.701618e+02   5.730864e+01
  -2.191305e+02  -9.383992e+01
  -8.199725e+01  -1.948537e+02
   9.663855e+01  -1.433302e+02
   1.668361e+02  -3.175290e+01
   7.987178e+01   5.438760e+01
  -2.403061e+01   2.368942e+01
  -9.783110e+00  -5.736293e+01
   4.713278e+01  -1.014589e+02
   1.974885e+02  -3.026397e+01
   1.913813e+02   1.168029e+02
   3.699057e+01   2.139007e+02
  -1.464325e+02   1.685223e+02
  -1.860676e+02  -2.008032e-01
  -6.111113e+01  -1.625638e+02
   5.743537e+01  -1.193942e+02
   1.020441e+02  -8.651591e+00
   2.186217e+01   3.998739e+01
  -2.261788e+01   1.771736e+01
   6.523100e-01   9.406014e+00
   9.152231e+01  -2.714974e-01
   7.676246e+01   9.237477e+01
   8.815170e+00   1.541261e+02
  -9.761192e+01   1.539423e+02
  -2.115732e+02   1.162832e+01
  -1.877630e+02  -1.537355e+02
  -7.058532e+01  -2.147544e+02
   9.562210e+01  -1.361110e+02
   1.625712e+02  -1.687650e+01
   8.739705e+01   5.585601e+01
   4.594977e+01   6.413320e+01
   6.227208e+01  -2.849377e+01
   8.431327e+01   2.487244e+00
   4.750401e+01   7.198243e+01
  -4.213086e+01   1.035178e+02
  -9.201141e+01   6.506911e+01
  -7.793865e+01  -3.351755e+01
  -3.292712e+00  -1.114229e+02
   1.438953e+02  -1.126234e+02
   1.685526e+02   4.109780e+01
   8.323004e+01   2.137548e+02
  -1.086283e+02   2.606710e+02
  -2.480149e+02   1.060944e+02
  -2.732534e+02  -7.650866e+01
  -9.753673e+01  -1.628598e+02
   1.455982e+01  -1.252132e+02
   7.723134e+01  -7.248038e+01
   8.454190e+01  -7.630862e+01
   8.563627e+01  -1.041305e+02
   9.290723e+01  -8.025459e+01
   1.319150e+02   2.729684e+01
   1.132601e+02   1.417950e+02
   3.835605e+01   2.051428e+02
  -7.893395e+01   1.903346e+02
  -1.542409e+02   3.792634e+01
  -1.536407e+02  -1.201590e+02
  -1.339163e+01  -1.403593e+02
   5.420332e+01  -9.422497e+01
   7.521867e+01   2.381481e+01
   7.342362e+00   7.494181e+01
  -3.362647e+01   3.471904e+01
   2.506175e+01   3.301580e+01
   6.829372e+01   1.091139e+01
   5.527938e+01   4.405913e+01
  -6.198410e+01   4.816483e+01
  -1.338731e+02   6.677555e-01
  -1.466441e+02  -4.823199e+01
  -2.715133e+01  -6.682410e+01
   1.096893e+02  -6.444703e+01
   1.402503e+02  -1.587357e+01
   5.861370e+01   3.202889e+01
  -3.460904e+01   6.479698e+01
  -6.396639e+01   2.341958e+00
  -1.909680e+01  -7.659947e+01
   5.875129e+01  -3.676177e+01
   8.238472e+01   1.486726e+01
   3.797363e+01   4.275846e+01
   5.638245e+01   5.810247e+01
   5.534981e+01  -1.519180e+01
   8.187110e+01   1.387492e+00
   3.229683e+01   4.479281e+01
  -1.628937e+01   1.442691e+02
  -9.845869e+01   1.319158e+02
  -1.682194e+02   6.371528e+01
  -1.381075e+02  -8.816013e+01
  -1.150290e+01  -1.340068e+02
   8.344309e+01  -6.308437e+01
   7.339197e+01   1.022113e+01
  -7.480513e+01   2.410786e+01
  -1.342648e+02  -2.931384e+01
  -7.545372e+01  -9.284925e+01
   9.106661e+01  -1.281782e+02
   1.835137e+02  -3.202919e+01
   1.537342e+02   2.852707e+01
   1.146017e+01   6.910250e+01
  -5.680710e+01   8.257173e+01
  -5.229042e+01   3.783129e+00
   6.017823e+01  -3.432160e+01
   9.598069e+01   1.099919e+01
   2.539211e+01   1.065846e+02
  -8.187424e+01   1.511424e+02
  -1.513617e+02   7.664371e+01
  -1.264103e+02  -8.485832e+01
  -1.565823e+01  -1.786523e+02
   1.082423e+02  -1.438924e+02
   1.073826e+02  -1.167862e+00
   5.161148e+01   1.122497e+02
  -5.014796e+00   7.276967e+01
  -5.477142e+01   5.102143e+01
  -4.000231e+01  -1.003677e+01
  -1.908047e+01  -5.522883e+00
  -1.382832e+01   3.232349e+01
  -7.605510e-01   1.114199e+01
  -6.055701e+01  -9.366850e+01
  -5.534754e+01  -9.772713e+01
   6.055199e+01  -5.578847e+01
   1.093618e+02   4.097896e+01
   1.388738e+02   5.924838e+01
   1.191041e+01   4.436094e+01
  -8.050415e+01   2.090937e+01
  -1.073155e+02  -1.177700e+01
   1.480094e+00  -2.310612e+01
   2.127808e+01  -2.855751e+01
  -1.747004e+00   1.530055e+01
  -2.941156e+01  -2.614407e+01
   1.568480e+01   9.735827e+00
   8.662889e+01  -1.394548e+01
   9.046185e+01   1.080691e+01
  -2.128726e+01   6.517111e+01
  -1.271548e+02   9.663147e+01
  -1.793025e+02   5.759986e+01
  -1.572252e+02  -8.198768e+01
  -7.216269e+00  -1.731578e+02
   9.828892e+01  -1.254625e+02
   1.104821e+02  -5.898409e+01
   7.786621e+01   2.892360e+01
   3.210924e+01   6.927540e+01
  -7.530820e+00   5.475517e-01
   1.184465e+01   1.074002e+00
   5.515032e+01   4.501267e+01
   4.365242e+01   8.095603e+01
  -3.402109e+01   5.649676e+01
  -8.183871e+01  -5.955992e-01
  -9.552242e+01  -9.930794e+01
  -1.236285e+01  -1.089069e+02
   6.201002e+01  -1.711908e+01
   8.493469e+01   6.776307e+01
   4.003538e+01   1.254476e+02
  -8.004848e+01   5.558947e+01
  -1.109885e+02  -1.101377e+00
  -4.162663e+01  -5.114539e+01
   3.111602e+01  -6.030322e+01
   1.614098e+01  -1.923986e+01
  -6.619632e+00   1.866625e+01
  -8.627148e+01   9.673855e-01
   1.546910e+01  -2.385383e+01
   8.374351e+01  -8.227802e+01
   1.368927e+02  -5.467653e+01
   3.169643e+01   1.563373e+01
  -3.980332e+01   6.796106e+01
  -5.552666e+01   6.465118e+01
  -4.187459e+01  -1.921540e+00
   2.485830e+01  -7.620691e+01
   6.003517e+01  -6.829477e+01
   2.542826e+01   2.797882e+01
  -4.650643e+00   3.418096e+01
   3.363432e+00   3.909331e+01
  -2.917569e+01   2.346259e-01
  -4.950908e+01  -6.080713e+00
  -1.601939e+01  -1.777056e-01
   1.301903e+01   1.122098e+01
  -5.553127e+00  -2.981483e+00
   9.180836e+00  -7.009551e+01
   2.811360e+01  -2.645181e+01
   3.531754e+01  -8.344989e+00
   1.041044e+01   4.264951e+01
   8.067891e+00   4.755493e+01
  -1.558881e+01  -1.077518e+01
  -7.184796e+01  -3.611736e+01
  -2.940225e+01  -6.756555e+01
   5.104230e+01  -1.869326e+01
   8.278112e+01   8.763280e+00
   4.337688e+01   5.664854e+01
  -2.264945e+01   1.625429e+01
  -4.902292e+01   3.772900e+00
  -3.395270e+01  -2.205033e+01
   4.393680e+01  -6.127698e-01
   4.234161e+01   5.958172e+00
  -3.115596e+01   6.106713e+01
  -6.179054e+01   4.187636e+01
