
 $NMID
 id='ANONYMOUS ', fmtdat='(2E16.6)'
 volume=1.0
 tramp=1.0
 $END
   4.123028e+03  -2.649052e+02
   2.668863e+03   2.482788e+03
  -8.134960e+02   3.086779e+03
  -2.185660e+03   1.154679e+03
  -1.014547e+03  -7.471736e+02
   5.938958e+02  -6.638305e+02
   9.341575e+02   2.246358e+02
   1.609326e+02   9.955162e+02
  -8.081937e+02   7.800046e+02
  -9.448403e+02  -6.676174e+01
  -4.514880e+02  -9.547014e+02
   2.492562e+02  -9.385399e+02
   5.935944e+02  -1.649404e+02
   4.309240e+02   6.250108e+02
  -2.778464e+02   7.569172e+02
  -6.172588e+02   5.454393e+01
  -3.907010e+02  -6.861029e+02
   2.920492e+02  -6.913738e+02
   6.119521e+02  -1.251444e+02
   4.459430e+02   3.445953e+02
   5.716523e+01   4.695908e+02
  -2.154790e+02   2.902115e+02
  -2.173673e+02   7.499265e+01
   1.165181e+02  -8.512229e+01
   3.778898e+02   7.046030e+01
   2.177041e+02   4.012304e+02
  -3.941521e+02   4.500236e+02
  -8.093293e+02   1.748290e+00
  -4.663225e+02  -5.061350e+02
   3.667574e+02  -4.837158e+02
   8.064577e+02   1.079970e+01
   3.554125e+02   4.167504e+02
  -2.408236e+02   4.912227e+02
  -5.736536e+02   1.934111e+02
  -3.846251e+02  -2.011044e+02
  -1.086019e+02  -4.929394e+02
   1.567538e+02  -3.073492e+02
   1.937346e+02   2.055498e+02
  -8.673837e+01   3.819719e+02
  -3.919475e+02  -5.715717e+00
  -2.897914e+02  -6.422638e+02
   1.694051e+02  -7.167873e+02
   5.758878e+02  -9.152807e+01
   3.018128e+02   5.289659e+02
  -2.791046e+02   3.850170e+02
  -3.974178e+02  -2.930557e+02
   6.006615e+01  -5.641857e+02
   5.340677e+02  -1.372491e+02
   6.370335e+02   3.956389e+02
   1.954181e+02   5.610409e+02
  -3.578468e+02   3.275749e+02
  -6.246570e+02  -5.946749e+01
  -4.246868e+02  -3.418248e+02
   1.031514e+02  -3.647914e+02
   4.059698e+02  -1.295142e+02
   2.984920e+02   1.583680e+02
  -1.021180e+02   9.746467e+01
  -1.222280e+02  -1.261675e+02
   1.402032e+02  -1.939066e+02
   3.403752e+02   3.219570e+01
   1.728610e+02   2.808196e+02
  -2.245984e+02   2.700099e+02
  -3.290351e+02   7.913623e+01
  -1.917818e+02  -9.564158e+01
   1.999323e+01  -2.506923e+02
   1.872336e+02  -3.400018e+02
   2.975328e+02  -2.037025e+02
   2.865487e+02   1.490089e+02
   1.102825e+02   4.275228e+02
  -1.099302e+02   3.962056e+02
  -1.116961e+02   1.367290e+02
  -3.871558e+01  -6.228929e+00
  -5.776144e+01   9.642914e+01
  -1.818769e+02   1.468186e+02
  -2.852777e+02  -5.376818e+01
  -1.887771e+02  -2.398461e+02
   7.528035e+01  -2.553379e+02
   1.931256e+02  -5.076221e+01
   2.125685e+02   2.203135e+02
  -4.256579e+00   2.891838e+02
  -2.646388e+02   1.350970e+02
  -3.859472e+02  -1.269045e+02
  -2.078746e+02  -3.490730e+02
   6.302225e+01  -3.539464e+02
   2.187074e+02  -1.640222e+02
   1.719038e+02  -3.418889e+01
   1.516481e+02  -2.166293e+01
   2.339598e+02  -3.916585e+01
   3.920802e+02   4.593305e+01
   3.569949e+02   2.868671e+02
   2.720893e+01   4.158625e+02
  -3.752431e+02   3.875803e+02
  -4.750725e+02   1.997892e+02
  -3.316774e+02  -7.761791e+01
  -6.741207e+01  -3.039946e+02
   1.070478e+02  -2.528796e+02
   8.044326e+01  -4.382466e+01
  -9.415097e+01   1.308604e+02
  -2.062229e+02   1.652863e+01
  -7.466545e+01  -2.022240e+02
   1.366430e+02  -1.752004e+02
   1.567507e+02   4.179578e+01
  -2.432067e+01   1.906144e+02
  -1.958331e+02   5.107763e+01
  -1.782348e+02  -2.455562e+02
   2.498395e+01  -3.363984e+02
   2.253365e+02  -2.015569e+02
   3.269550e+02   6.139338e+01
   3.136684e+02   2.221066e+02
   9.663259e+01   2.349815e+02
  -1.170262e+02   1.761678e+02
  -1.419644e+02   3.477834e+01
  -8.713269e+01  -3.182342e+01
   9.507949e+01   2.056908e+01
   5.244706e+01   9.274332e+01
  -1.177274e+02   7.881898e+01
  -1.787011e+02  -4.697485e+00
  -5.664089e+01  -3.996994e+01
   6.663781e+01   3.637268e-01
   5.599271e+01   6.984345e+01
  -1.050502e+02   1.151571e+02
  -2.790706e+02   1.988874e+01
  -2.659927e+02  -1.170536e+02
  -8.723277e+01  -2.472777e+02
   1.626532e+02  -2.354891e+02
   2.476385e+02  -1.420558e+02
   1.557787e+02   5.096319e+01
  -2.156683e+01   9.111352e+01
  -8.247292e+01   3.653245e+00
   4.925616e+01  -8.176876e+01
   1.863773e+02  -7.481841e+01
   2.621451e+02   9.351089e+01
   7.052606e+01   2.069535e+02
  -6.657535e+01   1.500362e+02
  -1.491497e+02   4.940623e+01
  -3.893695e+01  -5.302844e+01
   1.399880e+00  -8.394919e+00
   2.300181e+01   7.747320e+01
  -6.736598e+01   8.992902e+01
  -1.729338e+02   3.970564e+01
  -2.002603e+02  -1.161757e+02
  -2.741024e+01  -1.853447e+02
   1.838440e+02  -1.361392e+02
   1.809105e+02  -1.358071e+01
   8.796825e+01   1.242658e+02
  -8.138717e+01   1.236357e+02
  -8.401490e+01   2.385268e+01
  -3.304636e+01  -8.693018e+00
   8.747324e+00  -2.503772e+01
  -4.606397e+00   6.498963e+00
  -7.102844e+01  -2.045631e+01
  -8.867438e+01  -7.428005e+01
  -8.184985e+00  -1.663522e+02
   1.351114e+02  -1.414784e+02
   2.343866e+02  -3.043808e+01
   1.863546e+02   1.325497e+02
   6.148162e+01   2.207650e+02
  -1.068246e+02   1.834382e+02
  -1.400501e+02   3.841090e+01
  -6.079957e+01  -4.940979e+01
  -7.623034e+00  -1.874549e+01
  -7.805979e+01  -5.328800e+00
  -7.016131e+01  -5.014846e+00
  -1.090415e+01  -3.673980e+01
   2.365132e+01  -8.435396e+01
   9.431136e+01  -2.536933e+01
   7.769490e+01   4.492903e+01
  -1.104215e+01   1.384597e+02
  -1.483459e+02   8.278049e+01
  -1.973696e+02  -4.665705e+01
  -8.751679e+01  -1.824001e+02
   8.715639e+01  -2.134421e+02
   2.694090e+02  -9.261270e+01
   2.456166e+02   6.273828e+01
   1.275502e+02   1.639567e+02
  -1.738019e+01   1.539887e+02
  -9.769068e+01   1.117488e+02
  -5.944663e+01   9.738970e+01
  -6.311786e+01   1.072106e+02
  -1.064458e+02   6.806854e+01
  -1.199284e+02  -9.789155e+00
  -1.431981e+02  -1.383712e+02
  -5.069648e+01  -2.056011e+02
   1.166559e+02  -1.681366e+02
   1.859395e+02   5.106599e-01
   1.185729e+02   1.170823e+02
   1.649592e+01   1.669655e+02
  -6.916413e+01   1.069302e+02
  -8.749281e+01   1.458358e+01
   2.816561e+01  -5.961062e+01
  -1.174086e+01  -3.242484e+01
  -2.987954e+01  -3.351690e+01
  -9.022510e+01  -1.527376e+01
  -4.765298e+01  -3.427229e+01
   7.880287e+01  -4.292494e+01
   1.426967e+02  -1.426069e+01
   1.091313e+02   2.017738e+01
   1.500695e+01   7.749142e+01
  -1.309530e+02   5.343422e+01
  -1.474917e+02   1.600691e+01
  -4.325186e+01  -3.765292e+01
   4.526248e+01  -4.642342e+01
   9.928861e+01  -8.252542e+00
  -7.663659e+00   6.107126e+01
  -6.746547e+01   5.969802e+01
  -6.641478e+01  -5.337649e+00
  -5.459764e+01  -4.038135e+01
  -4.207770e+01  -5.032251e+01
  -6.626928e+01  -2.411367e+00
  -8.248701e+01  -2.586327e+01
  -3.220869e+01  -8.512336e+01
   7.721025e+00  -1.256699e+02
   1.238360e+02  -1.357257e+02
   1.803635e+02  -3.608451e+01
   1.208863e+02   8.799480e+01
  -2.374030e+00   1.167045e+02
  -9.856739e+01   6.759593e+01
  -5.413974e+01   2.654526e+00
   7.289039e+01   1.548423e+01
   9.779329e+01   5.499046e+01
   8.988204e+01   1.063224e+02
  -6.562062e+01   1.326017e+02
  -2.110929e+02   4.675956e+01
  -1.670404e+02  -3.796611e+01
  -6.920425e+00  -7.854962e+01
   5.161302e+01  -9.486880e+01
   3.191949e+01  -1.119727e+01
  -1.959335e+01   2.707126e+01
  -7.912673e+01   2.968548e+00
  -3.952170e+01  -1.550854e+02
   9.602864e+01  -1.436503e+02
   1.720051e+02  -5.229001e+01
   1.514720e+02   8.787089e+01
   1.988070e+01   2.150302e+02
  -6.698876e+01   1.401768e+02
  -1.164841e+02  -3.792903e+01
  -4.530588e+01  -1.152694e+02
   1.819466e+01  -1.090095e+02
   3.311021e+01  -7.620790e+00
   6.649211e+01   3.648618e+01
  -1.402254e+00  -5.818726e+00
  -1.608285e+01  -2.919734e+01
   2.235885e+01   1.921442e+01
   3.445495e+01   8.696648e+01
   1.694697e+01   1.107833e+02
  -4.345795e+01   4.452681e+01
  -1.383247e+02  -4.389874e+01
  -1.364010e+02  -7.483789e+01
   3.317997e+00  -1.924981e+01
   1.076273e+02  -3.748971e+01
   9.709300e+01   1.736934e+01
  -1.295405e+01   2.167085e+01
  -2.928548e+01   2.695007e+01
  -1.416196e+01   1.131152e+01
   1.630102e+01   1.466658e+01
   5.318661e+00  -1.119983e+01
  -6.935778e+01  -2.350027e+01
  -1.068055e+02  -3.157848e+01
  -2.099186e+01  -8.099928e+01
   1.100256e+02  -1.255758e+02
   1.861978e+02  -6.641638e+01
   1.306779e+02   5.554279e+01
   9.612033e+00   1.655643e+02
  -9.923875e+01   1.461538e+02
  -1.048669e+02   6.100870e+01
  -6.311148e+01  -3.393644e+00
  -2.097105e+01  -1.916845e+01
  -9.568985e+00  -2.004359e+01
  -1.824574e+01  -5.238011e+00
  -3.381658e+01  -1.736115e+01
  -2.139971e+01  -1.018220e+02
   3.419271e+01  -8.741121e+01
   8.284276e+01   9.860972e+00
   6.826048e+01   8.590091e+01
   2.129869e+00   1.228481e+02
  -9.721321e+01   3.175684e+01
  -1.133659e+02  -5.423467e+01
  -1.871073e+01  -1.001423e+02
   7.395208e+01  -6.350928e+01
   1.136179e+02   3.128314e+01
   3.882687e+01   5.467146e+01
  -3.136775e+01   2.184472e+01
  -4.979946e+01   6.011539e+01
   4.026955e+01   4.373175e-01
   6.728594e+01   6.786509e-02
   1.692269e+01   2.426934e+01
  -8.482984e+01   7.579493e+01
  -8.933015e+01   5.051057e+01
  -2.800631e+01  -3.034307e+01
   3.677275e+01  -1.122096e+02
   4.315309e+01  -7.506427e+01
   2.997784e+01   6.017757e+00
   1.370275e+01   4.326128e+01
  -3.607763e+01   6.490924e+01
  -5.842825e+01  -2.219551e+01
  -3.547244e+01  -8.125542e+01
   1.221896e+01  -1.385810e+01
   3.206750e+01   1.672143e+01
   5.456719e+01   9.192005e+00
   4.625978e+01   4.544666e+00
  -1.338240e+01  -3.140703e+01
   5.079906e+00  -9.087657e+00
  -1.551916e+01   5.589103e+01
  -1.708267e+01   3.343944e+01
  -5.168024e+00  -9.969586e+00
   8.640561e+00  -5.589048e+01
  -3.678620e+00  -4.140308e+01
   2.520652e+01  -1.600852e+01
   7.522608e+01   4.127485e+01
   2.290703e+01   5.162124e+01
  -3.663797e+01   4.827801e+01
  -9.754172e+01  -5.715963e+00
  -6.439518e+01  -3.290060e+01
   4.828441e+01  -5.249153e+01
   7.447674e+01  -2.515297e+01
   3.602305e+01   1.120531e+01
  -2.038682e+01  -1.154876e+01
  -3.109762e+01  -1.344044e+00
   2.428465e+01  -1.336170e+01
   1.107458e+02  -2.701864e+01
