
 $NMID
 id='ANONYMOUS ', fmtdat='(2E16.6)'
 volume=1.0
 tramp=1.0
 $END
  -3.579243e+03   7.583738e+00
  -2.233590e+03  -2.313216e+03
   6.296690e+02  -2.401817e+03
   1.861968e+03  -7.959891e+02
   8.125081e+02   6.707384e+02
  -3.914650e+02   5.867083e+02
  -8.512348e+02  -2.943241e+02
  -3.935797e+01  -9.918737e+02
   8.367671e+02  -6.338007e+02
   8.866509e+02   1.330283e+02
   3.308016e+02   7.868275e+02
  -2.841813e+02   7.364295e+02
  -4.935130e+02   1.706969e+02
  -3.308600e+02  -5.505560e+02
   2.085773e+02  -6.393211e+02
   5.637173e+02  -2.800432e+01
   2.775994e+02   6.000898e+02
  -3.054851e+02   5.644345e+02
  -4.827502e+02   5.288346e+01
  -3.578822e+02  -3.119212e+02
  -2.811000e+01  -3.813130e+02
   2.066204e+02  -2.092769e+02
   1.996943e+02  -4.501014e+00
  -1.038223e+02   1.020388e+02
  -2.813305e+02  -7.136475e+01
  -1.617122e+02  -3.618627e+02
   4.187469e+02  -3.703101e+02
   6.973966e+02   7.030807e+01
   4.060879e+02   4.632352e+02
  -3.510858e+02   4.542910e+02
  -5.693094e+02   1.930343e+01
  -2.852022e+02  -4.030557e+02
   2.084632e+02  -4.038730e+02
   4.548004e+02  -1.632108e+02
   3.505499e+02   1.857280e+02
   4.734869e+01   4.270432e+02
  -1.449930e+02   2.847437e+02
  -1.659991e+02  -2.028097e+02
   1.536377e+02  -3.461281e+02
   3.747121e+02   8.005436e+00
   1.806677e+02   4.945550e+02
  -2.265464e+02   6.139585e+02
  -4.976860e+02   3.025086e+01
  -1.749557e+02  -5.169021e+02
   2.448163e+02  -3.037219e+02
   3.359926e+02   3.001615e+02
  -7.254653e+01   4.519613e+02
  -4.980302e+02   9.166898e+01
  -5.264661e+02  -3.966765e+02
  -1.691787e+02  -5.043188e+02
   3.059902e+02  -2.849934e+02
   5.132776e+02   3.191664e+01
   3.547929e+02   3.571169e+02
  -1.283022e+02   3.203321e+02
  -3.616332e+02   6.892219e+01
  -2.115234e+02  -1.889962e+02
   4.648334e+01  -9.905321e+01
   1.435145e+02   1.111882e+02
  -1.420404e+02   1.524753e+02
  -3.043494e+02  -4.908725e+01
  -1.070882e+02  -2.852051e+02
   2.027323e+02  -2.263106e+02
   2.945499e+02  -4.044930e+01
   1.688896e+02   1.049937e+02
  -3.179496e+01   1.848081e+02
  -1.660100e+02   2.910360e+02
  -3.231392e+02   2.000049e+02
  -2.113837e+02  -1.172588e+02
  -7.531747e+01  -4.272082e+02
   1.006524e+02  -3.339158e+02
   1.420005e+02  -1.021252e+02
   3.443683e+01   1.160509e+01
   8.306736e+00  -6.434330e+01
   1.818388e+02  -6.726263e+01
   2.311505e+02   5.528536e+01
   1.313946e+02   2.107075e+02
  -4.778282e+01   2.231165e+02
  -1.737016e+02   1.641247e+01
  -1.462290e+02  -2.072597e+02
   6.723001e+00  -2.651195e+02
   2.165042e+02  -8.103913e+01
   3.086970e+02   1.266388e+02
   1.623916e+02   3.039547e+02
  -6.596890e+01   2.742328e+02
  -2.099449e+02   9.826836e+01
  -1.255317e+02  -1.504343e+00
  -7.664628e+01   1.038110e+01
  -2.224459e+02   2.954758e+01
  -3.243303e+02  -5.698746e+01
  -2.873197e+02  -2.507388e+02
   1.389627e+01  -3.940410e+02
   2.884963e+02  -3.312274e+02
   3.908367e+02  -1.537254e+02
   3.076351e+02   8.105045e+01
  -1.642715e+00   2.701589e+02
  -1.300049e+02   2.276243e+02
  -7.478415e+01   3.560568e+01
   1.043999e+02  -9.473965e+01
   1.615950e+02   3.932543e+01
   6.491868e+01   1.539493e+02
  -1.491327e+02   1.193656e+02
  -1.509430e+02  -6.748957e+01
  -6.545234e+00  -1.509273e+02
   1.711552e+02  -2.250394e+01
   1.454314e+02   2.031668e+02
  -1.732166e+01   3.070877e+02
  -1.815060e+02   1.683083e+02
  -2.264513e+02  -8.182027e+01
  -2.274410e+02  -2.045985e+02
  -6.595990e+01  -1.991426e+02
   7.121788e+01  -1.503505e+02
   1.646115e+02  -2.440878e+01
   4.976294e+01   1.103130e+01
  -6.798364e+01  -4.881771e+01
  -3.968951e+00  -1.052159e+02
   1.078444e+02  -1.030778e+02
   1.545604e+02   2.605978e+01
   4.177702e+01   5.944315e+01
  -6.191592e+01   1.241474e+01
  -8.162447e+01  -6.775752e+01
   1.183689e+02  -3.160297e+01
   2.514906e+02   6.685891e+00
   1.928243e+02   1.597242e+02
   4.843151e+01   2.538456e+02
  -1.663245e+02   2.165890e+02
  -2.309555e+02   1.370183e+02
  -1.322565e+02  -5.420193e+01
   7.220429e+00  -6.944536e+01
   6.733188e+01  -1.627718e+01
  -3.746730e+01   1.004071e+02
  -1.775829e+02   3.006694e+01
  -1.698828e+02  -5.317303e+01
  -5.732927e+01  -1.945113e+02
   6.229471e+01  -1.206975e+02
   1.043148e+02  -2.235368e+01
   4.619511e+01   4.016833e+01
  -1.107273e+01  -8.703581e+00
  -2.679266e+01  -5.803229e+01
   5.506903e+01  -7.962839e+01
   1.692267e+02  -1.389179e+01
   1.583739e+02   1.190901e+02
   2.325321e+01   1.899486e+02
  -1.487811e+02   1.347565e+02
  -1.577540e+02  -9.225375e-01
  -2.942491e+01  -9.177410e+01
   6.627525e+01  -1.373219e+02
   6.834763e+01  -4.239653e+01
   1.081918e+01   3.924383e+01
   6.791385e+00   1.453031e+01
   1.256558e+01   2.722775e+01
   5.360447e+01   1.343488e+00
   6.000096e+01   6.809195e+01
  -7.302772e+00   1.322458e+02
  -1.057944e+02   1.574525e+02
  -2.045303e+02   1.407150e+01
  -1.477758e+02  -1.464702e+02
  -2.019782e+01  -2.058361e+02
   1.034963e+02  -1.084358e+02
   1.479130e+02  -2.461902e+01
   5.474971e+01   2.304584e+01
   2.960545e+01   3.560580e+01
   4.490772e+01  -2.019442e+01
   4.148297e+01  -4.384444e+00
   7.428479e+00   2.475558e+01
  -5.606937e+00   8.566794e+01
  -1.075968e+02   5.090891e+01
  -8.072629e+01  -2.152044e+01
   3.277870e+01  -8.574773e+01
   1.274166e+02  -7.520373e+01
   1.756305e+02   5.637389e+01
   6.751636e+01   1.702900e+02
  -9.657859e+01   1.580802e+02
  -2.325512e+02   8.908542e+01
  -2.346583e+02  -5.863514e+01
  -9.901404e+01  -1.451215e+02
   3.399208e+01  -1.148516e+02
   9.136902e+01  -5.877180e+01
   9.212428e+01  -7.860828e+01
   7.361543e+01  -8.244965e+01
   1.013060e+02  -5.338722e+01
   1.037077e+02   2.378490e+01
   1.127778e+02   1.310568e+02
  -9.875957e+00   2.064055e+02
  -9.866694e+01   1.534412e+02
  -1.288352e+02   2.916212e+01
  -8.838459e+01  -1.020675e+02
  -3.661640e+01  -1.235001e+02
   6.184153e+01  -8.917969e+01
   6.120224e+01   5.411894e+00
  -1.381007e+01   3.377756e+01
  -5.686111e+00   3.617299e+01
   2.522706e+01   1.502264e+01
   6.457483e+01  -9.898440e-01
   2.199445e+01   5.263813e+01
  -6.338186e+01   4.116355e+01
  -1.496861e+02   5.790064e+00
  -1.140713e+02  -4.866406e+01
  -2.775632e+01  -6.483955e+01
   1.172931e+02  -6.227555e+01
   1.002930e+02   1.509550e+01
   5.165349e+01   3.772568e+01
  -4.686894e+01   2.432518e+00
  -6.810519e+01  -1.432800e+01
  -6.410328e+00  -6.636355e+01
   3.677831e+01  -5.935521e+01
   6.434786e+01   2.469025e+01
   3.252593e+01   6.982266e+01
   5.000998e+01   5.689238e+01
   4.837922e+01  -1.047999e+01
   6.795174e+01  -8.420215e+00
   2.720589e+01   6.323612e+01
  -5.199394e+01   1.062713e+02
  -1.145645e+02   1.196430e+02
  -1.140626e+02   3.289301e+01
  -9.350235e+01  -7.093877e+01
  -4.570077e+01  -1.095894e+02
   9.239794e+01  -5.705723e+01
   6.845379e+01   1.935296e+01
  -2.443978e+01   1.315638e+01
  -1.287554e+02  -3.021679e+01
  -6.470191e+01  -1.015132e+02
   5.353472e+01  -9.339120e+01
   1.575019e+02  -3.667594e+01
   9.836738e+01   2.973217e+01
   4.956677e+01   5.875755e+01
  -7.052000e+01   3.099102e+01
  -3.657043e+01   2.939218e+01
   3.489587e+01  -1.014291e+01
   8.303684e+01   1.847731e+01
   2.413331e+01   1.158030e+02
  -8.264911e+01   1.082040e+02
  -1.546258e+02   5.719357e+01
  -7.624040e+01  -1.100090e+02
  -3.694479e+01  -1.687248e+02
   7.805941e+01  -1.034687e+02
   9.164105e+01   1.245679e+01
   3.613427e+01   9.581742e+01
   1.419517e+01   1.000702e+02
  -5.836008e+01   2.843458e+01
  -3.517069e+01  -3.046499e+01
  -1.751040e+01   8.316052e+00
   8.024660e+00   4.947312e+01
   8.758844e+00  -1.276626e+01
  -5.665539e+01  -5.539854e+01
  -4.354566e+01  -9.050420e+01
   3.464689e+01  -4.417620e+01
   1.216446e+02   3.721598e+01
   1.206932e+02   5.476013e+01
   1.446992e+01   3.114966e+01
  -7.198026e+01   1.863727e+01
  -8.491929e+01   3.580376e+01
  -1.125721e+01   8.080660e+00
   4.361694e+01  -1.657692e+01
  -6.291957e+00  -8.161825e+00
  -2.203606e+01   1.750491e+01
   2.062683e+01   6.876950e-01
   8.362129e+01  -4.938154e+00
   5.557637e+01   1.298911e+01
   3.697535e+00   9.547379e+01
  -1.116358e+02   1.041663e+02
  -1.495181e+02   5.642862e+01
  -1.096883e+02  -5.781683e+01
  -3.051763e+01  -1.651192e+02
   6.688536e+01  -1.187967e+02
   9.320550e+01  -4.187230e+01
   7.563843e+01   1.520890e+01
   3.735617e+01   3.374251e+01
   2.983877e+01   3.595949e+01
   9.043095e+00  -8.468436e-01
   3.711982e+01   4.136709e+01
   7.534724e+00   8.653259e+01
  -9.419755e+00   6.036734e+01
  -4.313331e+01  -1.810206e+00
  -6.521778e+01  -7.686056e+01
   1.828919e+00  -1.028571e+02
   9.592028e+01  -2.635268e+01
   5.486278e+01   8.074514e+01
   9.198403e+00   7.662121e+01
  -4.886354e+01   5.881788e+01
  -6.260401e+01   5.523967e+00
  -5.199466e+01  -5.052397e+01
   4.739585e+01  -6.092815e+01
   2.029943e+00  -2.612388e+01
  -2.566292e+00  -1.571853e+01
  -3.752841e+01   4.077505e+00
  -2.672488e+01  -1.583457e+01
   6.264431e+01  -4.075494e+01
   7.750494e+01  -5.591052e+01
   8.366722e+01  -4.293805e+00
  -2.045929e+01   6.834912e+01
  -3.425439e+01   6.174960e+01
  -1.454222e+01  -4.918194e+00
   9.563834e-01  -3.465964e+01
   4.564438e+01  -3.347255e+01
   2.277899e+01   3.728836e+01
   2.738029e+01   7.602035e+00
  -8.626454e+00   1.911657e+01
  -2.847009e+01   2.261249e+01
  -2.564653e+01  -1.562354e+01
  -2.198965e+01  -2.222886e+01
  -4.380360e+01  -2.070244e+01
   2.876408e+01  -1.326033e+00
  -3.874339e+01  -2.577754e+01
   3.184015e+01  -1.966582e+01
   3.415994e+01   1.602419e-01
   4.927331e+01   3.217174e+01
   1.184487e+01   6.503698e+01
  -2.387051e+01   3.718519e+01
  -5.893003e+01  -4.409388e+01
  -8.538339e+00  -5.507671e+01
   3.940144e+01  -2.744729e+01
   7.142389e+01  -2.218507e+00
   2.577734e+01   2.549868e+01
  -2.233627e+01   1.032757e+01
  -4.888467e+01   8.597507e+00
  -2.543879e+01   2.251782e+01
   1.037134e+01  -1.739912e+00
   8.848403e+00   4.775665e+01
  -3.449329e+01   2.013567e+00
  -6.133546e+01   7.763692e+00
