
 $NMID
 id='ANONYMOUS ', fmtdat='(2E16.6)'
 volume=1.0
 tramp=1.0
 $END
   4.372962e+03  -2.654132e+02
   2.540660e+03   2.333967e+03
  -7.191682e+02   2.589765e+03
  -1.752185e+03   1.018679e+03
  -8.362598e+02  -4.759121e+02
   4.747097e+02  -6.415876e+02
   8.640903e+02   3.270965e+02
   1.122164e+02   9.332171e+02
  -7.514389e+02   7.104180e+02
  -9.565336e+02  -8.952142e+01
  -4.820981e+02  -8.527244e+02
   2.270244e+02  -8.533155e+02
   5.528565e+02  -2.100664e+02
   3.607767e+02   6.184570e+02
  -2.060266e+02   6.988855e+02
  -5.590863e+02   7.832045e+01
  -3.479124e+02  -6.861216e+02
   2.977883e+02  -6.783028e+02
   6.229528e+02  -1.368346e+02
   4.228206e+02   3.210752e+02
   2.153154e+01   4.767269e+02
  -2.461562e+02   2.799101e+02
  -1.956334e+02   1.622445e+01
   1.058367e+02  -5.726306e+01
   3.676086e+02   1.258394e+02
   1.841765e+02   3.554606e+02
  -4.569258e+02   3.747969e+02
  -7.700878e+02  -2.330128e+01
  -4.523333e+02  -4.047115e+02
   3.009034e+02  -4.174764e+02
   6.485537e+02  -2.868929e+01
   3.459756e+02   3.963514e+02
  -2.673076e+02   5.170122e+02
  -5.330961e+02   1.936239e+02
  -3.969568e+02  -1.959853e+02
  -6.105316e+01  -4.559048e+02
   1.465401e+02  -2.820457e+02
   1.091890e+02   2.143159e+02
  -1.316154e+02   4.357330e+02
  -3.467827e+02   3.469164e+01
  -2.992900e+02  -6.224860e+02
   2.771980e+02  -6.747416e+02
   5.316135e+02  -4.594064e+01
   2.722971e+02   5.306083e+02
  -2.544144e+02   2.745080e+02
  -3.612284e+02  -3.136539e+02
   4.234682e+01  -5.160736e+02
   4.947625e+02  -1.352452e+02
   5.473785e+02   4.208736e+02
   1.572714e+02   5.842081e+02
  -3.892232e+02   3.657428e+02
  -6.268902e+02  -8.668133e+01
  -3.373747e+02  -3.097229e+02
   9.920699e+01  -3.392983e+02
   4.112327e+02  -1.135024e+02
   2.376243e+02   1.428970e+02
  -8.004285e+01   1.276537e+02
  -1.470028e+02  -1.348671e+02
   1.309141e+02  -1.664504e+02
   3.013546e+02   4.184669e+01
   1.394867e+02   2.707273e+02
  -1.753431e+02   2.462477e+02
  -3.053866e+02   8.966298e+01
  -2.106781e+02  -7.035084e+01
   3.610794e+01  -2.209170e+02
   2.315059e+02  -2.893372e+02
   3.271747e+02  -1.958697e+02
   2.416906e+02   1.614217e+02
   1.073197e+02   4.298486e+02
  -6.595410e+01   4.095305e+02
  -1.369488e+02   1.094976e+02
  -1.454482e+01   2.059799e+01
  -6.584883e+01   5.315781e+01
  -2.058299e+02   1.177923e+02
  -2.648775e+02  -4.218991e+01
  -1.818822e+02  -2.748749e+02
   1.998071e+01  -2.264044e+02
   2.255809e+02  -9.574577e+00
   2.083043e+02   2.085491e+02
  -8.513952e+00   2.769984e+02
  -2.470954e+02   1.434597e+02
  -3.444905e+02  -1.682059e+02
  -1.823668e+02  -3.311637e+02
   8.072269e+01  -3.139239e+02
   2.273150e+02  -1.594293e+02
   1.860275e+02   1.665553e+01
   1.063649e+02  -1.958292e+01
   2.366949e+02  -4.610105e+01
   3.651932e+02   5.850132e+01
   3.002390e+02   3.014982e+02
   1.080487e+01   3.990848e+02
  -3.786919e+02   4.433066e+02
  -5.056422e+02   1.940168e+02
  -3.366328e+02  -7.351228e+01
  -6.452889e+01  -2.820388e+02
   1.151168e+02  -2.268485e+02
   6.156296e+01  -3.593990e+01
  -9.190445e+01   7.951969e+01
  -2.005729e+02  -2.844384e+01
  -6.277821e+01  -1.660755e+02
   1.397702e+02  -1.899000e+02
   1.628839e+02   4.838966e+01
   9.218768e+00   1.774490e+02
  -1.774320e+02   4.714533e+01
  -1.763731e+02  -2.074984e+02
   3.114953e+01  -3.538221e+02
   2.147051e+02  -1.579666e+02
   3.338980e+02   6.552734e+01
   2.980281e+02   2.634755e+02
   8.952589e+01   2.717027e+02
  -1.494466e+02   1.702518e+02
  -1.529509e+02   3.229955e+01
  -6.193283e+01  -4.427305e+01
   6.774066e+01   3.920896e+01
   3.682656e+01   1.168558e+02
  -1.176983e+02   1.003354e+02
  -1.670532e+02  -1.764273e+01
  -7.433877e+01  -5.985404e+01
   8.560570e+01   1.788544e+01
   5.634686e+01   2.756221e+01
  -1.010975e+02   7.592865e+01
  -2.406992e+02   2.180165e+01
  -2.317071e+02  -1.275020e+02
  -6.126925e+01  -2.516799e+02
   2.114390e+02  -2.384480e+02
   2.351230e+02  -1.244357e+02
   1.763476e+02   5.575126e+01
   6.818803e+00   8.937718e+01
  -8.888722e+01   1.506867e+01
   2.142139e+01  -1.094940e+02
   1.897867e+02  -5.583241e+01
   2.027743e+02   1.053057e+02
   9.065515e+01   2.081543e+02
  -9.020172e+01   1.477676e+02
  -1.478974e+02   2.733851e+01
  -7.751027e+01  -4.573949e+01
   3.585904e+00   4.998464e-02
   4.927810e+01   7.339494e+01
  -5.671880e+01   1.172405e+02
  -1.800688e+02   1.448773e+01
  -2.074697e+02  -1.101264e+02
  -1.154272e+01  -1.858020e+02
   1.465491e+02  -1.640211e+02
   1.740379e+02   1.420564e+01
   6.875077e+01   1.130583e+02
  -6.830813e+01   8.134499e+01
  -9.237483e+01   4.009283e+01
  -7.199560e+00  -2.264200e+01
   2.102186e+01   2.997993e+01
  -2.269775e+01   4.972109e-01
  -4.726771e+01  -7.873185e+00
  -9.083146e+01  -9.500690e+01
  -2.013811e+01  -1.515548e+02
   1.089922e+02  -1.711918e+02
   2.214625e+02  -9.896457e+00
   1.739273e+02   1.420101e+02
   3.101443e+01   2.067900e+02
  -9.744910e+01   1.652367e+02
  -1.325301e+02   4.799578e+00
  -1.070008e+02  -4.292558e+01
  -1.542560e+01  -3.216135e+01
  -5.039498e+01   8.906556e+00
  -5.968847e+01  -1.394189e+01
  -4.795840e+01  -5.180761e+01
   4.726456e+01  -9.609345e+01
   1.278572e+02  -3.676268e+01
   7.177735e+01   3.139036e+01
  -2.573229e+01   1.039614e+02
  -1.496990e+02   9.443428e+01
  -1.950874e+02  -6.503418e+01
  -8.952081e+01  -1.858576e+02
   9.877463e+01  -2.020574e+02
   2.705432e+02  -1.033761e+02
   2.792881e+02   1.038466e+02
   7.769927e+01   1.581872e+02
  -2.761738e+01   1.390575e+02
  -7.416750e+01   7.977044e+01
  -6.391944e+01   8.362119e+01
  -6.495573e+01   8.977801e+01
  -4.977294e+01   8.570691e+01
  -1.063371e+02  -1.501910e+01
  -1.105894e+02  -1.681990e+02
  -5.652934e+01  -2.395578e+02
   9.358341e+01  -1.553699e+02
   1.770373e+02  -1.983495e+01
   1.235578e+02   9.516023e+01
   3.133438e+01   1.424991e+02
  -7.846739e+01   9.150105e+01
  -6.118798e+01   2.092448e+01
  -2.052383e+01  -6.225126e+01
   3.714400e+01  -4.728290e+01
  -4.002878e+01  -1.097631e+01
  -7.902392e+01   7.048350e+00
  -3.867442e+01  -1.786435e+01
   6.596329e+01  -3.412719e+01
   1.787838e+02  -1.366968e+01
   1.186504e+02   4.010544e+01
   2.323983e+00   8.155809e+01
  -1.120842e+02   9.518042e+01
  -1.453185e+02   1.934337e+01
  -4.433247e+01  -4.203793e+01
   5.220913e+01  -5.381811e+01
   7.472966e+01   5.617942e+00
  -9.886168e+00   7.106151e+01
  -4.636466e+01   7.647809e+01
  -6.259687e+01   1.015379e+01
  -2.376969e+01  -4.140487e+01
  -5.220177e+01  -1.247199e+01
  -6.838430e+01   6.449403e+00
  -7.618258e+01   3.936708e+00
  -3.820444e+01  -4.066701e+01
   2.648516e+01  -1.497542e+02
   1.125884e+02  -1.248622e+02
   1.711438e+02  -3.403920e+01
   1.264708e+02   6.438620e+01
   1.467283e+01   1.322022e+02
  -8.476329e+01   6.189143e+01
  -6.919791e+01   1.298537e+00
   5.398251e+01  -1.680441e+01
   1.461429e+02   4.663739e+01
   1.040873e+02   9.868733e+01
  -7.315899e+01   1.022836e+02
  -1.706299e+02   4.266720e+01
  -1.523781e+02  -3.737766e+01
  -4.071801e+01  -6.600063e+01
   4.204547e+01  -7.078540e+01
   3.091532e+01  -1.180196e+00
  -4.594702e+01   2.189630e+01
  -9.306110e+01  -3.216544e+00
  -3.854668e+01  -1.094080e+02
   9.514681e+01  -1.405881e+02
   1.440805e+02  -5.891527e+01
   1.403437e+02   6.990907e+01
   1.872349e+01   1.736692e+02
  -8.668621e+01   1.323742e+02
  -1.026224e+02  -7.399303e+00
  -6.483072e+01  -1.238538e+02
  -1.363654e+00  -7.919710e+01
   6.405440e+01  -3.041944e+01
   7.755334e+01   4.031589e+01
   3.478794e+01   8.015209e+00
   8.733922e+00  -3.408365e+01
   5.074231e+00  -1.001686e-01
   7.077223e+01   8.941961e+01
   4.527478e+01   9.293377e+01
  -4.229885e+01   3.008760e+01
  -1.216898e+02  -3.369368e+01
  -1.510501e+02  -8.702531e+01
   7.256986e+00  -4.830249e+01
   8.493518e+01  -3.758932e+01
   1.028973e+02  -1.095483e+01
   1.775235e+01   3.286026e+01
  -1.604160e+01  -1.179698e+01
  -1.257933e+01   3.120591e+00
   2.688600e+01  -1.504900e+01
  -1.375956e+01   3.943040e+00
  -6.448227e+01  -7.829282e+00
  -1.117377e+02   2.660916e+00
   5.350228e+00  -7.276717e+01
   1.216123e+02  -1.026815e+02
   1.631018e+02  -6.099434e+01
   1.147241e+02   5.655079e+01
   2.350435e+01   1.613753e+02
  -1.006084e+02   1.436840e+02
  -9.528638e+01   6.843696e+01
  -7.989565e+01  -3.383146e+01
  -2.984814e+01  -4.378285e+01
   4.704841e-01   1.916868e+00
  -5.445722e+00   1.392181e+01
  -1.968928e+01  -3.063668e+01
  -3.543605e+01  -7.630812e+01
   3.970324e+01  -7.610853e+01
   8.045112e+01   1.142440e+01
   9.110648e+01   1.002019e+02
  -3.821159e-01   1.090734e+02
  -8.229886e+01   9.823622e+00
  -1.134007e+02  -4.193490e+01
  -6.833684e+01  -1.186366e+02
   4.369555e+01  -3.631707e+01
   9.355304e+01   1.898848e+01
   6.117354e+01   5.352323e+01
   3.050084e+00   5.832718e+01
  -3.344670e+01   2.000303e+01
   2.335161e+01  -6.951624e+00
   8.898782e+01  -3.289570e+00
   2.790740e+01   8.775935e+00
  -7.573906e+01   6.986671e+01
  -1.143900e+02   7.085141e+01
  -1.634671e+01  -2.061783e+01
   3.420229e+01  -8.462032e+01
   6.310033e+01  -8.072610e+01
   2.426532e+01   3.323354e+00
   7.826237e+00   6.244006e+01
  -2.844511e+01   4.971006e+01
  -5.135924e+01   8.183076e-01
  -1.584810e+01  -5.148277e+01
  -3.149756e+00  -2.105300e+01
   4.117759e+01   6.124402e-01
   5.401379e+01   3.364927e+01
   6.332441e-01   6.726175e+00
  -3.620347e+00  -3.047869e+01
  -1.036768e+01   1.116686e+01
  -2.439533e-01   3.364052e+01
  -1.637341e+01   4.678182e+01
  -6.377508e+01  -3.803717e+00
   7.289200e+00  -5.788819e+01
  -1.898746e+01  -7.865965e+01
   1.161201e+01  -1.894679e+01
   6.162246e+01   7.436511e+01
   2.194959e+01   6.298621e+01
  -4.479402e+01   4.405370e+01
  -8.423479e+01  -1.469855e+00
  -5.930027e+01  -6.415546e+01
   1.595117e+01  -2.761389e+01
   5.159757e+01  -1.758610e+01
   4.517539e+01   1.973991e+00
  -3.794854e+01   1.769735e+01
  -4.041018e+01  -8.355712e+00
   1.469537e+01  -4.480807e+01
   7.548450e+01  -2.456373e+01
