
 $NMID
 id='ANONYMOUS ', fmtdat='(2E16.6)'
 volume=1.0
 tramp=1.0
 $END
  -4.055705e+03   1.209057e+02
  -2.595235e+03  -2.099609e+03
   4.526875e+02  -2.353599e+03
   1.800080e+03  -9.664747e+02
   8.592870e+02   3.042363e+02
  -3.394046e+02   4.282408e+02
  -7.275652e+02  -2.795399e+02
  -1.717467e+01  -7.881600e+02
   6.975302e+02  -7.451315e+02
   8.398874e+02   4.885271e+01
   3.653256e+02   7.045593e+02
  -1.781663e+02   7.532938e+02
  -4.977071e+02   1.663495e+02
  -3.701856e+02  -6.290872e+02
   1.635332e+02  -6.776323e+02
   5.015227e+02  -1.972484e+01
   3.028421e+02   6.328019e+02
  -2.432228e+02   6.480702e+02
  -5.366640e+02   1.822841e+02
  -4.166795e+02  -2.709285e+02
  -4.727060e+01  -4.199513e+02
   1.973965e+02  -2.677098e+02
   1.577174e+02  -3.500028e+01
  -1.433909e+02  -1.830362e+01
  -3.559649e+02  -1.901527e+02
  -1.056003e+02  -3.380420e+02
   4.662015e+02  -3.304537e+02
   7.742981e+02  -4.305095e+00
   3.294730e+02   3.921118e+02
  -3.840841e+02   3.215639e+02
  -6.114364e+02  -5.716749e+01
  -3.058090e+02  -3.784438e+02
   2.713689e+02  -4.649218e+02
   5.673962e+02  -1.728212e+02
   3.974529e+02   1.880463e+02
   5.053426e+01   4.112007e+02
  -1.282148e+02   2.461631e+02
  -9.109464e+01  -2.058329e+02
   1.595832e+02  -3.638288e+02
   3.731388e+02   3.804428e+01
   1.375274e+02   5.479670e+02
  -2.977383e+02   6.332746e+02
  -4.736737e+02   2.223063e+01
  -2.374084e+02  -5.274971e+02
   2.502441e+02  -2.129721e+02
   2.837687e+02   3.079551e+02
  -6.313947e+01   4.966812e+02
  -5.492926e+02   8.769850e+01
  -5.846692e+02  -3.986792e+02
  -1.334168e+02  -5.219970e+02
   3.472742e+02  -3.273885e+02
   6.153292e+02   6.590178e+01
   3.551948e+02   2.999195e+02
  -1.130511e+02   3.505568e+02
  -4.185538e+02   8.570376e+01
  -3.006426e+02  -1.753309e+02
   5.516780e+01  -9.667416e+01
   1.019084e+02   8.133313e+01
  -1.213055e+02   1.314786e+02
  -2.789923e+02  -4.207251e+01
  -1.272295e+02  -2.567637e+02
   1.792999e+02  -2.431174e+02
   3.507500e+02  -1.014733e+02
   2.100532e+02   1.191001e+02
  -2.189815e+01   2.495937e+02
  -2.413391e+02   3.200178e+02
  -3.325681e+02   1.647326e+02
  -2.319074e+02  -1.568080e+02
  -5.082869e+01  -4.281776e+02
   6.612979e+01  -3.661799e+02
   6.347477e+01  -1.245165e+02
   1.132096e+01  -4.444608e+01
   8.447693e+01  -7.933592e+01
   2.015226e+02  -7.097990e+01
   2.797913e+02   7.179041e+01
   1.497618e+02   2.988249e+02
  -4.663668e+01   2.172527e+02
  -1.933321e+02  -1.573201e+01
  -1.478656e+02  -2.220183e+02
   4.055615e+01  -2.674307e+02
   2.684557e+02  -1.109092e+02
   3.279034e+02   1.849483e+02
   1.670806e+02   3.262193e+02
  -6.769374e+01   2.678259e+02
  -1.678593e+02   1.214377e+02
  -1.612001e+02   4.054316e+01
  -1.074365e+02   5.064675e+01
  -2.724624e+02   4.297518e+01
  -3.975953e+02  -1.069308e+02
  -3.497517e+02  -2.887333e+02
   1.039184e+01  -4.127384e+02
   3.514312e+02  -4.076805e+02
   5.169177e+02  -1.888677e+02
   2.941233e+02   1.015872e+02
   3.643966e+01   2.675758e+02
  -8.868277e+01   2.174363e+02
  -7.846781e+01   4.264509e+01
   9.354531e+01  -8.319370e+01
   1.893378e+02   2.306004e+01
   4.015368e+01   1.956009e+02
  -1.394331e+02   1.524333e+02
  -1.306656e+02  -4.492455e+01
   2.698713e+01  -1.777861e+02
   1.943733e+02  -1.460465e+01
   1.385778e+02   2.346700e+02
  -2.632332e+01   3.615724e+02
  -2.097783e+02   1.922133e+02
  -3.630093e+02  -5.701781e+01
  -2.481640e+02  -2.532877e+02
  -7.564694e+01  -2.638320e+02
   9.280277e+01  -1.631198e+02
   1.422703e+02  -2.096624e+01
   5.189328e+01   2.737940e+01
  -6.958481e+01  -4.675348e+01
  -4.464179e+01  -1.014533e+02
   1.152754e+02  -5.917494e+01
   1.759667e+02   4.013866e+01
   1.718792e+01   7.688835e+01
  -9.189670e+01   1.088796e+01
  -4.741350e+01  -7.757691e+01
   1.126090e+02  -7.681006e+01
   2.785829e+02   6.418144e+00
   2.718747e+02   1.321240e+02
   5.816890e+01   2.546949e+02
  -2.123854e+02   2.305965e+02
  -2.901127e+02   1.119866e+02
  -1.809782e+02  -5.631881e+01
   6.843211e+00  -7.732992e+01
   5.489374e+01  -1.262231e+01
  -6.942244e+01   9.187338e+01
  -1.919387e+02   4.882569e+01
  -2.063665e+02  -1.045791e+02
  -9.372429e+01  -2.201985e+02
   9.045704e+01  -1.692120e+02
   1.122326e+02  -4.626730e+01
   6.343768e+01   1.878500e+01
  -2.639097e+01  -1.079826e+01
  -4.166723e+01  -9.287272e+01
   7.836371e+01  -8.873364e+01
   1.716832e+02  -1.545673e+01
   1.852086e+02   1.250733e+02
  -5.738542e+00   2.180248e+02
  -1.564941e+02   1.527819e+02
  -1.839374e+02   8.308954e+00
  -5.461453e+01  -1.084118e+02
   6.466391e+01  -1.099710e+02
   7.423884e+01  -2.944236e+01
  -7.840120e+00  -4.168924e+00
  -6.295170e+01   1.455431e+01
   1.372949e+00  -2.057504e+01
   5.702521e+01   7.994283e+00
   7.569294e+01   5.965956e+01
   1.433272e+01   1.558049e+02
  -1.178409e+02   1.500709e+02
  -2.274897e+02   1.874925e+01
  -1.780345e+02  -1.506795e+02
  -3.036784e+01  -2.121097e+02
   1.118748e+02  -1.724237e+02
   1.409581e+02   2.320118e+01
   6.460659e+01   5.600887e+01
   3.667889e+01   4.347554e+01
   3.868620e+01  -7.871058e+00
   7.583250e+01   5.290122e+00
   4.086971e+01   2.925107e+01
  -4.530907e+01   1.203242e+02
  -1.012870e+02   3.706347e+01
  -6.971023e+01  -4.903385e+01
   1.064106e+01  -1.098328e+02
   1.383041e+02  -6.760510e+01
   1.925050e+02   8.607515e+01
   7.979057e+01   1.655475e+02
  -1.200248e+02   2.146798e+02
  -2.893831e+02   6.761651e+01
  -2.682934e+02  -9.235409e+01
  -8.656812e+01  -1.224220e+02
   5.935698e+01  -1.156945e+02
   8.734710e+01  -8.032792e+01
   8.277228e+01  -6.221511e+01
   5.465762e+01  -7.767424e+01
   8.890471e+01  -7.669590e+01
   1.234590e+02   2.595300e+01
   9.700377e+01   1.373246e+02
   2.791478e+01   2.196479e+02
  -6.797694e+01   1.866572e+02
  -1.708538e+02  -9.391696e+00
  -1.174399e+02  -1.395970e+02
  -1.193672e+01  -1.356962e+02
   8.441171e+01  -5.875535e+01
   4.140358e+01   1.642729e+01
  -1.311033e+01   2.589819e+01
   7.130437e+00   2.148877e+01
   1.123962e+01  -1.329275e+01
   8.764446e+01  -3.182501e+00
   4.283229e+01   3.033873e+01
  -6.209389e+01   2.990471e+01
  -1.698348e+02   1.144242e+01
  -1.231462e+02  -6.707066e+01
  -1.623250e+01  -8.292953e+01
   1.334200e+02  -6.949398e+01
   1.361586e+02  -2.243289e+01
   6.574766e+01   5.083052e+01
  -8.352359e+01   5.764935e+01
  -8.574428e+01  -1.683209e+01
  -1.982827e+00  -9.022892e+01
   3.433356e+01  -9.408249e+01
   5.463244e+01   1.943966e+01
   4.613758e+01   7.444070e+01
   4.137465e+01   3.607151e+01
   7.066768e+01  -6.944107e+00
   7.258900e+01  -2.920323e+01
   5.340745e+01   9.490165e+01
  -3.494898e+01   1.535095e+02
  -1.290237e+02   1.451560e+02
  -1.607518e+02   2.876808e+01
  -1.250324e+02  -8.873763e+01
   9.077739e+00  -1.107503e+02
   7.744983e+01  -5.291654e+01
   6.507352e+01   2.062454e+01
  -8.299596e+01   2.014126e+01
  -1.448743e+02  -5.269575e+01
  -5.692936e+01  -8.432338e+01
   7.795334e+01  -1.232717e+02
   1.931529e+02  -2.853327e+01
   1.253164e+02   3.388018e+01
   5.481692e+01   8.640455e+01
  -7.081010e+01   6.689123e+01
  -7.321927e+01   1.893479e+01
   3.733703e+01  -6.333851e+00
   8.856702e+01   1.718210e+01
   4.290958e+01   9.323570e+01
  -7.909886e+01   1.756519e+02
  -1.751923e+02   5.360770e+01
  -1.209391e+02  -9.424145e+01
  -8.907327e+00  -2.004494e+02
   7.532721e+01  -1.276727e+02
   1.279117e+02   1.910412e+01
   7.428170e+01   1.203738e+02
   4.012070e+00   1.046920e+02
  -5.750723e+01   2.830281e+01
  -8.414978e+01  -4.998235e+01
   5.318610e-01  -2.551786e+01
  -7.927799e+00   2.713900e+01
  -2.698689e+01  -1.763388e+01
  -3.979889e+01  -8.257557e+01
  -4.901451e+01  -1.162089e+02
   5.004102e+01  -5.039009e+01
   1.380195e+02   2.523981e+01
   1.150412e+02   7.251875e+01
   1.622401e+01   4.232835e+01
  -1.184107e+02   4.020957e+01
  -8.659251e+01  -9.561186e+00
  -1.073758e+01  -9.130638e+00
   3.698295e+01  -2.455657e+01
   7.163980e+00   4.064502e+00
  -3.101806e+01   6.118938e+00
  -2.242457e+00   4.671354e+00
   7.201335e+01  -6.498212e+00
   1.038793e+02   9.377338e+00
   2.760739e+01   6.754300e+01
  -1.021939e+02   1.374481e+02
  -1.753859e+02   5.895606e+01
  -1.256029e+02  -6.084056e+01
  -5.874911e+00  -1.568136e+02
   8.132689e+01  -1.437057e+02
   1.561352e+02  -1.155282e+01
   7.093242e+01   3.201343e+01
  -1.548080e+01   3.543799e+01
   1.244329e+01   1.281857e+00
   1.142704e+01  -7.707210e+00
   3.105477e+01   3.662888e+01
   9.360427e-01   1.073569e+02
  -3.166635e+01   7.978438e+01
  -8.342420e+01  -1.942692e+01
  -7.817449e+01  -1.374301e+02
   1.169896e+01  -8.712485e+01
   9.425105e+01  -3.297225e+01
   8.398727e+01   8.137543e+01
   3.412989e+01   1.034804e+02
  -6.739788e+01   3.479307e+01
  -8.730170e+01  -2.177809e+01
  -4.337968e+01  -6.625436e+01
   3.472043e+01  -5.548131e+01
   4.042392e+01  -2.895925e+01
  -2.653613e+00   7.138269e+00
  -7.754017e+01  -5.506063e-01
  -7.252267e+00  -3.738744e+01
   8.891919e+01  -7.151614e+01
   1.135255e+02  -6.436128e+01
   6.869014e+01   1.227848e+01
  -1.143392e+01   7.677485e+01
  -7.283134e+01   8.719400e+01
  -4.611678e+01  -2.298831e+01
  -8.266610e+00  -1.822707e+01
   2.886619e+01  -6.320506e+01
   4.661783e+01   1.088559e+01
   8.149620e+00   5.640471e+01
  -1.607197e+01  -1.011663e+01
  -5.033188e+00   2.064953e-01
  -6.652190e+01  -1.522123e+01
  -1.380052e+00   4.318462e+00
  -1.606056e+01   6.442214e+00
   2.077248e+01   3.169773e+00
   1.217038e+01  -3.760604e+01
   3.464777e+01  -6.429525e+01
   4.934593e+01  -4.654644e+00
   1.366158e+01   1.046551e+01
  -1.692207e+01   6.108651e+01
  -4.924659e+01   2.271002e+01
  -5.559110e+01  -1.206020e+01
   1.187268e+01  -9.242958e+01
   6.452361e+01  -3.933393e+01
   7.961378e+01   1.799079e+01
   3.957884e+01   5.979576e+01
  -2.381593e+01   3.602582e+01
  -5.755451e+01   1.366470e+01
  -2.645648e+01  -7.531045e+00
   2.741510e+01   1.758736e+01
   2.555107e+01   7.736998e+00
  -3.427121e+01   1.712351e+01
  -7.890738e+01  -2.963700e+00
