
 $NMID
 id='ANONYMOUS ', fmtdat='(2E16.6)'
 volume=1.0
 tramp=1.0
 $END
   4.077351e+03   8.450487e+01
   2.430060e+03   2.186796e+03
  -5.411829e+02   2.361481e+03
  -1.847978e+03   1.053946e+03
  -8.701178e+02  -3.727772e+02
   3.848392e+02  -5.831076e+02
   7.530043e+02   3.083829e+02
   1.482053e+01   8.750025e+02
  -7.491232e+02   6.808457e+02
  -8.616152e+02  -6.107950e+01
  -3.628107e+02  -7.318294e+02
   1.555216e+02  -7.668758e+02
   5.275324e+02  -1.396016e+02
   3.826007e+02   6.614165e+02
  -1.693484e+02   6.842340e+02
  -5.439521e+02   3.631887e+01
  -2.939120e+02  -6.479975e+02
   2.708395e+02  -6.388950e+02
   6.101492e+02  -1.574688e+02
   4.202151e+02   3.177357e+02
   3.651083e+01   4.467326e+02
  -1.824264e+02   2.880795e+02
  -1.591591e+02   3.011143e+01
   1.296875e+02  -3.403764e+01
   3.436212e+02   1.935868e+02
   1.379626e+02   3.779704e+02
  -4.595256e+02   3.524580e+02
  -7.678640e+02  -2.428685e+01
  -3.798878e+02  -4.628209e+02
   4.006541e+02  -3.532373e+02
   6.235877e+02   2.141476e+01
   2.718519e+02   3.991023e+02
  -2.326327e+02   4.781790e+02
  -5.419632e+02   1.502186e+02
  -4.146972e+02  -2.168130e+02
  -3.619297e+01  -3.981693e+02
   1.084321e+02  -2.596526e+02
   1.169907e+02   2.151051e+02
  -1.487834e+02   3.708408e+02
  -3.727577e+02  -2.483662e+01
  -1.984249e+02  -5.738225e+02
   3.092190e+02  -6.369696e+02
   4.957175e+02   1.398917e+00
   2.109121e+02   5.143593e+02
  -3.065922e+02   2.667664e+02
  -2.583106e+02  -3.221567e+02
   6.454489e+01  -4.991935e+02
   5.261287e+02  -8.403454e+01
   6.093535e+02   4.057438e+02
   1.458015e+02   5.221111e+02
  -3.754389e+02   3.299907e+02
  -6.426697e+02  -3.082223e+01
  -3.421938e+02  -2.916010e+02
   1.211988e+02  -3.637574e+02
   4.140302e+02  -8.070475e+01
   2.671659e+02   1.766507e+02
  -7.406087e+01   1.090851e+02
  -1.353278e+02  -9.845190e+01
   1.193985e+02  -1.577944e+02
   2.637580e+02   6.342776e+01
   1.805539e+02   2.635542e+02
  -1.832940e+02   2.680531e+02
  -3.330242e+02   8.146265e+01
  -1.961210e+02  -1.071486e+02
   1.762377e+01  -2.292979e+02
   2.212105e+02  -3.220354e+02
   3.351267e+02  -1.926548e+02
   2.559513e+02   1.683931e+02
   7.898060e+01   4.148977e+02
  -7.494031e+01   3.558609e+02
  -9.673817e+01   9.506169e+01
  -2.221968e+01   2.582624e+01
  -5.432894e+01   7.481864e+01
  -1.931987e+02   9.764605e+01
  -2.799139e+02  -6.646508e+01
  -1.710326e+02  -2.816983e+02
   6.702482e+01  -2.309810e+02
   1.991592e+02   8.267245e+00
   1.824215e+02   2.170448e+02
  -2.866010e+01   2.828169e+02
  -2.579115e+02   1.228781e+02
  -3.446099e+02  -1.583210e+02
  -1.771261e+02  -3.197752e+02
   8.254978e+01  -2.846542e+02
   1.993694e+02  -1.332268e+02
   1.648025e+02  -4.837704e+01
   9.005718e+01  -2.284111e+01
   2.350576e+02  -7.200219e+01
   3.759090e+02   8.756454e+01
   3.316165e+02   2.622844e+02
  -1.778293e+01   4.046155e+02
  -3.350985e+02   3.840755e+02
  -5.414789e+02   1.678560e+02
  -3.132588e+02  -7.021860e+01
  -4.751182e+01  -2.674442e+02
   9.672518e+01  -2.282386e+02
   5.589227e+01  -2.804013e+01
  -9.328547e+01   1.093572e+02
  -2.015722e+02  -1.462407e+01
  -4.962292e+01  -1.625045e+02
   1.580420e+02  -1.655299e+02
   1.622009e+02   5.053020e+01
   5.606203e+00   2.010432e+02
  -1.961310e+02   4.371799e+01
  -1.264767e+02  -2.200183e+02
   3.506523e+01  -3.393810e+02
   2.065035e+02  -2.082116e+02
   3.270523e+02   3.130877e+01
   2.509676e+02   2.699154e+02
   7.262258e+01   2.563471e+02
  -1.381797e+02   1.671313e+02
  -1.555941e+02   2.618610e+01
  -4.868096e+01  -4.455293e+01
   6.686265e+01   4.192633e+01
   4.822925e+01   1.206809e+02
  -1.293890e+02   7.441079e+01
  -1.785731e+02  -2.815481e+01
  -3.003804e+01  -5.852005e+01
   8.388537e+01  -2.882248e+00
   5.706237e+01   6.486403e+01
  -1.234310e+02   1.133399e+02
  -2.428116e+02  -3.392161e+00
  -2.565160e+02  -1.488002e+02
  -5.646984e+01  -2.470558e+02
   1.580406e+02  -2.586643e+02
   2.641687e+02  -1.082096e+02
   1.876012e+02   6.424735e+01
  -2.943907e+01   1.159845e+02
  -7.526276e+01   2.444087e+01
   4.240377e+01  -7.760434e+01
   1.950601e+02  -6.924954e+01
   2.061743e+02   9.658812e+01
   7.647243e+01   2.068323e+02
  -1.167551e+02   1.615986e+02
  -1.356478e+02   2.873022e+01
  -4.669891e+01  -2.993371e+01
   2.877624e+01  -1.468320e+01
   3.250558e+01   7.793945e+01
  -9.006556e+01   1.159599e+02
  -1.917542e+02   2.143232e+01
  -1.494539e+02  -1.088713e+02
  -1.301927e+01  -2.089236e+02
   1.282469e+02  -1.603721e+02
   1.444233e+02  -1.305979e+01
   6.231965e+01   1.272941e+02
  -5.465474e+01   9.680300e+01
  -6.131199e+01   1.300732e+01
  -1.930855e+01  -3.031835e+01
   3.481088e+01  -2.335685e+01
  -1.168951e+01   2.252395e+01
  -5.578529e+01  -6.337723e+00
  -5.530270e+01  -4.273025e+01
  -8.048177e-01  -1.510932e+02
   1.012422e+02  -1.470778e+02
   2.311338e+02  -1.075920e+01
   1.843113e+02   1.306429e+02
   4.280254e+01   2.175324e+02
  -1.267899e+02   1.438016e+02
  -1.415654e+02   1.391514e+01
  -5.807730e+01  -5.158586e+01
  -3.191129e+01  -5.407024e+01
  -4.972250e+01   1.728056e+01
  -6.724470e+01  -7.573542e+00
  -1.825495e+01  -3.198224e+01
   4.316868e+01  -1.201044e+02
   1.052981e+02  -1.768020e+01
   1.155404e+02   3.711955e+01
  -3.679028e+00   1.329014e+02
  -1.397222e+02   8.492036e+01
  -1.987430e+02  -6.317376e+01
  -9.208431e+01  -1.817672e+02
   8.912830e+01  -2.188389e+02
   2.503916e+02  -9.144474e+01
   2.667584e+02   9.102891e+01
   8.827657e+01   1.716405e+02
  -7.507153e+01   1.250389e+02
  -7.262126e+01   7.457498e+01
  -9.541382e+01   6.673097e+01
  -4.986577e+01   9.129538e+01
  -7.161147e+01   4.843874e+01
  -1.413282e+02  -3.378262e+01
  -1.209137e+02  -1.472555e+02
  -7.306099e+00  -2.442004e+02
   9.762908e+01  -1.819712e+02
   1.886349e+02  -4.124408e+00
   1.144018e+02   1.147696e+02
   4.090982e+00   1.489197e+02
  -5.398666e+01   5.760320e+01
  -7.225055e+01   6.050249e+00
   2.218451e+01  -6.223472e+01
   8.163231e+00  -4.743693e+01
  -2.853277e+01  -1.113621e+01
  -9.902798e+01  -1.691925e+01
  -5.869085e+01  -3.857652e+01
   3.104640e+01  -3.165257e+01
   1.606216e+02  -1.482242e+01
   1.459477e+02   3.810313e+01
  -3.525812e+01   6.733513e+01
  -1.250041e+02   7.671015e+01
  -1.555373e+02   3.327874e+01
  -4.643198e+01  -2.416235e+01
   4.991284e+01  -4.322904e+01
   6.526943e+01   5.246434e+00
  -2.314092e+00   6.491945e+01
  -2.742017e+01   8.159971e+01
  -5.488264e+01  -1.492014e+01
  -2.702545e+01  -8.639386e+01
  -1.425411e+01  -4.191844e+01
  -5.672062e+01  -1.183036e+01
  -6.794861e+01   9.721518e+00
  -5.490096e+01  -8.949882e+01
   4.120485e+01  -1.335289e+02
   1.245678e+02  -1.402093e+02
   1.523785e+02  -1.704541e+01
   1.219622e+02   1.062985e+02
  -2.761040e+01   1.149709e+02
  -8.994137e+01   4.540096e+01
  -6.869382e+01  -7.590543e+00
   2.403624e+01  -1.383500e+01
   1.368051e+02   2.024698e+00
   8.308308e+01   9.513887e+01
  -6.719968e+01   1.188466e+02
  -1.791553e+02   4.364279e+01
  -1.519733e+02  -3.613983e+01
  -3.570649e+01  -1.088409e+02
   6.572433e+01  -7.523269e+01
   3.058077e+01  -3.072213e+00
  -5.452446e+01   5.808115e+00
  -8.449282e+01  -1.064310e+01
  -3.790983e+01  -9.711877e+01
   9.383394e+01  -1.587543e+02
   1.765813e+02  -5.571999e+01
   1.607958e+02   9.343348e+01
  -2.381430e+00   1.898818e+02
  -9.890864e+01   1.219695e+02
  -1.041457e+02  -2.531560e+01
  -4.592766e+01  -1.299975e+02
  -2.260939e+00  -8.539376e+01
   5.319759e+01  -2.087348e+01
   5.140215e+01   4.431313e+01
   2.223013e+01   2.059099e+01
   2.256348e+01  -4.559824e+01
   2.408562e+01  -8.761454e-02
   5.315159e+01   6.860880e+01
   2.494156e+01   1.058411e+02
  -2.873433e+01   4.381847e+01
  -1.424668e+02  -4.842197e+01
  -1.198034e+02  -8.487524e+01
  -2.719481e+01  -6.406094e+01
   7.421267e+01  -3.734047e+01
   9.985092e+01  -1.496648e+01
   1.640479e+01   2.377169e+01
  -2.474151e+01   2.074002e+01
   1.244026e+01   3.281931e+01
   5.448851e+01  -1.107869e+01
   8.738005e+00  -1.313549e+01
  -7.793930e+01   4.067763e+00
  -9.812073e+01  -1.114187e+01
  -1.169678e+01  -8.194160e+01
   9.751032e+01  -1.278483e+02
   1.793390e+02  -3.298955e+01
   1.110447e+02   4.922166e+01
   2.077263e+01   1.445118e+02
  -1.039040e+02   1.520755e+02
  -1.376883e+02   4.224836e+01
  -8.522312e+01  -8.728290e+00
  -2.248112e+01  -4.227145e+01
   4.640868e+00  -1.328408e+01
   1.804990e+01  -1.121909e+01
  -1.075015e+01  -4.537274e+01
  -1.159250e+01  -7.206873e+01
   4.550060e+01  -6.957074e+01
   8.319786e+01   3.029568e+01
   8.756838e+01   1.101972e+02
  -3.463115e+01   9.196646e+01
  -9.518369e+01   1.991098e+01
  -9.347456e+01  -7.137248e+01
  -4.615315e+01  -9.238592e+01
   7.009107e+01  -5.718268e+01
   9.133167e+01   4.505384e+01
   6.405134e+01   3.470889e+01
  -3.949149e+01   4.730390e+01
  -2.553872e+01   3.698971e+01
   2.595442e+01   9.595866e+00
   4.793669e+01  -9.047037e+00
   6.511511e+00   2.751858e+01
  -6.720211e+01   6.846932e+01
  -1.185970e+02   3.752115e+01
  -6.269396e+01   7.741071e+00
   1.175340e+01  -7.695797e+01
   5.847076e+01  -7.785655e+01
   4.199822e+01  -8.155021e+00
   1.469699e-01   5.438614e+01
  -4.716521e+01   6.310612e+01
  -1.926269e+01  -1.805726e+01
  -2.149692e+01  -3.393348e+01
   2.554344e+01  -3.593532e+01
   1.653134e+01   3.228930e+00
   5.565300e+01   3.722157e+00
   1.299455e+01   2.324273e+01
  -5.755401e+00   4.752848e+00
   1.669301e+01  -4.263621e+00
  -2.005001e+01   4.513109e+01
  -2.572838e+01   2.344285e+01
  -3.050798e+01   1.784082e+01
  -1.723318e+01  -5.662075e+01
   2.123215e+01  -5.300058e+01
   5.249619e+01   1.947382e+01
   3.332844e+01   4.852342e+01
   2.573108e+01   4.972296e+01
  -4.433484e+01   3.429149e+01
  -9.349036e+01  -1.475942e+01
  -3.555506e+01  -9.444576e+00
   3.979368e+01  -5.268340e+01
   6.247145e+01   1.318760e+00
   4.325486e+01   2.623419e+00
  -2.694561e+01   4.500962e+00
  -2.356673e+01  -2.888600e+01
   2.562938e+01  -3.256184e+01
   7.096663e+01  -2.132283e+01
