
 $NMID
 id='ANONYMOUS ', fmtdat='(2E16.6)'
 volume=1.0
 tramp=1.0
 $END
  -3.816411e+03  -1.337286e+02
  -2.171794e+03  -2.375994e+03
   4.165282e+02  -2.406815e+03
   1.648103e+03  -9.359576e+02
   7.733043e+02   4.537054e+02
  -3.771513e+02   5.517024e+02
  -7.172688e+02  -2.823570e+02
  -5.312853e+01  -8.072929e+02
   6.639609e+02  -5.672220e+02
   7.831510e+02   1.212873e+02
   3.841064e+02   6.962438e+02
  -1.645608e+02   7.707373e+02
  -5.029369e+02   1.775907e+02
  -3.169261e+02  -5.619218e+02
   1.996182e+02  -7.017570e+02
   5.061292e+02  -5.270779e+01
   2.889088e+02   6.398224e+02
  -2.277316e+02   5.695734e+02
  -5.698783e+02   1.758924e+02
  -3.711851e+02  -2.705156e+02
  -3.042498e+01  -4.442181e+02
   1.893628e+02  -2.702167e+02
   1.684911e+02  -3.838994e+01
  -1.535936e+02   5.046514e+01
  -3.358154e+02  -1.650330e+02
  -1.465264e+02  -3.372176e+02
   4.604982e+02  -3.426351e+02
   6.994060e+02   7.452955e+01
   3.304324e+02   4.384741e+02
  -3.580881e+02   3.623861e+02
  -6.093359e+02  -2.542919e+01
  -2.463964e+02  -3.937176e+02
   2.199690e+02  -4.152589e+02
   5.092409e+02  -2.246445e+02
   3.333457e+02   1.260042e+02
   6.707568e+01   3.965674e+02
  -1.100249e+02   2.964474e+02
  -1.266081e+02  -2.023547e+02
   1.500467e+02  -3.215765e+02
   3.484761e+02   2.209326e+01
   2.418652e+02   5.864763e+02
  -2.678455e+02   6.059455e+02
  -4.795636e+02   5.045738e+00
  -1.936921e+02  -4.807116e+02
   2.720287e+02  -2.720504e+02
   2.735353e+02   2.740145e+02
  -5.596331e+01   4.166278e+02
  -4.977675e+02   7.739264e+01
  -5.307981e+02  -3.720543e+02
  -1.192018e+02  -4.761224e+02
   3.546415e+02  -3.207712e+02
   5.464623e+02   6.124347e+01
   3.337213e+02   2.904475e+02
  -7.007064e+01   2.993758e+02
  -3.405737e+02   9.604201e+01
  -2.248585e+02  -1.568420e+02
   8.539338e+01  -1.044893e+02
   1.499441e+02   1.144196e+02
  -1.174995e+02   1.532457e+02
  -3.029966e+02  -6.975632e+01
  -1.245969e+02  -2.645006e+02
   1.924113e+02  -2.413630e+02
   3.126877e+02  -6.844162e+01
   2.064110e+02   1.138857e+02
  -2.409950e+01   1.853236e+02
  -2.474126e+02   2.682688e+02
  -2.981798e+02   1.711810e+02
  -2.611853e+02  -1.396515e+02
  -7.449862e+01  -3.925020e+02
   7.513976e+01  -3.574160e+02
   9.005009e+01  -1.111175e+02
   5.346565e+00  -1.181519e+01
   7.865322e+01  -7.835687e+01
   1.655435e+02  -9.780902e+01
   2.394226e+02   7.607104e+01
   1.602746e+02   2.325156e+02
  -3.528658e+01   2.110252e+02
  -2.086310e+02  -2.419425e+01
  -1.498930e+02  -2.217460e+02
   1.636535e+01  -2.502425e+02
   2.279265e+02  -7.980436e+01
   2.805758e+02   1.252398e+02
   1.898936e+02   2.979392e+02
  -8.732978e+01   2.916978e+02
  -1.871870e+02   1.098582e+02
  -1.378359e+02   1.002158e+01
  -8.860751e+01   3.652042e+01
  -2.116931e+02   4.145569e+01
  -3.334569e+02  -7.367504e+01
  -3.113567e+02  -2.882812e+02
   1.476738e+01  -3.847955e+02
   3.182058e+02  -3.806508e+02
   4.573028e+02  -2.042552e+02
   3.085752e+02   8.009977e+01
   3.501191e+01   2.466747e+02
  -9.999647e+01   2.060445e+02
  -4.009807e+01   6.344769e+01
   1.059049e+02  -1.096424e+02
   1.547650e+02   3.500694e+01
   6.211354e+01   1.807070e+02
  -1.238767e+02   1.416854e+02
  -1.220421e+02  -4.040331e+01
   1.170598e+01  -1.605404e+02
   1.780288e+02  -7.957836e+00
   1.205627e+02   2.117013e+02
  -2.543258e+01   3.403706e+02
  -2.000926e+02   1.988719e+02
  -2.931141e+02  -4.968723e+01
  -2.092259e+02  -2.321155e+02
  -8.277455e+01  -2.325678e+02
   8.785880e+01  -1.603566e+02
   1.615349e+02  -1.603327e+01
   1.799175e+01   5.567701e+01
  -5.438131e+01  -4.837454e+01
  -2.862520e+01  -1.145467e+02
   1.403917e+02  -9.246847e+01
   1.788540e+02   4.225958e+01
   5.138075e+01   7.456115e+01
  -6.273776e+01   8.228304e+00
  -3.251502e+01  -6.748146e+01
   1.044761e+02  -9.443816e+01
   2.495121e+02   1.610540e+01
   2.278835e+02   1.292664e+02
   5.779381e+01   2.133335e+02
  -1.588465e+02   2.139321e+02
  -2.466550e+02   1.230634e+02
  -1.629959e+02  -6.299405e+01
   4.768804e+00  -7.261130e+01
   7.274304e+01   8.179688e+00
  -4.904363e+01   8.019678e+01
  -1.689285e+02   6.769709e+01
  -1.781439e+02  -9.412753e+01
  -5.791418e+01  -2.190232e+02
   7.305375e+01  -1.253861e+02
   1.182598e+02  -3.216403e+01
   5.011128e+01   2.597844e+01
  -1.802868e+01  -1.332263e+01
  -1.465254e+01  -7.025341e+01
   8.369835e+01  -1.063414e+02
   2.173141e+02  -2.003034e+01
   1.682473e+02   1.199301e+02
  -1.637790e+01   1.831156e+02
  -1.454596e+02   1.602674e+02
  -1.647182e+02   7.474121e+00
  -5.323498e+01  -9.086973e+01
   4.618072e+01  -8.439409e+01
   7.627434e+01  -4.597030e+01
   3.327066e+01   2.453706e+01
  -6.774989e+00   2.362523e+01
   3.559167e+00   1.679309e+00
   3.128972e+01   3.055760e+01
   6.870322e+01   8.211345e+01
   4.267798e+01   1.615801e+02
  -9.573234e+01   1.149777e+02
  -1.842895e+02   2.913107e+01
  -1.839532e+02  -1.539596e+02
  -2.510471e+01  -2.243390e+02
   8.027227e+01  -1.415977e+02
   1.185297e+02  -2.531430e+01
   4.489090e+01   6.477986e+01
   2.137205e+01   3.371722e+01
   4.769466e+01  -1.410144e+01
   8.163814e+01  -1.762372e+01
   1.067011e+01   3.604975e+01
  -2.096514e+01   8.192278e+01
  -1.145828e+02   4.737539e+01
  -7.983174e+01  -2.991392e+01
   1.637104e+01  -9.221938e+01
   1.240898e+02  -7.175078e+01
   1.854767e+02   6.697123e+01
   5.697474e+01   2.367473e+02
  -1.004853e+02   1.780258e+02
  -2.674614e+02   9.063297e+01
  -2.203560e+02  -9.583865e+01
  -1.068323e+02  -1.495012e+02
   3.354210e+01  -1.345477e+02
   8.086975e+01  -6.847793e+01
   9.678694e+01  -5.707348e+01
   6.054493e+01  -9.036081e+01
   9.821148e+01  -6.368607e+01
   1.180802e+02   3.399960e+01
   1.192431e+02   1.314028e+02
   2.903422e+01   2.148833e+02
  -1.023392e+02   1.449089e+02
  -1.449030e+02   1.856458e+01
  -1.249650e+02  -1.067672e+02
  -3.461262e+01  -1.570005e+02
   7.466849e+01  -8.236849e+01
   6.179585e+01   3.064441e+01
  -2.703944e+01   4.605882e+01
  -3.780605e+00   2.354435e+01
   1.494345e+01   3.384403e+01
   9.387112e+01   4.584919e+00
   3.763100e+01   4.023393e+01
  -6.704800e+01   3.426890e+01
  -1.715728e+02  -1.871302e+01
  -9.728293e+01  -6.692772e+01
  -2.753555e+01  -5.885643e+01
   1.051944e+02  -7.203099e+01
   1.408044e+02  -2.057948e+01
   2.497286e+01   3.323604e+01
  -7.175074e+01   3.952407e+01
  -6.358366e+01  -2.148597e+01
  -1.129172e+01  -8.413274e+01
   4.980456e+01  -5.073635e+01
   3.286565e+01   4.227120e+00
   4.846954e+01   4.140019e+01
   1.898017e+01   6.646971e+01
   4.824063e+01   5.379223e+00
   6.584526e+01  -7.245601e-01
   3.259753e+01   7.810225e+01
  -4.218041e+01   1.175324e+02
  -1.156740e+02   1.567549e+02
  -1.309106e+02   3.406820e+01
  -1.028309e+02  -9.708781e+01
  -3.337540e+01  -1.309325e+02
   9.846394e+01  -3.827695e+01
   4.077618e+01  -1.718872e+00
  -4.957965e+01   6.265997e+00
  -9.728741e+01  -6.461345e+01
  -6.359385e+01  -8.593408e+01
   5.298538e+01  -1.047800e+02
   1.623583e+02  -2.499588e+01
   1.251833e+02   4.051319e+01
   4.161896e+01   5.000304e+01
  -7.220330e+01   6.648458e+01
  -4.517433e+01  -1.635669e+01
   8.511093e+00  -5.419203e+00
   4.979663e+01   4.154790e+00
   2.441963e+01   1.248471e+02
  -7.373939e+01   1.162930e+02
  -1.508666e+02   6.141263e+01
  -1.108339e+02  -9.378064e+01
  -8.373877e+00  -1.973010e+02
   5.303548e+01  -1.257708e+02
   1.069405e+02   4.664260e+00
   5.259902e+01   1.120747e+02
  -4.853655e+00   9.401676e+01
  -4.735667e+01   2.275755e+01
  -5.053627e+01  -9.374810e+00
  -1.155759e+01  -3.727394e+01
  -2.004267e+00   4.551617e+01
  -5.170533e+00  -1.677188e+01
  -3.478474e+01  -8.591345e+01
  -6.092326e+01  -8.972944e+01
   5.060562e+01  -4.473230e+01
   1.297434e+02   3.348151e+01
   1.158407e+02   5.171902e+01
  -1.992440e+01   1.026076e+01
  -8.646944e+01   2.190646e+01
  -7.998161e+01   2.519708e+01
  -3.565988e+01  -1.869996e+01
   2.157098e+01  -7.894057e+00
  -8.167408e+00  -1.566762e+01
  -4.619454e+01  -7.105530e+00
   9.700208e+00  -7.151746e+00
   5.713175e+01   4.018154e+00
   9.069423e+01   4.742353e+01
  -8.550557e+00   6.422252e+01
  -1.057027e+02   1.128299e+02
  -1.874494e+02   6.115060e+01
  -1.136639e+02  -5.220757e+01
  -5.670328e+01  -1.267092e+02
   6.884947e+01  -1.301153e+02
   9.866386e+01  -8.029065e+01
   6.569795e+01   2.860836e+01
   8.391081e+00   3.460411e+01
   1.225922e+01   2.943484e+01
   1.091154e+01  -1.509542e+01
   1.460759e+01   3.233961e+01
   1.286211e+01   9.962309e+01
  -4.414257e+00   4.857071e+01
  -6.780530e+01  -3.837437e+01
  -6.830128e+01  -1.122469e+02
  -9.131514e+00  -1.203838e+02
   7.620157e+01  -1.663556e+01
   4.382168e+01   5.597480e+01
   1.422819e+01   9.690190e+01
  -9.884185e+01   7.433386e+01
  -7.690867e+01  -1.803860e+01
  -3.675463e+01  -6.631005e+01
   7.008327e+00  -3.135349e+01
   3.171440e+01  -1.684648e+01
  -3.428598e+01   3.724138e+00
  -4.601014e+01  -1.657895e+01
  -9.323263e+00  -4.114477e+01
   8.240232e+01  -5.455954e+01
   9.314549e+01  -4.694079e+01
   3.977789e+01   2.884272e+01
  -1.074995e+01   8.638680e+01
  -6.872446e+01   6.721872e+01
  -5.438597e+01  -1.815797e+01
   1.043512e+01  -4.776527e+01
   3.963982e+01  -4.902887e+01
   2.794624e+01   8.919275e+00
   1.246939e+00   2.137623e+01
   5.379067e+00   4.762375e+01
   4.925933e+00   1.598111e+01
  -1.361312e+01   4.682695e+00
  -4.333744e+01   1.629737e+01
  -1.804575e+01   2.920037e+01
   1.002678e+01  -2.904791e+01
  -1.099069e+01  -2.729594e+01
   1.806754e+01  -5.425673e+01
   2.670524e+01   1.629000e+00
   1.285385e+01   6.236564e+01
  -1.550130e+01   8.160509e+01
  -5.995852e+01   3.199912e+01
  -5.416135e+01  -4.132916e+01
  -4.228761e+01  -4.135795e+01
   4.611998e+01  -8.217024e+00
   8.901443e+01  -2.319947e+00
   3.119892e+01   5.836948e+01
  -2.242948e+01   5.661955e+01
  -4.183314e+01   1.252606e+01
   3.463283e+00  -1.692120e+00
   3.313414e+01   1.871575e+01
   2.441963e+01   4.058955e+01
  -4.356871e+01   1.447879e+01
  -8.605763e+01   4.150632e+01
