
 $NMID
 id='ANONYMOUS ', fmtdat='(2E16.6)'
 volume=1.0
 tramp=1.0
 $END
   3.402564e+03   2.063406e+01
   2.186906e+03   1.778265e+03
  -5.776771e+02   2.125762e+03
  -1.592020e+03   9.832207e+02
  -8.280078e+02  -5.669647e+01
   2.711762e+02  -5.391457e+02
   5.668527e+02   3.279682e+02
   3.625558e+01   8.130013e+02
  -5.671937e+02   6.029047e+02
  -6.081064e+02  -1.811824e+01
  -4.051598e+02  -5.765527e+02
   5.062831e+01  -6.638213e+02
   4.789851e+02  -1.617820e+02
   3.745887e+02   4.766842e+02
  -1.281200e+02   6.369370e+02
  -4.670231e+02   3.069592e+01
  -2.254738e+02  -5.356363e+02
   1.826944e+02  -6.406029e+02
   5.292338e+02  -1.440720e+02
   3.732149e+02   2.218347e+02
   7.756080e+01   3.467309e+02
  -1.956316e+02   2.025945e+02
  -1.320907e+02   6.902796e+01
   1.703160e+02   1.925643e+01
   2.969683e+02   2.024644e+02
   1.535978e+02   3.175289e+02
  -4.241174e+02   2.050508e+02
  -6.298190e+02  -1.333831e+02
  -3.013467e+02  -4.118943e+02
   3.531430e+02  -2.403104e+02
   5.303449e+02  -1.161341e+01
   2.368584e+02   3.659633e+02
  -2.272866e+02   4.100645e+02
  -4.252988e+02   1.345528e+02
  -3.536832e+02  -2.003612e+02
  -3.962579e+01  -3.356750e+02
   1.363812e+02  -2.283564e+02
   9.186941e+00   1.057676e+02
  -9.227288e+01   3.265002e+02
  -3.136129e+02  -2.680789e+01
  -1.560429e+02  -5.753152e+02
   3.234853e+02  -5.243074e+02
   4.092926e+02   1.612606e+01
   9.165928e+01   3.999847e+02
  -2.231538e+02   1.498379e+02
  -2.356384e+02  -2.719110e+02
   5.044898e+01  -4.125582e+02
   4.419668e+02  -6.460692e+01
   4.344785e+02   3.613128e+02
   1.524779e+02   4.920903e+02
  -3.278423e+02   2.610381e+02
  -5.017295e+02  -5.959869e+01
  -3.151086e+02  -2.922425e+02
   9.270494e+01  -2.679222e+02
   3.341199e+02  -8.736321e+01
   2.243989e+02   1.173750e+02
  -5.035773e+01   4.947246e+01
  -1.019972e+02  -9.073032e+01
   1.052640e+02  -1.327678e+02
   2.412776e+02   9.852470e+01
   7.241983e+01   1.893447e+02
  -1.433323e+02   2.196520e+02
  -2.817228e+02   5.266211e+01
  -2.261581e+02  -1.164569e+02
   2.907640e+01  -2.220782e+02
   1.976752e+02  -2.965754e+02
   3.213366e+02  -1.147881e+02
   2.520895e+02   1.235245e+02
   6.102089e+01   3.454437e+02
  -8.333518e+01   2.951277e+02
  -3.723441e+01   9.312819e+01
  -2.724219e+01   5.348422e+01
  -5.515573e+01   8.368573e+01
  -1.858114e+02   8.106802e+01
  -2.290766e+02  -8.394734e+01
  -9.772320e+01  -2.576264e+02
   7.799700e+01  -1.871086e+02
   1.946828e+02  -1.072523e+01
   1.376921e+02   2.220578e+02
  -4.096227e+01   2.193010e+02
  -2.489573e+02   6.286298e+01
  -2.999400e+02  -1.376258e+02
  -1.900942e+02  -2.971801e+02
   8.699017e+01  -2.841886e+02
   1.888531e+02  -1.492727e+02
   1.359032e+02  -2.056892e+01
   8.670415e+01  -2.222268e+01
   2.228712e+02  -7.483553e+01
   3.754839e+02   5.106902e+01
   2.936491e+02   2.429927e+02
  -6.907745e+00   3.666577e+02
  -3.570580e+02   3.487345e+02
  -4.370672e+02   1.904481e+02
  -2.714592e+02  -7.161827e+01
  -2.598860e+01  -2.498921e+02
   1.092742e+02  -1.975502e+02
   5.004088e+01  -2.054227e+01
  -9.509221e+01   8.562463e+01
  -1.672489e+02  -1.275922e+01
  -3.172088e+01  -1.781160e+02
   1.252146e+02  -1.601635e+02
   1.358320e+02   7.319926e+01
   2.102734e+01   1.712410e+02
  -1.534623e+02   1.801586e+01
  -1.556029e+02  -2.295292e+02
   3.105928e+01  -3.053394e+02
   2.291893e+02  -1.650501e+02
   2.695093e+02   8.650836e+01
   2.681980e+02   2.482724e+02
   1.035141e+02   2.381472e+02
  -9.805256e+01   1.369957e+02
  -1.324839e+02  -4.677898e+00
  -1.967736e+01  -3.251916e+01
   4.211538e+01   6.739775e+01
   1.589692e+01   9.380205e+01
  -8.095344e+01   6.138429e+01
  -1.562496e+02  -1.181766e+01
  -3.416510e+01  -7.861927e+01
   7.792837e+01   4.645746e+00
   3.554432e+01   8.780346e+01
  -1.699947e+02   8.272289e+01
  -2.494308e+02   1.968728e+01
  -2.264979e+02  -1.244727e+02
  -5.196969e+01  -2.115171e+02
   1.779486e+02  -2.103781e+02
   2.056021e+02  -8.939335e+01
   1.153008e+02   5.390422e+01
  -1.755137e+01   8.075592e+01
  -7.399509e+01   1.905436e+01
   2.925366e+01  -8.142821e+01
   1.770961e+02  -2.708196e+01
   1.570861e+02   9.276755e+01
   8.316500e+01   1.645416e+02
  -4.666122e+01   1.574187e+02
  -1.055708e+02   1.987735e+01
  -5.828069e+01  -7.619514e+00
   3.140012e+01   8.497421e+00
   2.588161e+00   7.922294e+01
  -7.605065e+01   9.708220e+01
  -1.979319e+02   3.604841e+01
  -1.659453e+02  -1.182986e+02
  -1.368131e+01  -2.145404e+02
   1.237789e+02  -1.361120e+02
   1.751835e+02  -3.117886e+01
   1.110253e+01   7.587951e+01
  -6.456675e+01   9.577244e+01
  -5.545928e+01   2.174093e+01
  -1.731182e+01  -3.070433e+01
   3.113849e+01  -1.122221e+00
  -1.357000e+01   2.020464e+01
  -2.424470e+01  -5.761858e+00
  -7.191799e+01  -9.609435e+01
  -1.472106e+01  -1.395967e+02
   1.291488e+02  -1.347201e+02
   2.082682e+02  -1.912084e+01
   1.729726e+02   1.251419e+02
   3.142738e+01   2.165502e+02
  -1.157826e+02   1.338200e+02
  -1.370619e+02   4.473263e+01
  -6.366410e+01  -3.609206e+01
  -4.841405e+01  -2.095644e+01
  -4.973509e+01   4.891329e+00
  -7.597194e+01   7.472153e+00
  -4.803041e+01  -5.439595e+01
   3.484076e+01  -9.719247e+01
   9.191500e+01  -9.562751e+01
   9.800343e+01   1.426356e+01
  -1.715385e+01   9.161498e+01
  -1.236228e+02   6.841027e+01
  -1.617250e+02  -7.542512e+01
  -8.921807e+01  -1.961715e+02
   1.264117e+02  -1.778043e+02
   2.402139e+02  -5.936397e+01
   2.251125e+02   7.751542e+01
   1.476900e+02   1.601900e+02
  -9.015454e-01   1.384404e+02
  -6.351265e+01   7.944681e+01
  -7.532450e+01   3.505639e+01
  -7.555046e+01   8.795750e+01
  -6.795568e+01   8.814187e+01
  -1.307785e+02  -2.009083e+01
  -1.101188e+02  -1.393353e+02
   4.305444e+00  -2.244318e+02
   7.682223e+01  -1.433156e+02
   1.441963e+02  -4.411792e+01
   1.211141e+02   9.725695e+01
   3.262337e+01   1.544707e+02
  -3.522550e+01   9.813788e+01
  -3.231493e+01  -1.999202e+01
  -2.861607e+01  -5.551803e+01
   2.258471e+01  -1.566946e+01
  -2.546708e+01  -3.476670e+01
  -6.716719e+01  -2.299583e+01
  -3.153768e+01  -4.276698e+01
   6.893019e+01  -3.638707e+01
   1.559800e+02   1.082087e+01
   1.098665e+02   8.400392e+01
   1.417037e+01   7.162864e+01
  -1.113096e+02   7.857058e+01
  -1.263678e+02   1.624149e+01
  -4.542948e+01  -5.601405e+01
   8.446811e+01  -3.336776e+01
   9.467957e+01   5.225416e+01
   4.579993e+01   4.788715e+01
  -3.801823e+01   4.414833e+01
  -8.172876e+01   8.710548e+00
  -4.253647e+01  -4.484359e+01
  -8.340544e+01  -2.365638e+01
  -4.378630e+01  -5.634010e+00
  -4.576882e+01  -2.020981e+01
  -2.396858e+01  -5.751766e+01
   2.961610e+01  -1.269891e+02
   9.820758e+01  -1.404883e+02
   1.464118e+02  -5.628424e+01
   1.424704e+02   8.276359e+01
   2.075355e+01   1.267625e+02
  -3.880715e+01   6.055640e+01
  -5.804334e+01   1.561163e+01
   3.208375e+01  -4.636019e+01
   1.395542e+02   5.257898e+01
   5.681242e+01   1.113509e+02
  -6.727379e+01   8.719624e+01
  -1.701853e+02   4.945621e+01
  -1.348559e+02  -2.351724e+01
  -5.010144e+01  -6.086451e+01
   7.213127e+01  -6.590769e+01
   5.490330e+01  -7.597815e+00
  -3.285372e+01   9.132779e+00
  -1.079428e+02  -5.608566e+00
  -5.556827e+01  -9.931159e+01
   8.098296e+01  -1.128387e+02
   1.439358e+02  -9.674336e+01
   9.713048e+01   1.007464e+02
  -2.999035e+00   1.600308e+02
  -7.418906e+01   1.255982e+02
  -9.697532e+01   1.864784e+00
  -5.724959e+01  -9.884095e+01
   1.813419e+01  -9.694317e+01
   5.597952e+01  -8.828349e+00
   4.675008e+01   3.719506e+01
   1.967906e+01  -3.604429e+00
   5.448015e+00  -3.675731e+01
   1.625202e+01   1.116358e+01
   4.315914e+01   7.425099e+01
   3.010657e+01   8.601800e+01
  -5.220135e+01   3.180999e+01
  -1.027060e+02  -1.689007e+01
  -1.034071e+02  -5.036188e+01
  -1.898039e+01  -2.465117e+01
   7.612669e+01  -4.328317e+01
   7.160862e+01  -2.139102e+01
   1.668118e+01   1.502758e+01
  -3.824851e+01   2.774536e+01
  -2.063017e+01   1.937406e+01
   1.907140e+01  -8.916096e+00
  -2.021103e+01   1.412865e+01
  -7.234754e+01  -1.931955e+01
  -1.133893e+02  -7.852496e+00
   1.046134e+00  -7.220906e+01
   1.158874e+02  -7.828552e+01
   1.783290e+02  -4.381184e+01
   1.430434e+02   4.921545e+01
   3.861827e+01   1.526570e+02
  -9.502814e+01   1.323380e+02
  -9.385430e+01   8.839229e+01
  -8.028538e+01  -2.873922e+01
  -2.324368e+01  -1.799732e+01
   2.642271e+01  -3.367959e+01
  -7.376808e+00  -9.872411e+00
  -6.381289e+00  -1.489684e+01
  -2.280453e+01  -6.048596e+01
   1.673478e+01  -7.371263e+01
   7.178380e+01   1.108625e+01
   4.898893e+01   9.173419e+01
   3.170118e+01   9.524005e+01
  -7.106369e+01   2.724967e+01
  -9.366551e+01  -3.721019e+01
  -4.736188e+01  -9.564196e+01
   2.816104e+01  -6.424219e+01
   8.876209e+01   3.163938e+00
   3.659018e+01   2.797517e+01
  -2.076296e+01   6.514555e+01
  -4.421534e+01   3.941084e+00
   4.678026e+01   1.883300e+01
   7.195011e+01   3.683170e+00
   1.108963e+01   3.858137e+01
  -6.603539e+01   6.419947e+01
  -8.765192e+01   3.100231e+01
  -5.188140e+01  -7.461308e+00
   5.482420e+00  -7.343831e+01
   4.868670e+01  -6.599918e+01
   2.376704e+01  -2.390660e+01
  -1.584585e+01   7.497543e+01
  -3.656033e+01   5.130467e+01
  -3.586175e+01  -1.986566e+01
  -2.263730e+01  -6.607863e+01
  -1.769137e+00  -2.713706e+01
   2.515923e+01   2.775591e+01
   1.959269e+01   4.907800e+01
  -9.087299e+00  -1.989350e+01
  -1.373884e+00  -1.212969e+01
   4.469913e+00  -1.270504e+01
   2.823850e+00   1.913398e+01
  -2.793434e+01   6.137891e+01
  -3.477689e+01   9.264041e+00
  -4.751759e+01  -3.737270e+01
  -2.441047e+00  -4.828632e+01
   1.981703e+01  -5.244252e+01
   5.449344e+01   4.213631e+01
   2.256765e+01   5.633933e+01
  -4.155344e+01   2.825527e+01
  -5.575338e+01   4.297013e+00
  -1.136242e+01  -3.701038e+01
   4.627369e+01  -4.826422e+01
   6.585563e+01  -3.834218e+01
  -3.311042e+00  -1.470593e+00
  -2.165333e+01  -2.408695e+01
  -2.900093e+01  -2.994460e+01
   7.464943e+00  -2.874730e+01
   8.013483e+01  -3.705684e+01
