
 $NMID
 id='ANONYMOUS ', fmtdat='(2E16.6)'
 volume=1.0
 tramp=1.0
 $END
   3.864518e+03  -9.833013e+01
   2.547619e+03   2.031366e+03
  -6.361151e+02   2.050993e+03
  -1.634243e+03   9.162196e+02
  -9.174409e+02  -2.286909e+02
   3.715316e+02  -4.578877e+02
   6.397117e+02   3.855411e+02
   4.421700e+01   8.517674e+02
  -6.364579e+02   6.083083e+02
  -7.191709e+02  -6.567528e+01
  -3.909880e+02  -6.764059e+02
   9.659986e+01  -7.321894e+02
   5.130877e+02  -1.648348e+02
   4.155845e+02   5.979440e+02
  -1.367839e+02   6.720268e+02
  -5.019460e+02   5.433904e+01
  -2.772165e+02  -5.934435e+02
   2.130677e+02  -6.296572e+02
   5.455573e+02  -1.378542e+02
   4.078899e+02   3.123679e+02
   9.541458e+01   3.988476e+02
  -2.117476e+02   2.283923e+02
  -1.488888e+02   2.436086e+01
   1.288620e+02   1.433371e+01
   3.479435e+02   1.648619e+02
   7.680364e+01   3.105366e+02
  -4.262579e+02   3.016490e+02
  -7.129305e+02  -7.345482e+01
  -3.573935e+02  -4.221958e+02
   3.355864e+02  -2.994593e+02
   5.903454e+02  -2.258098e+01
   3.231726e+02   4.228003e+02
  -2.347413e+02   4.556846e+02
  -4.542381e+02   1.835311e+02
  -3.725152e+02  -1.787966e+02
  -1.589490e+01  -3.982960e+02
   1.519423e+02  -2.801459e+02
   9.683197e+01   1.612109e+02
  -1.311910e+02   2.954537e+02
  -3.129546e+02  -2.405585e+01
  -1.455615e+02  -5.056807e+02
   2.960295e+02  -5.083693e+02
   4.749134e+02  -2.506047e+01
   1.532759e+02   4.205834e+02
  -2.224285e+02   2.111964e+02
  -2.864971e+02  -2.762253e+02
   7.396896e+01  -4.376487e+02
   5.034086e+02  -1.152084e+02
   5.202346e+02   3.624921e+02
   1.733947e+02   5.378488e+02
  -3.186347e+02   2.860572e+02
  -5.930630e+02  -2.577926e+01
  -3.282271e+02  -3.197922e+02
   1.248061e+02  -3.301616e+02
   3.933990e+02  -5.394817e+01
   1.716194e+02   1.191147e+02
  -4.581007e+01   7.132711e+01
  -1.459539e+02  -9.254561e+01
   1.064173e+02  -1.689845e+02
   2.631526e+02   9.680553e+01
   1.108969e+02   2.080482e+02
  -1.317977e+02   2.221100e+02
  -2.967396e+02   9.640008e+01
  -2.266940e+02  -1.057518e+02
   3.399791e+01  -2.494723e+02
   2.326146e+02  -2.851888e+02
   3.324918e+02  -1.574472e+02
   2.644388e+02   1.427940e+02
   6.964631e+01   3.903325e+02
  -6.322329e+01   3.576215e+02
  -6.693053e+01   1.189848e+02
  -2.329079e+01   6.193692e+01
  -4.609839e+01   7.997188e+01
  -2.107455e+02   8.876587e+01
  -2.601325e+02  -8.983115e+01
  -1.157590e+02  -2.650813e+02
   6.753650e+01  -2.270724e+02
   1.957884e+02   6.564650e+00
   1.354293e+02   2.207315e+02
  -3.709174e+01   2.108616e+02
  -2.529965e+02   8.231006e+01
  -3.358314e+02  -1.347322e+02
  -1.605080e+02  -3.062847e+02
   1.177024e+02  -3.064227e+02
   1.982666e+02  -1.569312e+02
   1.699507e+02  -2.317624e+01
   8.923176e+01  -2.368590e+01
   2.020534e+02  -4.651486e+01
   3.498138e+02   6.573015e+01
   3.113905e+02   2.483311e+02
   1.462397e+01   4.169603e+02
  -3.455963e+02   3.521248e+02
  -4.196336e+02   1.813066e+02
  -2.750485e+02  -7.111065e+01
  -2.006576e+01  -2.613336e+02
   1.009659e+02  -2.214860e+02
   8.356937e+01  -5.180487e+01
  -8.830425e+01   7.764309e+01
  -1.870177e+02   1.963891e+01
  -5.635758e+01  -1.780545e+02
   1.497866e+02  -1.432970e+02
   1.563606e+02   5.889131e+01
   2.077564e+01   1.712226e+02
  -1.622135e+02   1.896451e+01
  -1.303237e+02  -2.222159e+02
   1.502338e+01  -3.097441e+02
   2.479097e+02  -1.527485e+02
   3.036417e+02   9.102996e+01
   2.591544e+02   2.398867e+02
   9.397494e+01   2.759009e+02
  -1.321230e+02   1.609921e+02
  -1.396603e+02   3.153880e+01
  -5.395289e+01  -5.237417e+01
   5.410718e+01   7.490004e+01
   1.865127e+01   1.138430e+02
  -9.546818e+01   8.098979e+01
  -1.521750e+02  -7.918238e+00
  -4.028595e+01  -4.437268e+01
   7.211339e+01   4.768604e+00
   2.636213e+01   7.537178e+01
  -1.314004e+02   7.695203e+01
  -2.587146e+02  -1.306957e-01
  -2.546835e+02  -1.622559e+02
  -4.387578e+01  -2.271051e+02
   1.895237e+02  -2.180499e+02
   2.280153e+02  -1.068883e+02
   1.596951e+02   5.233118e+01
  -3.735192e+01   5.871352e+01
  -6.721540e+01   2.177615e+01
   3.199350e+01  -8.569162e+01
   1.932763e+02  -6.560733e+01
   2.193748e+02   1.065898e+02
   6.761529e+01   1.653132e+02
  -6.045913e+01   1.555615e+02
  -1.357823e+02   4.728517e+01
  -5.255591e+01  -1.849405e+01
   1.945598e+01  -2.034565e+00
   1.586467e+01   9.095641e+01
  -4.478501e+01   8.511925e+01
  -2.059325e+02   2.730339e+01
  -1.774005e+02  -1.111116e+02
   7.103654e+00  -1.721049e+02
   1.161271e+02  -1.462440e+02
   1.584431e+02   5.445209e+00
   6.453142e+01   1.231676e+02
  -4.675426e+01   8.760108e+01
  -8.706885e+01   4.632799e+01
  -2.443372e+01  -3.294358e+01
   3.431070e+01   4.957058e+00
  -8.236124e+00   1.902982e+00
  -6.204989e+01  -9.323682e+00
  -7.540054e+01  -1.035125e+02
  -2.377924e+00  -1.416693e+02
   1.261237e+02  -1.217608e+02
   2.253092e+02  -8.449102e+00
   1.769006e+02   1.500041e+02
   8.224637e+00   2.144024e+02
  -6.895334e+01   1.586403e+02
  -1.071882e+02   4.481173e+01
  -6.096261e+01  -5.441474e+01
  -2.166310e+01  -6.120562e+01
  -6.754670e+01  -5.437710e+00
  -6.111439e+01   2.922667e+01
  -5.948418e+01  -6.695322e+01
   4.739758e+01  -7.469539e+01
   8.306014e+01  -6.141731e+01
   6.817537e+01   2.323032e+01
  -1.993451e+01   1.135407e+02
  -1.462373e+02   5.556513e+01
  -1.871623e+02  -3.809755e+01
  -7.150646e+01  -1.973197e+02
   8.824744e+01  -1.929784e+02
   2.527157e+02  -8.023720e+01
   2.536284e+02   8.711482e+01
   1.080185e+02   1.518707e+02
  -2.792976e+01   1.207725e+02
  -6.644930e+01   7.637200e+01
  -5.893207e+01   5.368857e+01
  -6.324197e+01   8.547145e+01
  -7.477456e+01   6.634566e+01
  -1.275453e+02  -1.631357e+01
  -1.280201e+02  -1.548336e+02
  -4.595005e+00  -2.123083e+02
   9.067273e+01  -1.559784e+02
   1.518316e+02  -2.121555e+01
   1.132986e+02   1.176826e+02
   6.932611e+00   1.340875e+02
  -5.661419e+01   8.723591e+01
  -5.178682e+01   7.945476e+00
   9.001054e-01  -4.703716e+01
   4.399459e+01  -3.311403e+01
  -2.632937e+01  -3.806982e+01
  -8.563189e+01  -1.350904e+01
  -1.577354e+01  -3.453369e+01
   7.348886e+01  -3.332032e+01
   1.673894e+02   9.230039e+00
   1.413686e+02   5.048047e+01
  -1.340151e+01   8.395102e+01
  -1.141064e+02   4.194446e+01
  -1.685802e+02   3.697287e+00
  -5.267012e+01  -6.047557e+01
   2.901115e+01  -5.881586e+01
   4.613476e+01   5.154790e+00
   1.945992e+01   5.266364e+01
  -4.524312e+01   6.009044e+01
  -4.746114e+01  -5.189304e+00
  -4.610461e+01  -3.817413e+01
  -5.747411e+01  -4.484025e+01
  -3.317523e+01   7.508080e+00
  -6.939312e+01  -1.023187e+01
  -4.604353e+01  -6.493441e+01
   5.864925e+01  -1.327452e+02
   1.273570e+02  -1.399629e+02
   1.467421e+02  -1.454047e+01
   1.195755e+02   5.637258e+01
   5.211687e+00   1.316274e+02
  -7.564866e+01   6.560806e+01
  -3.907697e+01  -1.568230e+01
   5.588236e+01  -3.496817e+01
   1.467443e+02   6.772307e+01
   8.112117e+01   1.225864e+02
  -8.131947e+01   1.046578e+02
  -1.914556e+02   5.212238e+01
  -1.502154e+02  -3.352390e+01
  -3.995015e+01  -7.407440e+01
   6.433551e+01  -7.501461e+01
   5.997684e+01  -1.308308e+01
  -4.939520e+01   1.187580e+01
  -9.963199e+01  -3.078752e+01
  -5.366973e+01  -9.413800e+01
   1.021053e+02  -1.394732e+02
   1.508701e+02  -8.479547e+01
   1.122404e+02   8.930637e+01
   2.533332e+00   1.594479e+02
  -4.914427e+01   1.610142e+02
  -9.825570e+01  -1.340131e+01
  -5.125387e+01  -1.150800e+02
   1.845866e+00  -8.041832e+01
   6.980634e+01  -2.817550e+01
   5.004085e+01   4.140991e+01
   1.004318e+01  -1.359513e+01
  -8.491595e-01  -2.353444e+01
   1.563195e+01   3.758502e+00
   4.656952e+01   6.678567e+01
   2.976322e+01   1.108779e+02
  -3.755542e+01   4.722071e+01
  -1.140616e+02  -4.197802e+01
  -1.349847e+02  -7.061031e+01
  -1.087345e+01  -3.678020e+01
   8.066952e+01  -4.746440e+01
   1.200895e+02  -3.602878e+00
   8.941777e+00   8.136099e+00
  -4.027916e+01   1.612613e+01
   1.705296e+01   2.709120e+01
   3.487796e+01   1.354822e+01
  -2.292088e+01  -8.850356e+00
  -8.269134e+01   9.478512e+00
  -1.077698e+02  -1.753013e+01
  -6.893462e+00  -6.632148e+01
   1.173496e+02  -8.600580e+01
   1.670401e+02  -4.414295e+01
   1.399330e+02   8.117246e+01
   2.038243e+01   1.662902e+02
  -9.242826e+01   1.362766e+02
  -1.057033e+02   7.161459e+01
  -7.701511e+01  -2.592817e+01
   3.680513e+00  -5.427576e+01
  -4.999952e+00  -4.503887e+01
   7.708276e+00  -1.766245e+01
  -1.280569e+01  -3.269365e+01
  -1.324220e+01  -6.694665e+01
   1.111789e+01  -6.985973e+01
   7.777926e+01   2.798552e+01
   5.128304e+01   9.868061e+01
   2.506921e-01   9.957829e+01
  -5.488638e+01   3.264033e+00
  -9.975725e+01  -5.743451e+01
  -4.606345e+01  -1.022635e+02
   7.193872e+01  -6.485548e+01
   9.402428e+01   2.728452e+01
   4.264120e+01   1.096310e+02
  -1.434127e+01   5.200112e+01
  -4.530082e+01   2.738396e+01
   2.081329e+01  -2.301242e+00
   6.128836e+01  -1.426207e+01
   1.967334e+01   2.161522e+01
  -6.658056e+01   5.065508e+01
  -1.256192e+02   4.358734e+01
  -3.633095e+01  -5.623903e+01
   2.106065e+00  -8.312404e+01
   6.657656e+01  -8.513973e+01
   3.552361e+01  -2.783135e+01
  -9.641256e+00   5.167272e+01
  -1.781222e+00   8.195084e+01
  -4.510919e+01  -2.478373e+00
  -2.316796e+01  -5.605186e+01
  -3.154710e+01  -3.619500e+01
   2.838565e+01  -6.642192e+00
   3.678636e+01   2.330588e+01
   1.530044e+01  -1.104202e+01
  -1.344678e+01  -1.839542e+00
   7.804063e+00   1.950255e+00
  -3.873431e+00   4.160783e+01
  -1.429195e+01   4.969283e+01
  -4.109887e+01   1.784191e+01
  -3.068705e+01  -2.582309e+01
   4.254447e+00  -5.697993e+01
   4.015588e+01   4.627991e+00
   7.181979e+01   3.063907e+01
   1.141325e+01   7.084460e+01
  -6.165817e+01   3.581877e+01
  -8.556688e+01  -2.542990e+01
  -5.146302e+01  -2.523942e+01
   2.317905e+01  -3.366729e+01
   5.913129e+01  -1.335692e+01
   4.453274e+01   6.688224e-01
  -3.002025e+01  -1.310512e+01
  -4.750134e+01  -1.255648e+00
   3.339211e+01  -1.462444e+01
   6.901673e+01  -4.979842e+00
