
 $NMID
 id='ANONYMOUS ', fmtdat='(2E16.6)'
 volume=1.0
 tramp=1.0
 $END
  -3.208115e+03   3.770981e+02
  -2.393486e+03  -1.569464e+03
   6.648296e+01  -2.039649e+03
   1.454196e+03  -1.351699e+03
   8.395911e+02  -1.272178e+02
  -8.296174e+01   4.539540e+02
  -6.566804e+02  -9.030810e+01
  -1.946187e+02  -6.760841e+02
   4.269667e+02  -6.779643e+02
   6.394671e+02  -1.549050e+02
   4.409295e+02   5.065398e+02
   1.291599e+02   6.837875e+02
  -3.930660e+02   2.176080e+02
  -3.828310e+02  -4.184893e+02
   1.037921e+02  -6.198019e+02
   5.012168e+02  -8.418770e+01
   3.216511e+02   5.051955e+02
  -1.543553e+02   6.445658e+02
  -4.990579e+02   2.639608e+02
  -4.230946e+02  -2.118362e+02
  -1.485429e+02  -3.681596e+02
   1.409548e+02  -3.004335e+02
   8.724077e+01  -9.984854e+01
  -1.376274e+02  -5.700037e+01
  -2.623804e+02  -1.950319e+02
  -1.160296e+02  -2.508901e+02
   3.923162e+02  -2.386541e+02
   6.113381e+02   1.113706e+02
   3.399127e+02   3.035342e+02
  -3.211836e+02   2.949081e+02
  -4.924268e+02  -1.880672e+01
  -2.533392e+02  -3.159007e+02
   1.711174e+02  -3.987766e+02
   3.957587e+02  -1.780610e+02
   3.550620e+02   1.249781e+02
   6.732061e+01   3.275383e+02
  -5.727564e+01   2.339236e+02
  -3.704888e+01  -8.562922e+01
   7.939632e+01  -2.244710e+02
   2.452193e+02  -7.663764e+00
   1.303449e+02   4.377701e+02
  -1.711634e+02   4.932977e+02
  -3.863331e+02   4.759007e+01
  -2.191565e+02  -2.914161e+02
   1.473537e+02  -1.917730e+02
   2.614043e+02   2.524634e+02
  -3.057735e+01   3.811416e+02
  -4.034366e+02   1.337260e+02
  -4.994121e+02  -3.129067e+02
  -2.097159e+02  -4.993470e+02
   2.734785e+02  -2.956600e+02
   5.225885e+02   2.267504e+01
   3.769154e+02   2.412855e+02
  -8.369043e+01   2.269400e+02
  -3.019850e+02   1.084194e+02
  -2.707382e+02  -3.752058e+01
  -1.122838e+01  -4.700052e+01
   1.038450e+02   5.270403e+01
  -5.334710e+01   1.200755e+02
  -2.815720e+02  -4.852107e+00
  -1.667292e+02  -1.621849e+02
   1.318920e+02  -2.475755e+02
   3.208278e+02  -1.361474e+02
   1.947601e+02   9.878181e+01
   4.696047e+00   2.754270e+02
  -2.373125e+02   3.267412e+02
  -3.224150e+02   1.598245e+02
  -2.283419e+02  -9.813937e+01
  -7.571784e+01  -3.399974e+02
   3.813306e+01  -3.150803e+02
   6.210181e+01  -1.657294e+02
   3.096306e+01  -6.217573e+01
   9.998843e+01  -6.762258e+01
   1.932487e+02  -6.682654e+01
   2.234419e+02   9.047871e+01
   1.166959e+02   2.387707e+02
  -6.144787e+01   1.876832e+02
  -1.769134e+02   8.260418e+00
  -1.583022e+02  -1.927629e+02
   6.208380e+00  -2.460636e+02
   2.005327e+02  -8.610371e+01
   3.018182e+02   1.406993e+02
   1.958740e+02   2.984785e+02
  -6.812171e+01   2.387888e+02
  -1.779029e+02   1.581370e+02
  -1.874094e+02   3.674426e+01
  -1.373680e+02   4.221150e+01
  -2.222617e+02   3.150207e+01
  -3.670319e+02  -6.374182e+01
  -3.016164e+02  -2.557715e+02
   2.081789e+00  -4.066416e+02
   3.321108e+02  -3.580483e+02
   3.871696e+02  -2.123261e+02
   2.801314e+02   6.534520e+01
   5.018454e+01   2.247147e+02
  -6.597612e+01   2.065240e+02
  -4.903209e+01   5.705779e+01
   9.549741e+01  -4.906882e+01
   1.380196e+02  -1.409293e+01
   5.701230e+01   1.248567e+02
  -5.956462e+01   1.394335e+02
  -1.353542e+02  -1.189021e+01
   1.163790e+01  -1.305604e+02
   1.618615e+02  -3.524725e+01
   1.703558e+02   2.059872e+02
   2.447414e+00   3.437909e+02
  -1.976365e+02   1.771670e+02
  -3.259068e+02  -7.987263e+01
  -2.375782e+02  -2.129311e+02
  -7.488226e+01  -2.467081e+02
   1.274573e+02  -1.129338e+02
   1.208145e+02  -3.429512e+01
   4.594340e+01   5.832440e+00
  -4.257284e+01  -3.887331e+01
  -5.863638e+00  -1.038193e+02
   9.079684e+01  -3.930813e+01
   1.287398e+02   2.355022e+01
   3.427724e+01   5.839601e+01
  -7.789604e+01   4.852038e+00
  -5.259012e+01  -6.189214e+01
   1.317859e+02  -8.026172e+01
   2.544963e+02   1.451796e+01
   2.435248e+02   1.867261e+02
  -2.848145e+00   2.369455e+02
  -1.639334e+02   2.046848e+02
  -2.206169e+02   1.358042e+02
  -1.323794e+02  -2.917961e+01
   9.056108e+00  -7.298828e+01
   5.018222e+01   1.016698e+01
  -1.398612e+01   9.827916e+01
  -1.703720e+02   5.452826e+01
  -1.737372e+02  -9.814484e+01
  -4.577269e+01  -1.766169e+02
   3.700504e+01  -1.484149e+02
   1.357121e+02  -5.176119e+01
   5.930834e+01   1.856228e+00
  -2.462512e+01  -4.108790e+01
  -2.414290e+01  -8.074391e+01
   6.246216e+01  -1.079044e+02
   1.645962e+02  -3.196541e+01
   1.672975e+02   1.215029e+02
   2.432898e+00   1.643093e+02
  -1.209048e+02   1.289311e+02
  -1.813694e+02   1.968028e+01
  -7.238538e+01  -8.636127e+01
   4.139558e+01  -9.590046e+01
   6.862704e+01  -2.584804e+01
  -5.203693e+00   2.845992e+01
  -1.925417e+01  -6.410890e+00
  -6.203199e+00  -1.564950e+01
   6.677858e+01  -2.520677e+01
   1.011868e+02   8.793752e+01
   2.002071e+01   1.471513e+02
  -1.185266e+02   1.287322e+02
  -2.180457e+02   2.403668e+01
  -1.870177e+02  -1.122314e+02
  -3.274606e+01  -2.220857e+02
   7.133482e+01  -1.910679e+02
   1.448497e+02  -6.385827e+01
   8.174351e+01   5.391931e+01
   1.963946e+01   6.526502e+01
   4.146881e+01   1.752678e+01
   7.666989e+01   2.270032e+01
   5.131815e+01   4.579760e+01
  -1.140138e+01   7.279019e+01
  -1.105177e+02   2.351544e+01
  -9.772400e+01  -5.240430e+01
  -3.891677e+00  -9.855294e+01
   1.394725e+02  -9.235927e+01
   1.549576e+02   6.438531e+01
   8.287929e+01   1.795217e+02
  -8.573558e+01   2.036993e+02
  -2.344216e+02   7.993525e+01
  -2.266383e+02  -8.601203e+01
  -5.489733e+01  -1.279104e+02
   3.094701e+01  -1.292204e+02
   7.920420e+01  -8.638605e+01
   4.445607e+01  -7.315528e+01
   6.220410e+01  -6.934137e+01
   7.454219e+01  -9.359838e+01
   1.222131e+02   4.453114e+00
   1.144436e+02   1.137852e+02
  -2.429458e+00   1.879872e+02
  -7.142066e+01   1.562959e+02
  -1.177797e+02   1.117035e+00
  -8.308266e+01  -1.162272e+02
  -1.273439e+01  -1.620951e+02
   8.551103e+01  -7.142032e+01
   5.907266e+01  -3.637744e+00
  -2.126674e+01   4.040075e+01
  -3.154737e+01   1.950464e+01
   3.910140e+01   6.603652e+00
   7.586615e+01   3.994440e+01
   6.349658e+01   2.542014e+01
  -9.841557e+01   5.102322e+01
  -1.329028e+02  -9.847353e+00
  -1.259785e+02  -4.661178e+01
   1.646189e+01  -7.016696e+01
   1.097191e+02  -5.871314e+01
   1.362352e+02  -2.875303e+00
   2.834297e+01   5.670668e+01
  -3.440613e+01   1.706749e+01
  -8.780149e+01   9.481609e+00
  -8.281762e+00  -8.665775e+01
   5.917229e+01  -6.344542e+01
   7.833715e+01  -1.480560e+00
   4.377893e+01   4.403750e+01
   5.053879e+01   2.813606e+01
   5.369790e+01  -2.489875e+01
   5.069546e+01  -9.845431e+00
   4.537350e+01   7.458633e+01
  -3.665654e+01   1.358973e+02
  -9.178797e+01   1.394051e+02
  -1.488290e+02   2.042300e+01
  -1.227643e+02  -8.441590e+01
  -3.212249e-01  -1.007133e+02
   7.143128e+01  -7.732575e+01
   4.996332e+01   3.392198e+01
  -6.008575e+01   1.249388e+01
  -1.438563e+02  -1.677417e+01
  -5.785159e+01  -8.508240e+01
   9.806781e+01  -1.152098e+02
   1.909434e+02  -5.334508e+01
   1.412207e+02   3.821275e+01
   5.497332e+01   9.930716e+01
  -6.529141e+01   6.289002e+01
  -6.157081e+01   8.590200e+00
   1.384505e+00  -3.733167e+01
   8.176838e+01   1.059023e+01
   4.189494e+01   1.216831e+02
  -1.183536e+02   1.559395e+02
  -1.430593e+02   5.832757e+01
  -1.116305e+02  -8.603320e+01
  -3.815302e+00  -1.728433e+02
   8.823155e+01  -1.594454e+02
   8.459388e+01  -5.182248e+00
   5.166973e+01   9.139459e+01
  -2.981141e+01   1.028260e+02
  -3.526882e+01  -1.186784e+01
  -3.072247e+01  -3.435141e+01
   7.389378e+00  -1.713888e+01
  -7.750663e+00   4.339335e+01
  -9.302885e+00   1.964798e+00
  -5.925137e+01  -8.077746e+01
  -3.584396e+01  -8.939726e+01
   3.557272e+01  -3.541914e+01
   9.318942e+01   3.975799e+01
   1.265830e+02   4.138296e+01
   1.416646e+01   4.711360e+01
  -8.592453e+01   3.756406e+01
  -9.488458e+01  -1.810961e+00
   1.507068e+01  -5.327074e+00
   2.986669e+01  -4.720615e+00
   1.487010e+01   6.316400e+00
   1.505144e+01  -1.924344e+01
  -8.661118e+00  -2.008526e+01
   5.929188e+01  -3.190719e+01
   6.564782e+01   1.959358e+01
   1.136211e+01   7.391669e+01
  -1.253272e+02   1.011489e+02
  -1.758325e+02   8.259913e+01
  -1.332354e+02  -4.065622e+01
  -1.754125e+01  -1.482953e+02
   7.462719e+01  -1.560656e+02
   9.639144e+01  -8.302799e+01
   8.118704e+01   9.746580e+00
   3.949503e+01   2.503549e+01
   4.985947e+00   3.203967e+01
   4.583801e+01   7.402406e+00
   3.429322e+01   4.600859e+01
   1.820806e+01   9.404358e+01
  -3.768246e+01   7.923729e+01
  -7.918216e+01  -3.540954e+01
  -8.272141e+01  -1.002653e+02
  -1.993508e+01  -1.209496e+02
   7.050385e+01  -2.927263e+01
   1.083698e+02   4.814589e+01
   5.266079e+01   9.785088e+01
  -8.491123e+01   6.770487e+01
  -1.053438e+02  -1.745391e+01
  -4.369272e+01  -4.110048e+01
   3.413992e+01  -3.486241e+01
   3.438531e+01  -3.057169e+01
  -3.106284e+01   1.692113e+01
  -6.121198e+01   3.392902e+01
  -4.686187e+00  -3.530067e+01
   6.667435e+01  -7.456330e+01
   1.094081e+02  -7.621804e+01
   6.873489e+01   1.302996e+01
  -1.289888e+01   1.040263e+02
  -4.368491e+01   6.775527e+01
  -2.106767e+01  -1.204938e+01
  -3.756196e+00  -6.110324e+01
   1.106143e+01  -5.886066e+01
   6.390526e+01   2.411462e+00
   3.059096e+01   5.148336e+01
   7.733538e+00   3.540849e+01
  -4.114087e+01   4.475557e+01
  -2.661828e+01  -3.586851e+01
  -2.563356e+01   2.951229e+01
   8.017666e-01   2.945922e+01
   7.834359e+00   1.560401e+00
   1.070603e+01  -2.850239e+01
  -2.168431e+01  -4.055278e+01
   5.339508e+00   9.729111e+00
   4.455295e+01   1.921983e+01
  -3.809765e-01   2.145078e+01
  -2.933095e+01   2.282946e+01
  -7.726557e+01  -1.570636e+01
   7.271058e+00  -5.193597e+01
   4.418521e+01  -4.257914e+01
   8.431222e+01   2.439000e+01
   5.584824e+01   5.858089e+01
  -2.634781e+01   2.270923e+01
  -5.548879e+01   2.141699e+01
  -4.659987e+01   2.318939e+01
   2.440321e+01  -4.750997e+00
   2.544451e+01  -6.719519e-01
  -8.059758e+00   2.589996e+01
  -5.958734e+01   5.147579e+01
