
 $NMID
 id='ANONYMOUS ', fmtdat='(2E16.6)'
 volume=1.0
 tramp=1.0
 $END
   3.264904e+03  -4.589030e+02
   2.379312e+03   1.462401e+03
  -1.571603e+02   2.016089e+03
  -1.331747e+03   1.301539e+03
  -8.626787e+02   1.698664e+02
   3.893475e+01  -3.777211e+02
   6.036043e+02  -3.689959e+00
   2.264917e+02   6.713826e+02
  -4.148428e+02   6.636310e+02
  -6.402736e+02   1.564670e+02
  -4.843948e+02  -4.560800e+02
  -1.232443e+02  -6.844844e+02
   3.372762e+02  -2.195663e+02
   3.996063e+02   4.466991e+02
  -8.237851e+01   5.751438e+02
  -4.817446e+02   8.834358e+01
  -3.531366e+02  -4.926141e+02
   1.318052e+02  -6.490424e+02
   5.153307e+02  -2.401861e+02
   4.480085e+02   2.354268e+02
   1.225702e+02   3.629472e+02
  -1.184377e+02   2.705659e+02
  -1.236816e+02   1.231956e+02
   1.330082e+02   5.817943e+01
   2.762697e+02   1.942524e+02
   1.155628e+02   3.213543e+02
  -4.091579e+02   2.188996e+02
  -5.965689e+02  -1.311714e+02
  -2.971345e+02  -3.345120e+02
   2.803790e+02  -2.776045e+02
   5.277436e+02   4.061476e+01
   2.203337e+02   3.012804e+02
  -1.711840e+02   3.229244e+02
  -4.087939e+02   2.014185e+02
  -3.298939e+02  -1.345852e+02
  -6.757989e+01  -3.251715e+02
   8.230803e+01  -1.946608e+02
   1.869923e+01   7.361944e+01
  -7.122600e+01   1.995309e+02
  -1.773188e+02   1.492761e+01
  -1.075366e+02  -3.880024e+02
   2.069305e+02  -4.776138e+02
   3.603897e+02  -8.733751e+01
   2.255273e+02   2.819768e+02
  -1.600114e+02   1.682586e+02
  -2.227405e+02  -2.566217e+02
   1.885633e+01  -3.946389e+02
   3.846679e+02  -1.083259e+02
   4.668411e+02   3.076409e+02
   2.233451e+02   4.458406e+02
  -2.662712e+02   3.259644e+02
  -4.914743e+02  -1.881647e+01
  -3.898675e+02  -2.342186e+02
   6.398924e+01  -2.225845e+02
   3.114193e+02  -9.883705e+01
   2.495526e+02   4.305554e+01
  -3.798199e+00   5.805940e+01
  -1.289906e+02  -2.890663e+01
   2.413309e+01  -1.075240e+02
   2.813418e+02  -1.037110e+01
   1.522686e+02   1.327308e+02
  -1.215135e+02   2.376815e+02
  -3.456873e+02   1.227524e+02
  -2.166079e+02  -1.331685e+02
   2.717846e+01  -2.837628e+02
   2.496832e+02  -3.104961e+02
   2.849351e+02  -1.738018e+02
   2.259439e+02   1.291770e+02
   2.910584e+01   3.123506e+02
  -2.173214e+01   3.236193e+02
  -3.973537e+01   1.695276e+02
  -3.866586e+01   7.692219e+01
  -8.440279e+01   6.190820e+01
  -2.062683e+02   6.485519e+01
  -2.177439e+02  -7.976320e+01
  -1.534405e+02  -2.543032e+02
   2.605085e+01  -2.015448e+02
   1.790028e+02   1.936357e+01
   1.599006e+02   2.230852e+02
  -6.402462e+00   2.436524e+02
  -2.077307e+02   8.407498e+01
  -2.934908e+02  -1.298929e+02
  -1.770308e+02  -3.035031e+02
   6.350044e+01  -2.459639e+02
   1.786821e+02  -1.664523e+02
   1.508556e+02  -3.204449e+01
   1.405941e+02  -5.013106e+01
   2.243086e+02  -4.162404e+01
   3.609080e+02   7.144322e+01
   3.063344e+02   2.385253e+02
   1.545088e+01   3.873263e+02
  -3.499528e+02   3.623350e+02
  -4.170330e+02   1.867116e+02
  -2.629456e+02  -7.591903e+01
  -6.309139e+01  -2.159710e+02
   8.366224e+01  -2.046116e+02
   1.947257e+01  -5.913785e+01
  -8.402699e+01   4.865789e+01
  -1.021396e+02  -6.626617e+00
  -4.955835e+01  -1.509943e+02
   8.509431e+01  -1.291350e+02
   1.300986e+02   3.026809e+00
  -2.133069e+01   1.286560e+02
  -1.537304e+02   9.218089e+00
  -1.674580e+02  -1.841354e+02
  -3.869031e+00  -2.974605e+02
   2.418929e+02  -1.854352e+02
   3.296555e+02   6.710356e+01
   2.534871e+02   2.259797e+02
   7.788740e+01   2.371760e+02
  -1.126926e+02   1.624098e+02
  -1.392429e+02   2.780757e+01
  -4.984176e+01  -1.354088e+01
   4.067365e+01   4.813860e+01
   5.525527e+00   9.822445e+01
  -1.037240e+02   3.840283e+01
  -1.186924e+02  -2.802812e+01
  -5.502057e+01  -5.406285e+01
   6.602552e+01  -1.954701e+01
   1.082065e+01   8.224830e+01
  -1.351769e+02   6.472529e+01
  -2.612109e+02  -1.606317e+01
  -2.381079e+02  -1.616656e+02
  -9.022284e+00  -2.386587e+02
   1.948427e+02  -1.912684e+02
   2.163099e+02  -1.105302e+02
   1.171231e+02   4.854689e+01
  -3.923302e+01   8.019715e+01
  -4.159494e+01  -2.711986e+01
   6.410538e+01  -1.045173e+02
   1.698893e+02  -2.345648e+01
   1.958565e+02   8.854054e+01
   6.466524e+01   1.672236e+02
  -5.763971e+01   1.477371e+02
  -1.140337e+02   4.458101e+01
  -4.388968e+01  -1.875201e+01
   3.120250e+01   1.999950e+01
   5.180064e+00   9.796227e+01
  -9.240076e+01   9.100542e+01
  -1.910789e+02   1.515302e+01
  -1.754108e+02  -1.102932e+02
  -6.120819e+00  -1.768860e+02
   1.275398e+02  -1.558788e+02
   1.714126e+02  -4.885683e+01
   5.690354e+01   6.378434e+01
  -7.422365e+01   1.036577e+02
  -8.543436e+01   5.121295e+01
  -1.443758e+01  -1.884088e+01
   3.403292e+01  -1.780032e+01
  -1.694375e+01   1.290914e+01
  -7.009649e+01   4.148782e+00
  -1.133368e+02  -7.076822e+01
  -1.549733e+01  -1.447227e+02
   1.162007e+02  -1.759032e+02
   2.237339e+02  -2.850778e+01
   1.739249e+02   1.034384e+02
   3.367365e+01   2.191888e+02
  -6.968413e+01   1.778025e+02
  -1.462805e+02   8.411457e+01
  -8.080126e+01  -2.731128e+01
  -3.868639e+01  -4.734224e+01
  -4.955021e+01   6.263396e+00
  -6.087203e+01  -3.215896e+00
  -4.741146e+01  -2.985246e+01
   3.495566e+01  -8.392133e+01
   1.251549e+02  -6.770375e+01
   9.498045e+01   3.468008e+01
  -1.687414e+01   1.077260e+02
  -1.533441e+02   8.303962e+01
  -1.776229e+02  -5.054993e+01
  -7.178701e+01  -1.864999e+02
   1.008151e+02  -1.993658e+02
   2.258310e+02  -1.014104e+02
   2.527016e+02   5.541925e+01
   1.046863e+02   1.481258e+02
  -4.081100e+01   1.514897e+02
  -7.860225e+01   9.809353e+01
  -8.391505e+01   7.243439e+01
  -5.839571e+01   8.959734e+01
  -8.264183e+01   8.382774e+01
  -1.244337e+02  -1.184569e+01
  -1.252596e+02  -1.453756e+02
  -1.860485e+01  -1.892711e+02
   1.008031e+02  -1.409255e+02
   1.411162e+02  -5.220456e+00
   1.124208e+02   1.025387e+02
   9.055469e+00   1.560009e+02
  -5.867609e+01   5.557447e+01
  -5.915803e+01   6.390725e+00
  -2.104435e+01  -6.871493e+01
   1.146946e+01  -5.383442e+01
  -2.602836e+01  -1.863978e+01
  -5.737355e+01  -4.140927e+01
  -4.975301e+01  -1.270539e+01
   7.959355e+01  -4.211999e+01
   1.463414e+02  -8.932061e+00
   1.304315e+02   2.253948e+01
  -2.905799e+01   9.705844e+01
  -1.133323e+02   4.138507e+01
  -1.526843e+02  -2.274406e+00
  -3.803100e+01  -7.519724e+01
   7.309840e+01  -5.890485e+01
   4.906469e+01  -7.020374e+00
   2.425690e+01   8.207466e+01
  -5.841481e+01   4.469091e+01
  -7.209212e+01   2.865081e+00
  -4.576404e+01  -5.364446e+01
  -7.056457e+01  -3.391742e+01
  -5.243728e+01   2.781974e+00
  -2.555042e+01   7.635431e+00
  -4.480105e+01  -7.355670e+01
   3.477515e+01  -1.543572e+02
   1.338138e+02  -1.489339e+02
   1.665165e+02  -2.068418e+01
   1.291688e+02   9.815234e+01
  -1.151814e+01   1.190127e+02
  -9.683776e+01   5.362575e+01
  -6.067969e+01  -2.148211e+01
   8.162315e+01  -1.729562e+01
   1.082562e+02   2.920354e+01
   9.600256e+01   7.855640e+01
  -8.153236e+01   1.057118e+02
  -1.870510e+02   6.369393e+01
  -1.356792e+02  -2.027128e+01
  -2.964441e+01  -5.132713e+01
   5.227540e+01  -7.940646e+01
   4.002566e+01   1.632632e+01
  -1.849077e+01   1.485979e+01
  -7.577356e+01   3.226223e+00
  -4.582501e+01  -1.084979e+02
   6.534298e+01  -1.569344e+02
   1.653306e+02  -5.435171e+01
   1.144708e+02   5.198614e+01
   3.384727e+01   1.619484e+02
  -8.328619e+01   1.503797e+02
  -8.914677e+01   1.027876e+01
  -3.785824e+01  -8.155366e+01
   8.784895e+00  -8.298125e+01
   4.071973e+01  -3.708309e+01
   3.730024e+01   1.015243e+00
   1.104480e+01   3.100394e+00
   9.578538e+00  -3.075478e+01
   2.886898e+01   1.897567e+01
   5.519247e+01   6.833779e+01
   5.803324e+01   8.233715e+01
  -3.566976e+01   4.247135e+01
  -1.209210e+02  -1.777796e+01
  -1.304473e+02  -4.373807e+01
  -1.624275e+00  -6.520346e+01
   8.086661e+01  -4.544060e+01
   7.847778e+01  -7.360076e+00
   3.083100e+01   5.192393e+00
  -1.016126e+01   2.798761e+01
  -1.173239e+01  -4.290141e+00
  -6.232210e+00   5.209369e-01
   1.189755e+01  -3.190278e+01
  -3.972832e+01   2.790042e+01
  -7.934577e+01  -2.845745e+01
  -8.752780e+00  -5.037606e+01
   1.134043e+02  -1.249526e+02
   1.706751e+02  -6.820280e+01
   1.386039e+02   3.586072e+01
   1.455438e+01   1.431737e+02
  -3.121189e+01   1.631989e+02
  -9.322926e+01   6.509885e+01
  -6.683644e+01  -6.589554e+00
  -4.234539e+01  -3.628750e+01
  -3.838408e+01  -1.876851e+01
  -1.703404e+01  -1.782518e+01
  -3.558578e+01  -4.500068e+01
  -4.413576e+01  -1.184786e+02
   3.391083e+01  -2.397837e+01
   8.710782e+01   3.395002e+01
   5.701782e+01   1.071640e+02
   4.298075e+01   1.289437e+02
  -8.192032e+01   3.111910e+01
  -9.744304e+01  -6.283894e+01
  -3.249663e+01  -1.009039e+02
   7.032642e+01  -7.498134e+01
   1.162982e+02   3.585339e+01
   3.905335e+01   4.628322e+01
  -5.620220e+01   2.848713e+01
  -3.672378e+01   1.184794e+01
   2.891097e+01   2.915814e+01
   6.203737e+01  -1.804774e+01
   7.120906e+00   3.330989e+01
  -6.138566e+01   7.026557e+01
  -1.043776e+02   7.064350e+01
  -8.623111e+01  -3.498402e+01
   3.576814e+01  -8.613462e+01
   6.834056e+01  -8.334073e+01
   3.394527e+01  -6.407353e+00
   2.534610e+01   4.783472e+01
  -5.854273e+01   5.808249e+01
  -3.823714e+01   1.198417e+01
  -4.191265e+01  -7.935222e+01
   8.226519e+00  -3.065922e+01
   4.624341e+01  -1.120036e+00
   1.322963e+01   2.197404e+01
  -1.229420e+01  -5.710229e+01
  -1.779164e+01  -2.040322e+01
   1.571566e-01   7.089128e+00
   7.478523e+00   5.076209e+01
  -3.998796e-01   3.726791e+01
  -3.654229e+01  -9.950555e+00
  -2.501408e+01  -7.696574e+01
  -1.034770e+01  -3.483134e+01
   4.649498e+01  -4.117308e+01
   8.067313e+01   3.313491e+01
   9.066098e-01   3.521982e+01
  -5.252671e+01   4.099130e+01
  -7.218339e+01  -9.746421e+00
  -4.645483e+01  -2.774736e+01
   5.115484e+00  -6.806955e+00
   5.967126e+01  -3.715340e+01
   1.836862e+01  -3.640308e+01
  -5.034882e+01   1.886493e+01
  -2.953338e+01   3.403147e+01
   1.109723e+01  -1.439965e+01
   8.966391e+01  -2.276464e+01
