
 $NMID
 id='ANONYMOUS ', fmtdat='(2E16.6)'
 volume=1.0
 tramp=1.0
 $END
   2.521388e+03  -1.087967e+02
   1.926508e+03   1.445285e+03
   1.620528e+02   1.655292e+03
  -1.239943e+03   1.030325e+03
  -7.993785e+02   2.183164e+02
   1.415465e+01  -1.918327e+02
   4.075771e+02   1.210264e+02
   2.601472e+01   5.516784e+02
  -2.626243e+02   4.502622e+02
  -4.732670e+02   7.764714e+01
  -4.288393e+02  -3.704787e+02
  -1.442238e+01  -5.753277e+02
   2.475300e+02  -1.412757e+02
   1.821461e+02   3.438435e+02
  -5.617702e+01   4.302036e+02
  -3.693929e+02   1.820270e+01
  -2.785661e+02  -3.802349e+02
   1.070776e+02  -5.048045e+02
   3.095681e+02  -2.151813e+02
   3.860018e+02   1.477118e+02
   1.024599e+02   2.575800e+02
  -8.549934e+01   2.098920e+02
  -8.713019e+01   7.376101e+01
   1.548687e+02   9.208746e+01
   2.308836e+02   2.282040e+02
  -3.970151e+01   2.798831e+02
  -3.345610e+02   7.052588e+01
  -4.923111e+02  -1.010199e+02
  -2.026340e+02  -3.410862e+02
   2.218632e+02  -1.844441e+02
   3.799434e+02   1.118685e+02
   1.854886e+02   2.947525e+02
  -1.900797e+02   2.383776e+02
  -3.385489e+02   9.150127e+01
  -2.778092e+02  -1.356396e+02
  -7.603432e+01  -2.252330e+02
   4.630465e+01  -1.563525e+02
  -7.496978e+01   3.460857e+01
  -1.225906e+02   1.530251e+02
  -1.822205e+02  -1.138638e+02
  -2.857068e+01  -3.745950e+02
   2.022510e+02  -4.021381e+02
   3.070900e+02  -4.912987e+01
   1.245861e+02   1.975655e+02
  -1.169239e+02   1.212422e+02
  -1.368564e+02  -2.470396e+02
   1.240895e+02  -3.345850e+02
   3.694915e+02  -4.851155e+01
   3.682905e+02   2.729641e+02
   1.399480e+02   4.007139e+02
  -2.191836e+02   1.742278e+02
  -3.872708e+02  -3.313313e+01
  -2.851010e+02  -2.568553e+02
   4.399180e+01  -1.553033e+02
   2.432980e+02  -6.908639e+01
   1.585485e+02   2.359602e+01
   1.866035e+01   3.282350e+01
  -3.216020e+01  -4.148381e+01
   8.663507e+01  -7.615995e+01
   2.021938e+02   3.439854e+01
   1.345483e+02   1.281138e+02
  -1.105469e+02   1.708642e+02
  -2.645301e+02   1.179971e+02
  -1.844784e+02  -7.819872e+01
   2.614087e+01  -2.698376e+02
   2.397293e+02  -2.875162e+02
   2.810355e+02  -1.239184e+02
   1.836346e+02   1.328953e+02
   1.625799e+01   2.238487e+02
  -1.948027e+01   2.328976e+02
  -2.270399e+01   1.544826e+02
  -2.884280e+01   9.323609e+01
  -1.235338e+02   1.028976e+02
  -2.258191e+02   6.840836e+01
  -1.751649e+02  -1.095546e+02
  -6.898760e+01  -1.923458e+02
   8.192861e+01  -1.841169e+02
   1.730836e+02   2.245014e+01
   9.839773e+01   2.323910e+02
  -4.785646e+01   1.995418e+02
  -1.972278e+02   1.112762e+01
  -2.553008e+02  -1.583988e+02
  -1.379301e+02  -2.486958e+02
  -3.024803e+00  -2.280289e+02
   1.521441e+02  -1.168987e+02
   1.478659e+02  -3.997447e+01
   1.101885e+02  -2.282600e+01
   2.250732e+02  -6.326769e+01
   3.139048e+02   7.714215e+01
   2.558449e+02   2.482786e+02
  -2.159462e+01   3.794807e+02
  -2.748301e+02   2.891923e+02
  -3.523201e+02   1.063368e+02
  -2.555024e+02  -6.103383e+01
  -1.968434e+01  -1.998392e+02
   1.074497e+02  -1.843138e+02
   4.717081e+01  -3.952106e+01
  -1.041241e+02   1.938352e+01
  -5.398543e+01  -3.255294e+01
  -1.719724e+01  -1.113573e+02
   9.385107e+01  -5.275376e+01
   7.399488e+01   2.630603e+01
  -2.631111e+01   9.547125e+01
  -1.361040e+02  -4.023613e+00
  -1.588104e+02  -2.099935e+02
   3.224021e+01  -2.896891e+02
   1.938548e+02  -1.550389e+02
   2.918594e+02   3.113357e+01
   2.301285e+02   2.159628e+02
   4.637653e+01   2.083955e+02
  -9.223050e+01   1.019464e+02
  -1.148568e+02  -1.129862e+01
  -2.920841e+01  -1.534475e+01
   5.543837e+01   6.247330e+01
  -1.878004e+01   1.076138e+02
  -1.034893e+02   6.652939e+01
  -1.107206e+02  -3.429737e+01
  -4.565832e+01  -4.262000e+01
   3.660707e+01   2.102073e+01
   4.227565e+01   9.425368e+01
  -1.108607e+02   6.826617e+01
  -2.228590e+02  -1.105001e+01
  -2.055266e+02  -1.143621e+02
   6.409677e+00  -2.293761e+02
   1.731005e+02  -2.084971e+02
   2.336870e+02  -6.795405e+01
   9.303969e+01   5.465289e+01
  -2.513460e+00   6.047437e+01
  -3.217536e+01  -1.519760e+01
   2.064856e+01  -5.336372e+01
   1.260647e+02  -9.015339e+00
   1.497583e+02   1.028001e+02
   7.552691e+01   1.780659e+02
  -6.007467e+01   1.171118e+02
  -1.104154e+02   1.616733e+01
  -4.135519e+01  -8.203541e+00
   3.371543e+01   4.852682e+01
   4.068333e+00   5.796953e+01
  -7.461243e+01   1.191317e+02
  -1.697684e+02  -2.011064e+00
  -1.411965e+02  -1.216211e+02
  -1.115290e+01  -1.563755e+02
   1.221254e+02  -1.376025e+02
   1.407813e+02  -5.987127e+00
   2.235364e+01   6.953325e+01
  -4.842021e+01   5.736197e+01
  -6.164179e+01   3.482392e+01
  -1.325136e+00  -5.482279e+01
   3.344339e+01  -1.756138e+01
  -3.522645e+01   1.057184e+01
  -5.669341e+01   5.259396e+01
  -9.482905e+01  -7.539532e+01
  -1.467400e+01  -1.325118e+02
   1.233419e+02  -1.414254e+02
   1.683993e+02  -2.181845e+00
   1.491308e+02   1.214317e+02
   1.790455e+01   1.919622e+02
  -7.031968e+01   1.238981e+02
  -1.127251e+02   2.415711e+01
  -5.787417e+01  -3.560687e+01
  -3.759126e+01  -4.064404e+01
  -2.836954e+01   1.579444e+01
  -8.173316e+01   3.050044e+00
  -5.916384e+01  -3.439204e+01
   3.516504e+01  -7.013242e+01
   1.332140e+02  -4.874053e+01
   8.743635e+01   3.049436e+01
  -1.880986e+01   1.051982e+02
  -1.314559e+02   5.192806e+01
  -1.799339e+02  -7.885987e+01
  -9.789967e+01  -1.783649e+02
   1.046512e+02  -2.173258e+02
   2.371121e+02  -7.870465e+01
   1.953545e+02   7.602896e+01
   6.426392e+01   1.307355e+02
  -3.336782e+01   9.806791e+01
  -5.209081e+01   9.083148e+01
  -5.206180e+01   5.798584e+01
  -5.825917e+01   6.374384e+01
  -6.711152e+01   8.434074e+01
  -1.283537e+02  -9.526601e+00
  -6.873247e+01  -1.167505e+02
  -1.737900e+01  -1.617211e+02
   6.145125e+01  -1.209992e+02
   1.371772e+02   1.088278e+01
   1.069592e+02   1.448105e+02
   5.919413e+00   1.638627e+02
  -5.559644e+01   7.157790e+01
  -5.659669e+01   1.447885e+01
   6.454903e+00  -2.966804e+01
   4.475337e+01  -1.874055e+01
  -2.429057e+01  -3.428186e+01
  -7.001921e+01  -6.667719e-01
  -4.597864e+01  -5.509341e+01
   4.730748e+01  -7.455517e+00
   1.483402e+02   1.788831e+01
   1.242763e+02   7.426863e+01
   8.214751e+00   7.335441e+01
  -8.806283e+01   4.013195e+01
  -9.613475e+01   2.263582e+01
  -2.949332e+01  -6.286809e+01
   3.213076e+01  -1.567399e+01
   6.133176e+01   1.351269e-01
   1.434677e+01   7.584056e+01
  -5.047993e+01   4.039177e+01
  -6.006753e+01   2.033099e+00
  -5.150584e+01  -5.203993e+01
  -2.566608e+01  -2.690591e+01
  -3.683735e+01  -4.842902e+00
  -3.745717e+01  -1.529125e+01
  -2.877643e+01  -5.854140e+01
   3.144429e+01  -1.211983e+02
   8.321016e+01  -1.013839e+02
   1.553835e+02  -3.789555e+01
   9.971639e+01   5.566824e+01
  -2.028650e+01   1.227201e+02
  -1.079740e+02   6.430159e+01
  -5.761131e+01   3.086143e+00
   2.600795e+01   2.638810e+00
   1.341587e+02   7.545640e+01
   6.692976e+01   6.757935e+01
  -7.288064e+01   1.247483e+02
  -1.740635e+02   4.741126e+01
  -1.330720e+02  -4.611656e+00
   1.122930e+01  -6.584191e+01
   5.730758e+01  -6.006226e+01
   5.277069e+01   2.306838e+01
  -2.007042e+01   4.183487e+01
  -8.320094e+01  -1.921884e+01
  -3.242080e+01  -8.988879e+01
   4.871915e+01  -1.143361e+02
   9.778461e+01  -5.200208e+01
   6.526968e+01   6.534106e+01
   1.846804e+01   1.865429e+02
  -5.642131e+01   1.115515e+02
  -7.023977e+01  -1.277535e+01
  -5.662051e+01  -9.827426e+01
   3.558639e+01  -9.161878e+01
   3.043200e+01  -5.981383e+00
   2.726451e+01   3.714183e+01
   7.959384e+00  -1.046712e+01
   2.050061e+01  -2.041190e+01
   1.301587e+01   3.664292e+01
   4.255111e+01   5.976681e+01
   2.323620e+01   7.027423e+01
  -4.561986e+01   3.879860e+01
  -9.392023e+01  -2.723638e+01
  -9.901565e+01  -5.415323e+01
  -1.615598e+01  -3.842508e+01
   5.914340e+01  -1.555655e+01
   7.865059e+01  -1.227701e+01
   2.807019e+01   7.578383e+00
  -1.608259e+01   2.733546e+00
  -2.569196e+01   3.287347e+00
   2.031259e+01  -2.363111e+01
   3.708954e+01  -1.421357e+00
  -6.239325e+01   4.961425e+00
  -6.580302e+01  -3.054712e+01
  -3.095304e+01  -8.221208e+01
   9.221758e+01  -9.070205e+01
   1.431955e+02  -5.080709e+01
   1.151388e+02   5.695000e+01
   1.237569e+01   1.486940e+02
  -8.632495e+01   1.425123e+02
  -8.961642e+01   6.005926e+01
  -5.735271e+01   3.982531e+00
  -9.067237e+00  -3.576070e+01
  -6.684180e+00  -2.543953e+01
  -2.302456e+01   4.238780e-01
  -2.508107e+01  -6.259879e+01
  -2.693587e+01  -8.690674e+01
   1.987676e+01  -4.968052e+01
   7.344902e+01   1.769436e+01
   8.192966e+01   9.536723e+01
   1.989926e+01   8.285199e+01
  -6.308321e+01   4.483470e+01
  -1.041840e+02  -4.038999e+01
  -2.517585e+01  -8.064953e+01
   3.733168e+01  -5.308050e+01
   5.461982e+01   2.909403e+01
   3.325260e+01   7.990553e+01
  -3.866085e+01   5.799785e+01
  -5.932653e+01   1.264876e+01
   1.710584e+01  -2.689252e+01
   5.570638e+01  -7.211577e+00
   1.553431e+01   4.429342e+01
  -6.743867e+01   4.469293e+01
  -1.081475e+02   6.247532e+01
  -4.241578e+01  -1.914731e+01
   4.280276e+00  -6.384697e+01
   4.569200e+01  -5.400065e+01
   6.803352e+01  -1.105428e+00
   7.049673e+00   3.233198e+01
  -1.508555e+01   2.064821e+01
  -4.372672e+01  -7.173465e+00
  -4.119903e+01  -4.931323e+01
   7.661333e+00  -3.810482e+01
   3.767727e+01   6.430594e+00
  -6.086405e-01   4.522624e+01
   9.752611e+00   4.440320e+00
  -5.664533e+00  -2.080331e+01
   1.464447e+01   7.956617e+00
   1.596963e+00   2.681886e+01
   3.038529e+01   1.350162e+01
   7.334986e+00  -2.644579e-01
  -4.451657e+01  -4.442808e+01
   1.550499e+01  -4.862709e+01
   4.859148e+01  -2.056038e+01
   6.130250e+01   2.802462e+01
  -9.588147e+00   6.285127e+01
  -3.772913e+01   4.212640e+01
  -1.056729e+02   1.947631e+00
  -3.056006e+01  -3.044266e+01
   1.403644e+01  -2.154304e+01
   6.531675e+01  -1.793016e+01
   4.855507e+01  -2.556873e+01
  -2.320344e+01   1.164970e+01
  -4.045339e+01   1.919364e+01
   2.473237e+00  -3.078987e+01
   2.496385e+01  -1.201113e+01
