
 $NMID
 id='ANONYMOUS ', fmtdat='(2E16.6)'
 volume=1.0
 tramp=1.0
 $END
   2.983231e+03   1.854522e+02
   1.968524e+03   1.891460e+03
  -1.092629e+02   1.920968e+03
  -1.434271e+03   1.123301e+03
  -9.827882e+02  -3.056641e+01
   2.126702e+02  -3.876373e+02
   5.966326e+02   2.156488e+02
  -3.922232e+01   8.236307e+02
  -4.625778e+02   5.629115e+02
  -6.090456e+02   3.341750e+01
  -4.144782e+02  -5.408282e+02
   7.845716e+01  -6.418809e+02
   4.195241e+02  -1.128637e+02
   2.900816e+02   5.081939e+02
  -1.631012e+02   5.852561e+02
  -4.791775e+02   4.857717e+01
  -2.654483e+02  -5.028295e+02
   1.692338e+02  -5.834050e+02
   4.335629e+02  -1.518418e+02
   3.941499e+02   2.426825e+02
   5.619349e+01   3.273267e+02
  -1.472648e+02   2.048201e+02
  -1.262091e+02   5.458848e+01
   1.552320e+02   4.252279e+01
   2.881379e+02   1.766096e+02
   9.787525e+01   3.240468e+02
  -3.682145e+02   2.197986e+02
  -6.734034e+02  -5.069646e+01
  -3.521468e+02  -3.949823e+02
   3.151557e+02  -3.186876e+02
   5.824352e+02   9.961649e+01
   2.508247e+02   3.876736e+02
  -2.392405e+02   3.751033e+02
  -4.133817e+02   1.499055e+02
  -3.708723e+02  -1.433493e+02
  -7.293240e+01  -2.991369e+02
   1.010013e+02  -2.283814e+02
   4.730675e+01   9.289034e+01
  -1.717323e+02   2.533673e+02
  -2.742320e+02  -3.599621e+01
  -1.166534e+02  -5.115688e+02
   2.175538e+02  -4.853801e+02
   4.200206e+02  -2.649093e+01
   1.743124e+02   3.303712e+02
  -1.583917e+02   1.836311e+02
  -2.541288e+02  -2.472554e+02
   4.729733e+01  -3.984893e+02
   4.019049e+02  -6.610989e+01
   4.600835e+02   3.003857e+02
   1.225264e+02   4.945820e+02
  -2.548139e+02   2.379660e+02
  -4.665803e+02  -6.152111e+01
  -3.405161e+02  -2.752906e+02
   6.347492e+01  -2.584423e+02
   3.157653e+02  -6.131416e+01
   1.983923e+02   7.582965e+01
  -2.229242e+01   4.354785e+01
  -1.035918e+02  -9.047762e+01
   1.238117e+02  -1.659267e+02
   2.584455e+02   5.739857e+01
   1.176820e+02   2.093347e+02
  -1.579394e+02   2.294217e+02
  -3.056977e+02   8.846898e+01
  -2.142655e+02  -6.654602e+01
   4.854198e+01  -2.904552e+02
   2.422946e+02  -3.004321e+02
   3.621620e+02  -1.346102e+02
   1.980795e+02   1.394651e+02
   8.213830e+01   3.248140e+02
  -9.051588e+01   2.844342e+02
  -4.952076e+01   9.764253e+01
  -1.466066e+01   5.227660e+01
  -7.436509e+01   8.852519e+01
  -1.845883e+02   9.796130e+01
  -2.055496e+02  -6.174300e+01
  -8.920313e+01  -2.086050e+02
   7.700364e+01  -2.046844e+02
   1.713598e+02   1.846673e+01
   1.511361e+02   2.150307e+02
  -1.840205e+01   2.245374e+02
  -2.128204e+02   5.641171e+01
  -3.094799e+02  -1.313184e+02
  -1.729224e+02  -2.866926e+02
   7.977987e+01  -2.409129e+02
   1.768391e+02  -1.264463e+02
   1.360276e+02  -3.824643e+01
   1.017687e+02  -5.152229e+01
   2.256522e+02  -1.894544e+01
   3.830289e+02   6.799401e+01
   2.887686e+02   2.465960e+02
  -2.208113e+01   4.149442e+02
  -3.183982e+02   3.578373e+02
  -3.823301e+02   1.719609e+02
  -2.835474e+02  -9.232460e+01
  -3.859951e+01  -2.226263e+02
   9.354196e+01  -2.263284e+02
   5.237193e+01  -4.126744e+01
  -9.237374e+01   7.289901e+01
  -1.556797e+02  -1.122637e+01
  -3.756821e+01  -1.490901e+02
   1.411090e+02  -1.163932e+02
   1.478006e+02   7.282344e+01
   1.263271e+01   1.604429e+02
  -1.323170e+02  -1.682155e+01
  -1.497213e+02  -2.171773e+02
   1.064979e+01  -2.904618e+02
   2.497235e+02  -2.124426e+02
   3.007849e+02   4.010238e+01
   2.269402e+02   2.340570e+02
   4.805059e+01   2.387549e+02
  -1.320530e+02   1.518693e+02
  -1.414491e+02  -3.460248e+00
  -2.293577e+01  -2.458633e+01
   6.917561e+01   3.136981e+01
   1.637229e+01   8.971755e+01
  -9.783420e+01   5.541527e+01
  -1.133586e+02  -2.367020e+01
  -2.222799e+01  -7.644639e+01
   6.746818e+01   5.695564e-01
   3.727476e+01   6.151375e+01
  -1.469560e+02   9.537955e+01
  -2.773025e+02  -9.703137e-01
  -2.311887e+02  -1.484197e+02
  -4.593660e+01  -2.439091e+02
   1.851027e+02  -2.546876e+02
   2.389248e+02  -8.829393e+01
   1.399305e+02   2.675314e+01
  -2.413894e+01   5.148739e+01
  -8.678346e+01   4.256881e+00
   3.290025e+01  -9.416942e+01
   1.564758e+02  -3.600570e+01
   1.913820e+02   7.058309e+01
   7.352067e+01   1.524775e+02
  -5.180130e+01   1.338586e+02
  -1.155224e+02   2.847950e+01
  -6.564892e+01  -3.610135e+01
   3.961579e+01   3.107196e+01
   1.866847e+01   5.625315e+01
  -6.972441e+01   6.622589e+01
  -2.089271e+02   3.823848e+01
  -1.587846e+02  -1.365068e+02
  -2.649082e+01  -2.049102e+02
   1.172012e+02  -1.470491e+02
   1.651600e+02   1.335472e+01
   7.663895e+01   9.860289e+01
  -6.483473e+01   1.054845e+02
  -9.740273e+01   1.185055e+01
   1.105861e+01  -8.547317e+00
   1.105886e+01   3.376447e-01
  -1.655845e+01  -1.510683e+01
  -6.018036e+01   5.065533e+00
  -8.772370e+01  -6.606062e+01
  -3.499497e+00  -1.238279e+02
   1.360356e+02  -1.533602e+02
   2.254515e+02   1.068175e+01
   1.563579e+02   1.425498e+02
   4.188235e+01   2.279797e+02
  -8.024703e+01   1.506932e+02
  -1.192317e+02   1.988620e+01
  -7.764527e+01  -4.079129e+01
  -1.385303e+01  -5.074944e+01
  -6.109001e+01  -5.256915e+00
  -9.214230e+01   1.726566e+01
  -4.105444e+01  -1.335135e+01
   6.157012e+01  -6.824918e+01
   1.029212e+02  -3.646458e+01
   1.052948e+02   4.048773e+01
  -3.436570e+01   1.214845e+02
  -1.224032e+02   9.734105e+01
  -1.670376e+02  -6.389440e+01
  -6.080230e+01  -2.102641e+02
   1.277326e+02  -2.131328e+02
   2.189239e+02  -5.266930e+01
   2.209987e+02   8.325587e+01
   7.954970e+01   1.491205e+02
  -1.816037e+01   9.195516e+01
  -8.111878e+01   6.102152e+01
  -5.191573e+01   5.584559e+01
  -5.869197e+01   8.825800e+01
  -7.786182e+01   9.221259e+01
  -1.078414e+02   6.978441e+00
  -1.282774e+02  -1.388226e+02
  -1.365453e+01  -1.723593e+02
   9.832322e+01  -1.275769e+02
   1.399379e+02  -3.612338e+01
   1.298548e+02   1.076613e+02
   9.987417e+00   1.681746e+02
  -9.107735e+01   9.714957e+01
  -5.917371e+01  -1.216258e+01
  -4.461597e-01  -7.102202e+01
   1.374412e+01  -4.183858e+01
  -2.239003e+01  -7.738807e+00
  -4.270922e+01  -1.721664e+01
  -5.074025e+01  -2.059059e+01
   5.779223e+01  -4.568971e+01
   1.136548e+02  -7.683299e+00
   8.409475e+01   7.921666e+01
  -1.131306e+01   9.865165e+01
  -1.147856e+02   6.630261e+01
  -1.448071e+02   1.633248e+01
  -6.585551e+01  -5.661412e+01
   4.036099e+01  -4.230816e+01
   6.109016e+01   8.316983e+00
   1.766630e+01   2.320887e+01
  -3.931053e+01   6.365635e+01
  -6.212132e+01  -2.266087e+01
  -5.598840e+01  -5.139853e+01
  -3.856213e+01  -5.260969e+01
  -5.395565e+01  -2.898013e+01
  -5.810332e+01  -1.227150e+01
  -5.853552e+01  -6.639136e+01
   3.439232e+01  -1.039296e+02
   1.188129e+02  -1.001382e+02
   1.505131e+02  -2.654414e+01
   1.013159e+02   9.284309e+01
  -1.537057e+01   1.243623e+02
  -7.666285e+01   5.436340e+01
  -8.591941e+01  -3.763480e+00
   3.646807e+01  -6.058777e+00
   1.262703e+02   3.779468e+01
   6.260067e+01   7.586293e+01
  -9.721968e+01   1.226304e+02
  -1.606926e+02   4.882261e+01
  -1.555792e+02  -1.592887e+01
  -5.309683e+01  -9.469410e+01
   2.096141e+01  -6.459810e+01
   5.208562e+01   5.478060e+00
  -5.198239e+01   2.309694e+01
  -3.155977e+01   6.958596e+00
  -8.536392e+00  -8.558260e+01
   8.199460e+01  -1.445830e+02
   1.464038e+02  -6.240950e+01
   9.535627e+01   6.989155e+01
   2.869622e+01   1.676696e+02
  -8.659382e+01   1.319159e+02
  -8.567984e+01   2.152973e+01
  -6.235076e+01  -1.227207e+02
   1.349637e+01  -1.102282e+02
   5.736209e+01  -8.106772e+00
   3.097031e+01   3.769572e+01
   1.207222e+01   2.756263e+01
   2.570818e+01  -3.365433e+01
   3.555912e+01   3.445071e+01
   5.064557e+01   8.708309e+01
   9.330377e+00   1.058933e+02
  -4.124701e+01   4.951911e+01
  -1.134699e+02  -1.162812e+01
  -1.255858e+02  -6.234513e+01
  -9.750638e-01  -5.429114e+01
   8.403911e+01  -4.217582e+01
   8.986469e+01  -1.663705e+01
  -1.000480e+01   7.362906e+00
  -3.218845e+01   3.329197e+01
  -1.836135e+01   2.430073e+01
   3.751860e+01   4.667545e+00
  -2.337168e+00  -8.185460e-01
  -5.569892e+01   1.773657e+01
  -9.015395e+01  -1.006298e+01
  -1.872761e+01  -6.070501e+01
   1.224348e+02  -9.290446e+01
   1.399535e+02  -6.719649e+01
   1.286643e+02   8.095600e+01
   2.206731e+00   1.389055e+02
  -7.188054e+01   1.370110e+02
  -8.337253e+01   7.032453e+01
  -9.660175e+01  -2.341495e+01
  -2.357869e+01  -2.632590e+01
   2.186441e+00  -1.208858e+01
  -1.581883e+01  -1.088699e+01
  -2.012351e+00  -4.019192e+01
  -2.677532e+01  -7.713892e+01
   2.494991e+01  -6.039300e+01
   6.542234e+01   6.836241e-01
   8.067374e+01   8.479994e+01
   2.148230e+01   1.103699e+02
  -4.686710e+01   2.978277e+01
  -9.170301e+01  -3.544726e+01
  -1.001073e+01  -8.482322e+01
   7.364533e+01  -5.383306e+01
   1.045806e+02   1.164869e+01
   3.216865e+01   3.964267e+01
  -3.124165e+01   7.799181e+01
  -4.417737e+01   3.285751e+01
   3.482013e+01  -2.112995e+01
   6.664074e+01  -2.372585e+01
   2.329208e+01   2.455066e+01
  -5.066876e+01   5.302380e+01
  -9.531347e+01   4.390276e+01
  -5.321621e+01  -1.831595e+01
   4.750890e+00  -7.991174e+01
   4.944323e+01  -7.824247e+01
   2.693472e+01   1.383178e+01
  -1.823515e+01   3.752542e+01
  -3.333291e+01   5.886089e+01
  -4.375149e+01  -1.625737e+00
  -3.601184e+01  -3.877740e+01
   6.220813e+00  -2.086683e+01
   2.868749e+01  -1.163675e+01
   3.211035e+01   2.620971e+01
   2.590346e+01  -1.620815e+00
  -3.633791e+00  -1.230694e+01
  -1.291198e+01   1.011699e+01
   2.572835e+01   1.294536e+01
   5.806067e+00   4.969633e+01
  -3.882060e+01   1.930250e+01
  -3.122472e+01  -1.211184e+01
  -2.099756e+01  -6.247468e+01
   4.911017e+01  -1.870288e+01
   5.988728e+01   3.575618e+01
   1.518932e+01   3.720170e+01
  -7.050782e+01   1.894672e+01
  -8.055234e+01  -5.901438e+01
  -2.357254e+01  -5.976555e+01
   6.565784e+00  -4.343224e+01
   3.477819e+01  -1.872737e+01
   6.129751e+00  -1.153415e+01
  -4.267966e+01  -8.460838e+00
  -1.589831e+01   7.759116e+00
   3.731611e+00  -2.288107e+01
   7.295344e+01  -4.377565e+01
