
 $NMID
 id='ANONYMOUS ', fmtdat='(2E16.6)'
 volume=1.0
 tramp=1.0
 $END
  -2.653162e+03   2.353359e+02
  -2.094960e+03  -1.308921e+03
  -2.264841e+02  -1.774759e+03
   1.239506e+03  -1.230454e+03
   8.846238e+02  -2.812126e+02
   2.530944e+01   2.245058e+02
  -4.745012e+02  -1.246267e+02
  -7.926935e+01  -5.362765e+02
   3.036084e+02  -4.941161e+02
   5.233651e+02  -1.569280e+02
   4.254879e+02   3.539822e+02
   3.724003e+01   5.810960e+02
  -2.648179e+02   1.556354e+02
  -2.142217e+02  -3.493544e+02
   7.740903e+01  -4.732055e+02
   3.867860e+02  -5.418841e+01
   3.024044e+02   3.849690e+02
  -1.053554e+02   5.354876e+02
  -3.452419e+02   2.587695e+02
  -3.935775e+02  -1.571711e+02
  -1.341937e+02  -2.654096e+02
   1.095721e+02  -2.232618e+02
   7.882486e+01  -7.781894e+01
  -1.385632e+02  -9.181377e+01
  -1.930910e+02  -2.393105e+02
   1.778346e+00  -3.234354e+02
   3.508001e+02  -9.789003e+01
   5.497408e+02   9.193875e+01
   2.435841e+02   3.523830e+02
  -2.613916e+02   2.351152e+02
  -4.395608e+02  -1.120742e+02
  -2.227066e+02  -3.332367e+02
   2.054867e+02  -2.733681e+02
   3.094019e+02  -1.012084e+02
   2.862252e+02   1.282021e+02
   1.036156e+02   2.376890e+02
   9.804422e-01   1.651882e+02
   3.633215e+01  -6.399645e+00
   1.282790e+02  -1.750174e+02
   1.905738e+02   9.288765e+01
   4.023165e+01   4.023726e+02
  -1.568015e+02   4.303367e+02
  -3.161117e+02   7.414505e+01
  -1.238062e+02  -2.204250e+02
   1.154549e+02  -1.704426e+02
   1.568348e+02   2.499221e+02
  -1.108784e+02   3.405328e+02
  -3.702086e+02   5.458032e+01
  -3.972716e+02  -2.573620e+02
  -1.433365e+02  -4.194625e+02
   2.450681e+02  -2.116483e+02
   4.286040e+02   2.935377e+01
   3.244532e+02   2.810365e+02
  -5.012943e+01   1.969017e+02
  -2.455606e+02   8.144107e+01
  -1.859489e+02   1.692797e+00
   7.477005e+00  -4.796450e+01
   5.420762e+01   2.304774e+01
  -8.914430e+01   4.306887e+01
  -2.363093e+02  -3.079199e+01
  -1.349760e+02  -1.249726e+02
   1.277065e+02  -2.116111e+02
   2.920007e+02  -1.446946e+02
   2.162587e+02   1.000041e+02
  -2.168054e+01   2.812374e+02
  -2.323349e+02   3.177152e+02
  -3.331417e+02   1.659664e+02
  -1.990668e+02  -1.442661e+02
  -3.772974e+01  -2.760446e+02
   5.946512e+00  -2.812250e+02
  -3.459772e+00  -1.478909e+02
   3.345476e+01  -7.834300e+01
   1.009088e+02  -9.238867e+01
   1.925748e+02  -5.862024e+01
   2.060261e+02   1.154344e+02
   1.157293e+02   2.243106e+02
  -4.772958e+01   2.089913e+02
  -1.613820e+02  -2.592803e+01
  -1.381197e+02  -2.065633e+02
   1.752370e+01  -1.999399e+02
   2.211986e+02  -3.489256e+01
   2.586175e+02   1.528448e+02
   1.494350e+02   2.650573e+02
  -2.665505e+01   2.359788e+02
  -1.767657e+02   1.173341e+02
  -1.202205e+02   6.525006e+01
  -1.149015e+02   6.155901e+01
  -2.329779e+02   4.292787e+01
  -3.266039e+02  -7.162627e+01
  -2.669314e+02  -2.354381e+02
   1.692005e+01  -3.868363e+02
   2.928010e+02  -3.308630e+02
   3.500299e+02  -1.032252e+02
   2.593301e+02   7.685320e+01
   1.665590e+01   1.957352e+02
  -9.534356e+01   1.826825e+02
  -4.743661e+01   2.099400e+01
   1.227983e+02  -2.893756e+01
   7.887635e+01   3.840326e+01
   5.558651e+01   1.227556e+02
  -7.398505e+01   5.757091e+01
  -1.139212e+02  -1.502350e+01
   2.618580e+01  -8.022071e+01
   1.137633e+02  -2.859862e+00
   1.846700e+02   2.054698e+02
  -2.592592e+01   3.032478e+02
  -1.824272e+02   2.121548e+02
  -2.774208e+02  -8.001370e+01
  -2.315905e+02  -2.125262e+02
  -4.413543e+01  -2.298006e+02
   8.986128e+01  -1.232662e+02
   1.469175e+02  -6.660661e+00
   2.434485e+01   6.370874e-01
  -4.097695e+01  -4.253511e+01
  -5.997971e+00  -1.110072e+02
   1.097182e+02  -7.476868e+01
   1.119820e+02   2.750621e+01
   4.791981e+01   4.454858e+01
  -8.829601e+01  -7.118576e+00
  -4.761848e+01  -9.691976e+01
   1.061174e+02  -7.453001e+01
   2.477867e+02  -5.832242e+00
   2.222012e+02   1.336586e+02
   1.597856e+01   2.222730e+02
  -1.695111e+02   2.121667e+02
  -2.199000e+02   7.495154e+01
  -1.010440e+02  -3.685184e+01
   2.762941e+00  -8.243769e+01
   3.914881e+01   1.822030e+01
  -2.173664e+01   8.177454e+01
  -1.263544e+02   4.687169e+01
  -1.560767e+02  -1.040688e+02
  -6.343415e+01  -1.647666e+02
   6.994414e+01  -1.122850e+02
   1.258289e+02  -2.828959e+01
   4.551748e+01   2.988815e+01
  -3.895759e+01  -3.176652e+01
  -1.602272e+01  -6.847432e+01
   9.742755e+01  -1.038767e+02
   1.857477e+02  -1.098668e+01
   1.308680e+02   1.230940e+02
   3.301997e+01   1.822208e+02
  -1.276436e+02   1.516996e+02
  -1.660222e+02   1.786104e+01
  -5.675450e+01  -7.617815e+01
   4.700734e+01  -7.492407e+01
   6.191051e+01  -3.053378e+01
   2.763459e+01   2.933211e+01
  -3.532353e+01   1.884213e+01
  -1.843967e+00  -4.337697e+01
   6.470388e+01  -4.413140e+01
   9.065465e+01   6.062619e+01
   9.665998e+00   1.422061e+02
  -9.450190e+01   1.376931e+02
  -1.700131e+02  -6.493083e+00
  -1.539277e+02  -1.331064e+02
  -4.121165e+01  -2.063483e+02
   8.636065e+01  -1.474227e+02
   1.067081e+02  -2.691753e+01
   7.040665e+01   3.702903e+01
   3.031199e+01   4.889123e+01
   6.558651e+01  -1.499018e+01
   5.581773e+01   1.710765e+01
   7.926165e+01   2.692796e+01
  -1.071694e+01   9.488580e+01
  -1.017889e+02   6.737141e+01
  -8.450453e+01  -6.292148e+01
   2.564988e+01  -1.199757e+02
   1.344922e+02  -6.528249e+01
   1.479516e+02   3.900322e+01
   6.045693e+01   1.957617e+02
  -1.108080e+02   2.012719e+02
  -2.091777e+02   5.908720e+01
  -2.105670e+02  -6.011832e+01
  -9.230489e+01  -1.296527e+02
   4.433369e+01  -9.752783e+01
   7.347449e+01  -6.586045e+01
   3.551298e+01  -5.956257e+01
   5.909974e+01  -8.667360e+01
   7.687430e+01  -8.725221e+01
   1.131390e+02   8.473021e-01
   1.131347e+02   1.469361e+02
  -5.842090e+00   1.549438e+02
  -1.006335e+02   1.333808e+02
  -1.650490e+02   7.731137e+00
  -1.467092e+02  -9.854638e+01
  -2.552737e+01  -1.570423e+02
   6.667124e+01  -5.154297e+01
   4.578744e+01   2.345489e+01
  -2.528916e+01   3.993385e+01
  -1.756771e+01   2.733130e+01
   1.398441e+01  -1.944236e+01
   8.010158e+01   3.034505e+01
   5.088004e+01   4.395757e+01
  -8.292600e+01   4.317487e+01
  -1.245537e+02   2.147591e+01
  -8.576612e+01  -6.812827e+01
   4.498754e+01  -9.082592e+01
   1.017872e+02  -4.515933e+01
   1.237109e+02  -2.307934e+01
   1.629060e+01   2.897945e+01
  -4.777215e+01   3.489423e+01
  -7.322109e+01  -4.814932e+00
  -1.456996e+01  -5.931967e+01
   4.394264e+01  -2.211312e+01
   6.193275e+01   2.433607e+01
   5.853006e+01   5.935942e+01
   4.779399e+01   8.480806e+00
   6.560485e+01  -1.228434e+01
   2.865540e+01  -1.204993e+01
   2.752588e+01   5.119150e+01
  -1.896946e+01   1.152440e+02
  -1.385195e+02   1.132329e+02
  -1.676509e+02   5.101851e+01
  -1.034939e+02  -4.653897e+01
  -1.525522e+01  -1.283614e+02
   8.581168e+01  -7.822342e+01
   5.617755e+01  -1.366967e+01
  -6.086421e+01  -1.266183e+01
  -1.414284e+02  -4.678317e+01
  -7.462375e+01  -8.420018e+01
   9.200462e+01  -8.116883e+01
   1.625808e+02  -3.301374e+01
   1.227111e+02   3.443575e+01
   1.190992e+01   8.120979e+01
  -7.224082e+01   7.347285e+00
  -6.447414e+01  -6.411511e+00
   4.445979e+01  -2.936068e+01
   8.216230e+01  -9.538722e-01
   2.735219e+01   1.200455e+02
  -9.834862e+01   1.144944e+02
  -1.179885e+02   6.792658e+01
  -8.547234e+01  -7.439023e+01
  -1.652835e+01  -1.506177e+02
   4.547947e+01  -1.562166e+02
   7.502481e+01  -7.302886e-01
   5.154858e+01   1.075379e+02
  -1.078966e+01   8.988383e+01
  -3.026029e+01  -3.706264e+00
  -8.394302e+00  -3.392914e+01
  -2.317312e+01  -1.595043e+01
  -2.286364e+01   2.135550e+01
  -1.449778e+01  -4.512788e+01
  -5.815789e+01  -8.003243e+01
  -4.349931e+01  -8.473344e+01
   6.101792e+01  -6.647647e+01
   1.096783e+02   2.299595e+01
   1.163905e+02   6.564513e+01
   4.358060e+01   3.961443e+01
  -4.108567e+01   1.998124e+01
  -7.268524e+01   2.573062e+00
  -9.634933e+00  -6.423771e+00
   3.594622e+01  -2.158097e+01
   1.573748e+01  -6.185746e+00
   7.132021e-01   1.427750e+01
   1.805185e+01  -3.175974e+00
   6.208894e+01  -8.963564e-01
   6.494735e+01   3.387061e+01
   2.726848e+01   7.858978e+01
  -8.473741e+01   9.721631e+01
  -1.738998e+02   3.642981e+01
  -1.245353e+02  -6.508297e+01
  -1.748151e+01  -1.629138e+02
   6.626454e+01  -1.390679e+02
   9.714848e+01  -4.841374e+01
   5.351309e+01   1.492937e+01
   3.295394e+01   3.649676e+01
   2.232162e+01   1.603100e+01
   2.399424e+01  -3.512717e+00
   2.692329e+01   2.871888e+01
   4.283644e+01   1.147793e+02
  -5.247161e+01   3.693412e+01
  -9.194229e+01  -1.092433e+01
  -6.813839e+01  -6.655147e+01
  -3.140567e+01  -8.029204e+01
   5.357205e+01  -2.411877e+01
   1.075713e+02   4.510845e+01
   4.450500e+01   7.161027e+01
  -4.212828e+01   7.534847e+01
  -8.198956e+01  -1.273585e+01
  -5.892975e+01  -5.930016e+01
   3.127502e+01  -3.497316e+01
   5.189871e+01  -1.135109e+01
  -4.420624e+01   1.385974e+01
  -6.484524e+01   1.195373e+01
  -2.272033e+01  -1.284421e+01
   7.339377e+01  -3.944459e+01
   1.179108e+02  -6.947550e+01
   7.605505e+01   3.299028e+01
  -3.773952e+00   7.483911e+01
  -6.857909e+01   8.681958e+01
  -6.378861e+01  -2.096074e+00
  -2.522167e+01  -4.751336e+01
   1.030521e+01  -1.542386e+01
   3.485968e+01   2.083922e+01
   2.636415e+01   5.430563e+01
  -3.246029e+01   2.101749e+01
  -3.595693e+01   2.899221e+01
  -4.208521e+01  -3.448638e+01
  -1.892598e+01   3.110795e+00
  -1.371788e+01   4.864317e+00
   1.601971e+00  -1.359553e+01
  -4.048642e+00  -1.201080e+01
   6.753061e+00  -4.182259e+01
   4.447396e+01  -2.496954e+01
   4.373070e+01   4.040327e+01
   1.883743e+01   4.514510e+01
  -4.473709e+01   1.405856e+01
  -6.188976e+01  -1.567767e+01
  -8.965882e-01  -5.233120e+01
   3.306569e+01  -2.971479e+01
   7.439256e+01   1.819551e+01
   3.159930e+01   5.525247e+01
  -2.334161e+01   2.802898e+01
  -5.183770e+01   4.947651e+01
  -3.994170e+01  -1.617868e+01
   2.758579e+01  -1.676837e+01
   2.906402e+01   1.524740e+01
  -1.814724e+01   1.810231e+01
  -7.037557e+01   9.284039e+00
