
 $NMID
 id='ANONYMOUS ', fmtdat='(2E16.6)'
 volume=1.0
 tramp=1.0
 $END
  -2.626257e+03  -3.498587e+01
  -1.881072e+03  -1.554250e+03
  -1.551601e+02  -1.607157e+03
   1.176438e+03  -9.780109e+02
   7.926563e+02  -2.508737e+02
   7.695152e+00   1.479243e+02
  -3.237991e+02  -1.163901e+02
  -3.694123e+01  -5.851718e+02
   2.865599e+02  -4.377388e+02
   4.680632e+02  -1.011384e+02
   3.984058e+02   3.770080e+02
  -2.992537e+01   5.434706e+02
  -2.456632e+02   1.761158e+02
  -1.968972e+02  -3.600685e+02
   8.420721e+01  -4.102626e+02
   3.649562e+02  -2.312640e+01
   2.384030e+02   3.910398e+02
  -1.264779e+02   5.390756e+02
  -3.196054e+02   2.026230e+02
  -3.624291e+02  -1.783972e+02
  -9.537688e+01  -2.528907e+02
   1.127782e+02  -2.078643e+02
   7.267849e+01  -4.500084e+01
  -1.651661e+02  -9.249402e+01
  -2.462900e+02  -2.496096e+02
   2.685176e+01  -3.189241e+02
   3.757864e+02  -8.641597e+01
   5.113569e+02   1.551788e+02
   1.921398e+02   3.204327e+02
  -2.641425e+02   1.503693e+02
  -4.338058e+02  -8.802219e+01
  -1.905188e+02  -3.063593e+02
   2.020690e+02  -2.320953e+02
   3.559304e+02  -6.158993e+01
   2.691948e+02   1.454504e+02
   3.619560e+01   2.223773e+02
  -4.823503e+01   1.422275e+02
   3.446424e+01  -8.550865e+01
   1.664255e+02  -1.320841e+02
   1.586395e+02   1.304978e+02
   3.416678e+01   3.993075e+02
  -2.161446e+02   3.648709e+02
  -3.104489e+02   2.560580e+01
  -9.427918e+01  -2.769601e+02
   8.659694e+01  -6.634969e+01
   1.250313e+02   2.560569e+02
  -1.344883e+02   3.018082e+02
  -3.716336e+02   4.333377e+01
  -3.545664e+02  -2.987504e+02
  -1.542913e+02  -4.355177e+02
   2.336797e+02  -1.854309e+02
   3.988626e+02   4.497941e+01
   2.625747e+02   2.716510e+02
  -6.699084e+01   1.801277e+02
  -2.424059e+02   6.082853e+01
  -1.664687e+02  -1.869515e+01
  -1.334918e+01  -2.104861e+01
   4.780354e+01   6.044942e+01
  -7.127832e+01   6.244560e+01
  -1.959013e+02  -5.429436e+01
  -1.080258e+02  -1.472756e+02
   8.916972e+01  -2.060128e+02
   2.705735e+02  -1.094445e+02
   2.122155e+02   8.510728e+01
  -7.942254e+00   2.758030e+02
  -2.316690e+02   2.851456e+02
  -2.941348e+02   1.253271e+02
  -1.826953e+02  -1.517753e+02
  -1.240315e+01  -2.532500e+02
   2.123806e+01  -2.569436e+02
   2.851371e+01  -1.637919e+02
   4.439741e+01  -1.072157e+02
   1.070863e+02  -1.073238e+02
   1.748679e+02  -6.551976e+01
   2.016082e+02   1.130288e+02
   5.852932e+01   2.316951e+02
  -7.965804e+01   2.012822e+02
  -1.546392e+02  -2.940423e+01
  -1.440155e+02  -2.177824e+02
   3.617430e+01  -2.278262e+02
   2.230392e+02  -3.131835e+01
   2.411773e+02   1.509849e+02
   1.503679e+02   2.649611e+02
  -1.147279e+01   2.318594e+02
  -1.425960e+02   1.170305e+02
  -1.331340e+02   8.522959e+01
  -1.107986e+02   3.240066e+01
  -2.396068e+02   2.359139e+01
  -3.286398e+02  -9.723117e+01
  -2.493104e+02  -2.318716e+02
   7.284373e+00  -3.975608e+02
   3.392997e+02  -3.080629e+02
   3.483309e+02  -8.919412e+01
   2.354878e+02   1.052737e+02
   1.926196e+01   1.920166e+02
  -9.482101e+01   1.913487e+02
  -4.858429e+01   1.136856e+01
   9.838536e+01  -4.698536e+01
   9.828869e+01   5.877689e+01
   7.627415e+00   1.362384e+02
  -8.235858e+01   7.872042e+01
  -7.299754e+01  -5.031718e+01
   3.566198e+01  -1.036909e+02
   1.244694e+02   3.449133e+01
   1.153023e+02   2.043187e+02
  -1.349670e+01   2.896699e+02
  -2.113366e+02   1.562765e+02
  -2.699874e+02  -6.520661e+01
  -2.354165e+02  -2.138822e+02
  -5.049408e+01  -1.952935e+02
   1.330966e+02  -8.874630e+01
   1.602673e+02  -6.860461e+00
   9.548689e+00   1.750236e+01
  -5.049681e+01  -4.224771e+01
   1.285450e+01  -1.139846e+02
   1.085935e+02  -5.133886e+01
   1.221324e+02   4.454626e+01
  -2.693344e+00   3.965390e+01
  -9.621912e+01  -5.307523e+00
  -3.806818e+01  -8.670882e+01
   1.175756e+02  -7.752670e+01
   2.322549e+02   1.985509e+01
   2.042892e+02   1.442319e+02
   2.646686e+01   1.920398e+02
  -1.798943e+02   1.565610e+02
  -2.310815e+02   5.783419e+01
  -8.103642e+01  -1.970611e+01
  -7.682579e+00  -9.143140e+01
   4.800031e+01   1.694194e+01
  -2.790139e+01   7.753767e+01
  -1.503591e+02   2.874696e+01
  -1.382802e+02  -9.041495e+01
  -4.767147e+01  -1.443341e+02
   9.604814e+01  -1.039358e+02
   1.027792e+02  -2.299624e+01
   3.880118e+01   1.576303e+01
  -5.156190e+01  -4.224813e+01
  -1.655886e+01  -9.385747e+01
   7.762613e+01  -9.524619e+01
   1.797055e+02   2.871823e+00
   1.529593e+02   9.973289e+01
   9.071521e+00   1.642160e+02
  -1.274445e+02   1.201285e+02
  -1.365231e+02   8.385627e+00
   7.373698e-01  -7.517876e+01
   5.717522e+01  -5.530457e+01
   3.494438e+01  -1.104702e+01
  -8.213106e+00   4.389548e+01
  -4.726238e+01   3.470588e+01
   1.778206e+01  -4.208685e+00
   9.625074e+01  -4.684601e+01
   6.610543e+01   7.733285e+01
   2.427923e+01   1.508835e+02
  -1.299113e+02   1.180904e+02
  -1.889985e+02  -8.399083e+00
  -1.793473e+02  -1.166924e+02
  -3.143775e+01  -1.730888e+02
   7.560858e+01  -1.631077e+02
   1.129071e+02  -3.479660e+00
   5.392270e+01   1.926610e+01
   2.236742e+01   1.610238e+01
   3.963137e+01   1.670950e+01
   7.104176e+01   1.066714e+01
   5.059598e+01   3.457928e+01
  -3.079508e+01   9.904355e+01
  -1.107218e+02   4.098066e+01
  -8.051931e+01  -4.135324e+01
   5.230738e+00  -1.073918e+02
   1.483020e+02  -7.618238e+01
   1.740055e+02   6.801356e+01
   8.263356e+01   2.078867e+02
  -8.487927e+01   1.790402e+02
  -2.116218e+02   6.542178e+01
  -1.811942e+02  -9.686268e+01
  -8.458564e+01  -1.214644e+02
   3.427562e+01  -9.858698e+01
   7.145237e+01  -6.052507e+01
   3.989330e+01  -6.195528e+01
   4.659316e+01  -6.294056e+01
   7.471122e+01  -6.917956e+01
   1.261682e+02   1.242836e+01
   1.044918e+02   1.311654e+02
   9.729277e+00   1.821906e+02
  -5.775297e+01   1.352509e+02
  -1.641910e+02  -1.550596e+00
  -1.060364e+02  -1.118080e+02
  -2.198066e+01  -1.758093e+02
   6.006812e+01  -5.411099e+01
   7.400377e+01   6.552458e-01
   1.082276e+00   3.354832e+01
  -2.464574e+01   3.177805e+01
   2.215863e+01  -2.116202e+01
   6.659966e+01   1.424800e+01
   4.823004e+01   3.336343e+01
  -7.204857e+01   2.601086e+01
  -1.510797e+02  -2.006795e+00
  -1.271960e+02  -5.344794e+01
   1.277984e+01  -8.639481e+01
   1.280520e+02  -5.286491e+01
   8.222409e+01   3.594941e+00
   3.548311e+01   6.167386e+01
  -2.541035e+01   2.434370e+01
  -4.311904e+01   1.485166e+01
  -3.300658e+01  -6.454402e+01
   4.682362e+01  -4.368838e+01
   4.121585e+01  -3.547913e-01
   2.707009e+01   1.215563e+01
   4.882513e+01   1.390206e+01
   6.610423e+01  -4.036224e+01
   4.683564e+01   3.065058e+01
   4.129436e+01   6.371936e+01
  -2.860234e+01   1.085356e+02
  -9.384490e+01   1.012890e+02
  -1.592769e+02   1.645516e+01
  -1.094751e+02  -7.191030e+01
   5.244321e+00  -1.550188e+02
   7.201400e+01  -6.329736e+01
   3.079511e+01   8.181404e-01
  -4.527644e+01   5.988450e-01
  -1.384647e+02  -4.632186e+01
  -3.782561e+01  -8.830442e+01
   7.508592e+01  -9.878454e+01
   1.672664e+02  -4.663898e+01
   1.370093e+02   2.188056e+01
   2.460086e+01   5.992609e+01
  -8.929056e+01   4.836509e+01
  -5.776074e+01  -2.587039e+01
   3.269795e+01  -3.824338e+01
   1.047288e+02   1.373714e-01
   2.755452e+01   7.681504e+01
  -6.955214e+01   1.401058e+02
  -1.332738e+02   4.762538e+01
  -1.147877e+02  -8.407656e+01
   7.628180e+00  -1.795064e+02
   5.127376e+01  -1.111753e+02
   8.383761e+01   1.154393e+01
   4.609648e+01   1.084257e+02
  -1.215050e+01   1.091442e+02
  -6.229326e+01   1.821974e+01
  -5.427066e+01  -2.499565e+01
   3.825048e-01   1.750602e+01
   2.086629e+00   4.496534e+01
  -2.877513e+00   2.388091e+01
  -5.258885e+01  -8.636751e+01
  -3.644021e+01  -7.936019e+01
   5.595751e+01  -3.223472e+01
   8.633737e+01   1.737035e+01
   8.169839e+01   5.043544e+01
   4.167136e+00   6.899370e+01
  -7.947569e+01   2.246498e+01
  -6.266737e+01  -2.879563e+01
  -5.666064e+00   1.472665e+00
   2.587025e+01  -6.809865e+00
   2.625433e+01   4.826304e+00
   5.947515e+00   3.004192e+01
   2.392479e+00  -1.853452e+00
   6.179845e+01  -3.233646e+01
   9.957033e+01   2.677096e+01
   3.712629e+01   6.895790e+01
  -8.649914e+01   1.096769e+02
  -1.731164e+02   5.357543e+01
  -1.157709e+02  -4.799488e+01
  -2.853982e+01  -1.422275e+02
   4.431761e+01  -1.570433e+02
   7.919818e+01  -2.620427e+01
   7.461407e+01   1.794357e+00
   4.022457e+01   2.730839e+01
  -8.869305e+00   8.245316e-03
   4.759676e+00  -5.601884e-01
   2.246838e+01   3.480948e+01
   2.432156e+01   1.141025e+02
  -2.832851e+01   7.927958e+01
  -7.113090e+01  -1.170667e+01
  -6.958665e+01  -9.192752e+01
  -2.709491e+01  -9.866831e+01
   6.141876e+01  -4.363092e+01
   9.290229e+01   3.407602e+01
   2.142175e+01   8.956221e+01
  -5.352162e+01   4.068558e+01
  -8.950035e+01  -1.834472e+01
  -6.647641e+01  -5.541411e+01
   1.494559e+01  -4.287229e+01
   8.049533e+00  -1.759588e+01
  -2.989066e+01   3.210729e+00
  -3.119244e+01  -1.873656e+01
  -8.437063e+00  -3.683978e+01
   9.370648e+01  -4.519959e+01
   1.039477e+02  -5.292579e+01
   5.045636e+01   2.276209e+01
  -3.042572e+00   7.314403e+01
  -4.913449e+01   7.361086e+01
  -4.918146e+01   5.834247e-01
  -2.472260e+01  -2.866239e+01
   4.106844e+01  -3.025855e+01
   2.390532e+01  -4.055807e-01
   5.787793e+01   4.622315e+01
  -6.607681e+00   2.427823e+01
  -1.868621e+01  -6.514855e+00
  -3.098032e+01  -4.865694e+01
   7.317213e+00   1.267611e+01
  -4.396889e+00   1.270676e+01
  -9.590772e+00   3.217156e+01
   9.570846e+00  -1.367590e+01
  -3.497695e+01  -3.968863e+01
   1.539858e+01  -1.435223e+01
   1.918679e+01   2.370358e+01
  -1.841187e+00   4.860358e+01
  -1.753578e+01   5.206550e+01
  -7.808332e+01  -2.783439e+01
  -5.966967e+00  -4.901532e+01
   4.932962e+01  -3.942719e+01
   7.923816e+01   3.477461e+01
   5.354424e+01   2.202219e+01
  -3.199967e+01   5.202487e+01
  -7.018144e+01   2.494038e+01
  -2.319490e+01  -5.275410e+00
   3.207181e+01  -6.448458e+00
   4.180340e+01   1.138622e+01
  -2.728656e+00   2.151313e+01
  -3.295824e+01   8.761138e+00
