
 $NMID
 id='ANONYMOUS ', fmtdat='(2E16.6)'
 volume=1.0
 tramp=1.0
 $END
   2.903069e+03  -1.506023e+02
   2.087216e+03   1.583550e+03
  -1.363479e+02   1.983534e+03
  -1.607283e+03   1.025283e+03
  -8.480070e+02  -3.087775e+01
   3.606798e+02  -3.650405e+02
   5.643315e+02   1.585182e+02
   5.907977e+01   7.227619e+02
  -4.099058e+02   4.827586e+02
  -5.687861e+02   6.677015e+01
  -3.919840e+02  -5.075174e+02
   3.680450e+01  -6.536321e+02
   5.181986e+02  -1.687127e+02
   2.702052e+02   5.557444e+02
  -2.105507e+02   6.233075e+02
  -4.756110e+02   4.059628e+01
  -2.794191e+02  -5.023523e+02
   1.443361e+02  -5.396658e+02
   4.567632e+02  -1.756900e+02
   4.093413e+02   2.410293e+02
   9.993836e+01   3.187524e+02
  -1.154257e+02   2.465411e+02
  -1.302491e+02  -4.192268e+00
   1.233257e+02   3.061104e+01
   2.285828e+02   1.474165e+02
   6.299218e+01   3.732863e+02
  -4.099380e+02   2.278416e+02
  -6.717999e+02  -1.300194e+02
  -3.112086e+02  -4.315256e+02
   3.386364e+02  -2.923606e+02
   5.873530e+02   1.959971e+00
   2.241886e+02   3.755398e+02
  -2.188832e+02   3.578832e+02
  -4.597253e+02   1.334143e+02
  -3.412793e+02  -1.513373e+02
  -8.415780e+01  -3.095060e+02
   1.353002e+02  -2.366108e+02
   2.728225e+00   1.061838e+02
  -1.272573e+02   2.509808e+02
  -2.855865e+02  -7.097108e+01
  -9.977646e+01  -4.562313e+02
   1.912524e+02  -4.818773e+02
   3.761063e+02   6.148715e+00
   1.223837e+02   2.831425e+02
  -1.704106e+02   1.876832e+02
  -2.582486e+02  -2.578614e+02
   8.254122e+01  -3.914094e+02
   4.001113e+02  -8.751735e+01
   4.509993e+02   3.347622e+02
   1.745791e+02   5.067019e+02
  -2.647630e+02   2.710416e+02
  -4.596070e+02  -6.892495e+01
  -3.232545e+02  -2.897246e+02
   6.953026e+01  -2.575780e+02
   3.354514e+02  -6.503070e+01
   2.098405e+02   8.264300e+01
  -2.264494e+01   3.236621e+01
  -9.706293e+01  -6.896267e+01
   8.167948e+01  -1.147872e+02
   2.778802e+02   3.745847e+01
   1.082864e+02   1.793069e+02
  -1.423545e+02   2.162605e+02
  -3.081553e+02   1.268188e+02
  -2.301957e+02  -8.286833e+01
   2.439543e+01  -2.615468e+02
   2.302117e+02  -2.943362e+02
   2.754701e+02  -1.810250e+02
   2.320038e+02   1.510603e+02
   3.762008e+01   3.521478e+02
  -5.757942e+01   2.788054e+02
  -3.421866e+01   8.289597e+01
  -2.574395e+01   6.569661e+01
  -5.749015e+01   6.544137e+01
  -2.051109e+02   4.403468e+01
  -2.007467e+02  -9.841120e+01
  -8.935406e+01  -1.818823e+02
   4.820288e+01  -2.072978e+02
   1.427497e+02   1.486142e+01
   1.638638e+02   2.018731e+02
  -2.990987e+00   2.462591e+02
  -1.980546e+02   7.222545e+01
  -2.945784e+02  -1.229594e+02
  -1.642223e+02  -2.705686e+02
   4.790709e+01  -2.559328e+02
   1.538723e+02  -8.469568e+01
   1.253645e+02  -4.553280e+01
   9.420740e+01  -7.646758e+01
   2.076132e+02  -5.757860e+01
   3.690977e+02   7.596641e+01
   2.956760e+02   2.285057e+02
  -3.240858e+01   3.961058e+02
  -3.246996e+02   3.772710e+02
  -3.926221e+02   1.254281e+02
  -2.520090e+02  -8.835268e+01
   4.975663e-01  -1.828865e+02
   7.497678e+01  -1.947721e+02
   5.891187e+01  -2.954967e+01
  -1.055987e+02   6.835395e+01
  -1.203245e+02   1.011696e+01
  -2.757480e+01  -1.814327e+02
   1.364406e+02  -1.419123e+02
   1.497127e+02   6.152902e+01
  -1.493796e+01   1.163544e+02
  -1.525502e+02   1.136787e+00
  -1.367673e+02  -2.137523e+02
   4.327946e+00  -2.772493e+02
   2.118115e+02  -1.757119e+02
   2.892932e+02   5.724926e+00
   2.447310e+02   2.240435e+02
   7.853135e+01   2.231334e+02
  -1.141343e+02   1.430134e+02
  -1.551468e+02   1.896279e+01
  -5.168630e+01  -3.013573e+01
   5.293994e+01   4.144554e+01
   2.370749e+01   9.347146e+01
  -9.799312e+01   7.573355e+01
  -1.470315e+02   1.581315e+01
  -1.356237e+01  -6.146310e+01
   7.608674e+01   6.747878e+00
   4.645251e+01   7.209086e+01
  -1.069368e+02   7.276827e+01
  -2.755403e+02   7.091046e+00
  -2.352762e+02  -1.302207e+02
  -4.529401e+01  -2.085606e+02
   1.563125e+02  -2.056333e+02
   2.423985e+02  -1.175371e+02
   1.476284e+02   4.812131e+01
  -2.720259e+01   9.013430e+01
  -4.622001e+01  -8.458543e+00
   1.225250e+01  -6.931741e+01
   1.594980e+02  -3.568265e+01
   1.593262e+02   7.300406e+01
   5.428742e+01   1.845356e+02
  -8.186940e+01   1.184256e+02
  -1.060667e+02   1.113140e+01
  -5.535014e+01  -4.660771e+01
   4.070485e+01   1.926026e+01
   4.870502e+01   5.409172e+01
  -8.527981e+01   9.560638e+01
  -1.819187e+02   2.080996e+01
  -1.554652e+02  -9.846687e+01
  -1.183645e+01  -1.738706e+02
   1.396751e+02  -1.500860e+02
   1.436294e+02  -3.228411e+01
   6.606761e+01   8.161314e+01
  -5.505781e+01   6.977805e+01
  -5.489968e+01   2.144667e+01
  -1.445759e+01  -1.316298e+01
   2.715309e+01   5.122474e+00
  -1.265327e+01   1.755241e+01
  -5.742063e+01  -7.158197e+00
  -1.068497e+02  -8.665061e+01
   8.173801e+00  -1.293281e+02
   8.701705e+01  -1.420665e+02
   1.963293e+02  -8.398318e-01
   1.390447e+02   1.406846e+02
   3.120759e+01   2.051210e+02
  -9.391051e+01   1.300079e+02
  -1.218839e+02   1.095110e+01
  -5.895184e+01  -1.355854e+01
  -2.577633e+01  -3.570291e+01
  -6.628012e+01   1.239260e+01
  -9.968434e+01   8.589321e+00
  -3.093580e+01  -5.616712e+01
   3.916668e+01  -8.079045e+01
   9.509180e+01  -5.503403e+01
   5.551794e+01   4.622465e+01
  -3.439579e+01   1.208867e+02
  -1.069562e+02   9.749552e+01
  -1.701741e+02  -7.958093e+01
  -5.901411e+01  -1.685243e+02
   8.571159e+01  -1.973317e+02
   2.297074e+02  -9.283521e+01
   1.961236e+02   3.639476e+01
   1.058420e+02   1.440556e+02
  -2.879507e+01   1.067217e+02
  -1.122058e+02   6.074368e+01
  -6.581434e+01   7.022462e+01
  -3.871859e+01   6.478406e+01
  -1.039260e+02   5.179983e+01
  -1.046167e+02  -6.823828e+00
  -7.881148e+01  -1.314873e+02
  -4.602353e+01  -1.788811e+02
   7.664402e+01  -1.542724e+02
   1.539304e+02  -2.068513e+01
   8.602453e+01   1.029928e+02
   1.504306e+01   1.407488e+02
  -7.648835e+01   8.584461e+01
  -7.523245e+01  -3.355220e+01
   2.266229e+01  -8.348312e+01
  -9.150790e+00  -3.125204e+01
  -4.598771e+01  -2.247196e+01
  -6.425919e+01  -1.602696e+01
  -1.985386e+01  -2.485982e+01
   5.872221e+01  -4.177079e+01
   1.329948e+02   2.877393e+01
   1.249836e+02   6.818154e+01
   1.128624e+01   8.581516e+01
  -1.023500e+02   6.192851e+01
  -1.161253e+02  -5.587806e+00
  -4.090473e+01  -2.605953e+01
   5.252870e+01  -4.049994e+01
   6.045824e+01   1.444808e+01
   2.123010e+01   6.900755e+01
  -7.603592e+00   7.617865e+01
  -5.541570e+01  -1.244238e+01
  -3.896547e+01  -4.396257e+01
  -4.335793e+01  -5.442695e+00
  -4.940170e+01   9.264711e+00
  -5.860902e+01  -5.218918e+00
  -4.026792e+01  -6.185832e+01
   4.505159e+01  -1.191476e+02
   1.310599e+02  -1.485236e+02
   1.440583e+02  -3.515178e+01
   1.262676e+02   8.146250e+01
   1.676732e+01   1.360634e+02
  -5.132202e+01   6.470888e+01
  -5.628214e+01  -2.857502e+01
   6.823328e+01  -3.280751e+01
   1.029320e+02   4.141404e+01
   8.540537e+01   9.750586e+01
  -5.814898e+01   1.110457e+02
  -1.840494e+02   2.621913e+01
  -1.196701e+02  -1.331381e+01
  -2.580717e+01  -6.161897e+01
   5.953569e+01  -6.849248e+01
   4.050494e+01  -8.128412e+00
  -3.731335e+01   3.781090e+01
  -6.969761e+01  -1.636381e+01
  -5.165344e+01  -9.942618e+01
   6.588751e+01  -1.351786e+02
   1.313640e+02  -6.368475e+01
   9.104212e+01   7.474560e+01
   2.396428e+01   1.521625e+02
  -7.018805e+01   1.251962e+02
  -1.016158e+02  -1.416187e+01
  -3.236263e+01  -1.133067e+02
  -2.311919e+01  -9.744976e+01
   1.892624e+01  -8.861554e+00
   4.030481e+01  -2.678573e+00
   3.781491e+01   4.185314e+00
  -9.234799e+00  -1.903050e+01
   1.789198e+01   9.026012e+00
   4.313531e+01   6.970805e+01
   4.911963e+01   6.696974e+01
  -4.362545e+01   4.672634e+01
  -1.247697e+02  -1.168216e+01
  -1.116268e+02  -3.965808e+01
  -7.605771e+00  -4.935277e+01
   7.458317e+01  -2.488093e+01
   5.618843e+01  -1.587809e+01
  -6.634207e+00   2.219113e+00
  -2.453295e+01   2.607491e-01
  -2.266835e+01   1.316258e+01
   3.052587e+01   8.245670e+00
  -2.949053e+01  -1.382559e+01
  -3.325677e+01   1.496783e+00
  -6.483205e+01  -6.805713e+00
  -1.577948e+01  -4.698212e+01
   9.044949e+01  -9.890655e+01
   1.572537e+02  -4.888424e+01
   1.334344e+02   5.939947e+01
   2.311116e+01   1.242876e+02
  -4.541656e+01   1.382552e+02
  -1.102258e+02   4.400533e+01
  -8.583978e+01   1.042009e+00
  -3.877453e+01  -4.080076e+01
   3.586523e+00  -3.785513e+00
   4.303343e-01  -5.758252e+00
  -3.986558e+01  -8.529093e+00
  -2.383665e+01  -1.021143e+02
   2.186218e+01  -5.541612e+01
   8.320823e+01   1.629127e+01
   6.440101e+01   8.778531e+01
  -2.529081e+00   1.093711e+02
  -6.657821e+01   2.028004e+01
  -6.904476e+01  -5.587247e+01
  -4.747537e+01  -8.486011e+01
   6.291754e+01  -3.554026e+01
   9.668125e+01  -1.269939e+01
   4.000626e+01   6.044368e+01
  -1.995961e+01   4.765142e+01
  -7.919772e+00  -6.385998e+00
   2.422368e+01   5.071327e+00
   3.814729e+01  -6.507049e+00
  -7.414412e+00   3.045508e+01
  -6.914161e+01   5.917507e+01
  -1.051317e+02   3.991769e+01
  -5.129904e+01  -1.838488e+01
  -3.492614e+01  -4.707955e+01
   4.218760e+01  -6.701020e+01
   3.974477e+01  -3.829790e+00
  -1.417607e+01   2.642996e+01
   7.235306e+00   3.323664e+01
  -4.093800e+01  -4.850734e+00
   5.389102e+00  -3.790244e+01
   1.528541e+01  -1.651849e+01
   2.585286e+01  -2.212801e+01
   2.731685e+01   2.415857e+01
   1.264072e+01   5.445837e+00
  -1.172659e+00  -1.532056e+01
   1.229272e+01   5.876489e+00
  -2.044430e+01   4.257740e+01
  -1.624864e+01   1.782485e+01
  -2.128048e+01  -1.639247e+00
  -2.748418e+01  -6.587966e+01
  -4.955245e+00  -4.365401e+01
   2.052600e+01  -3.020259e+01
   2.909266e+01   1.565822e+01
   1.213750e+01   8.338209e+01
  -5.659505e+01   2.041947e+01
  -4.747672e+01  -4.820806e+00
  -3.723431e+01  -3.094142e+01
   3.161638e+00  -3.939499e+01
   6.374214e+01  -1.481794e+01
   3.439581e+01  -9.190034e+00
  -4.134763e+01  -3.406492e+00
  -2.266053e+01  -1.089226e+01
   1.697549e+01  -5.120118e+01
   7.727835e+01  -4.927444e+01
