
 $NMID
 id='ANONYMOUS ', fmtdat='(2E16.6)'
 volume=1.0
 tramp=1.0
 $END
  -5.513633e+07  -1.582232e+06
  -3.191673e+07  -3.457006e+07
   8.178496e+06  -3.663894e+07
   2.683339e+07  -1.377089e+07
   1.562844e+07   6.740667e+06
  -3.270934e+06   8.842482e+06
  -9.335248e+06  -1.130871e+06
  -2.651297e+06  -9.315291e+06
   5.869206e+06  -9.044649e+06
   9.288518e+06  -1.937579e+06
   6.819576e+06   6.198365e+06
   7.416044e+05   8.557531e+06
  -4.056932e+06   2.640640e+06
  -2.720670e+06  -5.488980e+06
   3.593008e+06  -6.488223e+06
   7.612791e+06   1.344928e+06
   4.221156e+06   1.001685e+07
  -3.858481e+06   1.147584e+07
  -1.004069e+07   5.574338e+06
  -1.059593e+07  -2.342938e+06
  -6.223890e+06  -7.628195e+06
  -2.591777e+05  -8.466797e+06
   3.045889e+06  -5.605598e+06
   1.568154e+06  -2.347623e+06
  -1.491403e+06  -2.178723e+06
  -3.448946e+05  -4.408144e+06
   5.604382e+06  -4.510611e+06
   9.841519e+06  -4.050452e+05
   7.000588e+06   4.292016e+06
   2.865459e+04   5.186343e+06
  -3.994167e+06   2.583601e+06
  -2.667513e+06  -1.888304e+05
   6.446576e+05  -1.309230e+06
   2.554330e+06  -7.151927e+05
   2.452410e+06   1.572491e+06
   6.855260e+05   4.192487e+06
  -1.967765e+06   3.825525e+06
  -3.233258e+06  -3.975027e+05
  -1.475523e+06  -3.776518e+06
   1.002305e+06  -1.735255e+06
   4.095697e+05   2.700558e+06
  -2.427147e+06   2.380791e+06
  -2.359318e+06  -3.103424e+06
   2.397783e+06  -5.832706e+06
   6.655476e+06  -7.178480e+05
   4.749637e+06   6.884888e+06
  -2.057390e+06   8.211716e+06
  -7.336550e+06   2.203056e+06
  -6.865156e+06  -4.401589e+06
  -1.897758e+06  -5.916547e+06
   3.372712e+06  -2.734441e+06
   5.216529e+06   1.384326e+06
   2.460276e+06   3.340570e+06
  -2.321061e+06   2.108144e+06
  -4.406859e+06  -9.225877e+05
  -1.885518e+06  -2.639763e+06
   1.694865e+06  -1.313010e+06
   1.748870e+06   9.726632e+05
  -1.159559e+06   8.614645e+05
  -2.264828e+06  -1.607771e+06
   6.366638e+05  -3.109659e+06
   4.409385e+06  -1.659578e+06
   5.053535e+06   1.343642e+06
   2.196186e+06   3.857174e+06
  -1.871002e+06   5.239905e+06
  -5.121415e+06   4.874263e+06
  -6.280453e+06   1.683073e+06
  -4.551026e+06  -3.292348e+06
  -8.883406e+05  -6.226139e+06
   1.786737e+06  -4.735132e+06
   1.590481e+06  -1.260441e+06
   8.608367e+04   5.585156e+04
   8.731589e+04  -1.214624e+06
   1.835227e+06  -1.900314e+06
   3.039831e+06  -1.796553e+05
   2.174011e+06   2.106060e+06
   3.331946e+04   2.340450e+06
  -1.694396e+06   3.099164e+05
  -1.850339e+06  -2.121779e+06
  -4.295394e+04  -3.051678e+06
   2.869766e+06  -1.687825e+06
   4.555932e+06   1.283646e+06
   3.172499e+06   3.855776e+06
  -1.477363e+05   4.208672e+06
  -2.316130e+06   2.616621e+06
  -2.181370e+06   1.071668e+06
  -1.772047e+06   7.053045e+05
  -2.939097e+06   5.562364e+05
  -4.416240e+06  -6.868035e+05
  -3.597383e+06  -2.750924e+06
  -2.154783e+05  -4.219292e+06
   3.230753e+06  -4.073855e+06
   4.306108e+06  -2.251188e+06
   2.782410e+06   4.434686e+05
   2.918632e+05   2.369398e+06
  -1.161810e+06   2.032512e+06
  -5.956520e+05  -5.041518e+04
   1.119711e+06  -1.376234e+06
   1.948727e+06  -4.237925e+05
   9.360011e+05   1.242723e+06
  -5.258361e+05   1.176797e+06
  -4.705612e+05  -3.512826e+05
   9.798016e+05  -7.254495e+05
   1.798543e+06   1.183637e+06
   7.288676e+05   3.380833e+06
  -1.389862e+06   3.421710e+06
  -3.010271e+06   1.262210e+06
  -3.390070e+06  -1.279278e+06
  -2.480608e+06  -2.714120e+06
  -5.845692e+05  -2.682964e+06
   1.255965e+06  -1.554205e+06
   1.643554e+06  -2.683543e+05
   5.091963e+05   3.755831e+04
  -3.832972e+05  -7.662172e+05
   4.064682e+05  -1.365473e+06
   1.937758e+06  -6.024081e+05
   2.077663e+06   8.730095e+05
   4.117993e+05   1.426081e+06
  -1.185147e+06   6.088577e+05
  -9.365323e+05  -4.297722e+05
   8.194356e+05  -5.600894e+05
   2.229427e+06   2.291583e+05
   1.858976e+06   1.308838e+06
  -1.629560e+05   2.032233e+06
  -2.322629e+06   1.774995e+06
  -2.850583e+06   3.474803e+05
  -1.264608e+06  -1.277168e+06
   9.354710e+05  -1.543935e+06
   1.596054e+06  -1.964555e+05
   2.056812e+05   1.116925e+06
  -1.553837e+06   7.807504e+05
  -1.777207e+06  -7.656665e+05
  -3.888224e+05  -1.674652e+06
   1.074949e+06  -1.021751e+06
   1.278542e+06   2.766319e+05
   2.693758e+05   7.761037e+05
  -8.101386e+05   5.964297e+04
  -7.738054e+05  -1.078830e+06
   5.757260e+05  -1.486822e+06
   2.074213e+06  -5.970344e+05
   2.125498e+06   1.053101e+06
   4.316031e+05   2.134678e+06
  -1.452681e+06   1.714867e+06
  -1.767867e+06   2.499330e+05
  -5.340848e+05  -8.757687e+05
   6.567538e+05  -8.396511e+05
   6.608950e+05  -1.035738e+05
  -8.607433e+04   3.754085e+05
  -4.883514e+05   2.567743e+05
  -1.541723e+05  -2.914209e+04
   4.199638e+05   7.411502e+04
   5.254867e+05   6.583779e+05
  -1.858990e+05   1.207491e+06
  -1.401434e+06   9.464797e+05
  -2.154430e+06  -3.859632e+05
  -1.549190e+06  -1.980125e+06
   1.707587e+05  -2.508652e+06
   1.623673e+06  -1.502979e+06
   1.742117e+06   7.153908e+04
   9.337317e+05   8.887374e+05
   3.870407e+05   6.777844e+05
   5.131021e+05   2.512148e+05
   6.318359e+05   3.329021e+05
   9.017605e+04   7.832789e+05
  -8.781667e+05   9.415626e+05
  -1.477200e+06   3.761853e+05
  -1.112335e+06  -7.072268e+05
   2.008487e+05  -1.509663e+06
   1.741970e+06  -1.152212e+06
   2.331524e+06   4.428827e+05
   1.214684e+06   2.131755e+06
  -9.885522e+05   2.443183e+06
  -2.584551e+06   1.107227e+06
  -2.423909e+06  -6.141318e+05
  -1.026573e+06  -1.332234e+06
   1.601036e+05  -9.755737e+05
   3.752995e+05  -5.643376e+05
   8.329533e+04  -8.129325e+05
   1.085759e+05  -1.360486e+06
   6.799877e+05  -1.332507e+06
   1.331105e+06  -3.427431e+05
   1.405091e+06   1.095020e+06
   6.150839e+05   1.950208e+06
  -6.142162e+05   1.501715e+06
  -1.325305e+06   2.811829e+04
  -8.579604e+05  -1.299665e+06
   3.701938e+05  -1.433449e+06
   1.165868e+06  -4.313082e+05
   8.211489e+05   6.944589e+05
  -1.140740e+05   1.086356e+06
  -5.245157e+05   7.941024e+05
  -6.452731e+04   4.249015e+05
   4.591627e+05   3.449692e+05
   7.142538e+04   3.990856e+05
  -1.175963e+06   2.330183e+05
  -2.129187e+06  -3.114337e+05
  -1.683911e+06  -1.034898e+06
   1.615778e+04  -1.463364e+06
   1.617966e+06  -1.190957e+06
   1.873030e+06  -3.220543e+05
   8.520250e+05   4.801627e+05
  -2.653138e+05   5.815720e+05
  -5.172904e+05   4.256623e+04
  -2.563130e+04  -4.374052e+05
   4.582251e+05  -2.829620e+05
   5.053594e+05   3.457886e+05
   2.789314e+05   7.595977e+05
   1.074783e+05   5.090883e+05
   1.290871e+05  -1.054467e+05
   2.713636e+05  -3.242289e+05
   2.888373e+05   2.307280e+05
  -1.203588e+05   1.032652e+06
  -9.094804e+05   1.121369e+06
  -1.412536e+06   1.907510e+05
  -8.997142e+05  -9.461938e+05
   4.190697e+05  -1.185939e+06
   1.307985e+06  -3.646224e+05
   7.774117e+05   5.793064e+05
  -7.082092e+05   6.824337e+05
  -1.636515e+06  -5.621554e+04
  -1.056660e+06  -8.486809e+05
   4.643316e+05  -1.018461e+06
   1.516847e+06  -5.337005e+05
   1.268135e+06   1.550111e+05
   1.542914e+05   5.205195e+05
  -6.583191e+05   2.909867e+05
  -3.995723e+05  -3.012906e+05
   6.009540e+05  -5.635442e+05
   1.240473e+06   5.495719e+04
   7.338062e+05   1.221518e+06
  -5.714508e+05   1.799075e+06
  -1.525471e+06   9.673102e+05
  -1.328636e+06  -7.524825e+05
  -2.608727e+05  -1.854203e+06
   7.257137e+05  -1.359099e+06
   9.525464e+05   1.594645e+05
   4.724071e+05   1.214339e+06
  -2.000704e+05   9.935482e+05
  -5.762202e+05   9.502507e+04
  -4.913786e+05  -3.683930e+05
  -1.721583e+05  -1.255162e+05
  -4.623849e+04   9.422351e+04
  -2.968721e+05  -3.187211e+05
  -5.529136e+05  -9.964725e+05
  -2.221932e+05  -1.098397e+06
   7.355489e+05  -4.110087e+05
   1.541154e+06   4.409051e+05
   1.342998e+06   8.210104e+05
   2.066876e+05   7.194882e+05
  -8.687424e+05   4.702662e+05
  -1.009167e+06   2.172089e+05
  -3.746715e+05  -5.922212e+04
   1.432580e+05  -2.434332e+05
   3.341946e+04  -1.957708e+05
  -2.757443e+05  -7.079439e+04
  -6.129414e+04  -1.419657e+05
   6.749936e+05  -2.839929e+05
   1.093984e+06  -2.015708e+04
   4.839795e+05   7.300733e+05
  -8.380226e+05   1.270040e+06
  -1.763186e+06   8.357875e+05
  -1.503349e+06  -4.172818e+05
  -3.359811e+05  -1.457541e+06
   7.643012e+05  -1.453986e+06
   1.085406e+06  -6.001090e+05
   6.951201e+05   2.122433e+05
   1.555729e+05   3.752155e+05
  -6.837266e+04   9.160454e+04
   7.840554e+04  -6.248317e+03
   3.130702e+05   3.707426e+05
   2.761828e+05   8.275260e+05
  -1.655720e+05   7.182133e+05
  -7.195169e+05  -9.153198e+04
  -8.178892e+05  -9.648933e+05
  -1.690499e+05  -1.086874e+06
   7.797596e+05  -3.059083e+05
   1.118492e+06   7.062205e+05
   4.082468e+05   1.132350e+06
  -7.273821e+05   7.427198e+05
  -1.178456e+06  -4.281543e+04
  -5.730894e+05  -6.383320e+05
   2.898297e+05  -7.287042e+05
   3.985610e+05  -3.876047e+05
  -2.482221e+05   1.671616e+04
  -6.729920e+05   6.820454e+04
  -1.655335e+05  -3.228746e+05
   8.351274e+05  -7.317365e+05
   1.296231e+06  -5.819217e+05
   8.043200e+05   1.835274e+05
  -7.492948e+04   9.151983e+05
  -5.644949e+05   9.049369e+05
  -4.617933e+05   1.815093e+05
  -8.551842e+04  -4.972377e+05
   2.379524e+05  -4.722751e+05
   3.818152e+05   1.264121e+05
   2.871612e+05   5.936044e+05
  -4.640931e+04   4.627297e+05
  -4.142081e+05  -2.708268e+04
  -5.022196e+05  -2.897023e+05
  -2.490247e+05  -1.011556e+05
   3.954082e+04   1.720726e+05
   6.985703e+04   6.592154e+04
  -5.225797e+04  -3.737402e+05
   1.586983e+04  -6.127613e+05
   3.354245e+05  -2.729369e+05
   5.238326e+05   3.757330e+05
   2.148432e+05   6.864741e+05
  -4.117822e+05   3.555526e+05
  -7.198875e+05  -2.644258e+05
  -2.976184e+05  -5.878142e+05
   5.218416e+05  -3.980455e+05
   9.365998e+05   4.634230e+04
   5.177676e+05   3.790691e+05
  -2.999394e+05   4.395282e+05
  -6.721359e+05   2.724315e+05
  -2.745734e+05   2.202471e+04
   3.496488e+05  -1.091286e+05
   4.326199e+05   2.855476e+04
  -1.424437e+05   3.088832e+05
  -7.410088e+05   3.274771e+05
