
 $NMID
 id='ANONYMOUS ', fmtdat='(2E16.6)'
 volume=1.0
 tramp=1.0
 $END
  -3.100690e+07  -1.135788e+05
  -1.982298e+07  -1.631317e+07
   1.618928e+06  -2.006396e+07
   1.400754e+07  -1.114893e+07
   1.037901e+07   5.719283e+05
  -2.192235e+05   5.383374e+06
  -5.923401e+06   1.555061e+06
  -3.578712e+06  -5.077399e+06
   2.116410e+06  -7.301835e+06
   5.604548e+06  -2.851762e+06
   4.632663e+06   3.803658e+06
   5.966258e+05   5.899998e+06
  -2.738887e+06   1.429330e+06
  -2.117507e+06  -4.544657e+06
   1.867556e+06  -5.389449e+06
   4.889550e+06  -1.306873e+05
   3.376373e+06   5.930814e+06
  -1.639614e+06   7.306827e+06
  -5.823774e+06   3.537572e+06
  -6.041151e+06  -1.581522e+06
  -2.951305e+06  -4.323203e+06
   2.001582e+05  -3.931730e+06
   7.107160e+05  -2.348484e+06
  -1.110267e+06  -1.961798e+06
  -2.106145e+06  -3.249816e+06
   4.223149e+05  -4.269814e+06
   5.132966e+06  -2.856695e+06
   7.374113e+06   6.208949e+05
   4.396258e+06   3.379676e+06
  -1.072795e+06   3.247911e+06
  -3.737534e+06   8.357389e+05
  -1.667803e+06  -1.477220e+06
   2.085525e+06  -1.847317e+06
   3.554553e+06  -5.271095e+04
   1.954197e+06   2.576883e+06
  -5.588844e+05   3.769189e+06
  -1.764399e+06   2.065664e+06
  -1.179369e+06  -1.097224e+06
   1.212494e+05  -2.198631e+06
   5.857019e+05   1.725836e+05
  -4.739344e+05   2.933566e+06
  -1.975299e+06   2.123995e+06
  -1.890350e+06  -1.644465e+06
   3.956202e+05  -3.593394e+06
   2.860206e+06  -9.498412e+05
   2.701066e+06   3.407342e+06
  -5.544919e+05   4.590122e+06
  -4.255619e+06   1.465574e+06
  -5.067563e+06  -2.666720e+06
  -2.098845e+06  -4.210076e+06
   2.236860e+06  -2.550103e+06
   4.315643e+06   3.525813e+05
   2.561734e+06   2.141011e+06
  -1.047272e+06   1.721900e+06
  -2.921949e+06  -1.253182e+05
  -1.571062e+06  -1.428106e+06
   9.337581e+05  -9.237433e+05
   1.549550e+06   5.647160e+05
  -1.377058e+05   1.136889e+06
  -1.654438e+06   1.225734e+05
  -8.332854e+05  -1.252178e+06
   1.621392e+06  -1.444061e+06
   3.063481e+06  -1.036503e+05
   1.793076e+06   1.976760e+06
  -1.392366e+06   3.535133e+06
  -4.133717e+06   3.296981e+06
  -4.578061e+06   8.050810e+05
  -2.764314e+06  -2.607613e+06
  -3.789768e+05  -4.484499e+06
   8.683589e+05  -3.700069e+06
   7.928688e+05  -1.753066e+06
   6.128291e+05  -8.405298e+05
   1.303170e+06  -1.108476e+06
   2.398752e+06  -8.268086e+05
   2.615462e+06   8.656256e+05
   1.357480e+06   2.550313e+06
  -6.576591e+05   2.283518e+06
  -2.033277e+06   2.109885e+04
  -1.720350e+06  -2.286396e+06
   2.242081e+05  -2.698349e+06
   2.460332e+06  -9.866252e+05
   3.209309e+06   1.419610e+06
   1.868723e+06   2.803620e+06
  -2.512127e+05   2.558626e+06
  -1.325465e+06   1.500788e+06
  -1.136166e+06   8.469175e+05
  -1.167155e+06   8.782163e+05
  -2.398583e+06   7.498820e+05
  -3.708311e+06  -3.734451e+05
  -3.095501e+06  -2.236657e+06
  -2.213584e+05  -3.640256e+06
   2.908420e+06  -3.481451e+06
   3.899302e+06  -1.651590e+06
   2.284031e+06   7.682360e+05
  -1.843300e+05   2.134064e+06
  -1.313714e+06   1.539300e+06
  -4.605160e+05  -1.803333e+05
   1.091304e+06  -1.104875e+06
   1.590902e+06  -3.129001e+05
   6.217427e+05   9.987338e+05
  -5.947007e+05   1.017290e+06
  -6.481116e+05  -2.890221e+05
   5.208615e+05  -1.036389e+06
   1.636023e+06   1.774813e+05
   1.424608e+06   2.425795e+06
  -2.493975e+05   3.442317e+06
  -2.355556e+06   2.089898e+06
  -3.468061e+06  -5.867575e+05
  -2.744914e+06  -2.560058e+06
  -6.484100e+05  -2.668361e+06
   1.230219e+06  -1.380409e+06
   1.513925e+06  -1.274915e+05
   4.476832e+05   3.817005e+04
  -3.426804e+05  -6.643730e+05
   2.576872e+05  -1.102524e+06
   1.508496e+06  -5.257437e+05
   1.742567e+06   5.905527e+05
   4.599180e+05   1.123581e+06
  -9.955434e+05   5.901445e+05
  -9.648163e+05  -3.723579e+05
   6.386276e+05  -7.382230e+05
   2.187925e+06  -6.813609e+04
   1.997796e+06   1.185160e+06
   1.353503e+04   2.052287e+06
  -2.105433e+06   1.745321e+06
  -2.553461e+06   3.517575e+05
  -1.095324e+06  -1.035981e+06
   7.452667e+05  -1.215280e+06
   1.229264e+06  -1.482331e+05
   9.611588e+04   8.791178e+05
  -1.324998e+06   6.486843e+05
  -1.578988e+06  -5.962883e+05
  -4.910278e+05  -1.466686e+06
   8.338874e+05  -1.062682e+06
   1.187629e+06   6.030843e+04
   3.827661e+05   6.327755e+05
  -6.203599e+05   9.049536e+04
  -6.357097e+05  -9.159622e+05
   5.482709e+05  -1.265273e+06
   1.827613e+06  -4.543722e+05
   1.823200e+06   9.581447e+05
   3.695266e+05   1.845633e+06
  -1.219763e+06   1.501398e+06
  -1.532551e+06   2.778736e+05
  -5.346798e+05  -7.423861e+05
   5.470385e+05  -7.811732e+05
   6.687291e+05  -7.183926e+04
  -1.731175e+04   4.959548e+05
  -5.744873e+05   3.759336e+05
  -3.895145e+05  -9.651069e+04
   2.593127e+05  -1.716719e+05
   5.577321e+05   4.063047e+05
  -3.251800e+04   1.042876e+06
  -1.189194e+06   8.696686e+05
  -1.893516e+06  -3.203867e+05
  -1.346210e+06  -1.735211e+06
   1.685497e+05  -2.244511e+06
   1.473078e+06  -1.436701e+06
   1.669141e+06  -9.906343e+03
   9.917697e+05   9.203475e+05
   3.672173e+05   8.816252e+05
   2.901312e+05   3.789839e+05
   3.902267e+05   2.141230e+05
   6.351857e+04   5.752703e+05
  -7.255640e+05   8.657294e+05
  -1.350247e+06   4.177169e+05
  -1.105880e+06  -6.743788e+05
   1.139861e+05  -1.488534e+06
   1.571471e+06  -1.116226e+06
   2.122665e+06   3.769734e+05
   1.155027e+06   1.869133e+06
  -7.478623e+05   2.159370e+06
  -2.197386e+06   1.076204e+06
  -2.224071e+06  -4.135122e+05
  -1.106713e+06  -1.196958e+06
   5.380440e+04  -1.047292e+06
   4.740258e+05  -6.443025e+05
   2.993321e+05  -6.741922e+05
   1.989769e+05  -1.051801e+06
   5.590409e+05  -1.073665e+06
   1.103691e+06  -2.682822e+05
   1.199733e+06   9.881760e+05
   5.111088e+05   1.735873e+06
  -5.741502e+05   1.322040e+06
  -1.190437e+06   4.398525e+04
  -7.981855e+05  -1.092340e+06
   2.262983e+05  -1.266218e+06
   9.220725e+05  -5.170732e+05
   7.283763e+05   4.194443e+05
   4.169429e+04   8.641969e+05
  -2.980817e+05   7.419547e+05
   3.206615e+03   4.533276e+05
   3.668081e+05   3.432824e+05
   3.712759e+04   3.670451e+05
  -9.833561e+05   2.277593e+05
  -1.799682e+06  -2.439298e+05
  -1.487372e+06  -8.658817e+05
  -9.183485e+04  -1.224132e+06
   1.308361e+06  -1.019830e+06
   1.621493e+06  -3.561466e+05
   8.059971e+05   2.912649e+05
  -1.741994e+05   4.516864e+05
  -4.257043e+05   9.703859e+04
   1.546185e+04  -2.962025e+05
   4.515152e+05  -2.150126e+05
   4.260045e+05   3.118549e+05
   1.291129e+05   6.934866e+05
  -1.089990e+04   4.475809e+05
   1.355620e+05  -1.644155e+05
   3.353627e+05  -3.668459e+05
   2.754554e+05   1.968758e+05
  -1.730454e+05   9.435328e+05
  -8.078563e+05   9.640888e+05
  -1.118393e+06   9.784637e+04
  -6.605383e+05  -8.366204e+05
   3.721559e+05  -9.449197e+05
   1.077496e+06  -2.133297e+05
   6.612306e+05   5.543477e+05
  -6.087759e+05   6.230904e+05
  -1.505896e+06  -9.523841e+03
  -1.077324e+06  -7.502423e+05
   3.254749e+05  -1.002106e+06
   1.398886e+06  -6.101070e+05
   1.233111e+06   8.001133e+04
   1.857806e+05   4.964187e+05
  -5.808637e+05   3.062709e+05
  -3.208364e+05  -2.334977e+05
   5.851576e+05  -4.344730e+05
   1.080828e+06   1.450545e+05
   5.309441e+05   1.125694e+06
  -6.462619e+05   1.534633e+06
  -1.419009e+06   7.554531e+05
  -1.160560e+06  -7.329728e+05
  -1.840243e+05  -1.682535e+06
   6.791147e+05  -1.260869e+06
   8.782275e+05   9.129656e+04
   4.776223e+05   1.092987e+06
  -1.088085e+05   9.498242e+05
  -4.945524e+05   1.191138e+05
  -4.994942e+05  -3.612552e+05
  -2.235583e+05  -1.481914e+05
  -1.719328e+04   1.104386e+05
  -1.604304e+05  -2.253570e+05
  -4.418571e+05  -8.737336e+05
  -2.698011e+05  -1.015408e+06
   5.640166e+05  -3.861578e+05
   1.388069e+06   4.247250e+05
   1.275023e+06   7.679200e+05
   1.860725e+05   6.308323e+05
  -8.593277e+05   3.877795e+05
  -9.389465e+05   2.021778e+05
  -2.769695e+05  -6.826588e+03
   1.609316e+05  -2.034497e+05
  -4.895885e+04  -2.298631e+05
  -3.324677e+05  -1.315848e+05
  -1.420956e+04  -1.291727e+05
   7.049588e+05  -1.892499e+05
   9.601448e+05   3.536251e+04
   2.774560e+05   6.291654e+05
  -8.604771e+05   1.042351e+06
  -1.519223e+06   6.382557e+05
  -1.204728e+06  -4.491822e+05
  -2.215953e+05  -1.318110e+06
   6.896105e+05  -1.246065e+06
   9.719044e+05  -4.417047e+05
   6.197698e+05   2.614674e+05
   8.820753e+04   3.313250e+05
  -1.368582e+05   1.438625e+04
   4.788592e+04  -7.035798e+04
   3.156935e+05   3.155873e+05
   2.610455e+05   7.479456e+05
  -1.835367e+05   6.119618e+05
  -6.474801e+05  -1.665200e+05
  -6.367635e+05  -9.357995e+05
  -1.882371e+04  -9.484383e+05
   7.458456e+05  -1.546786e+05
   9.332109e+05   7.389020e+05
   2.702045e+05   1.006443e+06
  -6.752008e+05   5.698691e+05
  -9.984703e+05  -9.429816e+04
  -4.466808e+05  -5.175518e+05
   2.633786e+05  -5.585804e+05
   2.906670e+05  -3.223683e+05
  -2.971168e+05  -3.397503e+04
  -6.195608e+05   2.417427e+04
  -1.112979e+05  -2.728466e+05
   7.657074e+05  -6.360792e+05
   1.108364e+06  -5.471299e+05
   6.369056e+05   1.141752e+05
  -9.792486e+04   7.778001e+05
  -4.549020e+05   7.624442e+05
  -3.283244e+05   9.874418e+04
  -1.336331e+04  -4.721658e+05
   2.361167e+05  -3.662428e+05
   3.305337e+05   1.968008e+05
   2.240319e+05   5.377704e+05
  -6.741487e+04   3.409777e+05
  -3.597482e+05  -6.893280e+04
  -4.175534e+05  -2.199406e+05
  -2.227768e+05  -5.260309e+04
   1.044631e+02   9.274174e+04
   7.348402e+04  -5.679832e+04
   7.246127e+04  -3.675052e+05
   1.673557e+05  -4.457877e+05
   3.360602e+05  -9.279518e+04
   3.448525e+05   4.255884e+05
   3.685508e+04   6.118603e+05
  -4.101581e+05   2.606334e+05
  -5.748656e+05  -3.019122e+05
  -2.025376e+05  -5.566495e+05
   4.535518e+05  -3.270849e+05
   7.819063e+05   1.011629e+05
   4.241570e+05   3.534915e+05
  -2.746230e+05   3.246016e+05
  -5.776890e+05   1.532510e+05
  -1.855056e+05   5.353714e+03
   3.870303e+05  -1.530009e+04
   4.040996e+05   1.266021e+05
  -2.093611e+05   3.096546e+05
  -7.768582e+05   2.474992e+05
