
 $NMID
 id='ANONYMOUS ', fmtdat='(2E16.6)'
 volume=1.0
 tramp=1.0
 $END
   4.628380e+07   1.596134e+06
   2.709818e+07   2.878398e+07
  -6.538091e+06   3.078751e+07
  -2.267272e+07   1.206339e+07
  -1.359832e+07  -5.298643e+06
   2.557252e+06  -7.602845e+06
   8.137748e+06   6.610999e+05
   2.562290e+06   7.979288e+06
  -4.952278e+06   8.063742e+06
  -8.023725e+06   1.853864e+06
  -5.791654e+06  -5.386830e+06
  -4.880422e+05  -7.408024e+06
   3.518614e+06  -2.126084e+06
   2.239623e+06   4.962851e+06
  -3.172503e+06   5.763375e+06
  -6.557664e+06  -1.065054e+06
  -3.626462e+06  -8.561807e+06
   3.287564e+06  -9.783036e+06
   8.516345e+06  -4.646831e+06
   8.847853e+06   2.106097e+06
   5.043333e+06   6.403849e+06
   1.458026e+05   6.911130e+06
  -2.347543e+06   4.594741e+06
  -1.004996e+06   2.223491e+06
   1.321286e+06   2.314837e+06
   3.471821e+03   3.993297e+06
  -5.138019e+06   3.651746e+06
  -8.547389e+06  -4.232677e+04
  -5.851668e+06  -3.884643e+06
   2.596264e+05  -4.339817e+06
   3.620761e+06  -1.904337e+06
   2.168250e+06   4.587580e+05
  -9.666727e+05   1.174900e+06
  -2.523187e+06   3.488361e+05
  -2.013424e+06  -1.703561e+06
  -2.425461e+05  -3.709655e+06
   1.800515e+06  -3.114961e+06
   2.513386e+06   4.836780e+05
   1.016337e+06   3.122577e+06
  -7.699534e+05   1.227182e+06
  -7.941199e+04  -2.483084e+06
   2.227909e+06  -2.078505e+06
   2.067153e+06   2.649117e+06
  -1.898763e+06   5.010933e+06
  -5.462351e+06   7.258889e+05
  -3.977527e+06  -5.724589e+06
   1.664850e+06  -6.915311e+06
   6.210237e+06  -1.828897e+06
   5.941780e+06   3.870268e+06
   1.675339e+06   5.223254e+06
  -2.996408e+06   2.433645e+06
  -4.662209e+06  -1.229484e+06
  -2.234590e+06  -2.966647e+06
   1.967191e+06  -1.874070e+06
   3.809295e+06   7.727870e+05
   1.657631e+06   2.265971e+06
  -1.449504e+06   1.127652e+06
  -1.565870e+06  -8.814097e+05
   9.376186e+05  -8.818868e+05
   2.043401e+06   1.203268e+06
  -2.928295e+05   2.608244e+06
  -3.587393e+06   1.525215e+06
  -4.334292e+06  -1.019822e+06
  -1.931701e+06  -3.256385e+06
   1.716216e+06  -4.458916e+06
   4.606890e+06  -4.050742e+06
   5.461802e+06  -1.254086e+06
   3.767815e+06   2.953383e+06
   5.941571e+05   5.402881e+06
  -1.593122e+06   4.160398e+06
  -1.405436e+06   1.243702e+06
  -2.416131e+05   6.825532e+04
  -3.476227e+05   1.001966e+06
  -1.792806e+06   1.433068e+06
  -2.650654e+06  -1.235624e+05
  -1.728698e+06  -2.055759e+06
   1.963987e+05  -2.098485e+06
   1.621975e+06  -1.335959e+05
   1.582026e+06   2.058177e+06
  -1.129800e+05   2.729674e+06
  -2.585778e+06   1.334187e+06
  -3.878374e+06  -1.295470e+06
  -2.594008e+06  -3.383710e+06
   2.044846e+05  -3.547833e+06
   1.966375e+06  -2.176306e+06
   1.835013e+06  -9.330461e+05
   1.558155e+06  -6.562593e+05
   2.642491e+06  -4.717933e+05
   3.929766e+06   6.983417e+05
   3.145060e+06   2.545688e+06
   7.109123e+04   3.788084e+06
  -3.037028e+06   3.534121e+06
  -3.938090e+06   1.813414e+06
  -2.427719e+06  -5.496692e+05
  -9.788996e+04  -2.116484e+06
   1.149779e+06  -1.718865e+06
   5.141693e+05   8.888238e+04
  -1.064904e+06   1.175441e+06
  -1.741737e+06   3.155066e+05
  -7.706365e+05  -1.117251e+06
   5.396503e+05  -1.029594e+06
   4.629617e+05   3.471879e+05
  -8.702537e+05   7.277806e+05
  -1.659637e+06  -9.574434e+05
  -7.405018e+05  -3.017813e+06
   1.207540e+06  -3.189974e+06
   2.766160e+06  -1.248099e+06
   3.138146e+06   1.193877e+06
   2.234396e+06   2.596054e+06
   4.408459e+05   2.499049e+06
  -1.203067e+06   1.347976e+06
  -1.490191e+06   1.605008e+05
  -4.553887e+05  -5.212638e+04
   3.231600e+05   7.007020e+05
  -3.821500e+05   1.205942e+06
  -1.725871e+06   4.952521e+05
  -1.840637e+06  -8.130494e+05
  -3.539627e+05  -1.282714e+06
   1.083654e+06  -5.274785e+05
   8.606903e+05   4.262585e+05
  -7.546382e+05   5.343288e+05
  -2.061026e+06  -2.392824e+05
  -1.697678e+06  -1.269036e+06
   2.006376e+05  -1.885140e+06
   2.170803e+06  -1.552327e+06
   2.586420e+06  -2.252879e+05
   1.098870e+06   1.172695e+06
  -8.664530e+05   1.337654e+06
  -1.407770e+06   1.329474e+05
  -1.411452e+05  -9.868981e+05
   1.412588e+06  -6.494858e+05
   1.583834e+06   7.326685e+05
   3.245736e+05   1.530737e+06
  -9.931330e+05   9.257761e+05
  -1.170174e+06  -2.606261e+05
  -2.507534e+05  -7.120154e+05
   7.170054e+05  -4.662651e+04
   6.589855e+05   9.826006e+05
  -5.659960e+05   1.307929e+06
  -1.877166e+06   4.592494e+05
  -1.865973e+06  -1.015582e+06
  -3.205710e+05  -1.925949e+06
   1.349942e+06  -1.498174e+06
   1.598587e+06  -1.789040e+05
   4.664782e+05   8.074846e+05
  -6.169329e+05   7.466689e+05
  -6.159620e+05   6.088481e+04
   8.858780e+04  -3.741099e+05
   4.865511e+05  -2.360822e+05
   1.831978e+05   6.307775e+04
  -3.695379e+05  -2.464098e+04
  -4.822160e+05  -5.799102e+05
   1.772089e+05  -1.083759e+06
   1.281894e+06  -8.165653e+05
   1.924160e+06   4.102196e+05
   1.326507e+06   1.825024e+06
  -2.405241e+05   2.254298e+06
  -1.525856e+06   1.316824e+06
  -1.595292e+06  -1.179102e+05
  -8.306523e+05  -8.700997e+05
  -3.061077e+05  -6.792307e+05
  -4.074750e+05  -2.590230e+05
  -5.304374e+05  -2.887053e+05
  -6.230826e+04  -6.805405e+05
   8.108208e+05  -8.270740e+05
   1.352670e+06  -3.042139e+05
   9.954602e+05   6.886512e+05
  -2.280920e+05   1.384087e+06
  -1.615122e+06   9.966903e+05
  -2.094787e+06  -4.741303e+05
  -1.042028e+06  -1.959475e+06
   9.419751e+05  -2.176626e+06
   2.351230e+06  -9.395667e+05
   2.187459e+06   6.121496e+05
   9.179834e+05   1.252327e+06
  -1.735987e+05   9.161569e+05
  -3.956654e+05   5.120961e+05
  -1.418836e+05   7.007650e+05
  -1.496504e+05   1.181699e+06
  -6.379349e+05   1.159386e+06
  -1.191062e+06   2.646023e+05
  -1.218548e+06  -1.030583e+06
  -4.831555e+05  -1.773705e+06
   6.066853e+05  -1.327636e+06
   1.198915e+06   1.484212e+04
   7.430266e+05   1.188649e+06
  -3.589041e+05   1.285839e+06
  -1.052492e+06   3.868755e+05
  -7.332447e+05  -6.121578e+05
   1.007379e+05  -9.662437e+05
   4.674029e+05  -7.197814e+05
   6.670585e+04  -4.010102e+05
  -3.898169e+05  -3.287624e+05
  -4.474886e+04  -3.607972e+05
   1.054582e+06  -1.806781e+05
   1.889739e+06   3.343890e+05
   1.485081e+06   9.743469e+05
  -3.348118e+04   1.311094e+06
  -1.465786e+06   1.023447e+06
  -1.694622e+06   2.465366e+05
  -7.733623e+05  -4.373368e+05
   2.396523e+05  -5.069188e+05
   4.649837e+05  -3.623856e+04
   8.580225e+03   3.716640e+05
  -4.273744e+05   2.272290e+05
  -4.376874e+05  -3.269634e+05
  -1.999615e+05  -6.856300e+05
  -5.878460e+04  -4.513964e+05
  -1.294764e+05   1.026699e+05
  -2.797310e+05   2.910809e+05
  -2.565766e+05  -2.152664e+05
   1.565614e+05  -9.234507e+05
   8.505634e+05  -9.733849e+05
   1.242748e+06  -1.244701e+05
   7.513782e+05   8.670608e+05
  -4.056876e+05   1.031590e+06
  -1.161724e+06   2.705292e+05
  -6.708717e+05  -5.521236e+05
   6.570807e+05  -5.957830e+05
   1.484555e+06   1.009112e+05
   9.509906e+05   8.095140e+05
  -4.421663e+05   9.280676e+05
  -1.404527e+06   4.534659e+05
  -1.162669e+06  -1.784316e+05
  -1.287525e+05  -4.846733e+05
   6.056704e+05  -2.507603e+05
   3.465068e+05   2.742291e+05
  -5.634619e+05   4.701404e+05
  -1.102040e+06  -1.071180e+05
  -5.926701e+05  -1.120750e+06
   5.956106e+05  -1.575200e+06
   1.408251e+06  -7.935919e+05
   1.161039e+06   7.322203e+05
   1.609650e+05   1.679955e+06
  -7.092553e+05   1.206958e+06
  -8.628970e+05  -1.671088e+05
  -3.962517e+05  -1.116124e+06
   2.039795e+05  -9.076905e+05
   5.210823e+05  -7.587031e+04
   4.402654e+05   3.598337e+05
   1.623096e+05   1.323809e+05
   4.246783e+04  -9.090426e+04
   2.411260e+05   2.754406e+05
   4.562200e+05   9.082931e+05
   1.752560e+05   1.010732e+06
  -6.592270e+05   3.582991e+05
  -1.373501e+06  -4.557372e+05
  -1.194938e+06  -7.979689e+05
  -1.637313e+05  -6.524855e+05
   8.122131e+05  -3.806191e+05
   9.246488e+05  -1.605938e+05
   3.278354e+05   5.112571e+04
  -1.428896e+05   2.087622e+05
  -2.575408e+04   1.933753e+05
   2.576164e+05   9.416454e+04
   4.249888e+04   1.265296e+05
  -6.322538e+05   2.114139e+05
  -9.781103e+05  -2.707637e+04
  -3.825070e+05  -6.551031e+05
   8.116426e+05  -1.087745e+06
   1.595102e+06  -6.775789e+05
   1.305394e+06   4.288323e+05
   2.369670e+05   1.320313e+06
  -7.329891e+05   1.273194e+06
  -9.893455e+05   4.855886e+05
  -6.126382e+05  -2.283292e+05
  -1.181406e+05  -3.377105e+05
   7.386260e+04  -5.982480e+04
  -7.208057e+04   1.825450e+04
  -2.787011e+05  -3.442810e+05
  -2.239871e+05  -7.578781e+05
   1.774152e+05  -6.327822e+05
   6.388994e+05   1.237243e+05
   6.794878e+05   9.031716e+05
   9.135097e+04   9.685691e+05
  -7.121980e+05   2.211304e+05
  -9.611270e+05  -6.895198e+05
  -3.114411e+05  -1.024089e+06
   6.765511e+05  -6.236052e+05
   1.044072e+06   8.393664e+04
   4.868313e+05   5.771663e+05
  -2.774389e+05   6.277491e+05
  -3.562778e+05   3.374394e+05
   2.349735e+05   1.021373e+04
   6.088087e+05  -3.006350e+04
   1.323212e+05   2.897645e+05
  -7.790963e+05   6.262614e+05
  -1.179511e+06   4.914726e+05
  -7.063960e+05  -1.744895e+05
   1.006319e+05  -8.112040e+05
   5.243005e+05  -7.916549e+05
   3.989965e+05  -1.428707e+05
   4.510458e+04   4.507551e+05
  -2.297097e+05   4.040133e+05
  -3.299584e+05  -1.427257e+05
  -2.317391e+05  -5.428523e+05
   5.587314e+04  -3.981859e+05
   3.661911e+05   4.635291e+04
   4.400896e+05   2.669356e+05
   2.244375e+05   9.173126e+04
  -2.832756e+04  -1.406994e+05
  -7.350487e+04  -3.906255e+04
   7.307385e+03   3.345858e+05
  -5.675827e+04   5.169142e+05
  -3.050540e+05   2.005529e+05
  -4.261583e+05  -3.631571e+05
  -1.392207e+05  -6.112282e+05
   3.861928e+05  -2.911851e+05
   6.198605e+05   2.692372e+05
   2.329285e+05   5.400464e+05
  -4.780619e+05   3.366719e+05
  -8.256755e+05  -7.993250e+04
  -4.447870e+05  -3.582306e+05
   2.800505e+05  -3.716124e+05
   6.019011e+05  -2.067779e+05
   2.345656e+05  -1.306850e+04
  -3.266603e+05   6.324985e+04
  -3.834182e+05  -6.243494e+04
   1.584693e+05  -2.731797e+05
   6.980001e+05  -2.509179e+05
