
 $NMID
 id='ANONYMOUS ', fmtdat='(2E16.6)'
 volume=1.0
 tramp=1.0
 $END
  -3.860570e+07  -9.401323e+05
  -2.353429e+07  -2.235085e+07
   3.893897e+06  -2.534073e+07
   1.826918e+07  -1.182073e+07
   1.210541e+07   2.682646e+06
  -1.272391e+06   6.476381e+06
  -7.073417e+06   5.694671e+05
  -3.192254e+06  -6.524291e+06
   3.485465e+06  -7.824885e+06
   6.843723e+06  -2.457063e+06
   5.230563e+06   4.618986e+06
   5.256461e+05   6.703064e+06
  -3.137212e+06   1.736072e+06
  -2.161393e+06  -4.878000e+06
   2.551713e+06  -5.698850e+06
   5.774652e+06   4.155427e+05
   3.566247e+06   7.280766e+06
  -2.427756e+06   8.617259e+06
  -7.177376e+06   4.125717e+06
  -7.436841e+06  -1.861447e+06
  -3.939997e+06  -5.352263e+06
   5.402459e+04  -5.332679e+06
   1.427691e+06  -3.399217e+06
  -2.330619e+05  -2.170282e+06
  -1.803833e+06  -2.986336e+06
   3.016818e+05  -4.283096e+06
   5.325407e+06  -3.230996e+06
   8.090267e+06   4.659609e+05
   5.107757e+06   3.728488e+06
  -7.927783e+05   3.772809e+06
  -3.793822e+06   1.253421e+06
  -1.895199e+06  -1.104827e+06
   1.697563e+06  -1.576493e+06
   3.216377e+06  -1.390754e+05
   2.015817e+06   2.280505e+06
  -2.459557e+05   3.831713e+06
  -1.823461e+06   2.569811e+06
  -1.763595e+06  -8.484442e+05
  -3.493573e+05  -2.642400e+06
   6.690957e+05  -4.212671e+05
  -2.841866e+05   2.821015e+06
  -2.166998e+06   2.159602e+06
  -2.011928e+06  -2.139412e+06
   1.090831e+06  -4.323401e+06
   4.090541e+06  -8.718203e+05
   3.317625e+06   4.542679e+06
  -1.089946e+06   5.753557e+06
  -5.255575e+06   1.641615e+06
  -5.591570e+06  -3.323710e+06
  -1.948286e+06  -4.807717e+06
   2.659012e+06  -2.555502e+06
   4.597425e+06   7.857098e+05
   2.480776e+06   2.575796e+06
  -1.488303e+06   1.813134e+06
  -3.385076e+06  -4.382012e+05
  -1.636214e+06  -1.833426e+06
   1.193321e+06  -1.018784e+06
   1.591565e+06   7.315851e+05
  -5.056407e+05   1.052391e+06
  -1.876502e+06  -4.663840e+05
  -3.564875e+05  -1.889395e+06
   2.542649e+06  -1.520630e+06
   3.719640e+06   3.942550e+05
   1.904721e+06   2.606902e+06
  -1.592977e+06   4.045410e+06
  -4.487033e+06   3.707004e+06
  -5.109612e+06   9.989014e+05
  -3.268778e+06  -2.851764e+06
  -4.555179e+05  -5.017999e+06
   1.229555e+06  -4.007688e+06
   1.088822e+06  -1.589917e+06
   4.775686e+05  -5.386472e+05
   9.482480e+05  -1.088564e+06
   2.227270e+06  -1.085535e+06
   2.701779e+06   6.053710e+05
   1.523952e+06   2.428357e+06
  -5.088841e+05   2.255833e+06
  -1.913470e+06   3.689120e+04
  -1.679904e+06  -2.278418e+06
   2.133267e+05  -2.786527e+06
   2.595086e+06  -1.140131e+06
   3.582367e+06   1.432918e+06
   2.223432e+06   3.148215e+06
  -2.471574e+05   3.063430e+06
  -1.647263e+06   1.840299e+06
  -1.479993e+06   9.154270e+05
  -1.385684e+06   8.074601e+05
  -2.595579e+06   6.336804e+05
  -3.928689e+06  -5.590251e+05
  -3.201037e+06  -2.470718e+06
  -1.281717e+05  -3.825772e+06
   3.093253e+06  -3.591308e+06
   4.053495e+06  -1.737214e+06
   2.403095e+06   7.201386e+05
  -9.288470e+04   2.186948e+06
  -1.293191e+06   1.644068e+06
  -4.864826e+05  -1.538357e+05
   1.128438e+06  -1.152868e+06
   1.704061e+06  -3.010919e+05
   6.893366e+05   1.084118e+06
  -6.001330e+05   1.035748e+06
  -5.781778e+05  -3.401634e+05
   7.112306e+05  -9.290691e+05
   1.708215e+06   5.474986e+05
   1.154621e+06   2.784277e+06
  -7.108494e+05   3.446746e+06
  -2.638468e+06   1.771841e+06
  -3.436192e+06  -9.010117e+05
  -2.586517e+06  -2.684161e+06
  -5.520568e+05  -2.687802e+06
   1.268807e+06  -1.400128e+06
   1.548768e+06  -1.327935e+05
   4.633194e+05   4.764882e+04
  -3.355582e+05  -7.067233e+05
   3.353423e+05  -1.179494e+06
   1.657150e+06  -5.101605e+05
   1.829569e+06   7.275862e+05
   4.082475e+05   1.231420e+06
  -1.077314e+06   5.622921e+05
  -9.428117e+05  -4.286993e+05
   7.288691e+05  -6.714165e+05
   2.214324e+06   8.979719e+04
   1.921543e+06   1.287358e+06
  -1.041868e+05   2.049437e+06
  -2.221823e+06   1.695807e+06
  -2.651122e+06   2.823804e+05
  -1.118603e+06  -1.136456e+06
   8.329898e+05  -1.295852e+06
   1.343017e+06  -1.327021e+05
   1.055429e+05   9.526871e+05
  -1.413106e+06   6.524853e+05
  -1.623085e+06  -6.930968e+05
  -4.152525e+05  -1.545084e+06
   9.429541e+05  -1.023306e+06
   1.214240e+06   1.674950e+05
   3.227592e+05   6.928478e+05
  -6.912287e+05   6.250357e+04
  -6.586675e+05  -9.897170e+05
   5.910695e+05  -1.325284e+06
   1.918324e+06  -4.540206e+05
   1.893387e+06   1.033436e+06
   3.415778e+05   1.943916e+06
  -1.329516e+06   1.534940e+06
  -1.608699e+06   2.280152e+05
  -5.084032e+05  -7.973328e+05
   6.060524e+05  -7.798303e+05
   6.640841e+05  -5.582616e+04
  -6.339320e+04   4.618729e+05
  -5.666734e+05   3.177522e+05
  -3.116213e+05  -9.714107e+04
   3.246420e+05  -9.501738e+04
   5.471147e+05   5.019113e+05
  -1.036360e+05   1.100603e+06
  -1.278896e+06   8.684888e+05
  -1.969422e+06  -3.872046e+05
  -1.367794e+06  -1.844478e+06
   2.252794e+05  -2.319286e+06
   1.556533e+06  -1.414944e+06
   1.689302e+06   6.158088e+04
   9.418443e+05   9.340310e+05
   3.418328e+05   8.191472e+05
   3.490960e+05   3.360405e+05
   4.688932e+05   2.553415e+05
   6.685625e+04   6.436035e+05
  -7.927769e+05   8.768277e+05
  -1.403758e+06   3.749477e+05
  -1.093104e+06  -7.120583e+05
   1.800260e+05  -1.494550e+06
   1.655404e+06  -1.090418e+06
   2.179857e+06   4.510567e+05
   1.126087e+06   1.984149e+06
  -8.806457e+05   2.234097e+06
  -2.349965e+06   1.031013e+06
  -2.276776e+06  -5.376945e+05
  -1.045102e+06  -1.272765e+06
   1.219828e+05  -1.022348e+06
   4.613635e+05  -5.994345e+05
   2.423123e+05  -7.020883e+05
   1.890550e+05  -1.140705e+06
   6.199021e+05  -1.142509e+06
   1.180686e+06  -2.668432e+05
   1.238249e+06   1.049191e+06
   4.993303e+05   1.813261e+06
  -6.194426e+05   1.361238e+06
  -1.233646e+06   6.544683e+03
  -7.901468e+05  -1.180287e+06
   3.053853e+05  -1.316026e+06
   1.018990e+06  -4.677967e+05
   7.548737e+05   5.281273e+05
  -2.791350e+04   9.426480e+05
  -3.936082e+05   7.565773e+05
  -3.439769e+04   4.439928e+05
   3.876765e+05   3.485055e+05
   4.084493e+04   3.762127e+05
  -1.050867e+06   2.088838e+05
  -1.900940e+06  -3.047935e+05
  -1.529665e+06  -9.566752e+05
  -2.676790e+04  -1.308389e+06
   1.432655e+06  -1.046633e+06
   1.711539e+06  -3.035241e+05
   8.163090e+05   3.768124e+05
  -2.122582e+05   4.923177e+05
  -4.599155e+05   6.995038e+04
   2.729354e+03  -3.397377e+05
   4.531163e+05  -2.244817e+05
   4.428221e+05   3.297871e+05
   1.625111e+05   7.095802e+05
   1.850494e+04   4.609248e+05
   1.393399e+05  -1.407758e+05
   3.262740e+05  -3.402423e+05
   2.781424e+05   2.150568e+05
  -1.763545e+05   9.652404e+05
  -8.624107e+05   9.967844e+05
  -1.215543e+06   1.089149e+05
  -7.200705e+05  -8.808861e+05
   4.047389e+05  -1.014722e+06
   1.151436e+06  -2.421557e+05
   6.826422e+05   5.745483e+05
  -6.550648e+05   6.265830e+05
  -1.544691e+06  -6.353781e+04
  -1.048181e+06  -8.121620e+05
   3.988768e+05  -9.995665e+05
   1.453776e+06  -5.457386e+05
   1.240924e+06   1.400231e+05
   1.605088e+05   5.093685e+05
  -6.150334e+05   2.849922e+05
  -3.419175e+05  -2.630908e+05
   5.967425e+05  -4.601452e+05
   1.123207e+06   1.400194e+05
   5.680731e+05   1.161286e+06
  -6.525175e+05   1.595311e+06
  -1.461839e+06   7.864108e+05
  -1.191173e+06  -7.630957e+05
  -1.669647e+05  -1.735027e+06
   7.249047e+05  -1.270500e+06
   9.001025e+05   1.369889e+05
   4.465247e+05   1.144537e+06
  -1.666969e+05   9.619986e+05
  -5.259694e+05   9.918108e+04
  -4.844216e+05  -3.780348e+05
  -1.993915e+05  -1.494093e+05
  -3.104201e+04   1.046128e+05
  -2.037088e+05  -2.556596e+05
  -4.564457e+05  -9.204333e+05
  -2.246259e+05  -1.049040e+06
   6.308163e+05  -3.829904e+05
   1.421638e+06   4.632705e+05
   1.271637e+06   8.175359e+05
   1.777885e+05   6.629796e+05
  -8.661290e+05   3.892170e+05
  -9.640774e+05   1.815281e+05
  -3.113761e+05  -2.855697e+04
   1.583807e+05  -2.100083e+05
  -1.260229e+04  -2.216262e+05
  -3.056860e+05  -1.229093e+05
  -2.729128e+04  -1.323154e+05
   6.934281e+05  -1.989110e+05
   9.986466e+05   3.943885e+04
   3.325557e+05   6.604553e+05
  -8.702506e+05   1.088595e+06
  -1.606291e+06   6.680020e+05
  -1.286734e+06  -4.589173e+05
  -2.267315e+05  -1.361401e+06
   7.402257e+05  -1.294881e+06
   1.013337e+06  -4.704395e+05
   6.335777e+05   2.590086e+05
   1.030082e+05   3.453793e+05
  -1.101089e+05   3.398925e+04
   6.308269e+04  -4.807619e+04
   3.065153e+05   3.429690e+05
   2.456919e+05   7.796663e+05
  -1.911423e+05   6.393529e+05
  -6.613036e+05  -1.570592e+05
  -6.686674e+05  -9.531922e+05
  -4.740630e+04  -9.853203e+05
   7.518718e+05  -1.846202e+05
   9.685469e+05   7.440151e+05
   2.917615e+05   1.046853e+06
  -6.993376e+05   6.087921e+05
  -1.050864e+06  -9.809604e+04
  -4.781874e+05  -5.649368e+05
   2.808040e+05  -6.083374e+05
   3.339914e+05  -3.393762e+05
  -2.751881e+05  -2.698619e+04
  -6.339300e+05   2.334252e+04
  -1.236766e+05  -2.896011e+05
   8.008095e+05  -6.458875e+05
   1.182578e+06  -5.312883e+05
   6.909050e+05   1.491922e+05
  -1.069474e+05   8.171400e+05
  -5.069425e+05   7.989343e+05
  -3.719361e+05   1.230105e+05
  -2.521691e+04  -4.756120e+05
   2.417565e+05  -3.941377e+05
   3.375793e+05   1.790843e+05
   2.310812e+05   5.583200e+05
  -6.467666e+04   3.782944e+05
  -3.727537e+05  -6.270617e+04
  -4.410009e+05  -2.517494e+05
  -2.312285e+05  -7.446317e+04
   1.433715e+04   1.180024e+05
   7.899673e+04  -1.190566e+04
   4.005048e+04  -3.601627e+05
   1.204343e+05  -4.892353e+05
   3.288742e+05  -1.441405e+05
   3.896753e+05   4.087155e+05
   8.293170e+04   6.277397e+05
  -4.123089e+05   2.799136e+05
  -6.114387e+05  -2.982938e+05
  -2.191294e+05  -5.666956e+05
   4.816015e+05  -3.395177e+05
   8.260513e+05   9.847226e+04
   4.447969e+05   3.692716e+05
  -2.867800e+05   3.552927e+05
  -6.065709e+05   1.800938e+05
  -2.143499e+05   9.530785e+03
   3.686688e+05  -3.379991e+04
   4.035208e+05   1.033735e+05
  -1.949267e+05   2.984501e+05
  -7.646467e+05   2.486138e+05
