
 $NMID
 id='ANONYMOUS ', fmtdat='(2E16.6)'
 volume=1.0
 tramp=1.0
 $END
   4.263369e+07  -9.914786e+05
   2.722734e+07   2.424300e+07
  -3.434175e+06   2.870119e+07
  -2.022256e+07   1.346203e+07
  -1.364498e+07  -3.253109e+06
   1.444695e+06  -7.410961e+06
   7.956860e+06  -4.765862e+05
   3.476518e+06   7.358906e+06
  -3.978095e+06   8.529561e+06
  -7.592231e+06   2.660631e+06
  -5.819862e+06  -4.855172e+06
  -7.580813e+05  -7.170573e+06
   3.270352e+06  -2.057791e+06
   2.334807e+06   5.008542e+06
  -2.772133e+06   6.058696e+06
  -6.378506e+06  -4.228822e+05
  -4.054840e+06  -7.903447e+06
   2.463067e+06  -9.502184e+06
   7.711335e+06  -4.800598e+06
   8.232046e+06   1.612434e+06
   4.744460e+06   5.593587e+06
   4.350111e+05   6.012472e+06
  -1.495234e+06   4.162337e+06
  -1.890182e+05   2.539040e+06
   1.541170e+06   2.915206e+06
  -2.232180e+05   4.222589e+06
  -5.268865e+06   3.484980e+06
  -8.390177e+06  -1.306507e+05
  -5.607354e+06  -3.665391e+06
   4.405248e+05  -3.981136e+06
   3.673133e+06  -1.538373e+06
   1.913753e+06   8.111720e+05
  -1.554236e+06   1.320496e+06
  -3.002101e+06   8.589302e+04
  -1.952366e+06  -2.123793e+06
   7.719541e+04  -3.789232e+06
   1.723514e+06  -2.851069e+06
   2.015072e+06   5.529939e+05
   7.440416e+05   2.736116e+06
  -5.296538e+05   7.583069e+05
   2.112817e+05  -2.692305e+06
   2.248044e+06  -2.221966e+06
   2.232794e+06   2.356046e+06
  -1.205914e+06   4.897984e+06
  -4.727997e+06   1.209977e+06
  -3.977222e+06  -4.905163e+06
   9.925060e+05  -6.477757e+06
   5.683636e+06  -2.033118e+06
   6.033692e+06   3.472581e+06
   2.047620e+06   5.136417e+06
  -2.860917e+06   2.691886e+06
  -4.864683e+06  -9.076795e+05
  -2.580496e+06  -2.832887e+06
   1.674264e+06  -2.027071e+06
   3.725324e+06   4.346554e+05
   1.817525e+06   2.029217e+06
  -1.283719e+06   1.167905e+06
  -1.674419e+06  -7.984289e+05
   7.048601e+05  -1.134437e+06
   2.173805e+06   6.867964e+05
   3.261949e+05   2.357291e+06
  -2.974712e+06   1.838857e+06
  -4.198966e+06  -4.537842e+05
  -2.144344e+06  -2.892082e+06
   1.550318e+06  -4.347259e+06
   4.541489e+06  -3.997750e+06
   5.308528e+06  -1.246205e+06
   3.589537e+06   2.820905e+06
   6.544417e+05   5.263188e+06
  -1.327347e+06   4.275178e+06
  -1.309301e+06   1.591070e+06
  -5.159903e+05   3.230435e+05
  -7.627528e+05   9.471901e+05
  -2.030970e+06   1.160765e+06
  -2.647101e+06  -4.282905e+05
  -1.579564e+06  -2.295157e+06
   4.211419e+05  -2.195996e+06
   1.839008e+06  -2.783175e+04
   1.665585e+06   2.267293e+06
  -1.670126e+05   2.824475e+06
  -2.608007e+06   1.267730e+06
  -3.771631e+06  -1.319310e+06
  -2.503807e+06  -3.215214e+06
   9.835725e+04  -3.317455e+06
   1.715032e+06  -2.101365e+06
   1.638489e+06  -1.040521e+06
   1.513916e+06  -8.257925e+05
   2.713344e+06  -6.270559e+05
   4.071310e+06   5.880148e+05
   3.307345e+06   2.548763e+06
   1.390618e+05   3.927949e+06
  -3.135077e+06   3.683254e+06
  -4.088460e+06   1.823761e+06
  -2.447699e+06  -6.481220e+05
   1.950202e+04  -2.178368e+06
   1.245126e+06  -1.698899e+06
   5.007497e+05   1.211737e+05
  -1.117697e+06   1.191889e+06
  -1.760951e+06   3.445188e+05
  -7.602891e+05  -1.101091e+06
   5.854424e+05  -1.059999e+06
   5.609026e+05   3.690222e+05
  -8.223245e+05   9.278071e+05
  -1.836918e+06  -7.015376e+05
  -1.117519e+06  -3.030092e+06
   9.376538e+05  -3.572928e+06
   2.863141e+06  -1.685298e+06
   3.499265e+06   1.072242e+06
   2.533978e+06   2.786377e+06
   5.074768e+05   2.713837e+06
  -1.279904e+06   1.415040e+06
  -1.564122e+06   1.466017e+05
  -4.755686e+05  -4.905752e+04
   3.472972e+05   7.224983e+05
  -3.410117e+05   1.236363e+06
  -1.725479e+06   5.541105e+05
  -1.914476e+06  -7.553322e+05
  -4.292924e+05  -1.293674e+06
   1.108797e+06  -5.821645e+05
   9.442648e+05   4.442411e+05
  -7.788072e+05   6.509930e+05
  -2.250918e+06  -1.597083e+05
  -1.899917e+06  -1.347452e+06
   1.595014e+05  -2.068284e+06
   2.280549e+06  -1.699889e+06
   2.712183e+06  -2.800672e+05
   1.163770e+06   1.175849e+06
  -8.451561e+05   1.365009e+06
  -1.404189e+06   1.664171e+05
  -1.415461e+05  -9.824990e+05
   1.445064e+06  -6.852536e+05
   1.671045e+06   7.183763e+05
   4.079362e+05   1.600705e+06
  -9.991447e+05   1.040380e+06
  -1.257418e+06  -2.011866e+05
  -3.214685e+05  -7.321536e+05
   7.183926e+05  -7.441839e+04
   6.838565e+05   1.002804e+06
  -5.867288e+05   1.351477e+06
  -1.946800e+06   4.765843e+05
  -1.939570e+06  -1.042330e+06
  -3.582645e+05  -1.991893e+06
   1.367370e+06  -1.582246e+06
   1.660970e+06  -2.302735e+05
   5.208396e+05   8.291384e+05
  -6.250575e+05   8.007915e+05
  -6.648363e+05   5.766932e+04
   8.620111e+04  -4.476189e+05
   5.655348e+05  -2.846148e+05
   2.658900e+05   1.115034e+05
  -3.743699e+05   6.529215e+04
  -5.581878e+05  -5.536698e+05
   1.281196e+05  -1.140042e+06
   1.317681e+06  -8.836930e+05
   2.013591e+06   3.984106e+05
   1.401460e+06   1.883697e+06
  -2.310067e+05   2.364864e+06
  -1.598318e+06   1.426479e+06
  -1.716388e+06  -9.007052e+04
  -9.222326e+05  -9.561255e+05
  -3.131711e+05  -7.993977e+05
  -3.631295e+05  -3.026027e+05
  -5.109202e+05  -2.558376e+05
  -7.846932e+04  -6.733206e+05
   8.254370e+05  -8.911906e+05
   1.434612e+06  -3.574374e+05
   1.085505e+06   7.367371e+05
  -2.156882e+05   1.506327e+06
  -1.696350e+06   1.089574e+06
  -2.216008e+06  -4.716799e+05
  -1.139006e+06  -2.036478e+06
   9.173402e+05  -2.295064e+06
   2.424313e+06  -1.048732e+06
   2.329256e+06   5.773453e+05
   1.036745e+06   1.319505e+06
  -1.577749e+05   1.026001e+06
  -4.655813e+05   5.743608e+05
  -2.083463e+05   6.998756e+05
  -1.613401e+05   1.178658e+06
  -6.289799e+05   1.188985e+06
  -1.214097e+06   2.862391e+05
  -1.269882e+06  -1.064148e+06
  -5.147641e+05  -1.847286e+06
   6.266238e+05  -1.389173e+06
   1.259362e+06  -3.456339e+03
   8.076928e+05   1.217590e+06
  -3.266602e+05   1.355546e+06
  -1.071212e+06   4.694733e+05
  -7.906424e+05  -5.686996e+05
   3.983098e+04  -9.918973e+05
   4.300615e+05  -7.839542e+05
   5.167666e+04  -4.493129e+05
  -3.964037e+05  -3.481454e+05
  -4.185436e+04  -3.797068e+05
   1.084343e+06  -2.135329e+05
   1.955515e+06   3.099959e+05
   1.566833e+06   9.844005e+05
   1.990103e+04   1.356232e+06
  -1.477161e+06   1.086155e+06
  -1.761590e+06   3.040881e+05
  -8.406565e+05  -4.090234e+05
   2.198351e+05  -5.178455e+05
   4.805470e+05  -6.515350e+04
   9.480634e+03   3.572242e+05
  -4.556213e+05   2.289728e+05
  -4.550605e+05  -3.361309e+05
  -1.789996e+05  -7.116552e+05
  -3.387502e+04  -4.614037e+05
  -1.472452e+05   1.301345e+05
  -3.265431e+05   3.246243e+05
  -2.779826e+05  -2.229949e+05
   1.769769e+05  -9.724100e+05
   8.773051e+05  -1.018138e+06
   1.250553e+06  -1.322509e+05
   7.527358e+05   8.864444e+05
  -4.037452e+05   1.049951e+06
  -1.177025e+06   2.689151e+05
  -6.964735e+05  -5.798691e+05
   6.752215e+05  -6.387620e+05
   1.574867e+06   7.870875e+04
   1.049597e+06   8.459757e+05
  -4.318500e+05   1.015021e+06
  -1.491896e+06   5.305258e+05
  -1.257294e+06  -1.633371e+05
  -1.531635e+05  -5.203017e+05
   6.330423e+05  -2.847579e+05
   3.572055e+05   2.691927e+05
  -5.950453e+05   4.730729e+05
  -1.139606e+06  -1.279789e+05
  -5.918465e+05  -1.168569e+06
   6.427665e+05  -1.624090e+06
   1.475649e+06  -8.097532e+05
   1.212592e+06   7.706505e+05
   1.711670e+05   1.763381e+06
  -7.427619e+05   1.285826e+06
  -9.191994e+05  -1.512742e+05
  -4.449463e+05  -1.172427e+06
   1.866520e+05  -9.786719e+05
   5.417808e+05  -9.742789e+04
   4.818165e+05   3.872636e+05
   1.903630e+05   1.537611e+05
   3.770356e+04  -1.059427e+05
   2.274628e+05   2.588755e+05
   4.735075e+05   9.370892e+05
   2.152560e+05   1.073338e+06
  -6.587866e+05   3.965060e+05
  -1.445955e+06  -4.720496e+05
  -1.282797e+06  -8.392280e+05
  -1.806427e+05  -6.786189e+05
   8.705961e+05  -3.918572e+05
   9.797975e+05  -1.786840e+05
   3.298403e+05   3.072413e+04
  -1.562731e+05   2.134523e+05
  -4.024992e+03   2.267483e+05
   2.926479e+05   1.244619e+05
   3.260986e+04   1.298590e+05
  -6.874335e+05   2.003673e+05
  -1.015724e+06  -3.270359e+04
  -3.615099e+05  -6.626449e+05
   8.657744e+05  -1.111552e+06
   1.637706e+06  -6.991340e+05
   1.323810e+06   4.473104e+05
   2.378173e+05   1.380066e+06
  -7.517339e+05   1.325921e+06
  -1.024876e+06   4.903057e+05
  -6.385673e+05  -2.551229e+05
  -1.116904e+05  -3.474491e+05
   9.534930e+04  -3.619172e+04
  -7.358764e+04   4.209058e+04
  -3.085282e+05  -3.556994e+05
  -2.470119e+05  -7.954667e+05
   1.875306e+05  -6.526959e+05
   6.654742e+05   1.495095e+05
   6.869900e+05   9.542779e+05
   6.730893e+04   9.962871e+05
  -7.497853e+05   1.989178e+05
  -9.861200e+05  -7.400767e+05
  -3.091362e+05  -1.060681e+06
   7.025092e+05  -6.301241e+05
   1.073880e+06   8.930708e+04
   5.004221e+05   5.777785e+05
  -2.779282e+05   6.316954e+05
  -3.471556e+05   3.550922e+05
   2.664220e+05   2.903661e+04
   6.408225e+05  -2.554881e+04
   1.318690e+05   2.944956e+05
  -8.140161e+05   6.583829e+05
  -1.217016e+06   5.413402e+05
  -7.207154e+05  -1.524872e+05
   1.025011e+05  -8.364021e+05
   5.211331e+05  -8.253592e+05
   3.851889e+05  -1.411610e+05
   3.059720e+04   4.758060e+05
  -2.391387e+05   4.068909e+05
  -3.376753e+05  -1.712507e+05
  -2.384347e+05  -5.661039e+05
   5.636666e+04  -3.932368e+05
   3.775375e+05   5.752121e+04
   4.576366e+05   2.599188e+05
   2.394420e+05   8.164768e+04
  -2.500093e+04  -1.251906e+05
  -9.008912e+04  -4.615992e+03
  -2.850578e+04   3.517197e+05
  -9.349039e+04   4.984436e+05
  -3.168729e+05   1.635338e+05
  -4.051906e+05  -3.941353e+05
  -1.045004e+05  -6.263884e+05
   4.102280e+05  -2.885037e+05
   6.262869e+05   2.902904e+05
   2.280062e+05   5.683308e+05
  -4.910268e+05   3.504802e+05
  -8.444203e+05  -8.867191e+04
  -4.570989e+05  -3.719055e+05
   2.858494e+05  -3.708027e+05
   6.140632e+05  -1.973040e+05
   2.258236e+05  -1.682230e+04
  -3.584018e+05   3.834364e+04
  -4.000189e+05  -9.397232e+04
   1.912763e+05  -2.921430e+05
   7.610467e+05  -2.479187e+05
