
 $NMID
 id='ANONYMOUS ', fmtdat='(2E16.6)'
 volume=1.0
 tramp=1.0
 $END
   4.636582e+07   7.983919e+05
   2.819708e+07   2.776634e+07
  -5.316418e+06   3.096105e+07
  -2.248489e+07   1.333005e+07
  -1.432757e+07  -4.392653e+06
   2.049360e+06  -7.849295e+06
   8.464619e+06   4.050876e+04
   3.212165e+06   8.046766e+06
  -4.698260e+06   8.775032e+06
  -8.219631e+06   2.387031e+06
  -6.046188e+06  -5.436992e+06
  -5.654513e+05  -7.684987e+06
   3.586855e+06  -2.130227e+06
   2.338072e+06   5.338410e+06
  -3.188898e+06   6.257397e+06
  -6.796811e+06  -7.963054e+05
  -3.980188e+06  -8.671857e+06
   3.085274e+06  -1.010229e+07
   8.540047e+06  -4.866237e+06
   8.891121e+06   2.056880e+06
   4.994903e+06   6.306323e+06
   2.173382e+05   6.673466e+06
  -1.961448e+06   4.501056e+06
  -5.060870e+05   2.564479e+06
   1.522946e+06   2.926000e+06
  -2.453252e+05   4.408811e+06
  -5.626110e+06   3.644088e+06
  -8.949805e+06  -2.904024e+05
  -5.941627e+06  -4.080306e+06
   5.016038e+05  -4.329506e+06
   3.917805e+06  -1.671689e+06
   2.103213e+06   7.932098e+05
  -1.480438e+06   1.337751e+06
  -3.039083e+06   1.302565e+05
  -2.064785e+06  -2.156178e+06
   4.711961e+04  -4.002566e+06
   1.917268e+06  -3.076543e+06
   2.291075e+06   6.166116e+05
   8.100802e+05   3.050209e+06
  -6.707996e+05   9.386234e+05
   1.788962e+05  -2.793036e+06
   2.420912e+06  -2.266039e+06
   2.256421e+06   2.634089e+06
  -1.612365e+06   5.184343e+06
  -5.266026e+06   1.002447e+06
  -4.089142e+06  -5.556018e+06
   1.425043e+06  -6.974123e+06
   6.239919e+06  -1.953869e+06
   6.286339e+06   3.939314e+06
   1.941097e+06   5.509511e+06
  -3.125780e+06   2.706733e+06
  -5.064458e+06  -1.162392e+06
  -2.563106e+06  -3.087723e+06
   1.904781e+06  -2.052111e+06
   3.955902e+06   6.510510e+05
   1.825742e+06   2.257738e+06
  -1.436873e+06   1.190583e+06
  -1.720170e+06  -9.035586e+05
   8.381562e+05  -1.095485e+06
   2.230102e+06   9.381656e+05
   8.480918e+04   2.566701e+06
  -3.385124e+06   1.765429e+06
  -4.472352e+06  -7.570031e+05
  -2.135075e+06  -3.225442e+06
   1.792456e+06  -4.615056e+06
   4.925764e+06  -4.167030e+06
   5.710711e+06  -1.211779e+06
   3.806052e+06   3.116386e+06
   5.632511e+05   5.641559e+06
  -1.577190e+06   4.463135e+06
  -1.440013e+06   1.547531e+06
  -4.566606e+05   2.618940e+05
  -6.980612e+05   1.022151e+06
  -2.112549e+06   1.284197e+06
  -2.810508e+06  -4.122712e+05
  -1.682965e+06  -2.394179e+06
   4.160663e+05  -2.294146e+06
   1.882132e+06  -3.144076e+04
   1.697453e+06   2.368258e+06
  -2.151168e+05   2.962359e+06
  -2.787177e+06   1.312847e+06
  -4.010146e+06  -1.472963e+06
  -2.615731e+06  -3.520816e+06
   2.135998e+05  -3.590756e+06
   1.947682e+06  -2.212756e+06
   1.821798e+06  -1.030815e+06
   1.633721e+06  -7.888751e+05
   2.865509e+06  -5.601187e+05
   4.259938e+06   7.409388e+05
   3.404699e+06   2.767774e+06
   4.759819e+04   4.123548e+06
  -3.367797e+06   3.798003e+06
  -4.326876e+06   1.851945e+06
  -2.579110e+06  -7.053165e+05
   2.611577e+04  -2.293612e+06
   1.324188e+06  -1.785534e+06
   5.319459e+05   1.283441e+05
  -1.192952e+06   1.235975e+06
  -1.866307e+06   3.190758e+05
  -7.854401e+05  -1.188330e+06
   6.257970e+05  -1.101501e+06
   5.534611e+05   3.937106e+05
  -9.025009e+05   8.983688e+05
  -1.868087e+06  -8.633762e+05
  -9.992805e+05  -3.223494e+06
   1.145545e+06  -3.637479e+06
   3.028024e+06  -1.588673e+06
   3.569878e+06   1.238118e+06
   2.539787e+06   2.936940e+06
   4.672735e+05   2.818108e+06
  -1.360165e+06   1.456260e+06
  -1.638591e+06   1.308280e+05
  -4.968770e+05  -6.167212e+04
   3.453672e+05   7.659743e+05
  -4.010259e+05   1.292577e+06
  -1.840186e+06   5.314215e+05
  -1.987686e+06  -8.580938e+05
  -4.024707e+05  -1.373858e+06
   1.178516e+06  -5.747657e+05
   9.637352e+05   4.841140e+05
  -8.309325e+05   6.365172e+05
  -2.321795e+06  -2.382380e+05
  -1.923946e+06  -1.438667e+06
   2.209520e+05  -2.130272e+06
   2.415130e+06  -1.711098e+06
   2.840431e+06  -2.269533e+05
   1.188834e+06   1.267858e+06
  -9.308547e+05   1.420197e+06
  -1.492354e+06   1.362238e+05
  -1.285759e+05  -1.045912e+06
   1.535643e+06  -6.852018e+05
   1.728175e+06   7.991857e+05
   3.737569e+05   1.680388e+06
  -1.075734e+06   1.044270e+06
  -1.297880e+06  -2.570173e+05
  -3.014214e+05  -7.736723e+05
   7.632726e+05  -5.258302e+04
   6.962491e+05   1.073080e+06
  -6.445881e+05   1.408920e+06
  -2.053914e+06   4.609860e+05
  -2.013492e+06  -1.136205e+06
  -3.281700e+05  -2.098428e+06
   1.475260e+06  -1.623250e+06
   1.744172e+06  -1.953356e+05
   5.172991e+05   8.804061e+05
  -6.753998e+05   8.175757e+05
  -6.892008e+05   4.915734e+04
   1.012980e+05  -4.484640e+05
   5.797092e+05  -2.753593e+05
   2.536002e+05   1.067243e+05
  -3.959435e+05   3.239720e+04
  -5.563317e+05  -6.064547e+05
   1.742065e+05  -1.188647e+06
   1.404037e+06  -8.901648e+05
   2.099884e+06   4.662123e+05
   1.425809e+06   2.007346e+06
  -2.936254e+05   2.468522e+06
  -1.698105e+06   1.446809e+06
  -1.778675e+06  -1.361340e+05
  -9.317757e+05  -1.001479e+06
  -3.181092e+05  -8.139045e+05
  -3.962960e+05  -3.153704e+05
  -5.436243e+05  -2.943044e+05
  -6.455464e+04  -7.196005e+05
   8.881977e+05  -9.095857e+05
   1.503044e+06  -3.353577e+05
   1.110196e+06   7.862879e+05
  -2.604009e+05   1.554777e+06
  -1.794612e+06   1.093852e+06
  -2.303101e+06  -5.439852e+05
  -1.136664e+06  -2.157418e+06
   1.026827e+06  -2.377174e+06
   2.567906e+06  -1.028490e+06
   2.411900e+06   6.685791e+05
   1.035101e+06   1.395790e+06
  -1.908116e+05   1.048264e+06
  -4.805642e+05   5.813104e+05
  -2.129406e+05   7.412340e+05
  -1.914276e+05   1.249597e+06
  -6.943212e+05   1.239230e+06
  -1.286590e+06   2.722835e+05
  -1.310046e+06  -1.143192e+06
  -4.998890e+05  -1.946142e+06
   6.854082e+05  -1.441630e+06
   1.316037e+06   2.705022e+04
   8.111841e+05   1.298032e+06
  -3.838853e+05   1.407970e+06
  -1.138532e+06   4.485650e+05
  -8.071139e+05  -6.337379e+05
   8.300222e+04  -1.042203e+06
   4.841530e+05  -8.005091e+05
   6.783264e+04  -4.587749e+05
  -4.127839e+05  -3.709459e+05
  -3.865272e+04  -3.980773e+05
   1.145314e+06  -1.945339e+05
   2.048100e+06   3.758191e+05
   1.616261e+06   1.072129e+06
  -2.435803e+04   1.423947e+06
  -1.585864e+06   1.101956e+06
  -1.852248e+06   2.687924e+05
  -8.601035e+05  -4.596571e+05
   2.506892e+05  -5.414013e+05
   5.057172e+05  -4.989704e+04
   2.644538e+03   3.849800e+05
  -4.783657e+05   2.347875e+05
  -4.710797e+05  -3.622378e+05
  -1.843289e+05  -7.511528e+05
  -3.582305e+04  -4.880063e+05
  -1.521674e+05   1.264843e+05
  -3.367046e+05   3.278753e+05
  -2.842330e+05  -2.399391e+05
   1.992057e+05  -1.013899e+06
   9.429237e+05  -1.049360e+06
   1.329224e+06  -1.123500e+05
   7.820769e+05   9.506526e+05
  -4.506232e+05   1.101114e+06
  -1.250917e+06   2.630810e+05
  -7.202292e+05  -6.195956e+05
   7.225834e+05  -6.505636e+05
   1.639325e+06   1.204363e+05
   1.064664e+06   9.043996e+05
  -4.803651e+05   1.039067e+06
  -1.562999e+06   5.089996e+05
  -1.298917e+06  -2.017067e+05
  -1.445699e+05  -5.426782e+05
   6.677538e+05  -2.782680e+05
   3.699172e+05   2.949427e+05
  -6.308699e+05   4.903432e+05
  -1.195627e+06  -1.508677e+05
  -6.067887e+05  -1.236823e+06
   6.976546e+05  -1.696715e+06
   1.559860e+06  -8.269333e+05
   1.255789e+06   8.280673e+05
   1.452271e+05   1.847301e+06
  -8.010551e+05   1.324385e+06
  -9.533713e+05  -1.833853e+05
  -4.333540e+05  -1.233650e+06
   2.226004e+05  -1.010524e+06
   5.699755e+05  -8.530145e+04
   4.901094e+05   4.105586e+05
   1.896086e+05   1.589569e+05
   4.338849e+04  -1.062397e+05
   2.408418e+05   2.860669e+05
   4.787788e+05   9.945862e+05
   1.944586e+05   1.121339e+06
  -7.071471e+05   3.943321e+05
  -1.501616e+06  -5.229032e+05
  -1.316132e+06  -9.005071e+05
  -1.730771e+05  -7.151360e+05
   9.119054e+05  -3.966267e+05
   1.024703e+06  -1.652353e+05
   3.487082e+05   4.650998e+04
  -1.653286e+05   2.222898e+05
  -1.550360e+04   2.283652e+05
   2.968911e+05   1.265985e+05
   3.553379e+04   1.379874e+05
  -7.153597e+05   2.045446e+05
  -1.065535e+06  -5.234698e+04
  -3.784990e+05  -7.094402e+05
   9.224705e+05  -1.156745e+06
   1.738685e+06  -7.034482e+05
   1.391848e+06   4.948849e+05
   2.263431e+05   1.450119e+06
  -8.175909e+05   1.375775e+06
  -1.086477e+06   4.996907e+05
  -6.650421e+05  -2.739321e+05
  -1.141314e+05  -3.683729e+05
   9.513751e+04  -4.556919e+04
  -7.789669e+04   3.478499e+04
  -3.103448e+05  -3.794469e+05
  -2.390659e+05  -8.363466e+05
   2.084702e+05  -6.828643e+05
   6.953436e+05   1.625696e+05
   7.093824e+05   1.009531e+06
   6.076588e+04   1.050773e+06
  -7.879085e+05   2.052349e+05
  -1.025499e+06  -7.875365e+05
  -3.090475e+05  -1.120435e+06
   7.498405e+05  -6.539634e+05
   1.129053e+06   1.138491e+05
   5.153292e+05   6.237033e+05
  -3.080019e+05   6.644211e+05
  -3.790544e+05   3.636766e+05
   2.718164e+05   2.843985e+04
   6.703251e+05  -1.678600e+04
   1.345750e+05   3.139871e+05
  -8.649591e+05   6.727482e+05
  -1.289477e+06   5.339357e+05
  -7.571339e+05  -1.840322e+05
   1.243891e+05  -8.778052e+05
   5.706587e+05  -8.545246e+05
   4.172549e+05  -1.425548e+05
   2.888602e+04   4.977211e+05
  -2.588893e+05   4.269209e+05
  -3.534903e+05  -1.783206e+05
  -2.402663e+05  -5.979422e+05
   6.777633e+04  -4.185964e+05
   3.962871e+05   6.441956e+04
   4.746128e+05   2.874708e+05
   2.471848e+05   9.476295e+04
  -2.477828e+04  -1.392270e+05
  -8.875008e+04  -1.862306e+04
  -2.406915e+04   3.680458e+05
  -9.669846e+04   5.354703e+05
  -3.367934e+05   1.810493e+05
  -4.310737e+05  -4.164604e+05
  -1.113584e+05  -6.633417e+05
   4.332586e+05  -3.000193e+05
   6.580977e+05   3.134071e+05
   2.334373e+05   5.986573e+05
  -5.239327e+05   3.580329e+05
  -8.891998e+05  -1.076192e+05
  -4.742510e+05  -3.992238e+05
   3.091927e+05  -3.887331e+05
   6.524115e+05  -2.010507e+05
   2.433334e+05  -1.182956e+04
  -3.709016e+05   4.325186e+04
  -4.180522e+05  -9.614103e+04
   1.968885e+05  -3.006464e+05
   7.912283e+05  -2.509249e+05
