
 $NMID
 id='ANONYMOUS ', fmtdat='(2E16.6)'
 volume=1.0
 tramp=1.0
 $END
  -5.500859e+07   6.885329e+05
  -3.349801e+07  -3.372745e+07
   6.858030e+06  -3.735312e+07
   2.680894e+07  -1.457847e+07
   1.616792e+07   6.725513e+06
  -3.154353e+06   9.155265e+06
  -9.615077e+06  -1.124989e+06
  -2.789854e+06  -9.524444e+06
   5.980054e+06  -9.155577e+06
   9.402135e+06  -2.028757e+06
   6.886905e+06   5.964404e+06
   8.949205e+05   8.364359e+06
  -3.850899e+06   2.729054e+06
  -2.614550e+06  -5.248782e+06
   3.610864e+06  -6.401765e+06
   7.697184e+06   1.231113e+06
   4.442597e+06   9.909221e+06
  -3.560368e+06   1.155180e+07
  -9.788908e+06   5.887587e+06
  -1.057778e+07  -1.855498e+06
  -6.579826e+06  -7.218660e+06
  -8.074167e+05  -8.455445e+06
   2.781981e+06  -5.980077e+06
   1.830068e+06  -2.657774e+06
  -1.062645e+06  -2.052947e+06
  -3.062553e+05  -4.026449e+06
   5.172192e+06  -4.343127e+06
   9.379261e+06  -6.216211e+05
   6.918371e+06   3.918104e+06
   3.379749e+05   4.925300e+06
  -3.558209e+06   2.566468e+06
  -2.403593e+06   7.840263e+04
   5.484622e+05  -8.886571e+05
   2.170908e+06  -5.038300e+05
   2.140212e+06   1.335163e+06
   7.430503e+05   3.792384e+06
  -1.691997e+06   3.786090e+06
  -3.166141e+06  -3.301978e+04
  -1.740912e+06  -3.518668e+06
   7.225669e+05  -1.914845e+06
   3.732226e+05   2.360816e+06
  -2.365085e+06   2.263036e+06
  -2.421982e+06  -3.093669e+06
   2.311723e+06  -6.022725e+06
   6.794127e+06  -1.078317e+06
   5.092045e+06   6.705963e+06
  -1.767211e+06   8.357252e+06
  -7.219879e+06   2.452344e+06
  -6.821630e+06  -4.262268e+06
  -1.853625e+06  -5.860627e+06
   3.364005e+06  -2.672068e+06
   5.136624e+06   1.444636e+06
   2.389868e+06   3.382937e+06
  -2.342262e+06   2.169861e+06
  -4.429759e+06  -8.552196e+05
  -1.930883e+06  -2.638357e+06
   1.662477e+06  -1.357436e+06
   1.703290e+06   9.863742e+05
  -1.294448e+06   9.089292e+05
  -2.446258e+06  -1.700575e+06
   5.702680e+05  -3.387401e+06
   4.511709e+06  -1.918604e+06
   5.199109e+06   1.269819e+06
   2.308053e+06   3.860951e+06
  -1.691884e+06   5.153334e+06
  -4.813256e+06   4.776867e+06
  -6.009679e+06   1.781336e+06
  -4.508668e+06  -3.013915e+06
  -9.973262e+05  -6.001781e+06
   1.768867e+06  -4.671219e+06
   1.719616e+06  -1.201614e+06
   1.636876e+05   2.631474e+05
  -5.694727e+04  -9.402279e+05
   1.521773e+06  -1.765340e+06
   2.729529e+06  -2.808532e+05
   2.000134e+06   1.844081e+06
   5.698572e+04   2.082671e+06
  -1.503101e+06   2.163371e+05
  -1.654371e+06  -2.002578e+06
  -3.824890e+04  -2.860516e+06
   2.675770e+06  -1.651237e+06
   4.379681e+06   1.100056e+06
   3.199014e+06   3.628326e+06
   2.247038e+04   4.136195e+06
  -2.192546e+06   2.692386e+06
  -2.176363e+06   1.141932e+06
  -1.791324e+06   6.844534e+05
  -2.874557e+06   4.937725e+05
  -4.260646e+06  -7.048980e+05
  -3.434980e+06  -2.673536e+06
  -1.649569e+05  -4.035699e+06
   3.097408e+06  -3.844894e+06
   4.056183e+06  -2.118845e+06
   2.601893e+06   3.764788e+05
   3.003826e+05   2.178033e+06
  -1.049015e+06   1.905546e+06
  -5.520510e+05  -2.586415e+04
   1.049898e+06  -1.293782e+06
   1.866832e+06  -4.106784e+05
   9.201634e+05   1.172142e+06
  -4.936501e+05   1.094954e+06
  -4.169785e+05  -3.822074e+05
   1.053952e+06  -6.858269e+05
   1.839790e+06   1.270136e+06
   6.464609e+05   3.434093e+06
  -1.564410e+06   3.352816e+06
  -3.087371e+06   1.089228e+06
  -3.242567e+06  -1.411162e+06
  -2.228230e+06  -2.687181e+06
  -4.556891e+05  -2.544535e+06
   1.199930e+06  -1.442658e+06
   1.541073e+06  -2.393567e+05
   4.837842e+05   4.092752e+04
  -3.572997e+05  -7.362276e+05
   3.987585e+05  -1.325829e+06
   1.877311e+06  -5.858609e+05
   2.010472e+06   8.636448e+05
   3.858769e+05   1.396713e+06
  -1.150850e+06   5.674713e+05
  -8.695006e+05  -4.444669e+05
   8.393405e+05  -5.056263e+05
   2.136763e+06   3.179439e+05
   1.702064e+06   1.325242e+06
  -2.442216e+05   1.925661e+06
  -2.255620e+06   1.629178e+06
  -2.720850e+06   2.845004e+05
  -1.207217e+06  -1.239431e+06
   8.942593e+05  -1.491943e+06
   1.541163e+06  -2.021441e+05
   2.121450e+05   1.065146e+06
  -1.487663e+06   7.381209e+05
  -1.695111e+06  -7.622055e+05
  -3.329414e+05  -1.625741e+06
   1.078000e+06  -9.586574e+05
   1.237651e+06   3.125691e+05
   2.374075e+05   7.735701e+05
  -7.904991e+05   5.842793e+04
  -7.359928e+05  -1.032675e+06
   5.524825e+05  -1.407603e+06
   1.969617e+06  -5.535314e+05
   2.012847e+06   1.015147e+06
   3.934968e+05   2.040483e+06
  -1.409561e+06   1.627591e+06
  -1.699636e+06   2.141914e+05
  -4.952177e+05  -8.549531e+05
   6.461941e+05  -7.920143e+05
   6.158966e+05  -7.895057e+04
  -1.220357e+05   3.445832e+05
  -4.744256e+05   1.944776e+05
  -1.009513e+05  -6.345250e+04
   4.539803e+05   8.787801e+04
   5.097433e+05   6.721436e+05
  -2.049367e+05   1.172697e+06
  -1.357637e+06   8.877836e+05
  -2.050838e+06  -3.945789e+05
  -1.455970e+06  -1.901669e+06
   1.954556e+05  -2.379264e+06
   1.577366e+06  -1.390264e+06
   1.653023e+06   1.209927e+05
   8.332316e+05   8.682477e+05
   3.086487e+05   6.173388e+05
   4.798827e+05   1.970490e+05
   6.329204e+05   3.064217e+05
   9.816997e+04   7.592381e+05
  -8.598918e+05   8.896248e+05
  -1.419360e+06   3.210099e+05
  -1.025473e+06  -7.014168e+05
   2.444154e+05  -1.425105e+06
   1.684692e+06  -1.057051e+06
   2.208128e+06   4.625287e+05
   1.122089e+06   2.059696e+06
  -9.871227e+05   2.334899e+06
  -2.501572e+06   1.024516e+06
  -2.311126e+06  -6.448899e+05
  -9.315883e+05  -1.312048e+06
   2.072835e+05  -9.174199e+05
   3.703248e+05  -4.892883e+05
   5.212960e+04  -7.400893e+05
   8.076636e+04  -1.295835e+06
   6.512287e+05  -1.280869e+06
   1.274806e+06  -3.269822e+05
   1.326149e+06   1.049558e+06
   5.639124e+05   1.856650e+06
  -5.979129e+05   1.417300e+06
  -1.262576e+06   4.925024e+03
  -8.052101e+05  -1.261657e+06
   3.828753e+05  -1.377205e+06
   1.152269e+06  -3.970607e+05
   8.058890e+05   6.968566e+05
  -1.240952e+05   1.069453e+06
  -5.373520e+05   7.724051e+05
  -8.768286e+04   4.037870e+05
   4.313732e+05   3.223789e+05
   6.399916e+04   3.744711e+05
  -1.133237e+06   2.140689e+05
  -2.038885e+06  -3.125917e+05
  -1.598606e+06  -1.011805e+06
   3.525432e+04  -1.419741e+06
   1.564839e+06  -1.138860e+06
   1.803384e+06  -2.802153e+05
   8.209169e+05   4.937739e+05
  -2.569103e+05   5.687253e+05
  -5.071343e+05   3.178719e+04
  -3.934330e+04  -4.220241e+05
   4.276871e+05  -2.604192e+05
   4.784799e+05   3.310467e+05
   2.677548e+05   7.036383e+05
   1.103088e+05   4.682132e+05
   1.335149e+05  -8.581276e+04
   2.634202e+05  -2.785054e+05
   2.705401e+05   2.275394e+05
  -1.238432e+05   9.660345e+05
  -8.742496e+05   1.058989e+06
  -1.351693e+06   1.955970e+05
  -8.622905e+05  -8.886674e+05
   3.955907e+05  -1.136855e+06
   1.241193e+06  -3.586315e+05
   7.290937e+05   5.510213e+05
  -6.881113e+05   6.412706e+05
  -1.556168e+06  -8.887090e+04
  -9.766991e+05  -8.451436e+05
   4.828768e+05  -9.649257e+05
   1.466313e+06  -4.615189e+05
   1.200235e+06   1.895678e+05
   1.278860e+05   5.010042e+05
  -6.386243e+05   2.627336e+05
  -3.864437e+05  -2.903926e+05
   5.610059e+05  -5.281632e+05
   1.165674e+06   5.221093e+04
   6.910723e+05   1.145650e+06
  -5.380690e+05   1.688735e+06
  -1.437743e+06   9.030823e+05
  -1.245772e+06  -7.213178e+05
  -2.243078e+05  -1.754558e+06
   7.126147e+05  -1.270641e+06
   9.084418e+05   1.760715e+05
   4.236466e+05   1.169277e+06
  -2.235966e+05   9.454561e+05
  -5.574879e+05   8.132685e+04
  -4.486482e+05  -3.630681e+05
  -1.467033e+05  -1.288231e+05
  -5.285790e+04   8.962758e+04
  -3.015423e+05  -2.970002e+05
  -5.214412e+05  -9.481906e+05
  -1.809803e+05  -1.054900e+06
   7.202529e+05  -3.939058e+05
   1.452269e+06   4.383301e+05
   1.249681e+06   8.073410e+05
   1.883541e+05   6.886203e+05
  -8.160315e+05   4.251000e+05
  -9.588502e+05   1.851101e+05
  -3.707017e+05  -5.768009e+04
   1.328720e+05  -2.256858e+05
   5.409564e+04  -1.918977e+05
  -2.382838e+05  -7.683641e+04
  -6.116568e+04  -1.285731e+05
   6.213443e+05  -2.516901e+05
   1.033388e+06  -1.391555e+04
   4.740803e+05   6.773867e+05
  -7.839519e+05   1.188768e+06
  -1.676546e+06   7.937717e+05
  -1.428384e+06  -3.840244e+05
  -3.067412e+05  -1.374789e+06
   7.368030e+05  -1.377325e+06
   1.023754e+06  -5.673547e+05
   6.457763e+05   2.017997e+05
   1.499629e+05   3.506858e+05
  -4.492308e+04   8.203404e+04
   8.851160e+04  -1.765445e+02
   2.904353e+05   3.649050e+05
   2.477747e+05   7.917519e+05
  -1.576112e+05   6.782588e+05
  -6.676895e+05  -8.669103e+04
  -7.638695e+05  -9.029594e+05
  -1.667455e+05  -1.016021e+06
   7.189234e+05  -2.871222e+05
   1.043762e+06   6.615317e+05
   3.856156e+05   1.066702e+06
  -6.825246e+05   7.038667e+05
  -1.117213e+06  -4.047555e+04
  -5.534027e+05  -6.104934e+05
   2.693090e+05  -6.999640e+05
   3.886645e+05  -3.771640e+05
  -2.180959e+05   6.012702e+03
  -6.320695e+05   5.718767e+04
  -1.603009e+05  -3.050435e+05
   7.984537e+05  -6.830230e+05
   1.251364e+06  -5.401555e+05
   7.811616e+05   1.781992e+05
  -7.307959e+04   8.688997e+05
  -5.477553e+05   8.668308e+05
  -4.417014e+05   1.887172e+05
  -7.787670e+04  -4.595268e+05
   2.202194e+05  -4.489110e+05
   3.483460e+05   1.127411e+05
   2.677364e+05   5.617710e+05
  -3.483831e+04   4.442596e+05
  -3.871238e+05  -2.389327e+04
  -4.840744e+05  -2.821138e+05
  -2.417087e+05  -1.045778e+05
   5.015459e+04   1.660749e+05
   8.370503e+04   8.057788e+04
  -5.431918e+04  -3.313923e+05
  -1.365330e+04  -5.695063e+05
   2.922461e+05  -2.683116e+05
   4.935367e+05   3.318029e+05
   2.151752e+05   6.293945e+05
  -3.811795e+05   3.325393e+05
  -6.784111e+05  -2.411811e+05
  -2.776820e+05  -5.480372e+05
   4.983803e+05  -3.770284e+05
   8.866932e+05   3.991052e+04
   4.894398e+05   3.590510e+05
  -2.787718e+05   4.214134e+05
  -6.303740e+05   2.653031e+05
  -2.666871e+05   2.916112e+04
   3.102018e+05  -9.694277e+04
   3.914079e+05   2.294058e+04
  -1.347018e+05   2.733307e+05
  -6.863334e+05   2.874301e+05
