
 $NMID
 id='ANONYMOUS ', fmtdat='(2E16.6)'
 volume=1.0
 tramp=1.0
 $END
  -3.798265e+07   5.724606e+05
  -2.436926e+07  -2.040466e+07
   2.233944e+06  -2.493361e+07
   1.732379e+07  -1.310568e+07
   1.242634e+07   1.445916e+06
  -6.167945e+05   6.564821e+06
  -7.126827e+06   1.383618e+06
  -3.914267e+06  -6.275079e+06
   2.854541e+06  -8.401339e+06
   6.759508e+06  -3.106704e+06
   5.524245e+06   4.464196e+06
   7.905506e+05   6.883253e+06
  -3.166689e+06   1.821087e+06
  -2.465948e+06  -5.092333e+06
   2.269694e+06  -6.136042e+06
   5.847235e+06  -6.129388e+03
   3.992106e+06   7.122239e+06
  -1.992859e+06   8.763180e+06
  -6.986739e+06   4.373261e+06
  -7.397783e+06  -1.676155e+06
  -3.904991e+06  -5.156200e+06
  -2.784831e+04  -5.044837e+06
   1.051829e+06  -3.195355e+06
  -7.811641e+05  -2.290555e+06
  -2.175104e+06  -3.377414e+06
   3.069079e+05  -4.661640e+06
   5.615816e+06  -3.438051e+06
   8.437176e+06   3.886390e+05
   5.285899e+06   3.737883e+06
  -9.062569e+05   3.842452e+06
  -4.062685e+06   1.233574e+06
  -1.954121e+06  -1.354373e+06
   2.042773e+06  -1.887721e+06
   3.689344e+06  -1.527036e+05
   2.195927e+06   2.617784e+06
  -3.686381e+05   4.147460e+06
  -1.892654e+06   2.567268e+06
  -1.616378e+06  -1.006178e+06
  -1.999393e+05  -2.614828e+06
   6.473512e+05  -1.507464e+05
  -3.622402e+05   3.136250e+06
  -2.214546e+06   2.386453e+06
  -2.199027e+06  -2.017952e+06
   6.796584e+05  -4.370417e+06
   3.767974e+06  -1.137146e+06
   3.426869e+06   4.227774e+06
  -7.178532e+05   5.676599e+06
  -5.135989e+06   1.846983e+06
  -5.906784e+06  -3.121702e+06
  -2.333626e+06  -4.882055e+06
   2.616532e+06  -2.863301e+06
   4.900028e+06   5.097526e+05
   2.829037e+06   2.532037e+06
  -1.338569e+06   1.992273e+06
  -3.468448e+06  -2.091888e+05
  -1.814915e+06  -1.746684e+06
   1.131334e+06  -1.103932e+06
   1.741557e+06   6.719882e+05
  -3.273863e+05   1.229315e+06
  -1.966555e+06  -1.311221e+05
  -7.285170e+05  -1.726537e+06
   2.227970e+06  -1.713279e+06
   3.728704e+06   5.135513e+04
   2.097363e+06   2.454439e+06
  -1.527924e+06   4.169986e+06
  -4.612148e+06   3.918035e+06
  -5.252976e+06   1.105158e+06
  -3.354820e+06  -2.890474e+06
  -5.783149e+05  -5.171756e+06
   1.052017e+06  -4.248948e+06
   1.008704e+06  -1.860478e+06
   6.055844e+05  -7.512217e+05
   1.208253e+06  -1.193886e+06
   2.484128e+06  -1.076824e+06
   2.896685e+06   7.420570e+05
   1.617177e+06   2.675995e+06
  -5.889260e+05   2.482903e+06
  -2.153076e+06   6.988517e+04
  -1.905299e+06  -2.456345e+06
   1.755672e+05  -2.997971e+06
   2.727612e+06  -1.220628e+06
   3.733528e+06   1.467397e+06
   2.308464e+06   3.186810e+06
  -1.901512e+05   3.070033e+06
  -1.570486e+06   1.866133e+06
  -1.405619e+06   1.002587e+06
  -1.378143e+06   9.550990e+05
  -2.713055e+06   8.151041e+05
  -4.180466e+06  -4.199039e+05
  -3.491865e+06  -2.497815e+06
  -2.767802e+05  -4.071445e+06
   3.194003e+06  -3.925345e+06
   4.298373e+06  -1.936060e+06
   2.570697e+06   7.568367e+05
  -1.031048e+05   2.354814e+06
  -1.385243e+06   1.764889e+06
  -5.222116e+05  -1.684888e+05
   1.182281e+06  -1.258219e+06
   1.792461e+06  -3.794848e+05
   7.446132e+05   1.118499e+06
  -6.279001e+05   1.138086e+06
  -6.811464e+05  -3.291537e+05
   6.519227e+05  -1.096773e+06
   1.848134e+06   3.508717e+05
   1.480736e+06   2.826482e+06
  -4.499779e+05   3.793852e+06
  -2.700321e+06   2.174406e+06
  -3.798784e+06  -7.442711e+05
  -2.968979e+06  -2.817158e+06
  -7.099226e+05  -2.914830e+06
   1.335277e+06  -1.542968e+06
   1.669471e+06  -1.742317e+05
   4.992827e+05   3.749164e+04
  -3.874899e+05  -7.397057e+05
   2.926983e+05  -1.254425e+06
   1.714682e+06  -6.082111e+05
   1.971386e+06   6.734805e+05
   5.091797e+05   1.277549e+06
  -1.115844e+06   6.584788e+05
  -1.052426e+06  -4.128204e+05
   7.302619e+05  -7.850276e+05
   2.405397e+06  -3.576792e+04
   2.167371e+06   1.310209e+06
  -6.213762e+03   2.243123e+06
  -2.326369e+06   1.927501e+06
  -2.836585e+06   4.049334e+05
  -1.237222e+06  -1.161244e+06
   8.293928e+05  -1.392165e+06
   1.401882e+06  -1.877702e+05
   1.353933e+05   9.960400e+05
  -1.478015e+06   7.443071e+05
  -1.765868e+06  -6.658509e+05
  -5.324424e+05  -1.637699e+06
   9.477829e+05  -1.165186e+06
   1.319601e+06   9.402176e+04
   4.064143e+05   7.172835e+05
  -7.101346e+05   1.029178e+05
  -7.272492e+05  -1.020023e+06
   5.898916e+05  -1.422422e+06
   2.030193e+06  -5.369723e+05
   2.049275e+06   1.043616e+06
   4.320819e+05   2.060147e+06
  -1.357106e+06   1.688656e+06
  -1.712664e+06   3.134486e+05
  -5.914507e+05  -8.307686e+05
   6.103808e+05  -8.689928e+05
   7.275223e+05  -8.654395e+04
  -3.219838e+04   5.236310e+05
  -6.149358e+05   3.902180e+05
  -3.838012e+05  -9.999431e+04
   3.175649e+05  -1.525227e+05
   6.137492e+05   4.845772e+05
  -5.103067e+04   1.171622e+06
  -1.327551e+06   9.750750e+05
  -2.115062e+06  -3.433644e+05
  -1.520275e+06  -1.922840e+06
   1.652429e+05  -2.495982e+06
   1.624928e+06  -1.591538e+06
   1.837312e+06  -7.131201e+03
   1.076068e+06   9.968573e+05
   4.014220e+05   9.257081e+05
   3.518696e+05   3.833280e+05
   4.718279e+05   2.438841e+05
   8.350778e+04   6.619283e+05
  -8.113012e+05   9.663965e+05
  -1.494955e+06   4.595778e+05
  -1.212634e+06  -7.363696e+05
   1.314757e+05  -1.632077e+06
   1.738060e+06  -1.237741e+06
   2.356701e+06   4.058757e+05
   1.288562e+06   2.077750e+06
  -8.377095e+05   2.417074e+06
  -2.458523e+06   1.203321e+06
  -2.470613e+06  -4.684745e+05
  -1.204774e+06  -1.327316e+06
   7.430839e+04  -1.135123e+06
   5.005715e+05  -6.887890e+05
   2.825565e+05  -7.536315e+05
   1.867983e+05  -1.198361e+06
   6.171891e+05  -1.222557e+06
   1.239691e+06  -3.181803e+05
   1.352672e+06   1.084535e+06
   5.907498e+05   1.925594e+06
  -6.215389e+05   1.477737e+06
  -1.322856e+06   5.533285e+04
  -8.935472e+05  -1.221971e+06
   2.599531e+05  -1.416578e+06
   1.048417e+06  -5.624841e+05
   8.220885e+05   4.979262e+05
   3.065777e+04   9.860981e+05
  -3.585306e+05   8.278766e+05
  -6.842185e+03   4.924114e+05
   4.176742e+05   3.702505e+05
   4.909433e+04   4.047772e+05
  -1.104881e+06   2.605517e+05
  -2.023880e+06  -2.583312e+05
  -1.666762e+06  -9.604561e+05
  -9.572003e+04  -1.380150e+06
   1.470308e+06  -1.158790e+06
   1.812355e+06  -3.989620e+05
   8.954730e+05   3.446825e+05
  -1.991202e+05   5.189433e+05
  -4.816244e+05   1.017870e+05
   3.831128e+03  -3.458670e+05
   4.907926e+05  -2.484561e+05
   4.810348e+05   3.415840e+05
   1.716343e+05   7.626198e+05
   1.219434e+04   4.950923e+05
   1.481239e+05  -1.699414e+05
   3.550739e+05  -3.927278e+05
   3.050563e+05   2.188721e+05
  -1.726487e+05   1.044151e+06
  -8.893875e+05   1.086296e+06
  -1.267107e+06   1.376259e+05
  -7.690892e+05  -9.207824e+05
   4.017530e+05  -1.075630e+06
   1.209200e+06  -2.711660e+05
   7.448924e+05   6.024919e+05
  -6.765889e+05   6.964185e+05
  -1.667764e+06  -7.009771e+03
  -1.179449e+06  -8.314918e+05
   3.736604e+05  -1.102998e+06
   1.546983e+06  -6.635690e+05
   1.355106e+06   9.320015e+04
   2.005963e+05   5.462721e+05
  -6.463953e+05   3.370799e+05
  -3.669612e+05  -2.622584e+05
   6.351853e+05  -4.993692e+05
   1.204617e+06   1.328192e+05
   6.223059e+05   1.235917e+06
  -6.770181e+05   1.720544e+06
  -1.556616e+06   8.706070e+05
  -1.299438e+06  -7.925773e+05
  -2.273465e+05  -1.862498e+06
   7.402462e+05  -1.397844e+06
   9.741058e+05   1.046612e+05
   5.296820e+05   1.211795e+06
  -1.283806e+05   1.047995e+06
  -5.540095e+05   1.310243e+05
  -5.458766e+05  -3.936152e+05
  -2.353246e+05  -1.586982e+05
  -2.373175e+04   1.188988e+05
  -2.023856e+05  -2.564490e+05
  -5.092988e+05  -9.688903e+05
  -2.939543e+05  -1.123024e+06
   6.421516e+05  -4.341798e+05
   1.543799e+06   4.549482e+05
   1.408819e+06   8.392657e+05
   2.125098e+05   7.021439e+05
  -9.352271e+05   4.415161e+05
  -1.035552e+06   2.299259e+05
  -3.206861e+05  -1.172046e+04
   1.704525e+05  -2.290008e+05
  -3.942956e+04  -2.477659e+05
  -3.519604e+05  -1.337986e+05
  -2.450466e+04  -1.415258e+05
   7.605297e+05  -2.248153e+05
   1.069156e+06   2.032273e+04
   3.440709e+05   6.956854e+05
  -9.232167e+05   1.179615e+06
  -1.690253e+06   7.453621e+05
  -1.366668e+06  -4.694220e+05
  -2.719655e+05  -1.457740e+06
   7.527844e+05  -1.401208e+06
   1.072884e+06  -5.172722e+05
   6.889090e+05   2.717701e+05
   1.106879e+05   3.664619e+05
  -1.351736e+05   2.704795e+04
   5.928366e+04  -6.725022e+04
   3.475433e+05   3.525144e+05
   2.936766e+05   8.283440e+05
  -1.909685e+05   6.863137e+05
  -7.173051e+05  -1.637567e+05
  -7.310366e+05  -1.017584e+06
  -5.490799e+04  -1.053692e+06
   8.142072e+05  -1.989382e+05
   1.052392e+06   7.906903e+05
   3.271497e+05   1.114164e+06
  -7.375270e+05   6.561904e+05
  -1.119181e+06  -8.361154e+04
  -5.154800e+05  -5.791186e+05
   2.836952e+05  -6.406710e+05
   3.318811e+05  -3.679692e+05
  -3.145601e+05  -2.885400e+04
  -6.838384e+05   3.845897e+04
  -1.336045e+05  -3.039835e+05
   8.415758e+05  -7.164464e+05
   1.238147e+06  -6.146358e+05
   7.264947e+05   1.277885e+05
  -9.484104e+04   8.720515e+05
  -5.068553e+05   8.622641e+05
  -3.777257e+05   1.277981e+05
  -2.976252e+04  -5.172253e+05
   2.528330e+05  -4.188891e+05
   3.680305e+05   1.997424e+05
   2.595896e+05   5.933947e+05
  -6.437614e+04   3.924180e+05
  -4.008568e+05  -6.471652e+04
  -4.735386e+05  -2.471363e+05
  -2.495397e+05  -6.372385e+04
   9.886277e+03   1.133068e+05
   8.352398e+04  -4.151068e+04
   5.618291e+04  -3.983906e+05
   1.494620e+05  -5.105076e+05
   3.602667e+05  -1.332176e+05
   4.069535e+05   4.486013e+05
   7.558867e+04   6.744076e+05
  -4.436733e+05   3.024956e+05
  -6.522078e+05  -3.157610e+05
  -2.407669e+05  -6.088551e+05
   5.028116e+05  -3.734656e+05
   8.783880e+05   9.239090e+04
   4.813663e+05   3.851533e+05
  -2.987329e+05   3.759025e+05
  -6.419205e+05   1.932581e+05
  -2.169720e+05   1.251760e+04
   4.130039e+05  -3.302950e+04
   4.432583e+05   1.188792e+05
  -2.159097e+05   3.366337e+05
  -8.382851e+05   2.860276e+05
