
 $NMID
 id='ANONYMOUS ', fmtdat='(2E16.6)'
 volume=1.0
 tramp=1.0
 $END
  -2.306238e+07  -2.975776e+05
  -1.351502e+07  -1.454133e+07
   3.559975e+06  -1.556616e+07
   1.157378e+07  -5.656305e+06
   6.631370e+06   3.335331e+06
  -1.700839e+06   4.194003e+06
  -4.343375e+06  -4.042656e+05
  -1.264846e+06  -4.210257e+06
   2.635542e+06  -4.090978e+06
   4.149343e+06  -7.962003e+05
   2.917079e+06   2.889908e+06
   9.006256e+04   3.850893e+06
  -2.035682e+06   1.116090e+06
  -1.345284e+06  -2.461725e+06
   1.487759e+06  -2.806349e+06
   3.178305e+06   6.018135e+05
   1.624114e+06   4.150843e+06
  -1.768333e+06   4.532248e+06
  -4.164096e+06   1.986109e+06
  -4.238986e+06  -1.163859e+06
  -2.451128e+06  -3.210383e+06
  -2.637023e+04  -3.555690e+06
   1.446208e+06  -2.358299e+06
   9.323061e+05  -8.463560e+05
  -4.762716e+05  -6.410639e+05
  -2.578590e+05  -1.685467e+06
   2.173659e+06  -1.973032e+06
   4.146442e+06  -2.968256e+05
   3.102328e+06   1.898143e+06
   7.329056e+04   2.479596e+06
  -1.800323e+06   1.347468e+06
  -1.284191e+06   1.044040e+04
   1.576630e+05  -5.457130e+05
   9.314874e+05  -2.800604e+05
   8.022932e+05   6.646781e+05
   6.521672e+04   1.679468e+06
  -9.447468e+05   1.459848e+06
  -1.402424e+06  -3.052347e+05
  -6.598504e+05  -1.686800e+06
   4.027897e+05  -8.170729e+05
   2.181728e+05   1.034282e+06
  -9.546930e+05   8.905469e+05
  -9.842981e+05  -1.408583e+06
   9.810501e+05  -2.543274e+06
   2.840740e+06  -3.853141e+05
   2.145026e+06   2.825995e+06
  -6.930537e+05   3.441665e+06
  -2.977931e+06   1.013134e+06
  -2.843566e+06  -1.709756e+06
  -7.623644e+05  -2.403950e+06
   1.462177e+06  -1.152057e+06
   2.191418e+06   6.163099e+05
   9.257737e+05   1.572298e+06
  -1.168919e+06   1.064171e+06
  -2.012084e+06  -4.149154e+05
  -8.125877e+05  -1.327517e+06
   7.979942e+05  -6.966132e+05
   7.782535e+05   4.890476e+05
  -5.698613e+05   4.905370e+05
  -1.078356e+06  -7.336759e+05
   2.174778e+05  -1.495506e+06
   1.868600e+06  -7.788139e+05
   2.105742e+06   6.293867e+05
   8.650505e+05   1.619710e+06
  -7.736751e+05   2.011832e+06
  -2.015852e+06   1.820325e+06
  -2.470847e+06   6.329321e+05
  -1.807339e+06  -1.323389e+06
  -2.936559e+05  -2.546348e+06
   8.815440e+05  -1.909077e+06
   7.956335e+05  -3.494740e+05
   1.631315e+04   2.663781e+05
  -1.560164e+05  -3.772012e+05
   5.593852e+05  -8.623699e+05
   1.199908e+06  -2.265493e+05
   9.566974e+05   8.059274e+05
   5.693830e+04   1.010198e+06
  -7.286132e+05   1.874241e+05
  -8.115304e+05  -8.653701e+05
  -2.903989e+04  -1.287072e+06
   1.190366e+06  -7.244672e+05
   1.855761e+06   5.188676e+05
   1.253228e+06   1.584842e+06
  -1.062205e+05   1.705020e+06
  -9.639195e+05   1.006475e+06
  -8.802024e+05   3.524717e+05
  -6.862301e+05   2.316824e+05
  -1.119994e+06   2.214836e+05
  -1.686265e+06  -2.516702e+05
  -1.382520e+06  -1.073035e+06
  -1.066465e+05  -1.652708e+06
   1.218286e+06  -1.597593e+06
   1.689019e+06  -8.953795e+05
   1.160455e+06   1.692483e+05
   1.616543e+05   9.686831e+05
  -5.139827e+05   8.534892e+05
  -3.343970e+05  -2.919193e+04
   4.348614e+05  -6.258403e+05
   8.694163e+05  -2.195187e+05
   4.402979e+05   5.537490e+05
  -2.601876e+05   5.772247e+05
  -2.864973e+05  -1.096286e+05
   3.555135e+05  -3.578789e+05
   7.374931e+05   4.026293e+05
   2.810113e+05   1.341170e+06
  -6.011485e+05   1.369901e+06
  -1.205402e+06   4.598251e+05
  -1.285179e+06  -5.752373e+05
  -9.174535e+05  -1.103470e+06
  -2.123052e+05  -1.039415e+06
   4.970245e+05  -5.784115e+05
   6.652320e+05  -7.495992e+04
   2.043395e+05   4.090972e+04
  -1.910255e+05  -3.029690e+05
   1.219164e+05  -5.887743e+05
   7.982809e+05  -3.030100e+05
   9.191583e+05   3.393227e+05
   2.417005e+05   6.474967e+05
  -4.765931e+05   3.585767e+05
  -4.549899e+05  -1.012438e+05
   2.232323e+05  -2.347770e+05
   8.199450e+05   2.788504e+04
   7.321032e+05   4.617922e+05
  -3.260644e+04   7.877191e+05
  -9.004562e+05   7.129667e+05
  -1.147302e+06   1.326756e+05
  -5.258753e+05  -5.495581e+05
   3.884833e+05  -6.655313e+05
   6.925465e+05  -8.910072e+04
   1.283984e+05   4.873427e+05
  -6.248467e+05   3.641392e+05
  -7.500564e+05  -2.948989e+05
  -1.812780e+05  -7.110951e+05
   4.529503e+05  -4.671923e+05
   5.799382e+05   8.729742e+04
   1.845567e+05   3.548076e+05
  -2.910869e+05   1.227404e+05
  -3.510774e+05  -3.360133e+05
   1.391790e+05  -5.615742e+05
   7.544230e+05  -2.718356e+05
   8.317132e+05   3.755744e+05
   1.870122e+05   8.421517e+05
  -5.862739e+05   6.953830e+05
  -7.477567e+05   8.416476e+04
  -2.546627e+05  -4.076249e+05
   2.652955e+05  -4.032802e+05
   3.218453e+05  -7.747569e+04
   4.783303e+04   1.627763e+05
  -1.410872e+05   1.535864e+05
  -7.392414e+04   4.534233e+04
   1.025186e+05   4.961203e+04
   1.532684e+05   2.245944e+05
  -7.049342e+04   4.161355e+05
  -5.052190e+05   3.439216e+05
  -8.058809e+05  -1.313396e+05
  -5.927308e+05  -7.450598e+05
   7.835346e+04  -9.758188e+05
   6.579683e+05  -5.921263e+05
   6.952304e+05   4.984845e+04
   3.488865e+05   3.983657e+05
   1.111801e+05   3.106219e+05
   1.525646e+05   1.082101e+05
   1.985473e+05   1.003406e+05
   2.626004e+03   2.485120e+05
  -3.281920e+05   3.044506e+05
  -5.092001e+05   1.116158e+05
  -3.658773e+05  -2.589588e+05
   8.555684e+04  -5.383868e+05
   6.300327e+05  -4.170867e+05
   8.699737e+05   1.595036e+05
   4.901215e+05   8.012684e+05
  -3.394520e+05   9.496850e+05
  -9.874042e+05   4.568587e+05
  -9.664384e+05  -2.238751e+05
  -4.321399e+05  -5.354925e+05
   5.422996e+04  -4.079844e+05
   1.665230e+05  -2.279366e+05
   6.158678e+04  -3.005610e+05
   5.896317e+04  -5.088317e+05
   2.624551e+05  -5.080433e+05
   5.072247e+05  -1.325791e+05
   5.416034e+05   4.232529e+05
   2.421522e+05   7.576232e+05
  -2.378499e+05   5.913683e+05
  -5.240511e+05   2.977168e+04
  -3.514298e+05  -4.862418e+05
   1.208302e+05  -5.603995e+05
   4.334859e+05  -2.023294e+05
   3.210223e+05   2.248830e+05
  -1.010809e+04   4.013492e+05
  -1.610572e+05   3.233484e+05
  -1.756378e+04   1.918208e+05
   1.447465e+05   1.422994e+05
   4.381235e+03   1.415463e+05
  -4.261765e+05   7.839251e+04
  -7.723869e+05  -1.120269e+05
  -6.435494e+05  -3.763875e+05
  -4.043357e+04  -5.467927e+05
   5.820127e+05  -4.618977e+05
   7.270731e+05  -1.474954e+05
   3.570635e+05   1.540255e+05
  -8.654479e+04   2.055504e+05
  -1.881278e+05   2.550445e+04
   1.971016e+04  -1.354768e+05
   2.035528e+05  -7.372147e+04
   1.772326e+05   1.515730e+05
   5.358595e+04   2.945230e+05
   6.128820e+03   1.939148e+05
   5.508301e+04  -4.288976e+04
   1.101463e+05  -1.359676e+05
   8.501302e+04   6.191617e+04
  -6.995387e+04   3.609749e+05
  -3.189670e+05   4.013317e+05
  -4.698518e+05   6.533649e+04
  -2.959981e+05  -3.426778e+05
   1.526365e+05  -4.140501e+05
   4.670249e+05  -1.002560e+05
   2.783312e+05   2.404341e+05
  -2.773285e+05   2.577039e+05
  -6.423102e+05  -3.435649e+04
  -4.276949e+05  -3.395364e+05
   1.726287e+05  -4.089076e+05
   6.025758e+05  -2.244399e+05
   5.131778e+05   5.229389e+04
   7.011216e+04   2.120345e+05
  -2.552138e+05   1.327164e+05
  -1.540801e+05  -9.708443e+04
   2.330360e+05  -1.971530e+05
   4.639941e+05   4.248944e+04
   2.428567e+05   4.750654e+05
  -2.687693e+05   6.639830e+05
  -6.113750e+05   3.246579e+05
  -4.956456e+05  -3.236791e+05
  -6.558209e+04  -7.242995e+05
   3.018327e+05  -5.289872e+05
   3.732737e+05   5.109593e+04
   1.947589e+05   4.687261e+05
  -5.076589e+04   4.027999e+05
  -2.075330e+05   5.305658e+04
  -2.067703e+05  -1.485370e+05
  -9.323732e+04  -5.932918e+04
  -1.546877e+04   4.967189e+04
  -8.458797e+04  -9.588721e+04
  -1.981636e+05  -3.804108e+05
  -1.067616e+05  -4.466423e+05
   2.573488e+05  -1.701461e+05
   5.973310e+05   1.909102e+05
   5.352298e+05   3.403699e+05
   7.282538e+04   2.700402e+05
  -3.644931e+05   1.562790e+05
  -4.008402e+05   7.807005e+04
  -1.241868e+05  -7.443391e+03
   7.187623e+04  -9.085092e+04
  -2.149422e+03  -9.817411e+04
  -1.274586e+05  -4.715405e+04
  -1.381659e+04  -4.369587e+04
   2.849404e+05  -7.910202e+04
   4.109728e+05   7.889883e+03
   1.339479e+05   2.654744e+05
  -3.620109e+05   4.513854e+05
  -6.599707e+05   2.803812e+05
  -5.237985e+05  -1.888299e+05
  -9.197381e+04  -5.619663e+05
   2.962462e+05  -5.318064e+05
   4.066471e+05  -1.939624e+05
   2.585795e+05   1.003253e+05
   4.630459e+04   1.338727e+05
  -4.443547e+04   8.612954e+03
   2.459565e+04  -2.415294e+04
   1.322790e+05   1.361601e+05
   1.151579e+05   3.204055e+05
  -6.986884e+04   2.699186e+05
  -2.764024e+05  -5.849008e+04
  -2.830087e+05  -3.943436e+05
  -1.881322e+04  -4.100142e+05
   3.161010e+05  -7.308797e+04
   4.010840e+05   3.134036e+05
   1.178936e+05   4.317423e+05
  -2.868959e+05   2.465600e+05
  -4.280929e+05  -3.694805e+04
  -1.980473e+05  -2.201883e+05
   1.045399e+05  -2.437975e+05
   1.243504e+05  -1.475853e+05
  -1.193835e+05  -2.268405e+04
  -2.597503e+05   7.360529e+03
  -4.760067e+04  -1.167547e+05
   3.318513e+05  -2.714687e+05
   4.874419e+05  -2.314534e+05
   2.840465e+05   5.434605e+04
  -4.294453e+04   3.391632e+05
  -2.031306e+05   3.319918e+05
  -1.444939e+05   4.777643e+04
  -4.673706e+03  -1.981177e+05
   9.928134e+04  -1.572192e+05
   1.365871e+05   8.101863e+04
   9.501709e+04   2.303632e+05
  -2.565213e+04   1.507004e+05
  -1.547952e+05  -2.738984e+04
  -1.847937e+05  -9.937048e+04
  -9.720807e+04  -2.847761e+04
   6.810266e+03   4.240985e+04
   3.695637e+04  -1.435230e+04
   2.485473e+04  -1.504997e+05
   5.848622e+04  -1.931306e+05
   1.371224e+05  -4.778735e+04
   1.519143e+05   1.740391e+05
   2.361366e+04   2.567011e+05
  -1.717911e+05   1.111615e+05
  -2.462574e+05  -1.246039e+05
  -8.712491e+04  -2.331801e+05
   1.952092e+05  -1.401591e+05
   3.369929e+05   3.944226e+04
   1.841348e+05   1.514070e+05
  -1.167999e+05   1.455168e+05
  -2.505598e+05   7.190270e+04
  -8.600869e+04   2.066879e+03
   1.597367e+05  -1.125431e+04
   1.714337e+05   4.991724e+04
  -8.639176e+04   1.291869e+05
  -3.273167e+05   1.025360e+05
