
 $NMID
 id='ANONYMOUS ', fmtdat='(2E16.6)'
 volume=1.0
 tramp=1.0
 $END
   2.069669e+07   1.480473e+05
   1.379608e+07   9.884334e+06
  -1.285028e+05   1.316716e+07
  -9.067764e+06   8.640889e+06
  -7.573952e+06   7.760809e+05
  -4.354526e+05  -3.762878e+06
   4.254530e+06  -1.841727e+06
   3.165552e+06   3.378768e+06
  -1.038077e+06   5.743755e+06
  -3.937748e+06   2.540211e+06
  -3.363392e+06  -2.728133e+06
  -3.912511e+05  -4.383189e+06
   2.029721e+06  -8.946931e+05
   1.586016e+06   3.649176e+06
  -1.260228e+06   4.274786e+06
  -3.513767e+06   3.804309e+05
  -2.581567e+06  -4.124318e+06
   9.753516e+05  -5.201374e+06
   4.003160e+06  -2.449574e+06
   4.043498e+06   1.236843e+06
   1.694894e+06   2.932402e+06
  -3.176618e+05   2.285920e+06
  -9.663174e+04   1.239613e+06
   1.514975e+06   1.590060e+06
   1.865825e+06   3.015041e+06
  -5.909445e+05   3.561927e+06
  -4.259718e+06   1.962484e+06
  -5.649933e+06  -8.560808e+05
  -3.072192e+06  -2.701363e+06
   1.196467e+06  -2.282758e+06
   3.102385e+06  -2.559290e+05
   1.155947e+06   1.559174e+06
  -2.113147e+06   1.645905e+06
  -3.223164e+06  -1.594502e+05
  -1.495220e+06  -2.427274e+06
   8.065308e+05  -3.071374e+06
   1.467234e+06  -1.318714e+06
   5.120424e+05   1.095545e+06
  -4.913246e+05   1.491564e+06
  -3.922657e+05  -5.844413e+05
   6.425866e+05  -2.517753e+06
   1.593701e+06  -1.705948e+06
   1.468166e+06   1.083211e+06
   7.299246e+04   2.524016e+06
  -1.568429e+06   8.223260e+05
  -1.774928e+06  -2.121086e+06
   1.843715e+05  -3.048519e+06
   2.911734e+06  -1.016103e+06
   3.833737e+06   1.925252e+06
   1.759368e+06   3.195774e+06
  -1.666268e+06   2.079679e+06
  -3.433796e+06  -1.242134e+05
  -2.155369e+06  -1.571852e+06
   6.196192e+05  -1.352973e+06
   2.128996e+06  -3.592534e+04
   1.236101e+06   9.526112e+05
  -6.281040e+05   6.795296e+05
  -1.254656e+06  -4.061283e+05
  -9.746187e+04  -1.021928e+06
   1.263785e+06  -4.721773e+05
   1.021894e+06   6.522482e+05
  -7.573729e+05   1.153252e+06
  -2.138928e+06   3.757172e+05
  -1.397488e+06  -1.266708e+06
   1.112445e+06  -2.576946e+06
   3.306159e+06  -2.366704e+06
   3.485232e+06  -4.188032e+05
   1.891351e+06   2.079523e+06
   1.440732e+05   3.392327e+06
  -5.755301e+05   2.876187e+06
  -5.148410e+05   1.580293e+06
  -6.501851e+05   9.012303e+05
  -1.389587e+06   8.889810e+05
  -2.159740e+06   4.186369e+05
  -2.094832e+06  -1.003115e+06
  -9.222131e+05  -2.269067e+06
   7.440236e+05  -1.901843e+06
   1.791277e+06   7.794812e+04
   1.388066e+06   1.990353e+06
  -2.877605e+05   2.192028e+06
  -1.994975e+06   6.389669e+05
  -2.381242e+06  -1.270946e+06
  -1.243345e+06  -2.150095e+06
   2.679054e+05  -1.780700e+06
   9.124282e+05  -9.967579e+05
   7.333013e+05  -6.497868e+05
   8.606206e+05  -7.645866e+05
   1.912069e+06  -6.431443e+05
   2.962939e+06   2.956473e+05
   2.466305e+06   1.813408e+06
   1.370025e+05   2.942509e+06
  -2.428760e+06   2.761209e+06
  -3.218964e+06   1.202061e+06
  -1.801705e+06  -7.532147e+05
   2.934558e+05  -1.742818e+06
   1.163448e+06  -1.167208e+06
   3.549432e+05   1.879819e+05
  -9.293929e+05   8.548606e+05
  -1.265256e+06   2.166409e+05
  -4.394548e+05  -7.954767e+05
   5.317080e+05  -8.131272e+05
   5.829422e+05   2.397096e+05
  -3.514215e+05   9.383159e+05
  -1.343428e+06   5.474313e+04
  -1.326471e+06  -1.852395e+06
   2.248655e+03  -2.907425e+06
   1.871039e+06  -1.917587e+06
   2.935912e+06   3.885430e+05
   2.338192e+06   2.164696e+06
   5.227882e+05   2.256752e+06
  -1.051195e+06   1.107184e+06
  -1.248963e+06   5.405335e+04
  -3.630674e+05  -3.866981e+04
   2.705389e+05   5.422263e+05
  -1.989639e+05   8.671998e+05
  -1.182727e+06   4.054302e+05
  -1.386236e+06  -4.586512e+05
  -3.832794e+05  -8.862254e+05
   8.054849e+05  -4.797183e+05
   8.151279e+05   3.151991e+05
  -5.088246e+05   6.543998e+05
  -1.837819e+06   9.336901e+04
  -1.699692e+06  -1.000833e+06
  -2.166203e+04  -1.736208e+06
   1.751802e+06  -1.435510e+06
   2.091531e+06  -2.614783e+05
   8.711314e+05   8.346729e+05
  -6.023434e+05   9.403896e+05
  -9.558925e+05   9.722694e+04
  -4.416625e+04  -6.888855e+05
   1.074896e+06  -4.987242e+05
   1.278803e+06   4.869837e+05
   4.165515e+05   1.197465e+06
  -6.644113e+05   8.941534e+05
  -9.809358e+05  -1.897574e+04
  -3.397076e+05  -5.073108e+05
   4.818441e+05  -7.499981e+04
   4.923377e+05   7.445145e+05
  -4.737771e+05   1.009322e+06
  -1.491845e+06   3.253448e+05
  -1.455801e+06  -8.121296e+05
  -2.717322e+05  -1.496456e+06
   9.972562e+05  -1.201000e+06
   1.243460e+06  -2.190531e+05
   4.406438e+05   6.038438e+05
  -4.478438e+05   6.380702e+05
  -5.668722e+05   4.363247e+04
   6.500375e+03  -4.456820e+05
   5.098412e+05  -3.356320e+05
   3.803128e+05   1.028943e+05
  -1.854216e+05   1.971945e+05
  -4.725306e+05  -2.936732e+05
   7.238872e+03  -8.422396e+05
   9.672398e+05  -6.995627e+05
   1.533544e+06   2.819547e+05
   1.065122e+06   1.426950e+06
  -1.733853e+05   1.830840e+06
  -1.228968e+06   1.175820e+06
  -1.391611e+06   2.802923e+03
  -8.361020e+05  -7.979054e+05
  -2.918003e+05  -7.949200e+05
  -1.883582e+05  -3.520497e+05
  -2.717012e+05  -1.585775e+05
  -3.987617e+04  -4.388588e+05
   5.895989e+05  -7.029133e+05
   1.116121e+06  -3.426318e+05
   9.215682e+05   5.771744e+05
  -9.785552e+04   1.249205e+06
  -1.302759e+06   9.111183e+05
  -1.737757e+06  -3.330577e+05
  -9.344457e+05  -1.533576e+06
   6.066893e+05  -1.746972e+06
   1.781216e+06  -8.700309e+05
   1.825229e+06   3.350000e+05
   9.346209e+05   9.952239e+05
  -3.671124e+04   8.990879e+05
  -4.317078e+05   5.543530e+05
  -3.107026e+05   5.322412e+05
  -2.026045e+05   8.140869e+05
  -4.589240e+05   8.392277e+05
  -8.830780e+05   1.941183e+05
  -9.514209e+05  -8.260337e+05
  -3.830554e+05  -1.422674e+06
   4.938103e+05  -1.066197e+06
   9.742429e+05  -2.385298e+04
   6.445131e+05   8.857774e+05
  -1.761321e+05   1.027284e+06
  -7.302880e+05   4.429269e+05
  -5.881166e+05  -3.017754e+05
  -5.860243e+04  -6.796898e+05
   2.107430e+05  -6.103886e+05
  -1.135511e+04  -3.890477e+05
  -2.834715e+05  -2.941387e+05
  -1.834104e+04  -3.027071e+05
   7.890247e+05  -1.772710e+05
   1.439953e+06   2.154520e+05
   1.197994e+06   7.129693e+05
   8.494015e+04   9.800179e+05
  -1.047666e+06   8.034520e+05
  -1.315965e+06   2.853716e+05
  -6.657736e+05  -2.144600e+05
   1.324233e+05  -3.493175e+05
   3.398815e+05  -8.830108e+04
  -2.619225e+04   2.174477e+05
  -3.821718e+05   1.593806e+05
  -3.368794e+05  -2.612637e+05
  -6.510667e+04  -5.712873e+05
   4.230297e+04  -3.630247e+05
  -1.183473e+05   1.500281e+05
  -3.027741e+05   3.140230e+05
  -2.265713e+05  -1.622555e+05
   1.712067e+05  -7.728984e+05
   6.717692e+05  -7.661790e+05
   8.777853e+05  -4.629297e+04
   4.912001e+05   6.895896e+05
  -3.161623e+05   7.371537e+05
  -8.591755e+05   1.307956e+05
  -5.234101e+05  -4.711046e+05
   4.997839e+05  -5.035612e+05
   1.240516e+06   1.889827e+04
   9.027328e+05   6.261641e+05
  -2.575503e+05   8.371969e+05
  -1.162227e+06   5.119581e+05
  -1.031186e+06  -6.827198e+04
  -1.566970e+05  -4.160351e+05
   4.768908e+05  -2.536090e+05
   2.496327e+05   1.859965e+05
  -4.958393e+05   3.288042e+05
  -8.730644e+05  -1.578944e+05
  -3.858603e+05  -9.347820e+05
   5.834238e+05  -1.224832e+06
   1.182981e+06  -5.689261e+05
   9.301868e+05   6.300879e+05
   1.139343e+05   1.382619e+06
  -5.802069e+05   1.031487e+06
  -7.227878e+05  -7.406232e+04
  -3.885671e+05  -9.013218e+05
   8.473722e+04  -7.899500e+05
   4.004391e+05  -9.903592e+04
   4.179202e+05   3.103509e+05
   1.979822e+05   1.335507e+05
   9.592957e+03  -9.666291e+04
   1.014631e+05   1.708032e+05
   3.352484e+05   7.151924e+05
   2.238593e+05   8.417227e+05
  -4.423963e+05   3.124534e+05
  -1.129949e+06  -3.742157e+05
  -1.049013e+06  -6.539512e+05
  -1.434097e+05  -5.146043e+05
   7.279927e+05  -2.959251e+05
   7.789114e+05  -1.537184e+05
   2.115501e+05  -2.418724e+03
  -1.425695e+05   1.601367e+05
   5.648700e+04   2.025681e+05
   2.911547e+05   1.297542e+05
  -4.879330e+02   1.060977e+05
  -6.037891e+05   1.278354e+05
  -7.788118e+05  -5.588396e+04
  -1.784515e+05  -5.111375e+05
   7.452127e+05  -8.150108e+05
   1.234710e+06  -4.723417e+05
   9.418335e+05   4.025649e+05
   1.423208e+05   1.082977e+06
  -5.821026e+05   9.941163e+05
  -7.998977e+05   3.229576e+05
  -5.017153e+05  -2.404084e+05
  -5.449520e+04  -2.705654e+05
   1.308841e+05   7.563984e+03
  -3.471213e+04   7.326991e+04
  -2.624700e+05  -2.582752e+05
  -2.061629e+05  -6.165690e+05
   1.674027e+05  -4.893765e+05
   5.271357e+05   1.665880e+05
   4.825596e+05   7.913418e+05
  -3.146132e+04   7.683625e+05
  -6.231283e+05   8.548641e+04
  -7.342873e+05  -6.435466e+05
  -1.824391e+05  -8.238026e+05
   5.653528e+05  -4.318648e+05
   7.998309e+05   1.050788e+05
   3.410191e+05   4.152187e+05
  -2.236750e+05   4.288683e+05
  -2.251867e+05   2.532818e+05
   2.609907e+05   4.462477e+04
   5.106480e+05  -1.604334e+03
   7.779432e+04   2.202230e+05
  -6.390155e+05   5.039337e+05
  -9.001122e+05   4.381196e+05
  -4.978440e+05  -8.927977e+04
   9.863944e+04  -6.234008e+05
   3.694503e+05  -6.045569e+05
   2.478386e+05  -6.022391e+04
  -1.184655e+04   3.925036e+05
  -2.036868e+05   2.814589e+05
  -2.640640e+05  -1.865544e+05
  -1.670345e+05  -4.439634e+05
   6.615587e+04  -2.589645e+05
   2.899456e+05   7.266170e+04
   3.300435e+05   1.754871e+05
   1.813493e+05   3.651927e+04
   9.917800e+03  -6.012421e+04
  -6.404302e+04   7.461747e+04
  -9.468084e+04   3.070765e+05
  -1.813716e+05   3.352266e+05
  -2.843220e+05   3.257970e+04
  -2.439675e+05  -3.746470e+05
   1.786213e+04  -4.990890e+05
   3.490314e+05  -1.923743e+05
   4.474981e+05   2.709850e+05
   1.413149e+05   4.650511e+05
  -3.715790e+05   2.534467e+05
  -6.227920e+05  -1.085699e+05
  -3.314979e+05  -2.981972e+05
   2.302203e+05  -2.438472e+05
   4.676744e+05  -9.418759e+04
   1.363056e+05   1.658878e+03
  -3.348107e+05  -1.409717e+04
  -3.321998e+05  -1.347673e+05
   1.962436e+05  -2.580807e+05
   6.666723e+05  -1.792230e+05
