
 $NMID
 id='ANONYMOUS ', fmtdat='(2E16.6)'
 volume=1.0
 tramp=1.0
 $END
  -3.475699e+07   3.384901e+06
  -2.439652e+07  -1.700470e+07
  -6.176430e+04  -2.343777e+07
   1.537238e+07  -1.361510e+07
   1.210689e+07   5.059242e+05
  -1.622864e+04   6.327212e+06
  -6.764962e+06   1.789074e+06
  -4.159406e+06  -5.753644e+06
   2.276752e+06  -8.157067e+06
   6.237418e+06  -3.363318e+06
   5.375595e+06   3.779637e+06
   1.101557e+06   6.292197e+06
  -2.732215e+06   1.851466e+06
  -2.402148e+06  -4.581802e+06
   1.899219e+06  -5.849781e+06
   5.517882e+06  -3.725046e+05
   4.172668e+06   6.403817e+06
  -1.301654e+06   8.310075e+06
  -6.161943e+06   4.529053e+06
  -6.873774e+06  -9.982640e+05
  -3.947296e+06  -4.334109e+06
  -5.464199e+05  -4.526746e+06
   5.339965e+05  -3.160610e+06
  -8.487473e+05  -2.434011e+06
  -1.919728e+06  -3.239523e+06
   2.809975e+05  -4.234561e+06
   4.994914e+06  -3.210106e+06
   7.634919e+06   7.064302e+04
   4.953995e+06   3.101909e+06
  -6.066481e+05   3.370617e+06
  -3.524577e+06   1.146553e+06
  -1.634227e+06  -1.154266e+06
   1.979540e+06  -1.606244e+06
   3.378387e+06  -2.997405e+04
   1.947920e+06   2.398462e+06
  -2.866209e+05   3.724249e+06
  -1.544273e+06   2.393974e+06
  -1.389845e+06  -6.988851e+05
  -3.431230e+05  -2.199273e+06
   3.753270e+05  -1.375146e+05
  -3.734511e+05   2.819056e+06
  -2.012392e+06   2.269676e+06
  -2.206688e+06  -1.763110e+06
   3.073729e+05  -4.208206e+06
   3.410537e+06  -1.491384e+06
   3.513353e+06   3.584114e+06
  -2.162425e+05   5.327583e+06
  -4.594865e+06   2.044141e+06
  -5.627328e+06  -2.633722e+06
  -2.376625e+06  -4.498676e+06
   2.355112e+06  -2.790552e+06
   4.634955e+06   3.173651e+05
   2.791665e+06   2.306872e+06
  -1.124672e+06   1.985939e+06
  -3.255568e+06   2.402688e+04
  -1.834031e+06  -1.525133e+06
   9.611951e+05  -1.099340e+06
   1.660288e+06   5.700428e+05
  -2.841847e+05   1.254578e+06
  -1.990984e+06   1.213706e+04
  -9.331357e+05  -1.692401e+06
   1.957500e+06  -1.893249e+06
   3.572471e+06  -2.281397e+05
   2.157090e+06   2.178615e+06
  -1.210560e+06   3.898277e+06
  -4.083412e+06   3.734476e+06
  -4.743118e+06   1.212367e+06
  -3.161623e+06  -2.459814e+06
  -7.459068e+05  -4.703033e+06
   8.110267e+05  -4.035346e+06
   9.639284e+05  -1.852454e+06
   6.886438e+05  -6.797980e+05
   1.154245e+06  -9.717405e+05
   2.200268e+06  -9.031438e+05
   2.556034e+06   6.651265e+05
   1.436989e+06   2.391001e+06
  -5.398923e+05   2.220126e+06
  -1.962675e+06   3.192838e+04
  -1.753612e+06  -2.250753e+06
   1.116845e+05  -2.738443e+06
   2.432156e+06  -1.173474e+06
   3.423826e+06   1.198716e+06
   2.245681e+06   2.780767e+06
   1.805215e+04   2.804447e+06
  -1.308001e+06   1.826891e+06
  -1.258995e+06   1.050155e+06
  -1.285675e+06   9.624439e+05
  -2.525957e+06   8.254101e+05
  -3.901502e+06  -2.967373e+05
  -3.296131e+06  -2.242814e+06
  -3.328179e+05  -3.763600e+06
   2.882266e+06  -3.672695e+06
   3.907348e+06  -1.843529e+06
   2.337541e+06   6.397781e+05
  -7.125375e+04   2.122460e+06
  -1.219191e+06   1.617575e+06
  -4.614064e+05  -1.326888e+05
   1.055106e+06  -1.162356e+06
   1.629296e+06  -4.002924e+05
   7.150129e+05   9.844844e+05
  -5.477591e+05   1.043523e+06
  -6.329175e+05  -3.133611e+05
   6.198690e+05  -1.067049e+06
   1.811862e+06   2.822430e+05
   1.502920e+06   2.670376e+06
  -3.741583e+05   3.646677e+06
  -2.572752e+06   2.120102e+06
  -3.613288e+06  -6.676658e+05
  -2.795864e+06  -2.629024e+06
  -6.733902e+05  -2.710844e+06
   1.216268e+06  -1.439064e+06
   1.531805e+06  -1.834978e+05
   4.640889e+05   2.375382e+04
  -3.694618e+05  -6.745253e+05
   2.337373e+05  -1.167905e+06
   1.562519e+06  -6.134081e+05
   1.846447e+06   5.664091e+05
   5.122859e+05   1.167990e+06
  -1.015094e+06   6.267142e+05
  -9.717694e+05  -3.781487e+05
   6.961952e+05  -7.441514e+05
   2.261321e+06  -4.342033e+04
   2.027400e+06   1.223171e+06
   1.313707e+03   2.098491e+06
  -2.142614e+06   1.817969e+06
  -2.622729e+06   4.216700e+05
  -1.176812e+06  -1.043001e+06
   7.179962e+05  -1.305704e+06
   1.280944e+06  -2.229081e+05
   1.532880e+05   8.988620e+05
  -1.343228e+06   7.149149e+05
  -1.650389e+06  -5.818595e+05
  -5.274039e+05  -1.517130e+06
   8.656784e+05  -1.108945e+06
   1.237770e+06   6.246557e+04
   3.957929e+05   6.618962e+05
  -6.510462e+05   1.088045e+05
  -6.816808e+05  -9.281818e+05
   5.264155e+05  -1.314450e+06
   1.862704e+06  -5.212902e+05
   1.906297e+06   9.292327e+05
   4.376368e+05   1.895303e+06
  -1.221617e+06   1.592344e+06
  -1.582938e+06   3.293045e+05
  -5.684941e+05  -7.566077e+05
   5.471209e+05  -8.140095e+05
   6.631546e+05  -8.442496e+04
  -4.432783e+04   4.871792e+05
  -5.827442e+05   3.490209e+05
  -3.479845e+05  -1.210129e+05
   3.237406e+05  -1.609649e+05
   6.000945e+05   4.528958e+05
  -2.739414e+04   1.104644e+06
  -1.221405e+06   9.292168e+05
  -1.966822e+06  -2.861960e+05
  -1.438520e+06  -1.755339e+06
   1.150500e+05  -2.313109e+06
   1.489321e+06  -1.499592e+06
   1.712959e+06  -2.619717e+04
   1.006146e+06   9.250920e+05
   3.613482e+05   8.595197e+05
   3.146009e+05   3.368013e+05
   4.476522e+05   2.031256e+05
   9.902682e+04   6.143939e+05
  -7.448889e+05   9.183313e+05
  -1.395976e+06   4.432849e+05
  -1.135438e+06  -6.849050e+05
   1.157711e+05  -1.528615e+06
   1.607846e+06  -1.170782e+06
   2.193346e+06   3.487885e+05
   1.226387e+06   1.912568e+06
  -7.371446e+05   2.262195e+06
  -2.265219e+06   1.162716e+06
  -2.308746e+06  -3.993903e+05
  -1.138031e+06  -1.228837e+06
   6.827089e+04  -1.063542e+06
   4.701284e+05  -6.334622e+05
   2.481937e+05  -6.786315e+05
   1.384870e+05  -1.100169e+06
   5.394287e+05  -1.145176e+06
   1.137769e+06  -3.216491e+05
   1.266780e+06   9.782329e+05
   5.757572e+05   1.769393e+06
  -5.509111e+05   1.373741e+06
  -1.224114e+06   7.017607e+04
  -8.514909e+05  -1.120189e+06
   2.169180e+05  -1.325270e+06
   9.735853e+05  -5.490046e+05
   7.879382e+05   4.471033e+05
   5.421896e+04   9.257175e+05
  -3.216663e+05   7.876400e+05
  -4.365722e+03   4.620078e+05
   3.907642e+05   3.346541e+05
   5.040644e+04   3.744128e+05
  -1.023615e+06   2.644251e+05
  -1.883454e+06  -2.016568e+05
  -1.563012e+06  -8.640432e+05
  -1.158030e+05  -1.284753e+06
   1.339749e+06  -1.106173e+06
   1.677205e+06  -4.025032e+05
   8.464940e+05   3.081488e+05
  -1.704326e+05   4.895572e+05
  -4.507829e+05   1.051944e+05
  -1.112637e+04  -3.192343e+05
   4.484981e+05  -2.369407e+05
   4.528007e+05   3.065092e+05
   1.704034e+05   6.949452e+05
   1.975860e+04   4.491881e+05
   1.426797e+05  -1.590786e+05
   3.326625e+05  -3.595147e+05
   2.869337e+05   2.045914e+05
  -1.497983e+05   9.676709e+05
  -8.085840e+05   1.018742e+06
  -1.166824e+06   1.552963e+05
  -7.260118e+05  -8.310153e+05
   3.474313e+05  -1.002718e+06
   1.107608e+06  -2.771090e+05
   6.971568e+05   5.445393e+05
  -6.175937e+05   6.590060e+05
  -1.550873e+06   1.602414e+04
  -1.108144e+06  -7.652717e+05
   3.376278e+05  -1.037768e+06
   1.436502e+06  -6.354818e+05
   1.262978e+06   7.506489e+04
   1.914620e+05   5.074351e+05
  -5.970284e+05   3.221459e+05
  -3.454423e+05  -2.340327e+05
   5.756951e+05  -4.665789e+05
   1.109090e+06   1.036669e+05
   5.916035e+05   1.125126e+06
  -5.949259e+05   1.593115e+06
  -1.420048e+06   8.265481e+05
  -1.212113e+06  -7.119701e+05
  -2.377290e+05  -1.719114e+06
   6.688727e+05  -1.304798e+06
   9.089891e+05   8.486695e+04
   5.078902e+05   1.120099e+06
  -1.094480e+05   9.781878e+05
  -5.144674e+05   1.300379e+05
  -5.082448e+05  -3.621785e+05
  -2.164851e+05  -1.491222e+05
  -2.173957e+04   1.125856e+05
  -1.958575e+05  -2.259114e+05
  -4.877595e+05  -8.851636e+05
  -2.869008e+05  -1.041183e+06
   5.896200e+05  -4.196412e+05
   1.435041e+06   3.985700e+05
   1.315790e+06   7.625666e+05
   2.085526e+05   6.483578e+05
  -8.576923e+05   4.171023e+05
  -9.571501e+05   2.256560e+05
  -3.015664e+05  -1.440377e+03
   1.525190e+05  -2.122480e+05
  -3.635082e+04  -2.361206e+05
  -3.220141e+05  -1.267407e+05
  -2.342878e+04  -1.278288e+05
   6.966192e+05  -2.108982e+05
   9.863423e+05   1.868889e+03
   3.311014e+05   6.268027e+05
  -8.297231e+05   1.097893e+06
  -1.546152e+06   7.211803e+05
  -1.267974e+06  -4.029334e+05
  -2.729499e+05  -1.340855e+06
   6.730049e+05  -1.309582e+06
   9.795191e+05  -4.946499e+05
   6.361853e+05   2.423236e+05
   1.074258e+05   3.339113e+05
  -1.195662e+05   2.053389e+04
   5.946768e+04  -6.491173e+04
   3.282123e+05   3.247344e+05
   2.830314e+05   7.639018e+05
  -1.641932e+05   6.348667e+05
  -6.592670e+05  -1.416833e+05
  -6.861948e+05  -9.235506e+05
  -6.911558e+04  -9.642365e+05
   7.413164e+05  -1.930094e+05
   9.786498e+05   7.109127e+05
   3.208118e+05   1.020031e+06
  -6.661672e+05   6.175246e+05
  -1.034166e+06  -5.649747e+04
  -4.902759e+05  -5.241888e+05
   2.465587e+05  -5.974456e+05
   3.002754e+05  -3.503613e+05
  -2.884798e+05  -2.743911e+04
  -6.306698e+05   4.436008e+04
  -1.298811e+05  -2.770819e+05
   7.674784e+05  -6.751792e+05
   1.140223e+06  -5.923683e+05
   6.794659e+05   1.006829e+05
  -7.108157e+04   8.070707e+05
  -4.529804e+05   8.110131e+05
  -3.434651e+05   1.311519e+05
  -3.344788e+04  -4.739697e+05
   2.236623e+05  -3.904780e+05
   3.376301e+05   1.785369e+05
   2.490615e+05   5.434855e+05
  -4.783001e+04   3.627682e+05
  -3.687579e+05  -5.286887e+04
  -4.457412e+05  -2.192215e+05
  -2.354499e+05  -5.527922e+04
   1.568662e+04   1.020579e+05
   8.607449e+04  -3.863613e+04
   4.846644e+04  -3.602640e+05
   1.220797e+05  -4.632232e+05
   3.195027e+05  -1.265130e+05
   3.770935e+05   3.993079e+05
   8.081971e+04   6.114721e+05
  -4.020687e+05   2.838582e+05
  -6.042289e+05  -2.773172e+05
  -2.297936e+05  -5.556893e+05
   4.583032e+05  -3.547636e+05
   8.107386e+05   6.793463e+04
   4.507421e+05   3.464626e+05
  -2.654335e+05   3.523855e+05
  -5.844300e+05   1.910921e+05
  -1.999953e+05   2.018240e+04
   3.749120e+05  -3.094771e+04
   4.040994e+05   1.042674e+05
  -1.972895e+05   3.082239e+05
  -7.683214e+05   2.686622e+05
