
 $NMID
 id='ANONYMOUS ', fmtdat='(2E16.6)'
 volume=1.0
 tramp=1.0
 $END
  -5.865231e+07   9.363209e+04
  -3.502252e+07  -3.648060e+07
   7.998900e+06  -3.963298e+07
   2.862388e+07  -1.491292e+07
   1.683095e+07   7.514082e+06
  -3.572478e+06   9.593372e+06
  -1.004443e+07  -1.442453e+06
  -2.688830e+06  -1.006657e+07
   6.429549e+06  -9.439235e+06
   9.903673e+06  -1.941819e+06
   7.239786e+06   6.356204e+06
   9.247765e+05   8.830242e+06
  -4.102787e+06   2.907259e+06
  -2.782779e+06  -5.464610e+06
   3.816410e+06  -6.634744e+06
   8.089203e+06   1.429100e+06
   4.571151e+06   1.052765e+07
  -3.908267e+06   1.218068e+07
  -1.046487e+07   6.157123e+06
  -1.127815e+07  -2.062807e+06
  -6.994383e+06  -7.805490e+06
  -7.469730e+05  -9.124795e+06
   3.170515e+06  -6.353476e+06
   2.107805e+06  -2.628718e+06
  -1.139679e+06  -1.944022e+06
  -4.571867e+05  -4.188031e+06
   5.373898e+06  -4.685663e+06
   9.914690e+06  -7.608625e+05
   7.367047e+06   4.140159e+06
   4.242898e+05   5.304099e+06
  -3.737907e+06   2.854148e+06
  -2.643246e+06   1.867718e+05
   3.731495e+05  -9.631144e+05
   2.164441e+06  -6.864384e+05
   2.333800e+06   1.264374e+06
   9.279335e+05   3.997341e+06
  -1.794897e+06   4.073487e+06
  -3.491154e+06  -3.679060e+04
  -1.907009e+06  -3.830220e+06
   8.660056e+05  -2.135159e+06
   5.283383e+05   2.449441e+06
  -2.442717e+06   2.363844e+06
  -2.497276e+06  -3.297438e+06
   2.589918e+06  -6.312020e+06
   7.299698e+06  -9.740358e+05
   5.329865e+06   7.246363e+06
  -2.026150e+06   8.861161e+06
  -7.703287e+06   2.530721e+06
  -7.144344e+06  -4.522166e+06
  -1.887731e+06  -6.128608e+06
   3.520811e+06  -2.752562e+06
   5.319649e+06   1.539052e+06
   2.431808e+06   3.533766e+06
  -2.508276e+06   2.228139e+06
  -4.653889e+06  -9.627203e+05
  -1.985548e+06  -2.806334e+06
   1.777452e+06  -1.414171e+06
   1.760202e+06   1.031004e+06
  -1.390981e+06   8.664615e+05
  -2.491479e+06  -1.902253e+06
   7.786190e+05  -3.571363e+06
   4.873280e+06  -1.899172e+06
   5.458054e+06   1.467839e+06
   2.361932e+06   4.123052e+06
  -1.790886e+06   5.453604e+06
  -5.041814e+06   5.083092e+06
  -6.351421e+06   1.919893e+06
  -4.812495e+06  -3.184960e+06
  -1.077421e+06  -6.338887e+06
   1.878703e+06  -4.868357e+06
   1.786444e+06  -1.168224e+06
   6.547470e+04   3.193306e+05
  -1.864955e+05  -1.051355e+06
   1.541711e+06  -1.979928e+06
   2.902855e+06  -4.143440e+05
   2.194946e+06   1.863087e+06
   1.615021e+05   2.185769e+06
  -1.524317e+06   3.005842e+05
  -1.759635e+06  -2.015431e+06
  -9.783848e+04  -2.985639e+06
   2.797783e+06  -1.787471e+06
   4.653334e+06   1.116816e+06
   3.410799e+06   3.845255e+06
   7.822771e+03   4.408638e+06
  -2.363830e+06   2.848929e+06
  -2.325602e+06   1.168738e+06
  -1.871772e+06   6.818959e+05
  -2.979522e+06   5.094396e+05
  -4.433515e+06  -7.158290e+05
  -3.591936e+06  -2.758099e+06
  -2.101088e+05  -4.193154e+06
   3.172451e+06  -4.041754e+06
   4.198438e+06  -2.284472e+06
   2.745837e+06   3.365355e+05
   3.811530e+05   2.282183e+06
  -1.056497e+06   2.032792e+06
  -5.883720e+05  -1.199583e+04
   1.072272e+06  -1.372298e+06
   1.949169e+06  -4.455388e+05
   9.816181e+05   1.228441e+06
  -4.889379e+05   1.153036e+06
  -4.144678e+05  -3.786568e+05
   1.092217e+06  -6.652512e+05
   1.863905e+06   1.374242e+06
   6.024611e+05   3.558405e+06
  -1.648156e+06   3.396177e+06
  -3.156864e+06   1.056604e+06
  -3.303100e+06  -1.446551e+06
  -2.303527e+06  -2.712183e+06
  -5.099502e+05  -2.599594e+06
   1.216908e+06  -1.518664e+06
   1.598204e+06  -2.807113e+05
   5.031831e+05   3.650949e+04
  -3.783824e+05  -7.608896e+05
   4.144198e+05  -1.383991e+06
   1.961078e+06  -6.176637e+05
   2.094026e+06   8.956099e+05
   3.993053e+05   1.451742e+06
  -1.189266e+06   5.945114e+05
  -8.946046e+05  -4.427841e+05
   8.572810e+05  -5.065417e+05
   2.183748e+06   3.158205e+05
   1.751142e+06   1.329780e+06
  -2.287975e+05   1.967586e+06
  -2.305687e+06   1.704597e+06
  -2.814743e+06   3.253913e+05
  -1.263730e+06  -1.282382e+06
   9.279018e+05  -1.567747e+06
   1.615844e+06  -2.185837e+05
   2.337553e+05   1.118711e+06
  -1.542605e+06   7.844285e+05
  -1.762496e+06  -7.780885e+05
  -3.502126e+05  -1.675263e+06
   1.108075e+06  -9.854622e+05
   1.271092e+06   3.231738e+05
   2.387562e+05   7.957193e+05
  -8.261747e+05   6.035185e+04
  -7.781502e+05  -1.069688e+06
   5.562856e+05  -1.474560e+06
   2.043043e+06  -6.041903e+05
   2.108089e+06   1.030985e+06
   4.309164e+05   2.117878e+06
  -1.450794e+06   1.703146e+06
  -1.760776e+06   2.350933e+05
  -5.162852e+05  -8.805108e+05
   6.619481e+05  -8.239795e+05
   6.318305e+05  -9.658501e+04
  -1.173059e+05   3.400321e+05
  -4.671244e+05   2.029284e+05
  -8.660160e+04  -4.159162e+04
   4.671684e+05   1.151999e+05
   5.168641e+05   7.018789e+05
  -2.127447e+05   1.213249e+06
  -1.401104e+06   9.311203e+05
  -2.132899e+06  -3.880182e+05
  -1.534750e+06  -1.959542e+06
   1.714782e+05  -2.470464e+06
   1.610331e+06  -1.454012e+06
   1.700442e+06   1.045455e+05
   8.683575e+05   8.681341e+05
   3.435942e+05   6.093353e+05
   5.257093e+05   1.949345e+05
   6.708951e+05   3.289329e+05
   1.046794e+05   7.987486e+05
  -8.845767e+05   9.270221e+05
  -1.459693e+06   3.448116e+05
  -1.064350e+06  -7.034222e+05
   2.328348e+05  -1.463554e+06
   1.726820e+06  -1.109914e+06
   2.290616e+06   4.514088e+05
   1.180387e+06   2.120712e+06
  -1.008729e+06   2.426935e+06
  -2.586147e+06   1.078158e+06
  -2.390462e+06  -6.488338e+05
  -9.651781e+05  -1.336135e+06
   2.004677e+05  -9.318322e+05
   3.559835e+05  -5.079537e+05
   2.735579e+04  -7.875369e+05
   6.881773e+04  -1.366610e+06
   6.715139e+05  -1.344063e+06
   1.328326e+06  -3.528834e+05
   1.394051e+06   1.074619e+06
   6.109785e+05   1.921441e+06
  -6.013510e+05   1.480643e+06
  -1.307418e+06   1.946068e+04
  -8.432694e+05  -1.302668e+06
   3.905794e+05  -1.427486e+06
   1.192528e+06  -4.060788e+05
   8.318041e+05   7.316328e+05
  -1.356414e+05   1.111120e+06
  -5.613580e+05   7.935802e+05
  -8.678510e+04   4.090409e+05
   4.576097e+05   3.285243e+05
   7.414383e+04   3.882758e+05
  -1.177469e+06   2.298441e+05
  -2.125455e+06  -3.087051e+05
  -1.668071e+06  -1.035947e+06
   3.417703e+04  -1.473528e+06
   1.624178e+06  -1.195625e+06
   1.867022e+06  -3.032583e+05
   8.443461e+05   5.117237e+05
  -2.695945e+05   5.951730e+05
  -5.250533e+05   3.140801e+04
  -4.342717e+04  -4.484082e+05
   4.388528e+05  -2.815731e+05
   5.028360e+05   3.387668e+05
   2.984648e+05   7.327696e+05
   1.296374e+05   4.917803e+05
   1.309621e+05  -8.542456e+04
   2.560614e+05  -2.909317e+05
   2.811090e+05   2.323092e+05
  -1.090250e+05   1.005568e+06
  -8.963073e+05   1.112177e+06
  -1.417251e+06   2.170191e+05
  -9.179189e+05  -9.209329e+05
   4.037608e+05  -1.194289e+06
   1.298395e+06  -3.917995e+05
   7.683695e+05   5.611248e+05
  -7.069807e+05   6.707294e+05
  -1.608147e+06  -7.381121e+04
  -1.010426e+06  -8.564052e+05
   4.910984e+05  -9.922605e+05
   1.502143e+06  -4.872430e+05
   1.233908e+06   1.806238e+05
   1.364230e+05   5.119360e+05
  -6.566636e+05   2.756226e+05
  -4.053901e+05  -3.019807e+05
   5.751964e+05  -5.641906e+05
   1.218209e+06   3.255588e+04
   7.446367e+05   1.184358e+06
  -5.291704e+05   1.773431e+06
  -1.481599e+06   9.680416e+05
  -1.307199e+06  -7.286600e+05
  -2.605841e+05  -1.817474e+06
   7.173543e+05  -1.324159e+06
   9.383907e+05   1.742980e+05
   4.491960e+05   1.202923e+06
  -2.225777e+05   9.729050e+05
  -5.767471e+05   8.677135e+04
  -4.662274e+05  -3.640246e+05
  -1.496111e+05  -1.238967e+05
  -5.423694e+04   8.960829e+04
  -3.222426e+05  -3.165434e+05
  -5.562587e+05  -9.817176e+05
  -1.963731e+05  -1.083911e+06
   7.494157e+05  -4.096214e+05
   1.512405e+06   4.329594e+05
   1.301196e+06   8.136523e+05
   2.029484e+05   7.127753e+05
  -8.353479e+05   4.593348e+05
  -9.880422e+05   2.055174e+05
  -3.874917e+05  -6.323546e+04
   1.328529e+05  -2.391279e+05
   5.746389e+04  -1.894682e+05
  -2.444994e+05  -6.479796e+04
  -6.893408e+04  -1.349707e+05
   6.359428e+05  -2.812880e+05
   1.076503e+06  -3.108043e+04
   5.128785e+05   7.087543e+05
  -7.938462e+05   1.258279e+06
  -1.740958e+06   8.503453e+05
  -1.503765e+06  -3.824223e+05
  -3.434468e+05  -1.425469e+06
   7.497850e+05  -1.442755e+06
   1.060504e+06  -6.099293e+05
   6.769399e+05   1.946731e+05
   1.643160e+05   3.654443e+05
  -4.291763e+04   9.678878e+04
   8.963426e+04   6.159119e+03
   3.013567e+05   3.739119e+05
   2.660050e+05   8.162389e+05
  -1.536460e+05   7.103739e+05
  -6.985334e+05  -7.345300e+04
  -8.168264e+05  -9.261510e+05
  -1.963023e+05  -1.062217e+06
   7.451023e+05  -3.208447e+05
   1.103709e+06   6.673502e+05
   4.215277e+05   1.108002e+06
  -7.027765e+05   7.486919e+05
  -1.167716e+06  -2.645256e+04
  -5.840765e+05  -6.353312e+05
   2.761695e+05  -7.380463e+05
   4.059667e+05  -3.939156e+05
  -2.222860e+05   1.834883e+04
  -6.554302e+05   7.173027e+04
  -1.723875e+05  -3.181608e+05
   8.188560e+05  -7.211041e+05
   1.293802e+06  -5.699150e+05
   8.166112e+05   1.850163e+05
  -6.472314e+04   9.076580e+05
  -5.648368e+05   9.067533e+05
  -4.676189e+05   2.015833e+05
  -9.410416e+04  -4.770655e+05
   2.242344e+05  -4.749320e+05
   3.690508e+05   1.055141e+05
   2.881022e+05   5.806555e+05
  -3.291271e+04   4.695199e+05
  -4.056015e+05  -1.650082e+04
  -5.058470e+05  -2.921695e+05
  -2.494712e+05  -1.089307e+05
   5.337774e+04   1.795294e+05
   7.927177e+04   9.251825e+04
  -7.365472e+04  -3.475969e+05
  -2.881353e+04  -6.097610e+05
   3.061613e+05  -2.982133e+05
   5.331496e+05   3.376214e+05
   2.452106e+05   6.602065e+05
  -3.909424e+05   3.575908e+05
  -7.170840e+05  -2.400388e+05
  -3.026613e+05  -5.660604e+05
   5.151662e+05  -3.989773e+05
   9.289503e+05   2.841351e+04
   5.165224e+05   3.673838e+05
  -2.876591e+05   4.472018e+05
  -6.583697e+05   2.898083e+05
  -2.826640e+05   3.099155e+04
   3.188962e+05  -1.168374e+05
   4.111070e+05   8.430151e+03
  -1.265042e+05   2.873227e+05
  -7.004521e+05   3.182026e+05
