
 $NMID
 id='ANONYMOUS ', fmtdat='(2E16.6)'
 volume=1.0
 tramp=1.0
 $END
   9.096187e+06   2.362493e+06
   4.447109e+06   6.271790e+06
  -2.101813e+06   5.683609e+06
  -4.896770e+06   2.111000e+06
  -2.859269e+06  -1.012154e+06
   5.486819e+05  -1.594380e+06
   1.857509e+06  -4.211859e+04
   6.836592e+05   1.742592e+06
  -1.123787e+06   1.996692e+06
  -1.843875e+06   4.173979e+05
  -1.095593e+06  -1.511712e+06
   2.840524e+05  -1.836456e+06
   1.001822e+06  -2.272148e+05
   3.922443e+05   1.519029e+06
  -8.773510e+05   1.459398e+06
  -1.403410e+06  -3.183375e+05
  -5.176937e+05  -1.946705e+06
   1.037534e+06  -1.933028e+06
   1.955354e+06  -5.184177e+05
   1.621882e+06   9.718282e+05
   4.977727e+05   1.534140e+06
  -4.287724e+05   1.161564e+06
  -4.736694e+05   5.826278e+05
   1.489548e+05   5.236635e+05
   4.464813e+05   9.919715e+05
  -3.342881e+05   1.225617e+06
  -1.683296e+06   5.700313e+05
  -2.181701e+06  -6.332160e+05
  -1.122196e+06  -1.343740e+06
   5.456933e+05  -1.005159e+06
   1.237185e+06  -9.207279e+04
   4.898335e+05   5.411468e+05
  -6.766438e+05   4.756904e+05
  -1.040563e+06  -1.526312e+05
  -4.120102e+05  -8.809619e+05
   4.362766e+05  -1.096670e+06
   7.119240e+05  -4.701032e+05
   3.156327e+05   4.836336e+05
  -1.967873e+05   7.144270e+05
  -2.173765e+05  -7.528956e+04
   2.822008e+05  -8.452143e+05
   6.909860e+05  -4.817623e+05
   4.215961e+05   6.281250e+05
  -3.757958e+05   1.003539e+06
  -9.021799e+05   3.046258e+04
  -5.445954e+05  -1.203076e+06
   4.824244e+05  -1.283142e+06
   1.337315e+06  -1.309325e+05
   1.293726e+06   1.086417e+06
   3.324170e+05   1.334292e+06
  -8.176562e+05   5.974224e+05
  -1.225567e+06  -3.761111e+05
  -5.756851e+05  -8.081334e+05
   4.646747e+05  -4.517279e+05
   8.703945e+05   2.511638e+05
   3.504078e+05   5.693599e+05
  -3.614500e+05   2.314322e+05
  -4.236497e+05  -2.778265e+05
   1.169187e+05  -3.271091e+05
   4.733926e+05   8.845374e+04
   1.311152e+05   4.175959e+05
  -5.698179e+05   2.744417e+05
  -8.629427e+05  -2.108780e+05
  -3.524897e+05  -6.931125e+05
   6.495395e+05  -9.100130e+05
   1.413577e+06  -6.674634e+05
   1.382719e+06   7.820917e+04
   6.299450e+05   9.595802e+05
  -2.034602e+05   1.343660e+06
  -5.196441e+05   9.975482e+05
  -3.422408e+05   4.066389e+05
  -1.915067e+05   1.742112e+05
  -4.020618e+05   2.648093e+05
  -7.386129e+05   1.482137e+05
  -7.417139e+05  -3.758539e+05
  -2.857562e+05  -8.357349e+05
   3.126781e+05  -6.668060e+05
   6.163779e+05   8.274263e+04
   3.963741e+05   7.695006e+05
  -2.228924e+05   7.949350e+05
  -7.992843e+05   1.479900e+05
  -8.613606e+05  -6.302634e+05
  -3.489652e+05  -9.602179e+05
   2.728213e+05  -7.296177e+05
   5.030291e+05  -3.197338e+05
   3.783023e+05  -1.349178e+05
   3.731935e+05  -1.638449e+05
   7.176393e+05  -7.350947e+04
   1.027919e+06   3.230678e+05
   7.486839e+05   8.244094e+05
  -1.456261e+05   1.060738e+06
  -1.034200e+06   8.361796e+05
  -1.232545e+06   2.523927e+05
  -6.410424e+05  -3.635910e+05
   1.693904e+05  -6.295776e+05
   4.939676e+05  -3.866248e+05
   1.496323e+05   8.639338e+04
  -3.842703e+05   2.777281e+05
  -5.036953e+05   3.043867e+03
  -1.319800e+05  -3.472256e+05
   2.476038e+05  -2.887266e+05
   1.956710e+05   1.088933e+05
  -1.897282e+05   2.781340e+05
  -4.421971e+05  -1.243461e+05
  -2.557691e+05  -7.559373e+05
   2.647833e+05  -9.546390e+05
   7.717230e+05  -4.542840e+05
   9.397145e+05   3.677777e+05
   6.380958e+05   8.891915e+05
   3.857036e+04   8.017804e+05
  -4.362064e+05   3.229297e+05
  -4.521884e+05  -5.782355e+04
  -1.275286e+05  -4.343645e+04
   6.921260e+04   2.127283e+05
  -1.334588e+05   3.120230e+05
  -4.745731e+05   7.184303e+04
  -4.859081e+05  -2.749028e+05
  -8.038284e+04  -3.689255e+05
   3.246162e+05  -1.387286e+05
   2.793267e+05   1.450938e+05
  -1.958088e+05   1.804004e+05
  -6.162193e+05  -8.285533e+04
  -5.125057e+05  -4.346804e+05
   9.848337e+04  -5.878603e+05
   7.012510e+05  -3.878637e+05
   7.623201e+05   4.731187e+04
   2.582378e+05   3.745453e+05
  -2.962398e+05   3.167643e+05
  -3.783370e+05  -3.357382e+04
   1.754768e+04  -2.735948e+05
   4.256356e+05  -1.212136e+05
   4.305234e+05   2.628532e+05
   6.246595e+04   4.599105e+05
  -3.049663e+05   2.702115e+05
  -3.522102e+05  -7.992786e+04
  -9.034356e+04  -2.131001e+05
   1.780114e+05  -1.100315e+04
   1.413521e+05   2.829807e+05
  -2.129029e+05   3.305655e+05
  -5.427032e+05   3.389244e+04
  -4.706749e+05  -3.756473e+05
  -1.665696e+03  -5.552655e+05
   4.434606e+05  -3.646365e+05
   4.684259e+05   1.408365e+04
   1.196170e+05   2.589045e+05
  -2.050688e+05   2.097721e+05
  -2.137833e+05  -8.315535e+03
   9.244203e+03  -1.467410e+05
   1.730838e+05  -9.424716e+04
   1.153541e+05   2.976575e+04
  -6.111106e+04   2.910922e+04
  -1.204637e+05  -1.361926e+05
   6.808723e+04  -2.808729e+05
   3.810546e+05  -1.746724e+05
   5.177826e+05   1.973156e+05
   2.835965e+05   5.716326e+05
  -1.810734e+05   6.359850e+05
  -5.101866e+05   3.307050e+05
  -4.828051e+05  -9.492592e+04
  -2.329386e+05  -3.300596e+05
  -5.347612e+04  -2.866284e+05
  -5.379649e+04  -1.339768e+05
  -8.518813e+04  -8.119276e+04
   2.557419e+04  -1.547083e+05
   2.529429e+05  -1.910997e+05
   3.939844e+05  -3.698833e+04
   2.660323e+05   2.494118e+05
  -1.144741e+05   4.089381e+05
  -5.019491e+05   2.250820e+05
  -5.799505e+05  -2.259103e+05
  -2.282665e+05  -5.955399e+05
   3.289069e+05  -5.739548e+05
   6.866931e+05  -1.860993e+05
   6.176529e+05   2.414295e+05
   2.582295e+05   4.068874e+05
  -6.830810e+04   3.035494e+05
  -1.752412e+05   1.650910e+05
  -1.351910e+05   1.790757e+05
  -1.276792e+05   2.876965e+05
  -2.254860e+05   2.714870e+05
  -3.308874e+05   1.030082e+04
  -2.866003e+05  -3.546710e+05
  -4.677226e+04  -5.297420e+05
   2.422968e+05  -3.493434e+05
   3.467191e+05   5.157441e+04
   1.689904e+05   3.545005e+05
  -1.324748e+05   3.486959e+05
  -2.858123e+05   1.011948e+05
  -1.800183e+05  -1.505851e+05
   3.167727e+04  -2.411251e+05
   1.163246e+05  -1.952129e+05
   2.118337e+04  -1.356065e+05
  -7.827431e+04  -1.228088e+05
   1.563523e+04  -1.049371e+05
   2.871433e+05  -4.432135e+03
   4.885271e+05   1.738837e+05
   3.734796e+05   3.286538e+05
  -3.469922e+04   3.489139e+05
  -4.243077e+05   2.135043e+05
  -4.843417e+05   1.282574e+04
  -2.175933e+05  -1.205893e+05
   7.350872e+04  -1.127108e+05
   1.229308e+05  -5.002727e+03
  -3.117724e+04   7.594069e+04
  -1.490172e+05   2.769226e+04
  -9.944660e+04  -1.187481e+05
   1.638615e+04  -2.094964e+05
   3.845052e+04  -1.297393e+05
  -4.758218e+04   4.103597e+04
  -1.172484e+05   9.197624e+04
  -6.185876e+04  -6.478895e+04
   1.087656e+05  -2.535727e+05
   2.803228e+05  -2.226151e+05
   3.095071e+05   4.216677e+04
   1.279369e+05   2.762165e+05
  -1.618888e+05   2.382814e+05
  -3.143425e+05  -1.372308e+04
  -1.530267e+05  -2.020618e+05
   2.107178e+05  -1.414665e+05
   4.326363e+05   9.109426e+04
   2.710262e+05   2.762281e+05
  -1.461880e+05   2.704252e+05
  -4.369261e+05   1.008073e+05
  -3.537885e+05  -8.911681e+04
  -2.831213e+04  -1.546766e+05
   1.834014e+05  -5.925192e+04
   7.741057e+04   8.180669e+04
  -1.953927e+05   8.690858e+04
  -3.004824e+05  -1.104739e+05
  -7.764148e+04  -3.577972e+05
   2.882274e+05  -3.982961e+05
   4.588484e+05  -1.235798e+05
   2.874603e+05   2.860705e+05
  -5.243202e+04   4.962332e+05
  -2.715427e+05   3.243694e+05
  -2.467309e+05  -7.320583e+04
  -7.755081e+04  -3.395794e+05
   7.759826e+04  -2.695316e+05
   1.442714e+05  -9.429772e+03
   1.278631e+05   1.326521e+05
   6.342251e+04   5.662569e+04
   9.961345e+03  -3.332098e+04
   2.363680e+04   6.970040e+04
   7.174884e+04   2.762910e+05
   2.494771e+04   3.105697e+05
  -1.765735e+05   7.861716e+04
  -3.747748e+05  -2.068025e+05
  -3.265718e+05  -2.976202e+05
  -1.509361e+04  -1.895476e+05
   2.769588e+05  -5.741398e+04
   2.835658e+05  -3.442910e+03
   7.254334e+04   1.532540e+04
  -6.248501e+04   4.889669e+04
   6.325708e+03   7.235244e+04
   9.526502e+04   5.990604e+04
  -5.763366e+03   3.637753e+04
  -2.212034e+05   8.557944e+03
  -2.718789e+05  -7.007868e+04
  -2.898176e+04  -1.962657e+05
   3.191956e+05  -2.420309e+05
   4.697678e+05  -8.301826e+04
   3.068665e+05   2.088665e+05
  -2.162770e+04   3.925295e+05
  -2.711519e+05   3.103148e+05
  -3.035981e+05   6.115323e+04
  -1.622634e+05  -1.155992e+05
  -2.568587e+03  -9.884499e+04
   4.662585e+04   8.632536e+03
  -1.463604e+04   2.252928e+04
  -7.497635e+04  -1.060434e+05
  -3.406860e+04  -2.296043e+05
   9.050633e+04  -1.639247e+05
   1.780342e+05   9.119666e+04
   1.219252e+05   3.132976e+05
  -6.203310e+04   2.739008e+05
  -2.296940e+05  -9.120688e+03
  -2.197506e+05  -2.778535e+05
  -9.116875e+03  -3.051263e+05
   2.303788e+05  -1.148270e+05
   2.754693e+05   9.119850e+04
   9.102473e+04   1.691830e+05
  -1.082863e+05   1.356174e+05
  -9.516568e+04   7.348587e+04
   9.043718e+04   3.227331e+04
   1.800199e+05   3.305064e+04
   1.166052e+04   8.351062e+04
  -2.590676e+05   1.358845e+05
  -3.452273e+05   9.343648e+04
  -1.678419e+05  -6.725016e+04
   7.756111e+04  -2.144186e+05
   1.716702e+05  -1.866149e+05
   9.271368e+04  -1.541577e+03
  -2.990716e+04   1.393185e+05
  -9.208601e+04   8.558821e+04
  -8.280704e+04  -8.398502e+04
  -2.938792e+04  -1.682280e+05
   4.281937e+04  -8.733377e+04
   9.897641e+04   4.516014e+04
   1.036407e+05   8.470850e+04
   6.011746e+04   2.512921e+04
   9.091071e+03  -2.134968e+04
  -2.392654e+04   2.261338e+04
  -5.273793e+04   1.058633e+05
  -8.980862e+04   1.108568e+05
  -1.075056e+05  -6.711871e+03
  -6.364131e+04  -1.525070e+05
   4.000763e+04  -1.793702e+05
   1.373663e+05  -4.549110e+04
   1.409996e+05   1.272079e+05
   1.971147e+04   1.745506e+05
  -1.480105e+05   6.390333e+04
  -2.135865e+05  -8.102567e+04
  -9.754605e+04  -1.281026e+05
   9.948054e+04  -7.111965e+04
   1.744137e+05  -1.395780e+03
   4.858368e+04   1.232007e+04
  -1.203776e+05  -2.410228e+04
  -1.122096e+05  -6.924641e+04
   8.519063e+04  -8.133917e+04
   2.487885e+05  -2.290929e+04
