
 $NMID
 id='ANONYMOUS ', fmtdat='(2E16.6)'
 volume=1.0
 tramp=1.0
 $END
  -4.192135e+07  -6.685745e+05
  -2.559509e+07  -2.440141e+07
   4.314694e+06  -2.766400e+07
   1.988385e+07  -1.263862e+07
   1.302757e+07   3.210780e+06
  -1.500398e+06   7.062363e+06
  -7.623749e+06   4.656991e+05
  -3.318603e+06  -7.084567e+06
   3.836259e+06  -8.304052e+06
   7.382051e+06  -2.546322e+06
   5.662178e+06   4.940724e+06
   6.250523e+05   7.181124e+06
  -3.359963e+06   1.953366e+06
  -2.359542e+06  -5.094613e+06
   2.719161e+06  -6.011511e+06
   6.204742e+06   5.005526e+05
   3.816119e+06   7.840626e+06
  -2.640573e+06   9.272234e+06
  -7.753051e+06   4.479806e+06
  -8.087285e+06  -1.938473e+06
  -4.394542e+06  -5.781097e+06
  -3.500333e+04  -5.902969e+06
   1.650732e+06  -3.819556e+06
  -7.351934e+02  -2.284021e+06
  -1.806644e+06  -2.964297e+06
   2.065270e+05  -4.416085e+06
   5.486866e+06  -3.524817e+06
   8.562300e+06   3.001017e+05
   5.555675e+06   3.871675e+06
  -6.585588e+05   4.088335e+06
  -3.916427e+06   1.511211e+06
  -2.058706e+06  -9.917511e+05
   1.605856e+06  -1.588162e+06
   3.223721e+06  -2.191899e+05
   2.128208e+06   2.264784e+06
  -1.320380e+05   4.003691e+06
  -1.892873e+06   2.820267e+06
  -2.018631e+06  -8.037798e+05
  -5.361804e+05  -2.864110e+06
   7.126609e+05  -6.118123e+05
  -1.937010e+05   2.883812e+06
  -2.258028e+06   2.260922e+06
  -2.147676e+06  -2.323279e+06
   1.245120e+06  -4.675944e+06
   4.540167e+06  -9.347317e+05
   3.658005e+06   4.939703e+06
  -1.181451e+06   6.253051e+06
  -5.661250e+06   1.813356e+06
  -5.950669e+06  -3.516832e+06
  -2.035284e+06  -5.089085e+06
   2.821764e+06  -2.685771e+06
   4.836666e+06   8.568380e+05
   2.583411e+06   2.759867e+06
  -1.630767e+06   1.949372e+06
  -3.643210e+06  -4.769359e+05
  -1.753267e+06  -1.996764e+06
   1.283784e+06  -1.115546e+06
   1.677485e+06   7.779644e+05
  -5.974700e+05   1.085158e+06
  -2.011067e+06  -6.069629e+05
  -2.797113e+05  -2.120492e+06
   2.846031e+06  -1.624693e+06
   4.021406e+06   4.991242e+05
   2.024974e+06   2.838852e+06
  -1.657059e+06   4.324937e+06
  -4.686108e+06   3.981726e+06
  -5.404535e+06   1.141525e+06
  -3.545756e+06  -2.972521e+06
  -5.543584e+05  -5.327088e+06
   1.324177e+06  -4.243989e+06
   1.200789e+06  -1.606193e+06
   4.593836e+05  -4.628652e+05
   8.583236e+05  -1.117046e+06
   2.218679e+06  -1.224434e+06
   2.814537e+06   5.020237e+05
   1.664990e+06   2.444410e+06
  -4.387032e+05   2.337638e+06
  -1.943389e+06   8.685648e+04
  -1.768876e+06  -2.317719e+06
   1.684323e+05  -2.909391e+06
   2.700866e+06  -1.263726e+06
   3.823226e+06   1.433922e+06
   2.431729e+06   3.321245e+06
  -2.222400e+05   3.306088e+06
  -1.772860e+06   2.005964e+06
  -1.613210e+06   9.703048e+05
  -1.475423e+06   8.241289e+05
  -2.712952e+06   6.546893e+05
  -4.108162e+06  -5.741137e+05
  -3.357801e+06  -2.566550e+06
  -1.627173e+05  -3.988978e+06
   3.183565e+06  -3.771628e+06
   4.197547e+06  -1.873302e+06
   2.529309e+06   6.909070e+05
  -3.214439e+04   2.274166e+06
  -1.307754e+06   1.754509e+06
  -5.224575e+05  -1.374204e+05
   1.150032e+06  -1.226152e+06
   1.788480e+06  -3.443907e+05
   7.557114e+05   1.132550e+06
  -6.006850e+05   1.098328e+06
  -5.894070e+05  -3.419734e+05
   7.571647e+05  -9.403531e+05
   1.776539e+06   6.290218e+05
   1.153329e+06   2.942710e+06
  -8.047053e+05   3.561997e+06
  -2.765177e+06   1.775471e+06
  -3.543370e+06  -9.693697e+05
  -2.662466e+06  -2.766208e+06
  -5.820911e+05  -2.767161e+06
   1.301509e+06  -1.465331e+06
   1.609799e+06  -1.598296e+05
   4.852617e+05   4.717983e+04
  -3.580434e+05  -7.316664e+05
   3.423913e+05  -1.241856e+06
   1.738419e+06  -5.529207e+05
   1.927329e+06   7.519711e+05
   4.386254e+05   1.292667e+06
  -1.114393e+06   5.995179e+05
  -9.746173e+05  -4.279593e+05
   7.525598e+05  -6.767672e+05
   2.277630e+06   9.958663e+04
   1.975113e+06   1.318112e+06
  -1.046774e+05   2.108281e+06
  -2.293015e+06   1.767903e+06
  -2.757647e+06   3.129244e+05
  -1.181648e+06  -1.184615e+06
   8.619681e+05  -1.375866e+06
   1.418374e+06  -1.568416e+05
   1.325705e+05   1.001558e+06
  -1.467725e+06   7.000995e+05
  -1.698557e+06  -7.119028e+05
  -4.373170e+05  -1.608877e+06
   9.819928e+05  -1.065793e+06
   1.264939e+06   1.743289e+05
   3.380822e+05   7.219926e+05
  -7.188375e+05   7.297490e+04
  -6.956684e+05  -1.018538e+06
   5.960263e+05  -1.381312e+06
   1.987073e+06  -4.935327e+05
   1.982024e+06   1.055665e+06
   3.740100e+05   2.024278e+06
  -1.377670e+06   1.613124e+06
  -1.681216e+06   2.478185e+05
  -5.380953e+05  -8.308457e+05
   6.232083e+05  -8.195860e+05
   6.855588e+05  -7.263013e+04
  -6.014082e+04   4.617443e+05
  -5.666166e+05   3.223233e+05
  -2.990515e+05  -8.664902e+04
   3.440293e+05  -7.367291e+04
   5.585199e+05   5.354524e+05
  -1.151327e+05   1.144339e+06
  -1.327708e+06   9.061624e+05
  -2.050237e+06  -3.905772e+05
  -1.437642e+06  -1.909613e+06
   2.158908e+05  -2.414448e+06
   1.607379e+06  -1.477540e+06
   1.750069e+06   5.813936e+04
   9.751314e+05   9.577308e+05
   3.603057e+05   8.306738e+05
   3.781190e+05   3.370142e+05
   4.996628e+05   2.707006e+05
   6.943805e+04   6.781027e+05
  -8.264587e+05   9.099951e+05
  -1.451605e+06   3.860080e+05
  -1.125816e+06  -7.317009e+05
   1.856401e+05  -1.539739e+06
   1.710339e+06  -1.133137e+06
   2.263198e+06   4.556146e+05
   1.179500e+06   2.054646e+06
  -9.075130e+05   2.329130e+06
  -2.442942e+06   1.083216e+06
  -2.367463e+06  -5.510673e+05
  -1.083329e+06  -1.313963e+06
   1.243384e+05  -1.049855e+06
   4.635290e+05  -6.164522e+05
   2.295776e+05  -7.377829e+05
   1.814069e+05  -1.202371e+06
   6.409550e+05  -1.202678e+06
   1.232927e+06  -2.892245e+05
   1.300400e+06   1.080925e+06
   5.369537e+05   1.882338e+06
  -6.308494e+05   1.422805e+06
  -1.281725e+06   1.669064e+04
  -8.279785e+05  -1.224918e+06
   3.149535e+05  -1.370899e+06
   1.062949e+06  -4.836202e+05
   7.864403e+05   5.580732e+05
  -3.370756e+04   9.860964e+05
  -4.146275e+05   7.849278e+05
  -3.536336e+04   4.568394e+05
   4.077809e+05   3.593495e+05
   4.500757e+04   3.906159e+05
  -1.095863e+06   2.203504e+05
  -1.983690e+06  -3.087750e+05
  -1.597047e+06  -9.872979e+05
  -3.028068e+04  -1.362998e+06
   1.490831e+06  -1.100051e+06
   1.780707e+06  -3.242589e+05
   8.474251e+05   3.937122e+05
  -2.228791e+05   5.170012e+05
  -4.794103e+05   7.068068e+04
   1.574535e+03  -3.613825e+05
   4.702865e+05  -2.393811e+05
   4.651161e+05   3.420378e+05
   1.810522e+05   7.392900e+05
   2.943317e+04   4.821739e+05
   1.422021e+05  -1.416080e+05
   3.278797e+05  -3.505141e+05
   2.852285e+05   2.221226e+05
  -1.747119e+05   1.001841e+06
  -8.894584e+05   1.041570e+06
  -1.270869e+06   1.228077e+05
  -7.626865e+05  -9.133324e+05
   4.159396e+05  -1.064455e+06
   1.203707e+06  -2.646759e+05
   7.166465e+05   5.918567e+05
  -6.793269e+05   6.550162e+05
  -1.604360e+06  -5.841420e+04
  -1.086264e+06  -8.367972e+05
   4.136799e+05  -1.034660e+06
   1.503508e+06  -5.689176e+05
   1.283539e+06   1.392774e+05
   1.679937e+05   5.256749e+05
  -6.366398e+05   2.983995e+05
  -3.593659e+05  -2.727738e+05
   6.142512e+05  -4.876945e+05
   1.171859e+06   1.312255e+05
   6.077883e+05   1.203371e+06
  -6.602296e+05   1.671408e+06
  -1.514344e+06   8.363334e+05
  -1.247740e+06  -7.828906e+05
  -1.889121e+05  -1.803669e+06
   7.428153e+05  -1.324154e+06
   9.341323e+05   1.391180e+05
   4.687845e+05   1.185086e+06
  -1.689962e+05   9.954608e+05
  -5.456403e+05   1.041634e+05
  -5.028473e+05  -3.857770e+05
  -2.050095e+05  -1.494885e+05
  -3.253220e+04   1.074797e+05
  -2.189148e+05  -2.697845e+05
  -4.847138e+05  -9.559387e+05
  -2.382185e+05  -1.086240e+06
   6.585944e+05  -4.001700e+05
   1.482346e+06   4.697193e+05
   1.324542e+06   8.380218e+05
   1.885922e+05   6.890108e+05
  -8.942376e+05   4.142756e+05
  -9.989842e+05   1.956018e+05
  -3.264930e+05  -3.183547e+04
   1.616526e+05  -2.217823e+05
  -1.043415e+04  -2.260066e+05
  -3.140592e+05  -1.193087e+05
  -3.148754e+04  -1.370245e+05
   7.144129e+05  -2.172806e+05
   1.040512e+06   3.074148e+04
   3.594703e+05   6.889387e+05
  -8.924435e+05   1.146578e+06
  -1.671768e+06   7.116224e+05
  -1.351533e+06  -4.669178e+05
  -2.500766e+05  -1.415123e+06
   7.616126e+05  -1.354535e+06
   1.051728e+06  -5.014819e+05
   6.614383e+05   2.601922e+05
   1.124391e+05   3.588626e+05
  -1.107235e+05   4.153030e+04
   6.520803e+04  -4.586546e+04
   3.184002e+05   3.543613e+05
   2.607456e+05   8.075299e+05
  -1.917439e+05   6.687955e+05
  -6.899743e+05  -1.525785e+05
  -7.099788e+05  -9.835369e+05
  -6.432888e+04  -1.028877e+06
   7.804143e+05  -2.059416e+05
   1.019226e+06   7.620049e+05
   3.162862e+05   1.089274e+06
  -7.237153e+05   6.440609e+05
  -1.097744e+06  -9.259967e+04
  -5.036522e+05  -5.882712e+05
   2.891851e+05  -6.395814e+05
   3.485331e+05  -3.552450e+05
  -2.834552e+05  -2.211416e+04
  -6.586943e+05   3.087375e+04
  -1.322370e+05  -3.021863e+05
   8.276054e+05  -6.790094e+05
   1.228659e+06  -5.583817e+05
   7.236489e+05   1.551281e+05
  -1.044112e+05   8.539878e+05
  -5.257356e+05   8.362534e+05
  -3.924502e+05   1.322352e+05
  -3.373895e+04  -4.943601e+05
   2.487005e+05  -4.152656e+05
   3.548195e+05   1.793740e+05
   2.462564e+05   5.793801e+05
  -6.470998e+04   3.987883e+05
  -3.898296e+05  -6.004972e+04
  -4.616341e+05  -2.616904e+05
  -2.402658e+05  -7.822030e+04
   1.657290e+04   1.268725e+05
   7.891462e+04  -6.305253e+03
   3.119577e+04  -3.755212e+05
   1.149268e+05  -5.192667e+05
   3.423831e+05  -1.621066e+05
   4.176043e+05   4.198431e+05
   9.976616e+04   6.559128e+05
  -4.256889e+05   2.982118e+05
  -6.433721e+05  -3.036948e+05
  -2.361327e+05  -5.872618e+05
   4.998697e+05  -3.577109e+05
   8.642927e+05   9.426320e+04
   4.678860e+05   3.808390e+05
  -2.967775e+05   3.759408e+05
  -6.331658e+05   1.967243e+05
  -2.271394e+05   1.084507e+04
   3.805060e+05  -4.475979e+04
   4.219414e+05   9.801217e+04
  -1.947275e+05   3.117985e+05
  -7.877568e+05   2.694651e+05
