
 $NMID
 id='ANONYMOUS ', fmtdat='(2E16.6)'
 volume=1.0
 tramp=1.0
 $END
  -3.168058e+03   3.265804e+02
  -1.828840e+03  -1.719967e+03
   1.043770e+02  -2.184544e+03
   1.300672e+03  -1.001729e+03
   6.698097e+02  -1.266471e+02
  -1.465097e+02   3.101974e+02
  -3.192449e+02  -2.367656e+02
  -6.431486e+01  -5.189254e+02
   5.129068e+02  -4.665298e+02
   6.411040e+02  -2.997386e+01
   4.104549e+02   5.878342e+02
   2.252405e+01   5.612303e+02
  -3.494287e+02   1.801948e+02
  -3.385677e+02  -3.314949e+02
   1.955094e+02  -5.457727e+02
   3.558200e+02  -1.193534e+02
   3.237530e+02   4.436779e+02
  -1.470172e+02   5.286089e+02
  -3.949580e+02   1.900925e+02
  -4.378949e+02  -1.774997e+02
  -9.303518e+01  -3.051622e+02
   1.463257e+02  -2.393299e+02
   7.372377e+01  -5.470651e+01
  -1.524881e+02  -1.482779e+01
  -2.413481e+02  -2.412547e+02
  -4.844192e+01  -4.102537e+02
   4.161902e+02  -2.557658e+02
   5.660619e+02   1.399091e+02
   3.241892e+02   3.754921e+02
  -2.323448e+02   2.827744e+02
  -5.421673e+02  -8.180813e+01
  -2.067240e+02  -3.243785e+02
   2.208814e+02  -2.988539e+02
   4.949589e+02  -1.579968e+02
   2.349951e+02   1.327779e+02
   1.322641e+02   3.278222e+02
  -3.740996e+01   1.688356e+02
   5.237830e+01  -1.215504e+02
   1.521864e+02  -1.364921e+02
   2.741664e+02   2.957335e+01
   8.641181e+01   4.902422e+02
  -2.350741e+02   4.272767e+02
  -3.056385e+02   9.575952e+00
  -1.550703e+02  -3.237101e+02
   2.354461e+02  -1.219355e+02
   1.838926e+02   2.349520e+02
  -1.089309e+02   4.060113e+02
  -4.058679e+02   7.919879e+01
  -3.670938e+02  -3.285420e+02
  -1.953881e+02  -5.081216e+02
   2.134045e+02  -3.021702e+02
   4.975715e+02   2.159859e+01
   3.484746e+02   2.758833e+02
  -1.140778e+02   1.821305e+02
  -2.813247e+02   1.367404e+02
  -1.686417e+02  -4.393721e+01
   3.072889e+01  -3.378163e+00
   4.868279e+01   5.648513e+01
  -7.981161e+01   8.712114e+01
  -2.209435e+02  -2.043124e+01
  -1.299171e+02  -1.875147e+02
   1.627977e+02  -2.032289e+02
   2.829227e+02  -1.523579e+02
   2.256138e+02   4.957340e+01
  -9.774549e+00   2.343686e+02
  -2.304570e+02   3.356426e+02
  -3.120248e+02   1.599981e+02
  -2.527660e+02  -1.585909e+02
  -8.241310e+01  -2.628361e+02
   3.854240e+01  -3.341009e+02
   1.875971e+01  -1.182751e+02
   3.131766e+01  -5.420170e+01
   9.217812e+01  -1.308659e+02
   2.077211e+02  -7.567798e+01
   2.186666e+02   7.554013e+01
   7.832472e+01   2.376766e+02
  -6.341525e+01   2.069238e+02
  -2.067720e+02  -3.110399e+01
  -1.378181e+02  -2.239867e+02
   3.123423e+01  -2.229297e+02
   1.947608e+02  -6.757415e+01
   2.903109e+02   1.138168e+02
   1.792445e+02   2.774922e+02
  -5.233670e+01   2.459320e+02
  -1.354175e+02   9.837348e+01
  -1.101460e+02   7.336841e+01
  -1.301200e+02   8.747602e+01
  -2.543218e+02   2.422362e+01
  -4.202746e+02  -2.157122e+01
  -3.380451e+02  -2.825633e+02
  -1.674688e+01  -3.720400e+02
   3.180404e+02  -3.728609e+02
   3.968724e+02  -1.813230e+02
   2.639415e+02   1.119892e+02
  -3.877036e-01   2.539230e+02
  -1.072386e+02   1.697108e+02
  -6.180042e+00   2.395512e+01
   8.531444e+01  -5.685374e+01
   1.232736e+02   6.396211e+01
   1.628554e+01   1.392490e+02
  -1.344329e+02   1.260267e+02
  -1.194032e+02  -2.736635e+01
   1.688337e+01  -9.284984e+01
   1.404327e+02  -1.757231e+01
   1.602925e+02   1.920478e+02
  -5.539171e+01   2.641236e+02
  -2.004706e+02   2.220757e+02
  -3.281454e+02  -7.164179e+01
  -2.614649e+02  -2.240342e+02
  -7.274834e+01  -2.705597e+02
   1.208076e+02  -1.414494e+02
   1.321588e+02   7.690990e+00
   6.255317e+01   2.428589e+01
  -5.947269e+01  -2.567996e+01
   2.826064e+01  -1.051640e+02
   9.712657e+01  -6.374697e+01
   1.418256e+02   2.316207e+01
   2.567508e+01   2.503417e+01
  -9.450818e+01  -2.783507e+00
  -3.176468e+01  -9.468911e+01
   1.364896e+02  -7.537388e+01
   2.806493e+02  -1.368688e+01
   2.681269e+02   1.384286e+02
   1.075461e+01   2.486404e+02
  -1.784448e+02   2.228278e+02
  -2.934472e+02   9.885016e+01
  -1.259282e+02  -4.984512e+01
  -3.399290e+00  -7.455298e+01
   4.349674e+01   3.516038e+01
  -4.231848e+01   9.159300e+01
  -1.509359e+02   2.300039e+01
  -1.876806e+02  -9.320995e+01
  -4.810880e+01  -1.670018e+02
   7.870138e+01  -1.286900e+02
   1.110660e+02  -5.629163e+01
   4.896745e+01   2.892837e+01
  -3.031008e+01   6.540317e-01
  -2.633511e+01  -7.555979e+01
   7.655389e+01  -1.158561e+02
   1.992214e+02   1.870569e+00
   2.035903e+02   9.690890e+01
   2.901480e+01   1.915418e+02
  -1.473861e+02   1.316752e+02
  -1.751435e+02  -1.038298e+01
  -5.656084e+01  -1.172520e+02
   2.088884e+01  -8.706510e+01
   6.213559e+01  -2.544679e+01
  -1.127482e+01   2.186305e+01
  -2.479341e+01   1.441335e-01
   1.642537e+01  -1.087372e+00
   9.309601e+01   1.220778e+01
   1.115467e+02   9.666399e+01
   3.101049e+01   1.807515e+02
  -1.186135e+02   1.527635e+02
  -1.999782e+02   6.570045e+01
  -1.588070e+02  -1.427874e+02
  -8.732512e+01  -1.719295e+02
   8.647499e+01  -1.426972e+02
   1.322710e+02  -3.658208e+01
   6.076582e+01   4.508177e+01
   4.475183e+01   2.686840e+01
   5.374214e+01  -5.161010e+01
   8.359360e+01   1.609285e+00
   4.985958e+01   4.069418e+01
  -4.735357e+01   9.319194e+01
  -1.161158e+02   7.356999e+01
  -9.216929e+01  -2.706759e+01
   4.118111e+00  -1.277499e+02
   1.059075e+02  -1.016803e+02
   1.945867e+02   2.479350e+01
   7.745873e+01   2.115171e+02
  -8.992829e+01   2.003044e+02
  -2.277436e+02   1.315538e+02
  -2.460756e+02  -8.023648e+01
  -1.233789e+02  -1.054559e+02
   1.458007e+01  -1.233857e+02
   5.700957e+01  -6.617275e+01
   5.447120e+01  -1.236734e+01
   3.875375e+01  -1.088564e+02
   4.634721e+01  -7.686081e+01
   1.091126e+02  -9.212906e-01
   1.091793e+02   1.440613e+02
   8.736982e+00   2.113431e+02
  -1.117789e+02   1.690755e+02
  -1.468365e+02   5.355971e+00
  -9.788250e+01  -1.062565e+02
  -2.189935e+01  -1.277734e+02
   7.870382e+01  -8.200803e+01
   6.371670e+01   9.163525e+00
   7.865823e-01   4.122040e+01
  -2.049752e+01   3.001772e+01
   3.372926e+01   3.024351e+01
   8.303993e+01   2.636515e+01
   4.422988e+01   2.330048e+01
  -6.867090e+01   2.574206e+01
  -1.800893e+02   1.856942e+01
  -1.405838e+02  -6.488418e+01
  -1.049219e+01  -5.633504e+01
   7.377664e+01  -6.645128e+01
   1.378657e+02  -9.844643e+00
   4.633511e+01   3.097220e+01
  -5.648535e+01   5.611920e+01
  -7.698634e+01   1.558999e+01
  -7.996152e+00  -6.819121e+01
   3.694999e+01  -5.030472e+01
   2.931528e+01  -1.931912e+00
   5.446374e+01   2.121429e+01
   5.520061e+01   4.353821e+01
   5.853463e+01  -7.925231e+00
   6.964453e+01  -8.199597e-02
   4.587250e+01   8.375774e+01
  -5.359880e+01   1.484844e+02
  -1.028910e+02   1.497514e+02
  -1.741569e+02   1.877137e+01
  -1.754543e+02  -9.916111e+01
  -1.692071e+01  -1.148434e+02
   7.613268e+01  -5.950334e+01
   5.596361e+01  -6.575488e+00
  -4.718506e+01   3.798139e+01
  -1.163665e+02  -4.284406e+01
  -8.452834e+01  -7.121859e+01
   5.466593e+01  -1.019218e+02
   1.877855e+02  -6.515855e+01
   1.330756e+02  -2.011757e+01
   1.199395e+01   7.613997e+01
  -5.985718e+01   5.671993e+01
  -3.510879e+01   9.487886e+00
   1.988987e+01  -4.987339e+01
   8.727663e+01   3.486757e+01
   4.855195e+01   1.130160e+02
  -4.325190e+01   1.429235e+02
  -1.188130e+02   8.160152e+01
  -1.376204e+02  -7.937590e+01
   2.257114e+00  -1.921140e+02
   4.698759e+01  -1.252676e+02
   1.257784e+02  -3.309039e+01
   7.669455e+01   1.014046e+02
  -2.154009e+01   7.599195e+01
  -8.389791e+01   2.367755e+00
  -5.045023e+01  -2.445671e+01
   4.068306e+00   2.763882e+00
  -1.350346e+01   6.614021e+00
  -2.516738e+01   1.245478e+01
  -6.019847e+01  -7.411432e+01
  -2.352738e+01  -8.802976e+01
   5.375006e+01  -2.767801e+01
   1.120151e+02   3.041577e+01
   9.572033e+01   6.618318e+01
   2.408943e+00   5.098249e+01
  -1.094571e+02   1.142384e+00
  -5.614713e+01   1.945598e+01
  -1.254869e+01  -5.075484e+00
   6.627310e+01  -2.227268e+01
   1.044207e+01   8.317302e-01
   6.161234e+00  -1.844407e+01
  -3.196445e+00   1.581020e+01
   3.816730e+01   2.270156e-02
   6.864758e+01   2.672718e+01
   2.011480e+01   1.018657e+02
  -9.684406e+01   1.150005e+02
  -1.826116e+02   7.079979e+01
  -1.299192e+02  -2.670586e+01
  -3.437436e+01  -1.573765e+02
   7.070654e+01  -1.297338e+02
   8.612546e+01  -1.042580e+02
   8.408180e+01  -1.032850e+01
   3.314624e+01   3.824796e+01
   2.219251e+01   9.689346e+00
   1.500297e+01   1.448261e+01
   5.483246e+01   1.518262e+01
   1.760012e+01   8.685139e+01
  -8.999870e+00   4.851206e+01
  -4.019258e+01   1.643548e+01
  -7.000082e+01  -7.716559e+01
  -4.588417e+01  -8.894453e+01
   1.010766e+02  -2.510759e+01
   9.460353e+01   5.361167e+01
   5.891972e+01   8.072330e+01
  -5.650813e+01   7.861051e+01
  -9.793238e+01   2.446564e+01
  -3.187810e+01  -3.617813e+01
   2.539965e+01  -4.093759e+01
   4.060103e+01  -2.684777e+01
  -2.927799e+01   5.206787e+00
  -5.706902e+01   4.453592e+01
  -1.641272e+01  -2.682978e+01
   9.088904e+01  -7.710206e+01
   8.697275e+01  -5.418001e+01
   5.360527e+01  -1.151049e+00
  -3.209707e-01   1.111863e+02
  -7.471040e+01   8.650817e+01
  -4.857121e+01   1.680326e+01
  -1.775010e+01  -7.774557e+01
   1.769229e+00  -3.893894e+01
   4.064755e+01   2.249277e+01
   4.139553e+01   2.071136e+01
  -3.873000e+00   4.539543e+01
  -2.924184e+01  -8.542626e+00
  -3.790628e+01  -2.860953e+01
  -2.196338e+01   3.142329e+01
   7.097666e+00   4.711754e+01
  -5.723291e+00   8.432797e+00
   2.002608e+01  -4.778410e+01
  -1.723245e+01  -5.845069e+01
   6.805760e+00  -2.227384e+01
   2.999888e+01   5.517369e+00
   2.727775e+01   6.202304e+01
  -1.493430e+01  -2.498558e+01
  -2.897898e+01  -6.087214e+01
  -3.916436e+01  -5.451876e+01
   3.107681e+01  -4.370571e+01
   8.383259e+01   2.799194e+01
   4.518246e+01   5.062666e+01
  -4.798762e+01   4.840210e+01
  -4.655978e+01   1.234102e+00
  -2.743355e+01  -1.702980e+00
   4.990855e+01   9.724369e+00
   4.453391e+00  -5.791980e-01
  -2.708796e+01   8.835115e-01
  -5.143876e+01   3.255456e+01
