
 $NMID
 id='ANONYMOUS ', fmtdat='(2E16.6)'
 volume=1.0
 tramp=1.0
 $END
   1.259544e+03  -8.876116e+01
   1.133660e+03   5.642396e+02
  -1.142291e+02   6.827572e+02
  -6.024760e+02   2.045116e+02
  -2.496657e+02   3.787367e+01
  -1.121096e+02  -2.658677e+01
   6.702620e+01   2.795641e+01
   2.016055e+02   2.326501e+02
  -6.492275e+01   2.689440e+02
  -1.740119e+02   2.199524e+02
  -1.182741e+02  -2.031325e+02
  -6.513278e+01  -2.702217e+02
   5.374854e+01  -6.313979e+01
   1.245432e+02   7.975335e+01
   1.217872e+02   2.052432e+02
  -1.880288e+02   1.130404e+02
  -2.203629e+02  -1.102642e+02
  -3.203471e+00  -3.105140e+02
   1.585528e+02  -1.676665e+02
   2.011656e+02   7.838996e+01
   1.036498e+02   1.591525e+02
  -5.028051e+01   1.116118e+02
  -8.023843e+00   6.583729e+01
   4.533364e+01   8.385146e+01
   7.628571e+01   7.603071e+01
   1.260822e+01   7.399738e+01
  -6.749774e+01   9.065746e+00
  -2.001026e+02  -9.550073e+01
  -9.579722e+01  -1.282505e+02
   1.168379e+02  -2.239672e+01
   1.891936e+02  -5.393054e+01
   1.097789e+02   8.782422e+01
  -5.054523e+01   6.792703e+01
  -1.578000e+02   3.254236e+01
  -1.530989e+02  -4.363357e+01
  -5.537184e+01  -6.575573e+01
  -6.652575e+01  -9.132714e+01
   1.636146e+00  -4.803782e+01
  -6.760396e+00  -1.628194e+01
  -9.454260e+01  -8.855193e+01
  -1.243700e+00  -1.205162e+02
   9.483505e+01  -8.396921e+01
   9.961752e+01  -3.422650e+01
   7.000413e+01   4.267948e+01
  -1.130688e+01   6.698983e+01
  -9.257568e+01  -1.017063e+02
   3.326552e+01  -1.254284e+02
   8.461519e+01  -3.466761e+01
   1.649202e+02   1.137647e+02
   5.934147e+01   1.499252e+02
  -8.721169e+01   9.148630e+01
  -1.222581e+02   2.811060e+01
  -1.006577e+02  -9.032406e+01
  -2.079738e+00  -6.058785e+01
   8.462625e+01  -2.595343e+01
   8.910329e+01   2.648708e+01
   1.475234e+01   9.068797e+00
  -2.736699e+01   3.744274e+01
  -2.645559e+00  -3.410286e+01
   1.102547e+02  -1.681730e+01
   1.368742e+01   9.606058e+01
  -4.856282e+01   6.541914e+01
  -1.440194e+02   3.751150e+01
  -1.134670e+02  -3.803827e+01
  -1.814394e+01  -1.502743e+02
   1.003600e+02  -1.312991e+02
   1.133891e+02  -7.329150e+01
   4.721312e+01  -2.179036e+01
   7.570211e+01   7.307458e+01
   1.358873e+01   1.431611e+02
  -7.088354e+00   1.298172e+02
  -1.996775e+01   3.184112e+01
  -5.045270e+01   5.100964e+01
  -8.811596e+01   1.579888e+01
  -7.408410e+01  -6.161056e+01
  -6.197614e+01  -9.113816e+01
   4.015502e+01  -7.366008e+01
   1.033895e+02  -7.149521e+00
   3.297865e+01   6.176259e+01
  -3.478828e+01   7.734938e+01
  -7.957143e+01   5.534061e+01
  -9.085118e+01  -6.982565e+01
  -6.280992e+01  -9.309879e+01
  -8.367645e+00  -1.241921e+02
   4.575721e+01  -7.209947e+01
   5.057076e+01  -1.128602e+01
   8.228366e+01  -4.454256e+01
   1.022199e+02   3.945357e-01
   1.270213e+02  -3.478165e+01
   1.474744e+02   1.009596e+02
   3.186388e+01   1.647522e+02
  -1.062824e+02   1.704906e+02
  -2.177996e+02   1.276178e+02
  -1.208899e+02  -1.460421e+01
   1.202899e+01  -7.262593e+01
   9.323143e+00  -5.719162e+01
  -3.347906e+01  -3.018091e+01
  -4.809850e+01  -7.463235e+00
  -3.775707e+01   3.551180e+00
   1.490085e+01  -1.034961e+02
   6.002064e+01  -7.805603e+00
   4.211333e+01  -1.696398e+00
  -2.952719e+00   7.915285e+00
  -4.471088e+01   8.387801e+00
  -7.362729e+01  -4.353974e+01
   5.824513e+00  -1.279745e+02
   1.052958e+01  -8.792891e+01
   1.485195e+02  -3.364179e-01
   1.557784e+02   5.898843e+01
   2.499454e+01   8.134597e+01
  -4.215179e+01   5.294223e+01
  -5.528436e+01   5.581512e+00
   8.093210e+00   1.921417e+01
   7.707157e+00   6.871761e+00
  -2.729279e+01   4.217286e+01
  -2.528367e+01  -1.849194e+01
  -8.259993e+01  -4.750181e+01
  -1.050916e+01  -7.054484e-01
   3.607055e+01   3.521464e+01
   1.858366e+01   3.924781e+01
  -5.650626e+01   4.455441e+01
  -1.073789e+02  -1.753283e+01
  -1.265854e+02  -8.905813e+01
  -2.116734e+00  -1.130274e+02
   8.342430e+01  -1.004252e+02
   8.849564e+01  -4.533667e+01
   4.891594e+01   1.371021e+01
  -9.064694e+00   2.597001e+01
  -3.830654e+01   4.435482e+01
   5.194178e+01  -1.372528e+01
   6.584547e+01   2.205052e+01
   4.487129e+01   6.903971e+01
   5.438419e+00   9.462407e+01
  -1.390394e+01   3.001595e+01
  -4.394318e+01   3.549497e+01
  -1.187598e+01  -2.224119e+01
   2.659380e+01   2.142979e+00
   4.073807e+01   5.389503e+01
  -4.009398e+01   5.082119e+01
  -6.327055e+01   5.056464e+01
  -5.012305e+01  -5.352688e+01
   1.042144e+01  -4.777251e+01
   4.914942e+01  -5.545772e+01
   7.082838e+01   2.746493e+01
   3.649062e+01   4.045795e+01
  -3.409888e+01   4.305879e+01
  -2.648186e+01   2.653493e+01
  -3.083080e+01  -5.347094e+00
   2.390227e+01  -1.755889e+01
   7.379167e+00   1.305308e+01
  -3.664530e+01   1.485778e+01
  -1.788723e+01  -1.828922e+01
  -1.829425e+01  -6.299155e+01
   3.915879e+01  -6.260945e+01
   7.728567e+01  -2.174274e+00
   8.739957e+01   9.641482e+01
   4.099168e+01   8.140049e+01
  -2.959259e+01   5.416351e+01
  -7.571275e+01   3.039133e+01
  -4.121115e+01  -3.727015e+01
  -3.029894e+01  -2.792168e+01
   2.303200e+01   3.387810e+01
  -5.469155e+01   9.563125e+00
  -2.626084e+01  -2.290351e+01
   1.660935e+01  -5.439567e+01
   3.771585e+01  -1.577358e+01
   4.661849e+01   2.292999e+01
  -7.548632e+00   4.609351e+01
  -6.945491e+01   4.107122e+01
  -4.507203e+01   2.381045e+00
  -2.031364e+01  -7.646495e+01
  -4.485324e+00  -1.093286e+02
   9.440573e+01  -3.798814e+01
   1.447010e+02   1.716188e+01
   7.938152e+00   5.172080e+01
  -1.820886e+01   7.242969e+01
  -3.983719e+01   4.700171e+01
  -2.872874e+01   3.800729e+01
  -5.341449e+01   2.803875e+01
  -2.650497e+01   2.077592e+01
  -2.775584e+01  -3.405896e+00
  -7.123973e+01  -6.313102e+01
  -1.453137e+00  -2.960605e+01
   1.018494e+01  -4.773697e+01
   3.675579e+01   2.355039e+01
   5.923029e+01   2.481522e+01
  -2.359347e+01   4.461445e+01
  -2.284483e+01   1.148250e+01
  -6.505702e+01  -2.532952e+01
   1.872440e+01  -3.432764e+01
   9.605029e+00  -5.498031e+00
  -4.683512e+01  -7.838364e+00
  -2.468051e+01   9.265345e+00
  -1.808787e+01   2.637151e+00
   2.634794e+01  -2.426664e+01
   4.926388e+01   1.889460e+01
   4.410778e+01   3.369103e+01
  -1.114228e+01   5.537421e+01
  -3.512247e+01   3.422861e+01
  -5.251545e+01  -2.871510e+00
  -1.504051e+01  -1.450174e+01
  -1.681086e+01  -3.415588e+01
   2.473816e+01   1.180134e+01
   2.765727e+00   2.395649e+01
  -3.286998e+01   3.584016e+01
  -3.661528e+01  -1.235403e+01
  -3.061481e+01  -1.958713e+01
  -2.386709e+01  -9.600936e+00
  -3.090080e+01   1.936715e+01
  -5.598342e+01   7.862213e+00
  -1.973879e+01  -5.870027e+00
   3.474571e+01  -6.322841e+01
   3.908904e+01  -5.912022e+01
   2.825363e+01   2.536690e+00
   3.466238e+01   6.733178e+01
  -3.603750e-01   2.844922e+01
  -4.344802e+01   4.189210e+01
  -2.460399e-01  -1.006888e+01
   3.493466e+01  -4.684039e+00
   7.686217e+01  -1.436571e+01
   1.985426e+01   2.401101e+01
  -4.250020e+01   1.248070e+01
  -8.298729e+01   5.452893e+00
  -7.325468e+01  -9.600422e+00
  -2.605483e+00  -2.425531e+01
  -3.905990e+00  -4.480023e+00
   2.584679e+01   1.607102e+01
   6.794171e+00  -3.169451e+00
  -3.896678e+01   8.170351e+00
  -4.275045e+01  -3.873254e+01
   1.874421e+01  -4.643405e+01
   4.248485e+01  -6.288900e+01
   4.060237e+01  -2.334292e+01
   1.200822e+01   5.413887e+01
  -3.032549e+00   5.542352e+01
  -2.594482e+01   3.728508e+01
  -1.302830e+01  -4.891098e+01
  -3.381458e+01  -2.229042e+01
   1.928138e+01  -1.846344e+01
   1.661321e+01   4.255220e+00
   3.916061e+01   1.099681e+01
  -1.608672e+01  -2.831412e+00
   2.288643e+01  -2.156444e+00
   2.310932e+01   1.882034e+01
   4.750865e+00   4.850273e+01
  -2.176910e+01   2.599199e+01
  -5.561322e+01  -1.277802e+00
  -6.603814e+01  -3.658016e+01
  -2.880729e+01  -9.314934e+00
   5.502986e+01  -3.909012e+01
   4.449138e+01  -2.324517e+01
   4.896727e+00  -1.473396e+01
  -1.680446e+01   9.247150e-01
  -2.502972e+01   1.774250e+01
   2.499540e+01  -4.103670e+01
   2.954788e+00  -1.403392e+01
  -2.438640e+01   4.559470e+00
  -2.983008e+01  -1.535126e+01
  -2.350340e+01  -6.168999e+01
   1.950482e+01  -7.872363e+01
   5.715891e+01  -3.790600e+01
   6.669436e+01   4.888202e+01
   3.382309e+01   4.316126e+01
  -2.628715e+01   8.265639e+01
  -5.123559e+01   3.401834e+01
  -4.023377e+01  -3.758502e+01
  -3.377026e+00  -3.194265e+01
  -1.719220e+01  -1.522948e+01
  -7.424021e+00   2.363463e+01
  -1.772616e+00  -1.703545e+01
  -3.273807e+01  -2.488986e+01
   1.352358e+01  -2.460213e+01
   3.266988e+01   1.176718e+01
   4.942674e+01   4.819938e+01
   2.405328e+01   7.042023e+00
  -2.304073e+01   5.077602e+01
  -4.360427e+01  -1.060821e+01
   4.952210e-01  -6.189115e+01
   4.776402e+01  -3.092049e+01
   4.643662e+01   1.543929e+00
   2.802124e+01   2.216358e+01
  -2.634899e+01   2.435315e+01
  -1.337682e+01   1.101299e+01
  -4.934673e+00   7.862039e+00
   4.477195e+01  -4.985501e+01
   9.272038e+00   3.233763e+01
  -2.255096e+01   1.049688e+01
  -3.503360e+01   1.161407e+01
  -3.143644e+01  -3.083758e+01
  -2.836859e+01  -4.048511e+01
   9.208228e+00  -2.838343e+01
   2.409327e+01   1.352089e+01
  -3.175644e+00   1.044987e+01
  -6.251116e+00   1.136207e+01
  -3.033218e+01  -5.095171e+00
  -2.350171e+01  -8.744934e+00
  -3.654410e+00  -3.517205e+01
  -1.084067e+01   2.693666e+01
  -4.207447e+00   4.781798e+00
  -1.005362e+01   3.625070e+00
  -1.995975e+01   9.123735e+00
   2.929375e+01  -2.515027e+01
   2.409666e+01  -1.716912e+01
   9.926791e+00   1.596390e+01
  -3.693481e+01   3.338826e+01
  -9.958069e+00  -1.324016e+01
  -4.110651e+01  -2.421387e+01
   2.027917e+01   9.188946e+00
   2.262312e+01   2.428516e+01
   2.480797e+00   6.739724e+00
  -2.012674e+01   1.340997e+01
  -4.333399e+01  -4.671775e+00
  -3.382739e+00  -3.676551e+01
   9.301790e+00  -2.385023e-01
   2.316166e+01  -7.644966e+00
   2.076630e+01   6.705639e-01
   5.376855e-01   2.576108e+01
  -4.918899e+00   1.279092e+01
  -1.152073e+01   1.815874e+00
   1.532314e+01  -2.623956e+01
