
 $NMID
 id='ANONYMOUS ', fmtdat='(2E16.6)'
 volume=1.0
 tramp=1.0
 $END
   2.297586e+03  -1.883619e+02
   1.367812e+03   1.402928e+03
   7.894432e+01   9.825641e+02
  -1.053601e+03   6.268045e+02
  -4.343853e+02   2.023254e+00
   7.164339e+00  -2.726954e+02
   2.362870e+02  -8.576622e+00
   5.056077e+01   6.304392e+02
  -2.285982e+02   4.835858e+02
  -4.118338e+02   8.543544e+01
  -2.252558e+02  -4.533383e+02
   8.999271e+00  -4.459427e+02
   2.167619e+02  -2.135096e+02
   2.343307e+02   2.475461e+02
  -1.314870e+02   4.046880e+02
  -2.777629e+02   9.890754e+01
  -1.256626e+02  -2.794408e+02
   6.858963e+01  -4.474289e+02
   2.527059e+02  -1.803939e+02
   2.838663e+02   1.588106e+02
   7.903732e+01   2.132895e+02
  -3.723598e+01   1.239696e+02
  -4.692207e+01   5.912555e+01
   7.701882e+01   4.841007e+01
   1.637299e+02   9.560369e+01
  -5.799193e+01   2.705458e+02
  -2.145403e+02   7.972440e+01
  -3.554667e+02  -1.241084e+02
  -1.516135e+02  -1.386135e+02
   2.246156e+02  -1.594144e+02
   3.557603e+02   1.033254e+02
   1.148254e+02   2.354023e+02
  -1.895454e+02   2.929462e+02
  -2.247880e+02   1.314740e+02
  -1.902936e+02  -8.350241e+01
  -3.418350e+01  -1.800002e+02
   1.510375e+01  -1.319924e+02
  -4.818260e+00   4.504067e+00
  -3.464857e+01   1.279109e+02
  -1.392917e+02  -5.364217e+01
  -5.383773e+00  -2.590111e+02
   1.204043e+02  -3.001882e+02
   1.746292e+02  -8.115992e+01
   1.852182e+02   1.805070e+02
  -5.090554e+01   1.406885e+02
  -1.368653e+02  -1.630541e+02
   3.464947e+01  -3.254567e+02
   2.679486e+02  -1.238585e+02
   3.100656e+02   1.716156e+02
   5.500382e+01   3.503846e+02
  -1.878926e+02   1.685784e+02
  -2.401956e+02   5.443116e+01
  -2.111967e+02  -1.567387e+02
   2.176766e+01  -1.371190e+02
   1.289898e+02  -2.628935e+01
   1.409220e+02   5.566579e+01
   2.237626e+00   8.824988e+00
  -5.222337e+01  -4.669436e+01
   5.931340e+01  -2.105818e+01
   1.468151e+02   4.545768e+01
   9.768376e+01   1.598090e+02
  -7.593429e+01   7.679521e+01
  -1.981305e+02   3.543424e+01
  -1.838130e+02  -5.104234e+01
  -1.317376e+01  -1.904985e+02
   2.316811e+02  -2.070838e+02
   2.315561e+02  -1.419311e+02
   1.215924e+02   5.942405e+01
  -4.154513e-01   2.189027e+02
  -2.425665e+01   1.822852e+02
  -1.471685e+01   7.818434e+01
  -3.517839e+01   5.366124e+01
  -8.687563e+01   6.628063e+01
  -1.611901e+02   5.957359e+01
  -1.541765e+02  -2.318387e+01
  -2.501850e+01  -1.920214e+02
   5.102771e+01  -1.178492e+02
   1.226418e+02   2.052027e+01
   6.744190e+01   1.455234e+02
  -1.856401e+01   1.920161e+02
  -1.427073e+02   5.792420e+01
  -1.533588e+02  -4.593824e+01
  -9.528996e+01  -1.939834e+02
   5.404238e+01  -1.394333e+02
   1.458610e+02  -7.189106e+01
   8.724019e+01  -6.289715e+01
   8.550017e+01  -6.468101e+01
   1.961707e+02  -2.706617e+01
   2.620657e+02   2.465095e+01
   2.188967e+02   2.061733e+02
   2.258125e+01   2.775431e+02
  -2.164176e+02   3.258039e+02
  -3.040381e+02   1.108956e+02
  -1.684348e+02  -3.441169e+01
  -9.906548e+00  -1.358491e+02
   5.338354e+01  -1.221217e+02
   1.546288e+01   8.605836e-02
  -7.703498e+01   3.526502e+01
  -6.268367e+01   7.391065e+00
  -2.055991e+01  -1.043111e+02
   4.858013e+01  -6.286206e+01
   8.576585e+01   2.010334e+01
  -3.848043e+01   7.409893e+01
  -9.462321e+01   3.884567e-01
  -1.243997e+02  -1.582686e+02
   3.397009e+01  -2.278035e+02
   1.372183e+02  -1.489678e+02
   1.909738e+02   1.248893e+00
   1.784021e+02   1.567836e+02
   5.243383e+01   1.679913e+02
  -6.162096e+01   9.445823e+01
  -1.037564e+02  -4.098755e+00
  -1.996842e+01   1.373397e+00
   5.236195e+00   5.211854e+01
   1.009513e+01   8.035389e+01
  -7.177706e+01   4.876225e+01
  -1.023704e+02  -3.218837e+01
  -3.743993e+01  -2.180121e+01
   4.061975e+01   2.374350e+01
   2.453067e+01   6.905149e+01
  -1.104383e+02   4.444571e+01
  -1.666083e+02  -2.415446e+01
  -1.683651e+02  -9.062036e+01
  -5.205379e+01  -1.597796e+02
   1.066329e+02  -1.658192e+02
   1.438058e+02  -8.125665e+01
   9.178769e+01   1.664628e+01
  -3.810230e+00   5.481125e+01
  -5.282218e+01   3.731770e+01
   5.533693e+01  -3.178945e+01
   1.347852e+02  -4.060149e+01
   1.318538e+02   8.434125e+01
   1.906605e+01   1.351154e+02
  -1.076252e+01   5.959771e+01
  -8.126238e+01   4.624893e+01
  -2.425338e+01  -1.776726e+01
  -1.097166e+01   1.935891e+01
   1.417713e+01   7.284581e+01
  -7.141158e+01   9.172164e+01
  -1.273347e+02   2.137874e+01
  -1.064782e+02  -1.038664e+02
  -2.875575e+01  -1.251750e+02
   8.999213e+01  -8.878055e+01
   1.159795e+02   1.753140e+01
   8.254994e+01   4.348236e+01
  -4.194066e+01   7.484057e+01
  -5.732134e+01   2.398955e+01
  -5.488493e+00  -1.621326e+01
   1.072518e+01  -2.139910e+01
   1.173005e+01   2.113088e+01
  -5.750289e+01   1.309765e+01
  -7.895819e+01  -2.635493e+01
  -1.317867e+00  -1.119953e+02
   1.183510e+02  -1.158175e+02
   1.191362e+02  -2.198248e+01
   1.209151e+02   9.079559e+01
   5.518898e+01   1.136168e+02
  -4.051133e+01   9.941601e+01
  -7.641498e+01   5.117829e+01
  -3.699209e+01  -2.810413e+01
  -2.506921e+01  -2.639263e+01
  -4.505346e+01  -3.563929e+00
  -4.682021e+01   1.160410e+01
  -2.553519e+00  -2.763543e+01
   4.763444e+01  -3.242405e+01
   3.888326e+01  -4.887286e+01
   6.431045e+01   4.746403e+01
  -6.558879e+00   6.883492e+01
  -1.214293e+02   7.528121e+01
  -1.280441e+02  -3.808268e+01
  -5.966270e+01  -1.199143e+02
   5.344982e+01  -1.557280e+02
   1.744718e+02  -8.020149e+01
   1.343932e+02   7.917684e+01
   5.802486e+01   1.165392e+02
  -2.688931e+01   9.423092e+01
  -2.548836e+01   5.556302e+01
  -5.408004e+01   5.759234e+01
  -5.175266e+01   8.920650e+01
  -6.269668e+01   4.461988e+01
  -7.145700e+01  -4.064712e+01
  -6.401484e+01  -8.085293e+01
  -1.955879e+01  -1.177722e+02
   6.051656e+01  -6.609906e+01
   7.023488e+01   2.429419e+01
   6.407036e+01   6.641848e+01
   1.288160e+01   8.980993e+01
  -1.387771e+01   1.804428e+01
  -3.486550e+01  -1.958439e+01
   7.353576e+00  -1.544306e+01
  -1.262698e+01  -1.860726e+01
  -2.740282e+01   2.498102e+01
  -5.198402e+01  -1.382402e+01
  -4.911820e+01  -2.852187e+01
   3.652286e+01  -1.416655e+01
   9.198481e+01   2.520097e+00
   6.630315e+01   6.153997e+01
  -4.553579e+00   7.443676e+01
  -5.633006e+01   2.754473e+01
  -8.738828e+01   1.866106e+01
  -2.888168e+01  -2.788515e+01
   4.552271e+01  -2.414884e+01
   3.975279e+01  -1.321177e+00
  -6.119375e+00   3.873624e+01
  -6.734471e+01   5.816030e+01
  -5.830556e+01   1.468156e+01
  -2.816616e+01  -2.819415e+01
  -2.770402e+01  -7.003419e+01
  -4.220409e+01  -7.003212e-01
  -3.859045e+01   2.394059e+01
   6.053380e-01  -3.306901e+01
   8.209767e+00  -1.079222e+02
   7.786575e+01  -5.389953e+01
   9.793179e+01   2.642033e-01
   5.958129e+01   8.567498e+01
  -7.769678e+00   7.366692e+01
  -5.775180e+01   3.093095e+01
  -2.620837e+01  -3.078982e+01
   4.863321e+01   2.040710e+01
   7.457927e+01   1.410090e+01
   6.739269e+01   8.992376e+01
  -2.639226e+01   5.881426e+01
  -1.103308e+02   4.332969e+01
  -1.090300e+02  -1.923957e+01
  -3.129040e+01  -5.178948e+01
   5.961415e+01  -1.616538e+01
   2.218324e+01  -1.458083e+01
  -5.951227e+01   4.612043e+00
  -4.314908e+01   9.715740e+00
  -4.281343e+01  -7.055730e+01
   3.003225e+01  -1.110221e+02
   7.745290e+01  -6.106013e+01
   6.402829e+01   5.713306e+01
  -3.206665e+00   1.226159e+02
  -6.955552e+01   6.685182e+01
  -4.642368e+01   2.148985e+00
  -2.008464e+01  -5.627302e+01
  -1.289276e+01  -5.632291e+01
   4.841023e+01   7.456114e+00
   2.889469e+01   1.325165e+01
  -1.325694e+01   3.409246e+01
   1.404311e+01  -2.623918e+01
   8.464539e+00  -9.586961e+00
   5.038953e+00   5.416891e+01
   8.211661e+00   6.244439e+01
  -1.813023e+01   2.725677e+01
  -1.318051e+02  -6.829478e+01
  -7.590918e+01  -2.552364e+01
  -1.018259e+01  -3.636091e+01
   5.566737e+01  -4.271991e+00
   3.386087e+01   1.306607e+01
   4.180666e+00  -1.872021e-01
  -3.501402e+01  -2.326143e+00
   6.453597e+00  -1.261183e+00
   1.920444e+01  -1.999539e+01
  -7.503633e+00   1.983218e+01
  -2.085095e+01   1.943994e+01
  -5.853389e+01  -1.917329e+01
   1.257104e+01  -2.630584e+01
   3.105976e+01  -7.755861e+01
   1.223211e+02  -3.073359e+01
   1.011297e+02   5.744746e+01
   2.597248e+01   8.221274e+01
  -6.016838e+01   1.043575e+02
  -7.576947e+01   3.795831e+01
  -6.261724e+01  -2.182724e+01
  -1.604285e+01  -2.827311e+01
   2.914927e+01  -1.262825e+01
   8.888121e+00   1.237111e+01
  -1.050316e+01  -3.486620e+01
  -6.970705e+00  -4.846323e+01
   3.099326e+01  -1.940579e+01
   3.578431e+01   1.653621e+01
   7.142128e+01   5.116330e+01
   1.757665e+01   5.844528e+01
  -2.697060e+01   5.613925e+01
  -6.462698e+01  -3.078219e+01
  -3.771631e+01  -6.957418e+01
   3.973652e+01  -3.181676e+01
   4.733873e+01   2.099977e+01
   1.404222e+01  -2.661562e+00
  -4.974055e+01   2.114779e+01
  -3.441819e+01   2.397174e+01
   4.859013e+01  -3.756942e+00
   3.171920e+01  -2.387921e+01
   6.136784e+00   4.680882e+00
  -6.129577e+01   5.793544e+01
  -5.946654e+01   1.474403e+01
  -5.153151e+01   8.144202e+00
  -3.116194e+01  -6.355482e+01
   2.816534e+01  -4.536959e+01
   5.286715e+01  -1.585136e+01
  -1.319563e+00   4.580444e+01
  -4.329438e+01   9.693901e-01
  -2.495927e+01  -3.239790e+00
  -2.269942e+01  -3.165519e+01
  -2.227656e+01  -2.387663e+01
   1.976685e+01  -2.365947e+01
   1.422809e+01  -1.283785e+00
   9.071568e+00  -1.577036e+00
   9.829737e+00  -3.225503e+01
  -4.091714e+00  -4.896665e-01
   1.934551e+01   2.136904e+01
  -1.611275e+01   3.596873e+01
  -7.949498e-01   1.293265e+01
  -7.290684e+00  -2.038098e+01
  -2.172695e+01  -7.435502e+01
   1.810164e+01  -2.058804e+01
   3.658473e+01   1.885609e+00
  -1.268810e+01   7.060677e+01
  -8.841208e+01   1.297989e+01
  -5.811645e+01  -2.006377e+01
  -2.853096e+01  -3.162423e+01
   2.206041e+01  -2.520005e+01
   2.777763e+01  -1.012499e+01
   3.657719e+01  -2.429752e+00
  -1.459482e+01   3.576426e+00
  -2.072777e+01  -1.086912e+01
  -3.481283e+00  -3.781830e-01
   4.819957e+01  -1.760851e+01
