
 $NMID
 id='ANONYMOUS ', fmtdat='(2E16.6)'
 volume=1.0
 tramp=1.0
 $END
  -3.809842e+03   1.262404e+01
  -1.736661e+03  -1.769999e+03
   7.637089e+01  -2.261353e+03
   1.431049e+03  -7.426265e+02
   7.829992e+02   1.521248e+02
  -3.524725e+02   3.751201e+02
  -5.392969e+02  -1.090214e+02
   2.952272e+01  -7.658638e+02
   5.776786e+02  -6.189016e+02
   7.292896e+02  -3.589643e+01
   3.010800e+02   5.092476e+02
  -8.954654e+01   6.282635e+02
  -4.733580e+02   2.172940e+02
  -3.530199e+02  -5.430168e+02
   1.824041e+02  -5.953907e+02
   3.730148e+02  -1.032387e+01
   9.688801e+01   4.924387e+02
  -2.409982e+02   4.750807e+02
  -3.816431e+02   2.507696e+02
  -2.909953e+02  -2.576983e+02
  -6.330293e+01  -2.654398e+02
   1.130214e+02  -1.904991e+02
   1.437648e+02  -2.133975e+01
  -1.304721e+02   2.464912e+01
  -3.107478e+02  -1.666568e+02
  -6.109284e+01  -3.555760e+02
   3.988764e+02  -3.601435e+02
   5.912736e+02   1.005752e+01
   2.543923e+02   3.848127e+02
  -3.546547e+02   3.094400e+02
  -5.912481e+02  -6.099175e+01
  -2.702258e+02  -3.010809e+02
   2.617001e+02  -4.039980e+02
   4.275002e+02  -1.370953e+02
   2.850398e+02   1.345713e+02
  -2.528490e+01   3.641520e+02
  -1.114487e+02   2.332087e+02
  -6.770028e+01  -1.477658e+02
   1.488376e+02  -3.074115e+02
   2.496169e+02   6.310878e+01
   3.727490e+01   5.477966e+02
  -2.889176e+02   4.582018e+02
  -4.877200e+02   3.898163e+01
  -1.893691e+02  -3.990366e+02
   2.502319e+02  -2.073583e+02
   2.341453e+02   1.793781e+02
  -7.896179e+01   3.635708e+02
  -4.205215e+02   1.181925e+02
  -4.756563e+02  -3.170581e+02
  -1.399790e+02  -4.715976e+02
   3.133114e+02  -2.731036e+02
   4.535281e+02   6.195366e+01
   2.392245e+02   3.201703e+02
  -1.096297e+02   2.916265e+02
  -3.818789e+02   9.140964e+01
  -1.838805e+02  -1.173400e+02
   6.537082e+01  -6.817058e+01
   9.336540e+01   9.736326e+01
  -8.575254e+01   1.059315e+02
  -2.473638e+02   6.962742e+00
  -1.291361e+02  -2.177267e+02
   1.443846e+02  -2.262356e+02
   3.046910e+02  -1.043666e+02
   1.825291e+02   5.991233e+01
   1.073641e+01   2.412304e+02
  -2.108076e+02   3.088288e+02
  -3.194300e+02   2.356250e+02
  -2.639937e+02  -1.665964e+02
  -1.049498e+02  -3.593305e+02
   6.895878e+01  -3.557670e+02
   6.185575e+01  -1.063193e+02
  -9.387895e+00  -3.195709e+01
   8.064487e+01  -1.058799e+02
   1.919862e+02  -9.345842e+01
   2.165976e+02   9.466038e+01
   1.257869e+02   2.071072e+02
  -5.849907e+01   1.690500e+02
  -1.439939e+02  -1.562139e+01
  -1.708459e+02  -1.780040e+02
   2.275368e+01  -2.250085e+02
   2.246409e+02  -9.721173e+01
   2.809854e+02   1.371579e+02
   1.810213e+02   2.677130e+02
  -9.340973e+01   2.315204e+02
  -1.433328e+02   9.662242e+01
  -1.192407e+02   2.946221e+01
  -1.161420e+02   4.245323e+01
  -2.275871e+02   3.850087e+01
  -4.063245e+02  -7.142442e+01
  -2.765996e+02  -2.332233e+02
  -3.278326e+01  -3.560490e+02
   3.350339e+02  -3.457608e+02
   3.583108e+02  -2.175996e+02
   2.770116e+02   6.967036e+01
   2.856042e+01   2.341290e+02
  -1.044443e+02   2.213734e+02
  -8.042052e+01   2.241813e+01
   1.105116e+02  -9.901307e+01
   1.273742e+02   7.262029e+00
   3.554251e+01   1.344675e+02
  -8.155293e+01   1.071399e+02
  -1.361833e+02  -3.717221e+01
   1.977161e+01  -1.285789e+02
   1.632664e+02  -4.140464e+01
   1.691231e+02   2.141161e+02
   1.678843e+00   2.509246e+02
  -1.921765e+02   1.589365e+02
  -2.740338e+02  -4.036983e+01
  -2.078691e+02  -1.970394e+02
  -9.305046e+01  -2.412143e+02
   1.103345e+02  -1.207307e+02
   8.742524e+01   2.610671e+01
   2.066531e+01   1.290025e+01
  -7.533606e+01  -7.741878e+00
  -1.880748e+01  -8.385284e+01
   1.070323e+02  -6.039967e+01
   1.199834e+02   4.631862e+01
   2.149773e+01   5.267923e+01
  -9.033965e+01  -3.368099e+01
  -1.638906e+01  -8.600031e+01
   1.212832e+02  -4.109793e+01
   2.135245e+02  -7.862423e+00
   2.038596e+02   1.165707e+02
   5.725276e+01   2.241585e+02
  -1.649342e+02   2.289252e+02
  -2.307740e+02   8.703510e+01
  -1.554686e+02  -2.503457e+01
   1.225147e+01  -9.531276e+01
   5.665068e+01   6.410467e+00
  -4.477794e+01   8.117397e+01
  -1.527785e+02   4.556314e+01
  -1.839786e+02  -6.589350e+01
  -5.608777e+01  -1.373130e+02
   5.987129e+01  -1.452837e+02
   1.009497e+02  -5.418609e+01
   2.413927e+01   3.943552e+01
  -4.639487e+01  -4.289583e+00
  -4.216450e+01  -6.410213e+01
   5.219541e+01  -8.911672e+01
   1.597228e+02   6.736543e+00
   1.504335e+02   1.114422e+02
   2.116097e+01   1.800182e+02
  -1.369010e+02   1.328641e+02
  -1.515158e+02  -9.400914e+00
  -4.035470e+01  -8.648552e+01
   4.131314e+01  -8.948686e+01
   7.212288e+01  -6.798069e+01
  -1.752077e+01   1.177478e+01
  -2.109756e+01   1.304598e+00
  -1.095518e+01  -4.084512e+01
   6.125871e+01  -1.232421e+01
   9.863024e+01   8.126585e+01
   1.364886e+01   1.353179e+02
  -1.105490e+02   1.467342e+02
  -1.587680e+02   3.045900e+01
  -1.617062e+02  -9.847903e+01
  -5.702034e+01  -1.632426e+02
   7.187072e+01  -1.676856e+02
   1.105528e+02  -9.220295e+00
   5.541543e+01   3.832547e+01
   3.397496e+01   2.139310e+01
   3.014282e+01  -4.714487e+01
   7.846187e+01  -4.257854e+01
   2.746719e+01   2.078963e+01
  -3.424795e+01   7.042466e+01
  -8.913806e+01   7.034915e+01
  -7.194747e+01  -2.022415e+01
  -1.140696e+01  -7.718549e+01
   1.406280e+02  -7.674940e+01
   2.039552e+02   3.694578e+01
   6.819887e+01   1.324481e+02
  -8.992574e+01   1.772446e+02
  -2.584361e+02   1.163902e+02
  -2.045676e+02  -7.584743e+01
  -1.031248e+02  -1.286225e+02
   5.081618e+01  -1.125593e+02
   6.170079e+01  -1.023587e+02
   8.269971e+01  -7.031833e+01
   3.922478e+01  -9.508171e+01
   4.491416e+01  -5.922288e+01
   1.014058e+02   1.525396e+01
   1.101629e+02   1.237107e+02
   1.122322e+01   2.035525e+02
  -7.970270e+01   1.017033e+02
  -1.530792e+02   2.329095e+01
  -1.185245e+02  -1.028073e+02
  -1.024151e+01  -1.207621e+02
   6.230173e+01  -5.070390e+01
   4.595060e+01   1.378879e+01
   8.407105e+00   5.897816e+01
  -6.786348e+00   2.876213e+01
   4.222778e+01   1.664731e+01
   7.006200e+01   1.083479e+01
   1.562107e+01   3.455149e+01
  -5.324794e+01   4.106625e+01
  -1.748203e+02   3.994347e+01
  -1.160588e+02  -6.020739e+01
   8.739514e+00  -6.681371e+01
   9.979630e+01  -6.759618e+01
   1.244559e+02   6.429269e+00
   3.612282e+01   1.827039e+01
  -6.613297e+01   4.552553e+01
  -8.749889e+01  -1.914887e+01
   2.451226e+00  -8.891977e+01
   5.036178e+01  -6.095257e+01
   6.179603e+01   9.555534e+00
   2.748014e+01   2.767960e+01
   5.243574e+01   6.057432e+01
   3.494173e+01   2.487324e+01
   4.873671e+01   2.809558e+00
   3.734652e+01   8.159248e+01
  -5.728286e+01   1.575721e+02
  -1.080143e+02   1.322459e+02
  -1.868505e+02   6.280527e+01
  -1.153835e+02  -7.397528e+01
  -4.141602e+01  -9.956953e+01
   1.016409e+02  -5.360351e+01
   5.990935e+01  -1.071083e+00
  -9.405931e+00   4.405200e+00
  -1.083576e+02   1.668840e+01
  -3.940739e+01  -9.667186e+01
   3.781811e+01  -9.570469e+01
   1.789626e+02  -5.982907e+01
   1.463548e+02   3.170175e+01
   4.306807e+01   8.727948e+01
  -4.616892e+01   5.264552e+01
  -1.431587e+01  -1.653298e+01
   2.362205e+01  -2.639372e+01
   4.321936e+01   5.044508e+01
   2.064971e+01   9.607688e+01
  -6.377301e+01   1.264138e+02
  -1.191553e+02   7.327785e+01
  -1.072321e+02  -9.582438e+01
  -2.208058e+01  -1.562131e+02
   9.518370e+01  -1.428181e+02
   7.928182e+01  -1.511277e+01
   3.973135e+01   1.236035e+02
   1.171557e+01   1.043510e+02
  -5.846644e+01   7.834279e+00
  -5.970041e+01  -6.340451e+00
  -1.938243e+01  -7.375396e+00
  -1.136618e+01  -4.422593e+00
  -2.037802e+00  -1.566126e+00
  -2.253973e+01  -5.330889e+01
  -4.666340e+00  -1.084805e+02
   3.387528e+01  -3.144469e+01
   1.430828e+02   5.200969e+01
   1.005617e+02   3.945373e+01
   1.592583e+01   2.712991e+01
  -1.030561e+02   5.615388e+01
  -7.654009e+01   6.346187e+00
   2.573838e+00  -2.838582e+00
   2.286700e+01   8.527228e+00
  -5.746157e+00  -2.687593e+01
  -2.474190e+01   4.096959e+00
   2.323576e+01   1.694512e+01
   5.997277e+01   2.195298e+00
   4.953616e+01  -6.189438e+00
   2.246396e+01   8.334117e+01
  -8.306684e+01   1.111123e+02
  -1.565551e+02   4.470359e+01
  -9.267170e+01  -4.911240e+01
  -2.514218e+01  -1.618659e+02
   5.090427e+01  -1.354140e+02
   5.790279e+01  -5.504330e+01
   5.349686e+01   2.172548e+00
   6.414531e+00   3.464137e+01
  -7.603098e+00  -2.357067e+01
   1.399945e+00  -4.145177e+00
   3.076127e+01   4.880006e+01
   1.948265e+01   6.811291e+01
  -3.369590e+01   7.510480e+01
  -6.021078e+01  -2.419266e+01
  -6.765321e+01  -9.755127e+01
  -1.055990e+01  -8.110626e+01
   5.550052e+01  -3.119319e+01
   9.226024e+01   5.429930e+01
   2.081797e+01   9.233381e+01
  -1.330256e+01   2.284943e+01
  -8.711707e+01   4.202323e+01
  -3.955962e+01  -4.195896e+01
   4.284926e+01  -2.986417e+01
   2.522492e+01  -3.064587e+01
  -2.887545e+01   7.068345e+00
  -5.962851e+01   2.890790e+01
  -1.385599e+01  -4.316390e+00
   5.388900e+01  -3.401562e+01
   9.547425e+01  -6.278406e+01
   4.101871e+01  -5.574785e+00
  -2.902185e+01   8.003547e+01
  -3.852656e+01   1.095261e+02
  -6.932045e+01   1.812955e+01
   2.074341e+01  -5.250666e+01
   1.250875e+01  -1.952213e+01
   1.571119e+01   1.476548e+01
   1.225177e+01   1.415691e+01
   1.556824e+00   2.766989e+01
  -5.270446e+01  -1.016506e+01
  -3.213220e+01  -2.437340e+01
   2.709007e+01  -1.675808e+01
  -1.061791e+01   5.127820e+01
   6.326019e+00   5.395453e+00
   2.350395e+01  -2.312087e+01
  -1.061518e+01  -5.150433e+01
   3.752574e+01  -1.942843e+01
   2.230498e+01   4.776572e+01
  -4.891113e+00   6.847040e+01
  -2.892313e+01  -4.739582e+00
  -5.357346e+01  -4.038497e+01
   1.637274e+00  -5.196730e+01
   3.858003e+01  -1.671079e+01
   8.434722e+01   1.478363e+00
   5.561890e+01   2.584259e+01
  -2.914320e+01   2.584025e+01
  -4.393472e+01  -1.329621e+01
  -2.709032e+01  -1.792569e+01
   3.380121e+01   1.291588e+00
   4.316911e-01   2.293240e+01
  -2.670322e+01   2.035148e+01
  -7.394650e+01   1.452582e+01
