
 $NMID
 id='ANONYMOUS ', fmtdat='(2E16.6)'
 volume=1.0
 tramp=1.0
 $END
  -2.927166e+03  -3.527315e+02
  -2.300577e+03  -2.040901e+03
   4.283002e+02  -1.982598e+03
   1.462074e+03  -1.100166e+03
   8.474801e+02   7.666814e+01
  -1.221987e+02   1.929857e+01
  -3.188628e+02  -2.479350e+02
   9.498194e+01  -4.657202e+02
   4.321207e+02  -4.623033e+02
   6.398867e+02   5.296113e+01
   3.307418e+02   5.021036e+02
  -1.101382e+02   6.372861e+02
  -4.185835e+02   1.251571e+02
  -2.469405e+02  -5.614414e+02
   1.833692e+02  -4.754515e+02
   3.637342e+02  -2.796770e+01
   2.809338e+02   5.111432e+02
  -7.023590e+01   5.788283e+02
  -3.947815e+02   2.153002e+02
  -3.851358e+02  -1.867352e+02
  -9.726263e+01  -3.319199e+02
   1.444127e+02  -1.729295e+02
   6.075477e+01  -5.992322e+01
  -1.816762e+02  -5.975154e+01
  -3.410320e+02  -1.995039e+02
   5.798675e+00  -3.622403e+02
   4.863677e+02  -1.703015e+02
   6.275687e+02   2.563354e+02
   2.189520e+02   4.943435e+02
  -4.009378e+02   2.616318e+02
  -6.514681e+02  -9.107599e+01
  -1.850187e+02  -3.641926e+02
   2.758851e+02  -3.114746e+02
   4.969841e+02  -5.329140e+00
   3.297012e+02   1.975527e+02
   2.543649e+01   3.001257e+02
  -8.729976e+01   2.078472e+02
  -3.451843e+00  -1.595079e+02
   2.312348e+02  -1.745791e+02
   2.663686e+02   1.060007e+02
   6.302014e+01   5.669690e+02
  -3.209552e+02   4.197275e+02
  -4.297133e+02   1.024619e+01
  -1.401956e+02  -3.026586e+02
   1.929375e+02  -1.611085e+02
   1.322964e+02   3.033540e+02
  -1.769349e+02   4.049039e+02
  -4.352868e+02   3.756583e-01
  -4.770387e+02  -3.639731e+02
  -1.186380e+02  -4.637534e+02
   3.164955e+02  -2.699430e+02
   5.199502e+02   1.012247e+02
   3.195679e+02   3.370098e+02
  -5.117668e+01   2.211539e+02
  -3.434519e+02   1.077213e+02
  -1.981092e+02  -5.248226e+01
   1.994584e+01  -3.221435e+01
   4.707144e+01   5.315512e+01
  -1.756377e+02   7.722247e+01
  -2.941756e+02  -8.432565e+01
  -6.458159e+01  -2.343715e+02
   1.571477e+02  -1.902574e+02
   3.436514e+02  -1.181498e+02
   2.189162e+02   8.655921e+01
  -6.227664e+00   2.638868e+02
  -2.838902e+02   3.435384e+02
  -3.184028e+02   1.305273e+02
  -2.558712e+02  -1.554471e+02
  -3.310159e+01  -2.933509e+02
   2.241841e+01  -3.332600e+02
   1.157705e+01  -1.874749e+02
   2.778537e+01  -9.924969e+01
   1.014265e+02  -1.115796e+02
   2.490243e+02  -4.760467e+01
   2.293384e+02   9.392760e+01
   9.160042e+01   2.327559e+02
  -8.442948e+01   2.152348e+02
  -2.046271e+02  -5.509519e+01
  -1.683897e+02  -2.832311e+02
   7.950416e+00  -2.935495e+02
   2.277175e+02  -8.975259e+01
   3.575997e+02   1.626586e+02
   8.702934e+01   3.043058e+02
  -8.235369e+00   2.475101e+02
  -1.456663e+02   1.394187e+02
  -8.116663e+01   3.976630e+01
  -1.521070e+02   1.943344e+01
  -2.556572e+02   5.810397e+01
  -4.300519e+02  -7.432011e+01
  -2.596505e+02  -2.894817e+02
  -3.260306e+01  -4.270724e+02
   3.363736e+02  -3.314987e+02
   5.179650e+02  -1.693117e+02
   2.956240e+02   1.526941e+02
   4.540159e+01   2.048780e+02
  -9.154247e+01   1.879201e+02
   1.128162e-01   2.142854e+01
   1.015471e+02  -4.496278e+01
   1.364422e+02   5.489446e+01
  -8.760031e+00   1.244301e+02
  -1.324014e+02   1.201567e+02
  -8.083017e+01  -6.488860e+01
   1.114955e+01  -1.444058e+02
   1.791792e+02  -2.744907e+01
   1.231413e+02   1.901064e+02
  -6.496455e+01   2.764411e+02
  -2.326231e+02   2.092226e+02
  -3.718185e+02  -4.063902e+01
  -2.304794e+02  -2.332530e+02
  -3.836080e+01  -3.058785e+02
   1.480070e+02  -1.226205e+02
   1.519564e+02  -2.478474e+01
   3.589848e+01   2.011117e+01
  -4.066518e+01  -7.709591e+01
  -2.061439e+01  -1.499789e+02
   1.596572e+02  -6.272208e+01
   1.275362e+02   8.662948e+00
  -2.711675e+00   3.743020e+01
  -1.023933e+02   5.303648e+00
  -3.032765e+01  -7.514448e+01
   1.180036e+02  -1.187167e+02
   2.547269e+02   8.225727e+00
   1.792450e+02   1.994264e+02
  -8.916813e+00   2.397282e+02
  -2.149765e+02   2.220624e+02
  -2.284556e+02   1.051347e+02
  -1.021906e+02  -9.468702e+01
   6.405328e+01  -1.024333e+02
   8.283459e+01   1.679854e+01
  -5.964490e+01   8.171749e+01
  -1.456341e+02   3.828326e+01
  -2.145649e+02  -7.225104e+01
  -4.629017e+01  -1.825524e+02
   7.097431e+01  -1.095066e+02
   1.259973e+02   1.050447e+01
   3.007740e+01   6.772154e+01
  -6.229628e+01  -1.836972e+01
  -5.945143e+01  -7.186449e+01
   1.190556e+02  -9.999690e+01
   2.327202e+02  -1.600877e+01
   1.610129e+02   1.494478e+02
   3.555991e+01   1.893487e+02
  -1.184395e+02   1.324806e+02
  -1.653893e+02   7.993085e-01
  -4.961378e+01  -9.668141e+01
   7.019601e+01  -8.757061e+01
   7.497536e+01  -3.980655e+01
  -1.388898e+01   1.275918e+01
  -5.337499e+01   1.246300e+01
  -1.037149e+01  -3.768716e+01
   9.021282e+01   1.319383e+01
   1.341702e+02   1.105377e+02
   1.651439e+01   2.052352e+02
  -1.446128e+02   1.381424e+02
  -2.510725e+02   2.017261e+01
  -1.915100e+02  -1.576643e+02
  -4.367076e+01  -2.212390e+02
   1.222168e+02  -1.454839e+02
   1.432681e+02  -3.349682e+01
   6.725233e+01   6.204643e+01
   1.831081e+01   6.405146e+01
   5.555816e+01  -4.795045e-01
   8.881017e+01  -1.823358e+01
   4.877786e+01   8.787874e+01
  -3.584695e+01   6.796300e+01
  -1.165384e+02   4.617487e+01
  -8.752263e+01  -2.648269e+01
  -1.266441e+01  -1.265684e+02
   1.732906e+02  -1.119328e+02
   1.999025e+02   8.548939e+01
   7.851979e+01   2.116866e+02
  -1.196176e+02   2.315185e+02
  -2.937089e+02   8.374100e+01
  -2.711531e+02  -1.194536e+02
  -6.427027e+01  -1.672072e+02
   6.388938e+01  -1.533616e+02
   8.720153e+01  -3.308876e+01
   7.774790e+01  -6.288650e+01
   8.471119e+01  -1.088678e+02
   1.098146e+02  -8.970163e+01
   1.001061e+02   1.411475e+01
   1.172069e+02   1.560757e+02
   3.446740e+01   2.153624e+02
  -9.654966e+01   1.611047e+02
  -1.662195e+02   4.463691e+01
  -1.190697e+02  -1.416643e+02
  -7.553924e+00  -1.496032e+02
   5.637826e+01  -8.138600e+01
   8.533349e+01   2.029888e+01
   1.503859e+01   5.117670e+01
  -3.648609e+01   2.778321e+01
   2.909529e+01   1.468920e+01
   6.179330e+01   2.471932e+01
   3.008372e+01   4.878771e+01
  -7.249365e+01   4.211516e+01
  -1.839561e+02  -2.684957e+01
  -1.319793e+02  -3.140781e+01
  -1.705766e+01  -1.114162e+02
   1.320681e+02  -8.738608e+01
   1.461433e+02  -1.289624e+01
   3.155503e+01   5.582066e+01
  -6.890151e+01   2.105753e+01
  -8.769383e+01   1.108828e+01
  -3.422502e+01  -5.741765e+01
   7.656972e+01  -7.844559e+01
   4.854020e+01  -1.568274e+01
   3.050741e+01   6.558332e+01
   4.627729e+01   5.019126e+01
   4.583009e+01   1.143278e+00
   6.442849e+01   1.144405e+01
   5.154185e+01   7.121961e+01
  -2.277743e+01   1.487694e+02
  -1.323104e+02   1.322268e+02
  -1.447943e+02   1.826590e+01
  -1.304579e+02  -1.115714e+02
  -6.149481e+00  -1.008359e+02
   8.191472e+01  -6.582959e+01
   7.379024e+01  -6.214161e+00
  -5.676824e+01  -1.770129e+01
  -1.145127e+02  -2.526985e+01
  -4.504048e+01  -1.206761e+02
   7.557400e+01  -1.001339e+02
   1.812801e+02  -6.229436e+01
   1.574681e+02   2.848633e+01
   4.563327e+01   5.558415e+01
  -9.359721e+01   2.601606e+01
  -4.917594e+01  -1.024690e+01
   3.109591e+01  -1.329563e+01
   7.276504e+01  -1.666453e+00
   2.939706e+01   8.777193e+01
  -8.237911e+01   1.630795e+02
  -1.423521e+02   3.678769e+01
  -1.201468e+02  -1.142995e+02
  -1.427409e+01  -2.058295e+02
   6.404294e+01  -1.030363e+02
   1.229541e+02   6.348562e+00
   4.883600e+01   1.269090e+02
  -5.314294e+01   9.775201e+01
  -1.729989e+01   8.776547e+00
  -5.052131e+01  -4.519092e+01
  -4.081125e+01   2.017241e+01
   1.756486e+01   1.664862e+01
  -2.212523e+01  -2.865260e+01
  -5.673248e+01  -9.332659e+01
  -1.166768e+01  -9.623886e+01
   5.139546e+01  -3.542196e+01
   1.037169e+02   2.579991e+01
   1.172545e+02   1.167944e+02
   1.730861e+00   4.573250e+01
  -8.984619e+01   4.706583e+00
  -7.152096e+01  -7.580700e+00
  -2.881365e+00  -1.650213e+01
   5.130113e+01   1.717428e+01
   4.050101e+01  -2.504591e+00
  -2.633828e+01  -9.977862e+00
  -1.500376e+01  -1.174108e+01
   3.337772e+01  -5.599263e+00
   9.331623e+01   7.423471e+00
   2.536420e+01   9.701473e+01
  -1.057856e+02   1.385768e+02
  -1.525633e+02   7.558888e+01
  -1.392896e+02  -4.407195e+01
  -1.108372e+01  -1.419490e+02
   7.077994e+01  -1.256413e+02
   1.075585e+02  -7.672022e+01
   8.692754e+01  -1.806997e+01
   2.526406e+01   3.778766e+01
  -7.122131e+00   1.111913e+01
   1.878441e+00  -1.222656e+01
   1.721321e+01   5.790655e+01
   3.479373e+01   4.046386e+01
  -2.030636e+01   6.889924e+01
  -7.688434e+01  -8.407543e+00
  -9.101163e+01  -1.190286e+02
  -1.750268e+01  -1.012396e+02
   4.727993e+01  -4.901099e+01
   8.579496e+01   7.647694e+01
   2.538838e+01   1.207087e+02
  -7.772245e+01   4.948263e+01
  -9.120201e+01  -1.938947e-01
  -2.744833e+01  -5.200607e+01
   3.466337e+01  -4.597076e+01
   4.413510e+01   8.211476e+00
  -1.598763e+01  -1.549145e+01
  -6.682412e+01   2.102953e+01
  -1.962016e+01  -2.530718e+01
   7.906975e+01  -5.353203e+01
   1.135453e+02  -5.278583e+01
   7.855552e+01   1.901452e+01
   3.423245e+01   1.109467e+02
  -4.308769e+01   1.532176e+02
  -3.954421e+01  -2.655851e+00
  -1.354362e+01  -5.622157e+01
   2.379519e+01  -3.979274e+01
   3.604471e+01   2.314875e+01
   1.724794e+01   6.878716e+01
   2.337928e+01   2.150688e+01
  -1.398066e+01  -2.014344e+01
  -5.601994e+01  -2.264307e+01
   2.886845e+00  -1.756213e+01
   3.681695e+01   1.722475e+01
   1.492502e+01   1.223300e+01
  -2.928493e+00  -3.383185e+01
   1.433376e+01  -6.628766e+01
   2.653060e+01  -2.741221e+00
   1.912007e+01   4.649088e+01
   1.088265e+01   5.046561e+01
  -4.680456e+01   3.120888e+00
  -4.650813e+01  -4.826317e+01
  -1.043951e+01  -5.671098e+01
   2.682547e+01  -4.201586e+01
   1.159176e+02   9.355977e+00
   2.395792e+01   9.883868e+00
  -1.161876e+00   3.189386e+01
  -4.558356e+01   2.861701e+01
  -1.082573e+01  -1.929731e+01
   2.925727e+01   5.514183e+00
   4.508474e+01   2.112218e+01
  -7.176941e+01   1.095374e+01
  -7.385758e+01   2.552380e+01
