
 $NMID
 id='ANONYMOUS ', fmtdat='(2E16.6)'
 volume=1.0
 tramp=1.0
 $END
  -2.491875e+03  -3.491529e+02
  -1.287026e+03  -1.008205e+03
  -3.451160e+02  -1.625415e+03
   7.734694e+02  -9.214321e+02
   8.250193e+02  -5.985473e+02
   3.062922e+02   1.371172e+01
  -2.468740e+02   8.535427e+01
   6.267544e+01  -2.936749e+02
   3.075226e+02  -4.369985e+02
   6.041460e+02  -1.993160e+02
   3.465509e+02   3.223266e+02
   1.539723e+01   5.021680e+02
  -2.301560e+02   2.019034e+02
  -2.593361e+02  -2.387030e+02
   1.036622e+02  -3.422514e+02
   2.824382e+02  -4.089644e+01
   2.495720e+02   3.682104e+02
  -1.598582e+02   4.488400e+02
  -4.047798e+02   2.608745e+02
  -3.434243e+02  -1.378025e+02
  -1.512327e+02  -3.256092e+02
   6.349413e+01  -2.511355e+02
   2.519523e+01  -7.783968e+01
  -1.477565e+02  -1.321322e+02
  -2.593763e+02  -3.063594e+02
   1.195644e+02  -2.441532e+02
   3.963645e+02  -1.057615e+01
   5.186060e+02   2.292831e+02
   1.162044e+02   2.119816e+02
  -2.768687e+02   5.587551e+01
  -3.705032e+02  -1.310314e+02
  -1.466434e+02  -2.408526e+02
   2.762410e+02  -2.052517e+02
   2.827685e+02  -1.001305e+02
   2.195678e+02   1.274965e+02
   5.591410e+01   2.384711e+02
  -1.151866e+00   1.630873e+02
   4.312433e+01  -9.413173e+00
   2.237171e+02   5.297243e+00
   5.097663e+01   1.974983e+02
  -1.397814e+02   2.345585e+02
  -2.196422e+02   2.449836e+02
  -2.356915e+02  -1.841655e+01
  -9.762253e+01  -2.201959e+02
   9.708943e+01  -7.005957e+01
   9.502775e+01   1.939851e+02
  -8.119211e+01   2.290770e+02
  -2.650531e+02  -4.606973e+01
  -3.381264e+02  -2.632483e+02
  -1.331533e+02  -3.969029e+02
   1.837492e+02  -1.516774e+02
   3.660975e+02   6.531423e+01
   2.715497e+02   1.516283e+02
  -7.669904e+01   1.367562e+02
  -2.449339e+02   8.516487e+01
  -1.357438e+02   2.975074e+01
  -2.499351e+01   6.559582e+00
   4.066991e+01  -1.780366e+01
  -6.395203e+01   8.383671e+01
  -1.728393e+02  -3.404006e+01
  -1.165052e+02  -1.056703e+02
   1.430864e+02  -2.570011e+02
   3.248255e+02  -1.812979e+02
   2.231067e+02   1.187020e+02
  -3.062006e+01   3.433236e+02
  -2.705734e+02   3.186884e+02
  -3.250492e+02   6.700750e+01
  -1.999046e+02  -1.399836e+02
   1.268717e+01  -2.608126e+02
  -2.071269e+01  -3.157790e+02
   6.247927e+00  -1.794075e+02
   2.582283e+01  -1.253159e+02
   1.339404e+02  -1.159958e+02
   1.852725e+02  -2.512113e+01
   2.089369e+02   1.285156e+02
   4.422443e+01   2.059599e+02
  -1.285011e+02   1.380827e+02
  -1.435181e+02  -3.946329e+01
  -9.898411e+01  -2.308663e+02
   8.197945e+01  -1.928086e+02
   2.056438e+02  -8.953316e+01
   2.727102e+02   1.326100e+02
   1.373730e+02   2.482606e+02
  -1.813769e+01   2.143993e+02
  -1.357911e+02   1.136770e+02
  -1.302596e+02   8.048138e+01
  -1.618764e+02   2.523859e+01
  -2.530024e+02  -6.473188e+00
  -3.355793e+02  -9.855918e+01
  -2.931353e+02  -2.625514e+02
   1.026350e+01  -3.907480e+02
   3.243697e+02  -2.667717e+02
   3.788269e+02  -1.967558e+02
   2.232639e+02   6.247742e+01
  -3.715768e+00   2.356407e+02
  -4.844616e+01   1.789888e+02
  -4.930005e+00   5.654695e+01
   1.365143e+02  -2.473484e+01
   7.088593e+01   2.551856e+01
   7.684736e+00   1.279347e+02
  -6.787788e+01   1.463071e+01
  -1.092383e+02  -3.769341e+01
   3.130749e+01  -7.476817e+01
   1.031348e+02  -4.070516e+01
   1.211062e+02   2.082664e+02
  -2.870078e+01   2.788987e+02
  -2.398104e+02   1.769895e+02
  -3.151440e+02  -8.513808e+01
  -1.862927e+02  -2.807590e+02
  -8.888654e+01  -2.914865e+02
   1.085983e+02  -1.351002e+02
   1.236096e+02  -1.510744e+01
   1.542129e+01  -1.426730e+01
  -3.427085e+01  -3.569607e+01
   7.344232e+00  -8.292364e+01
   9.610504e+01  -3.584763e+01
   1.379993e+02   4.177049e+01
   3.262140e+01   3.361268e+01
  -8.610941e+01  -7.543525e+00
  -3.584303e+01  -1.084848e+02
   1.158414e+02  -6.584691e+01
   2.696675e+02   3.576086e+01
   1.980374e+02   1.843146e+02
   3.431880e+00   2.684781e+02
  -2.526633e+02   1.633631e+02
  -1.909949e+02   5.026314e+01
  -1.076489e+02  -4.388920e+01
   3.047423e+01  -2.113073e+01
   2.435594e+01  -2.843395e+00
  -7.366386e+01   6.822702e+01
  -1.806716e+02  -1.320736e+01
  -1.119397e+02  -8.101544e+01
  -4.777621e+01  -1.615556e+02
   8.102565e+01  -1.246350e+02
   1.068314e+02  -2.169965e+01
  -1.187676e+01   5.298270e+01
  -3.746833e+01  -1.592609e+01
  -1.550958e+01  -1.283241e+02
   9.394993e+01  -1.064944e+02
   1.723898e+02  -2.354170e+01
   1.396500e+02   1.207541e+02
  -2.141536e+01   2.131222e+02
  -1.597124e+02   1.135911e+02
  -1.211811e+02  -7.129881e+00
  -1.430594e+01  -1.106186e+02
   5.228573e+01  -7.537541e+01
   4.470747e+01  -3.647709e+01
  -2.857756e+01   1.726533e+01
  -4.831598e+01  -1.517480e+01
  -3.135294e+01  -3.132337e+01
   7.307169e+01  -1.223685e+01
   1.245957e+02   9.605863e+01
   2.666723e+01   1.527070e+02
  -1.486834e+02   1.419336e+02
  -1.726888e+02  -7.623141e+00
  -1.624091e+02  -1.047676e+02
  -2.075172e+01  -1.966404e+02
   7.922242e+01  -1.270000e+02
   9.700962e+01  -3.695776e+01
   5.986758e+01   4.916455e+01
   3.238402e+01   7.428117e-01
   7.511874e+01  -5.436174e+01
   9.146321e+01  -2.950372e+00
   6.298423e+01   5.105751e+01
  -6.732575e+01   9.549784e+01
  -9.877216e+01   8.491533e+01
  -1.095202e+02  -5.537634e+01
   1.757487e+01  -1.301839e+02
   1.479534e+02  -5.824246e+01
   1.964410e+02   8.661788e+01
   2.260126e+01   1.701089e+02
  -9.416958e+01   1.708315e+02
  -2.439978e+02   1.103241e+02
  -1.730920e+02  -9.391402e+01
  -1.085759e+02  -1.277874e+02
   1.687307e+01  -1.170552e+02
   7.550953e+01  -9.092953e+01
   4.465280e+01  -8.851706e+01
   2.433191e+01  -6.256437e+01
   9.048135e+01  -5.632687e+01
   1.368239e+02   2.929963e+01
   9.051369e+01   1.301492e+02
  -1.708708e+01   1.993862e+02
  -9.145243e+01   1.387896e+02
  -1.386348e+02   2.679289e+01
  -1.193772e+02  -1.239948e+02
  -7.752585e+00  -1.159923e+02
   8.874212e+01  -8.134406e+01
   5.759651e+01   3.258004e+01
  -1.410050e+01   4.397531e+01
  -4.422518e+01   3.639035e+01
   2.731448e+01  -1.963135e+01
   7.380631e+01   1.249424e+00
   3.142076e+01   1.428442e+01
  -5.502688e+01   3.611227e+01
  -1.802658e+02   1.868751e+01
  -1.197203e+02  -1.102405e+02
  -1.450085e+01  -8.358880e+01
   1.223679e+02  -4.620059e+01
   1.219914e+02  -1.022543e+01
   5.683001e+01   4.977979e+01
  -6.381680e+01   3.255278e+01
  -6.800380e+01  -2.791921e+01
   8.180339e+00  -8.081940e+01
   5.283468e+01  -4.915936e+01
   7.569531e+01  -2.201045e+01
   4.787283e+01   4.701659e+01
   2.751056e+01   4.778276e+01
   4.377648e+01   1.323360e+01
   8.203659e+01   1.459133e+01
   5.367764e+01   5.103477e+01
  -5.494287e+01   1.224614e+02
  -1.135658e+02   1.427870e+02
  -1.349152e+02   2.663995e+00
  -1.226002e+02  -9.543921e+01
   7.314812e+00  -1.359355e+02
   5.116383e+01  -6.841383e+01
   7.854685e+01   2.112926e+01
  -9.202555e+01   4.801496e+00
  -1.479603e+02  -4.572927e+01
  -3.181172e+01  -9.183425e+01
   6.971631e+01  -9.162469e+01
   1.449745e+02  -2.473027e+01
   1.281933e+02   1.293132e+01
   1.770022e+01   6.237514e+01
  -8.377845e+01   4.384083e+01
  -5.091128e+01  -7.643204e+00
   4.633527e+00  -1.410200e+01
   8.803717e+01   1.294253e+01
   5.190233e+01   9.983135e+01
  -7.300239e+01   1.474677e+02
  -1.756316e+02   4.436199e+01
  -1.113409e+02  -1.110723e+02
  -4.976375e+01  -1.479518e+02
   9.544004e+01  -1.102840e+02
   1.136234e+02   2.230260e+01
   2.514674e+01   9.494411e+01
  -8.764154e+00   1.113198e+02
  -2.667445e+01  -1.357391e+01
  -6.070307e+01  -5.283502e+01
  -2.330900e+01   7.743208e+00
  -9.298206e+00   1.488029e+01
  -3.046478e+01  -1.751662e+01
  -9.671297e+01  -8.031284e+01
  -2.257485e+00  -9.167917e+01
   3.040852e+01  -3.840080e+01
   8.729561e+01   1.322397e+01
   7.953063e+01   7.436444e+01
   1.080501e+01   4.723197e+01
  -8.943836e+01   2.391673e+00
  -9.230480e+01   9.376859e+00
  -2.404736e+01  -5.607712e+01
   2.358743e+01  -2.608169e+01
   8.086702e+00   4.789752e+00
  -2.174226e+01  -2.053441e+01
  -2.996255e+01   1.532516e+01
   4.405279e+01   3.949729e+00
   8.942612e+01   2.340217e+01
   6.053991e+00   1.011811e+02
  -1.042618e+02   1.241518e+02
  -1.501098e+02   5.714382e+01
  -1.435023e+02  -4.690515e+01
  -6.084487e+01  -1.060368e+02
   7.053113e+01  -1.266769e+02
   1.046920e+02  -7.643991e+01
   6.146793e+01  -2.055853e+00
   5.285837e+00   4.256915e+01
   3.004463e+01  -3.602966e-01
  -3.989749e+00   6.993941e+00
   5.270992e+01   3.881282e+01
   1.904653e+01   8.161267e+01
  -1.296403e+01   5.330819e+01
  -4.772758e+01  -2.511860e+01
  -7.172772e+01  -7.624447e+01
   8.521254e+00  -1.468420e+02
   5.326266e+01  -4.753871e+01
   5.771464e+01   7.063742e+01
   5.499599e+01   8.230673e+01
  -5.093207e+01   5.216629e+01
  -8.774845e+01   1.384895e+01
  -4.298502e+01  -6.612094e+01
   3.116474e+01  -6.440965e+01
   2.534270e+01  -2.271360e+01
   1.024956e+01   8.860467e-01
  -5.581166e+01   2.080391e+01
  -3.151553e+01  -1.893274e+01
   5.748029e+01  -2.361964e+01
   8.140245e+01  -5.221054e+01
   6.464048e+01   1.599690e+01
   9.438352e+00   7.144252e+01
  -3.057483e+01   8.432158e+01
  -7.205973e+01  -2.664010e+01
   1.544978e+00  -2.913773e+01
   2.278793e+01  -6.098253e+01
   8.979472e+00  -2.938727e+00
   3.288526e+01   5.792245e+01
  -1.931824e+01   4.777725e+01
  -2.235448e+01   2.317488e+01
  -4.848375e+01  -3.446572e+01
  -2.237309e+01   2.048419e+01
  -2.142614e+01   2.349252e+01
   1.328087e+00  -6.212874e+00
   2.246272e+00  -1.641747e+01
  -2.312316e+01  -5.266414e+01
   2.780847e+01  -2.277135e+01
   7.650317e+01   2.256881e+01
   4.790307e+00   4.707443e+01
  -3.716355e+01   2.794071e+01
  -3.143908e+01  -4.555292e+01
  -2.889897e+01  -2.527179e+01
   4.413284e+01  -3.253076e+01
   9.054857e+01   1.176337e+01
   4.346568e+01   5.648153e+01
  -4.404387e-01   3.135844e+01
  -6.231996e+01   1.560184e+01
  -2.863835e+01  -1.763076e+01
   1.371052e+01  -1.516165e+00
   6.290310e-01   1.482022e+01
  -1.071439e+01   2.264252e+00
  -3.819915e+01   2.462796e+01
