
 $NMID
 id='ANONYMOUS ', fmtdat='(2E16.6)'
 volume=1.0
 tramp=1.0
 $END
   2.148291e+03   2.400783e+02
   1.023620e+03   8.699581e+02
   2.696184e+02   1.362844e+03
  -6.330826e+02   9.576313e+02
  -8.173641e+02   4.603374e+02
  -4.092521e+02   4.624899e+01
   2.059107e+02   7.534738e+01
   2.036596e+01   2.149778e+02
  -2.981416e+02   3.827551e+02
  -5.797750e+02   1.825782e+02
  -2.920882e+02  -1.752472e+02
  -6.532630e+01  -4.073439e+02
   1.687195e+02  -2.711843e+02
   1.950381e+02   2.027354e+02
  -8.074469e+01   3.309046e+02
  -1.783839e+02   5.711115e+01
  -2.909665e+02  -2.599962e+02
   8.691551e+01  -3.836930e+02
   3.416117e+02  -2.390177e+02
   2.964989e+02   5.788760e+01
   8.563860e+01   2.888339e+02
  -4.702721e+01   2.077755e+02
  -2.832585e+01   1.133366e+02
   9.093446e+01   1.411366e+02
   2.136528e+02   2.445033e+02
  -8.524868e+01   2.391957e+02
  -3.648519e+02  -5.306552e+01
  -5.147977e+02  -2.608486e+02
  -7.705129e+01  -1.543964e+02
   1.626195e+02  -1.483033e+02
   2.785580e+02   1.567856e+02
   6.442171e+01   2.079140e+02
  -1.872357e+02   1.615426e+02
  -2.334253e+02   8.669320e+01
  -2.114036e+02  -1.153848e+02
  -5.867445e+01  -1.702573e+02
  -4.595417e+01  -1.410059e+02
  -7.312797e+01  -1.268921e+01
  -1.521820e+02  -4.866403e+00
  -3.620507e+01  -1.668638e+02
   1.061882e+02  -2.003731e+02
   1.539640e+02  -2.070207e+02
   2.453091e+02  -3.339883e+01
   4.564068e+01   2.154560e+02
  -6.819872e+01   1.417884e+01
  -3.955311e+01  -1.709704e+02
   8.600515e+01  -1.998564e+02
   3.057587e+02   2.828879e+01
   3.404656e+02   2.837497e+02
   1.537738e+02   3.296188e+02
  -1.398376e+02   1.544515e+02
  -3.012416e+02  -9.826765e+00
  -2.570987e+02  -1.112859e+02
   4.983700e+01  -1.159320e+02
   1.994081e+02  -8.789864e+01
   1.121918e+02  -7.957342e+01
   2.817986e+01   1.053867e+01
   1.832661e+00   1.160015e+01
   9.191332e+01  -6.315199e+00
   1.299699e+02   4.748341e+01
   4.651224e+01   9.098707e+01
  -1.106108e+02   1.607071e+02
  -3.117445e+02   1.457375e+02
  -1.753298e+02  -9.171364e+01
   5.858885e+01  -2.902481e+02
   2.589647e+02  -2.787850e+02
   2.639844e+02  -7.249793e+01
   1.848388e+02   1.496012e+02
  -2.034210e+01   2.430251e+02
   3.560990e+01   2.301495e+02
   5.213390e+00   1.800634e+02
  -2.022793e+01   1.025511e+02
  -1.624521e+02   9.572707e+01
  -2.073688e+02  -3.417317e+01
  -1.477119e+02  -1.469490e+02
   7.912834e+00  -1.824896e+02
   1.312223e+02  -1.609618e+02
   1.122314e+02   9.741902e+01
   9.050276e+01   1.951242e+02
  -1.204374e+01   1.464391e+02
  -1.518001e+02   4.444587e+01
  -2.275176e+02  -1.139111e+02
  -9.922681e+01  -2.066354e+02
   4.103192e+01  -1.964102e+02
   7.132092e+01  -1.114925e+02
   9.564509e+01  -8.850184e+01
   1.192873e+02  -4.925383e+01
   2.041014e+02  -3.076037e+01
   3.496758e+02   5.458082e+01
   2.502063e+02   2.068826e+02
  -4.264253e+01   3.655469e+02
  -2.914328e+02   2.445831e+02
  -3.621989e+02   1.938102e+02
  -1.831596e+02  -8.658280e+01
   1.342122e+01  -1.896953e+02
   3.380164e+01  -1.365383e+02
  -1.902580e+01  -3.621557e+01
  -8.634685e+01   1.286391e+01
  -4.124111e+01  -6.614338e+01
  -6.880095e+00  -9.772736e+01
   7.980601e+01  -1.703194e+01
   7.859467e+01   4.622633e+01
  -2.670747e+01   7.205858e+01
  -7.650071e+01   1.136718e+01
  -1.096103e+02  -1.686284e+02
   3.049022e+01  -2.915938e+02
   1.914551e+02  -1.252125e+02
   3.002847e+02   8.263490e+01
   1.477549e+02   2.373563e+02
   4.281835e+01   2.609882e+02
  -1.151510e+02   9.836362e+01
  -1.024631e+02  -1.729260e+01
  -1.393328e+01  -9.543628e+00
   3.095847e+01   3.378000e+01
  -1.349230e+01   7.233814e+01
  -8.222418e+01   2.783523e+01
  -1.214210e+02  -3.668777e+01
  -1.701205e+01  -6.272294e+01
   8.061411e+01   2.957959e+01
   2.387718e+01   8.530628e+01
  -1.472346e+02   5.100344e+01
  -2.465463e+02  -4.588391e+01
  -1.536683e+02  -1.369596e+02
   9.019449e+00  -2.032785e+02
   2.276106e+02  -1.225378e+02
   1.619317e+02  -6.706779e+01
   1.070381e+02   3.865367e+01
  -2.557113e+01   1.497996e+01
  -4.413026e+01  -5.661544e+00
   5.075021e+01  -7.218341e+01
   1.047613e+02   3.372383e+00
   1.395267e+02   4.249878e+01
   1.065346e+01   1.425625e+02
  -8.131579e+01   9.505983e+01
  -6.099698e+01   2.658121e+01
  -2.567334e+01  -2.566021e+01
   6.068674e+01   2.423581e+01
  -7.045759e+00   1.084047e+02
  -8.714728e+01   8.365311e+01
  -1.829709e+02  -8.537178e-01
  -1.572750e+02  -1.272025e+02
  -1.798568e+00  -1.526984e+02
   1.511445e+02  -1.329097e+02
   1.400802e+02   1.721893e+01
   2.504287e+01   7.794712e+01
  -5.269160e+01   6.480996e+01
  -3.556209e+01   5.053030e+01
   4.001413e+01  -3.712807e+01
   6.989967e+01  -1.100512e+01
  -2.130849e+01   1.692904e+01
  -7.351149e+01   1.917761e+01
  -1.162934e+02  -9.814568e+01
  -2.172712e+01  -1.100826e+02
   1.154953e+02  -9.932917e+01
   1.525436e+02  -2.579116e+00
   1.455084e+02   9.356699e+01
   1.443012e+01   1.554161e+02
  -4.955558e+01   1.198380e+02
  -1.026944e+02   1.730860e+01
  -5.944080e+01  -5.530764e+01
  -3.930292e+01  -2.055204e+01
  -3.790907e+01   8.293513e+00
  -8.481621e+01   5.310651e+00
  -5.960124e+01  -5.821512e+01
   2.469776e+01  -9.354538e+01
   1.158214e+02  -7.030562e+01
   9.350930e+01   7.303541e+01
  -3.383778e+01   1.295312e+02
  -1.674447e+02   4.108576e+01
  -1.656856e+02  -7.705494e+01
  -2.714640e+01  -1.845724e+02
   9.940248e+01  -1.504039e+02
   2.425334e+02  -7.276189e+01
   1.675007e+02   8.115527e+01
   1.000935e+02   1.414516e+02
  -2.745554e+01   9.772842e+01
  -3.788904e+01   5.289343e+01
  -3.947269e+01   6.210946e+01
  -4.976919e+01   4.865726e+01
  -6.515855e+01   5.106673e+01
  -1.062034e+02  -3.213992e+01
  -8.217312e+01  -1.293402e+02
  -4.294571e+01  -1.563667e+02
   9.898899e+01  -1.105057e+02
   1.338926e+02  -7.195464e-01
   7.521433e+01   7.445195e+01
  -2.742420e+01   1.106974e+02
  -7.940184e+01   9.750456e+01
  -3.265786e+01  -9.481182e+00
  -2.879345e+01  -2.060865e+01
   2.922314e+01  -1.414009e+01
  -2.858231e+01   6.789364e+00
  -5.912096e+01  -5.221449e+00
  -7.043100e+01  -3.020064e+01
   4.790535e+01  -2.205916e+01
   1.348159e+02   7.650374e-01
   1.179256e+02   8.313101e+01
   1.444392e+01   7.710538e+01
  -9.175424e+01   4.951670e+01
  -1.310803e+02  -1.729346e+01
  -2.038383e+01  -2.711694e+01
   1.060021e+01  -3.095873e+01
   7.027201e+01   1.706548e+01
   2.828002e+01   5.322659e+01
  -6.197337e+01   5.084877e+01
  -7.388707e+01  -2.186982e+01
  -4.576111e+01  -2.372338e+01
  -3.881090e+01  -5.480889e+01
  -4.109688e+01  -1.893915e+01
  -5.284773e+01  -3.433010e+00
  -5.251307e+01  -5.196183e+01
   2.261723e+01  -1.487618e+02
   1.101271e+02  -5.625468e+01
   1.595224e+02  -3.753325e+01
   9.233554e+01   7.611196e+01
   7.403009e-01   1.060124e+02
  -3.085617e+01   4.075283e+01
  -5.082879e+01  -5.367877e+00
   4.480283e+01  -2.253454e+01
   1.528235e+02   4.559705e+01
   5.402707e+01   6.187749e+01
  -7.022061e+01   6.648547e+01
  -1.125088e+02   6.683836e+01
  -1.171488e+02  -2.496289e+01
  -3.081142e+01  -6.534808e+01
   4.334383e+01  -4.380054e+01
   5.482926e+01  -1.178702e+01
  -2.975935e+01   2.874702e+01
  -7.617462e+01  -1.435842e+01
  -2.583504e+01  -1.086541e+02
   6.422674e+01  -9.929743e+01
   1.519468e+02  -3.279308e+01
   7.504142e+01   5.237476e+01
  -8.829684e+00   1.377123e+02
  -6.489076e+01   1.153279e+02
  -8.919914e+01  -2.426065e+01
  -1.910188e+01  -9.432232e+01
  -1.390752e+01  -7.485594e+01
   3.012490e+01  -2.413990e+01
   2.503974e+01   2.541988e+01
   6.678737e+00  -8.520892e+00
  -2.213145e+00  -3.344273e+01
   3.540044e+01   2.163122e+01
   5.670361e+01   9.001222e+01
   1.099568e+01   1.031957e+02
  -2.575312e+01   4.384648e+01
  -7.638390e+01  -3.032560e+01
  -8.593672e+01  -5.667990e+01
  -1.011104e+01  -1.365536e+01
   8.682399e+01  -1.963954e+00
   6.102521e+01  -3.179518e+01
   3.740943e+01   2.995988e+01
  -3.807026e+01   1.318494e+01
  -7.376148e+00   1.873831e+01
   2.699409e+01  -1.826484e+00
   9.714535e+00   1.265521e+01
  -5.337065e+01  -1.323586e+00
  -6.374660e+01  -2.798687e+01
  -7.357851e+01  -8.078897e+01
   6.663276e+01  -9.216521e+01
   1.380279e+02  -6.208393e+01
   1.196767e+02   2.071350e+01
   5.200632e+01   9.328539e+01
  -8.171829e+01   1.188582e+02
  -7.380018e+01   5.841998e+01
  -3.520831e+01  -2.985551e+01
  -1.474459e+01  -4.030343e+01
  -4.179369e+00  -8.305586e+00
  -3.591896e+00  -3.480296e+01
  -5.802385e+01  -2.873235e+01
  -3.003564e+01  -4.747480e+01
   1.356311e+01  -6.254017e+01
   6.251669e+01   3.741118e+01
   4.049417e+01   8.077254e+01
   1.230359e+01   8.473189e+01
  -7.176894e+01   2.707479e+01
  -9.642626e+01  -5.908203e+01
  -4.193263e+01  -7.076432e+01
   2.253831e+01  -2.885193e+01
   7.636790e+01   1.815148e+01
   3.996115e+01   3.867548e+01
  -2.038112e+01   7.780410e+01
  -2.573663e+01   4.591076e+00
   2.180520e+00   2.059694e+01
   3.467102e+01  -5.265897e+01
   1.567104e+01   1.016216e+01
  -7.722131e+01   4.251755e+01
  -5.954352e+01   3.104432e+00
  -5.371492e+01  -3.420795e+01
   3.744708e+01  -6.593779e+01
  -5.277570e+00  -7.427877e+01
   3.936352e+01   1.076241e+01
  -7.953379e+00   4.387674e+01
  -2.571771e+01   1.593974e+01
  -2.221850e+00  -8.928943e-01
  -2.238383e+01  -4.206564e+01
   1.284539e+01  -2.414130e+01
   1.364518e+01  -7.510078e+00
   4.502943e+01   1.812828e+01
   3.252354e+01   2.649703e+01
   1.438185e+01  -3.292135e+01
   2.491178e+01  -5.908906e+00
  -9.404401e+00   1.374775e+01
   3.672890e+00   1.959264e+01
  -2.249616e+01   3.876450e+01
  -9.032002e+00  -4.500601e+01
  -1.889927e+01  -4.817931e+01
   8.297086e+00  -1.654098e+01
   3.533047e+01   1.770560e+01
   1.250257e+01   4.961575e+01
  -3.119197e+01   4.991206e+01
  -5.441435e+01  -1.723524e+01
  -6.527075e+01  -3.010657e+01
   3.168928e+01  -3.346442e+01
   4.761549e+01  -3.814497e+01
   1.980030e+01  -4.180949e-01
  -4.771360e+01   9.666814e+00
  -4.081089e+00   1.086637e+00
  -5.599751e+00  -1.536718e+01
   4.448059e+01  -3.306022e+00
