
 $NMID
 id='ANONYMOUS ', fmtdat='(2E16.6)'
 volume=1.0
 tramp=1.0
 $END
  -1.359335e+03   7.243373e+01
  -1.171072e+03  -2.889434e+02
  -6.030809e+01  -9.776036e+02
   4.622127e+02  -7.314313e+02
   5.951589e+02  -3.741661e+02
   3.055117e+02   4.459404e+01
  -1.840762e+02  -2.708384e+01
  -1.063451e+02  -1.562242e+02
   2.088392e+02  -3.508377e+02
   4.482196e+02  -1.478927e+02
   3.223077e+02   1.973156e+02
   9.164139e+01   4.075832e+02
  -1.489147e+02   2.471430e+02
  -1.259440e+02  -9.977971e+01
  -4.482048e+00  -2.601324e+02
   9.820681e+01  -8.839595e+01
   3.270943e+02   2.323225e+02
  -5.162418e+01   3.548150e+02
  -2.813052e+02   1.401024e+02
  -2.786370e+02  -1.574209e+01
  -1.163764e+02  -2.375762e+02
   3.077955e+01  -1.645647e+02
   2.787393e+01  -7.484362e+01
  -7.986284e+01  -1.501385e+02
  -1.564245e+02  -1.963965e+02
   8.650384e+00  -2.009401e+02
   2.722007e+02  -8.615674e+00
   3.906775e+02   2.524072e+02
   1.027531e+02   1.228207e+02
  -6.255008e+01   9.159136e+01
  -2.504919e+02  -5.995980e+01
  -5.679829e+01  -2.015758e+02
   1.417845e+02  -1.175613e+02
   1.653078e+02  -1.446162e+02
   1.831385e+02   1.103209e+02
   1.350825e+02   9.960648e+01
   8.209027e+01   1.105040e+02
   5.880880e+01  -2.502518e+01
   6.247134e+01  -2.755881e+01
   6.146155e+01   1.041910e+02
  -4.896391e+01   1.441803e+02
  -1.404672e+02   1.881258e+02
  -2.203555e+02   1.583967e+01
  -7.217238e+01  -1.052487e+02
  -4.702562e+00   1.977079e+01
   1.604658e+01   9.722963e+01
  -8.891782e+01   1.679001e+02
  -2.779339e+02   4.970518e+01
  -3.310168e+02  -2.535669e+02
  -1.378070e+02  -2.907412e+02
   8.636978e+01  -1.636738e+02
   3.122586e+02   3.520678e+01
   2.189826e+02   7.545235e+01
   1.096121e+00   8.073064e+01
  -1.854581e+02   8.941678e+01
  -1.192217e+02   4.014410e+01
  -3.617023e+01  -1.632011e+01
   1.007091e+01  -4.751266e+01
  -4.604722e+01  -4.465249e+01
  -1.167566e+02  -2.806894e+00
  -5.986577e+01  -6.897000e+01
   5.182369e+01  -1.506379e+02
   2.608003e+02  -1.046957e+02
   1.596380e+02   1.071212e+02
  -5.217264e+01   2.513661e+02
  -2.240056e+02   2.476094e+02
  -2.484568e+02   4.290616e+01
  -1.383133e+02  -7.288514e+01
   1.711428e+01  -1.837514e+02
  -1.784412e+01  -1.494722e+02
   3.333030e+00  -1.502584e+02
   3.268350e+01  -9.235428e+01
   1.106475e+02  -5.547766e+01
   1.223435e+02   4.460636e+00
   1.256784e+02   1.147773e+02
   2.272680e+01   1.449439e+02
  -5.739443e+01   1.263373e+02
  -8.896432e+01  -1.492057e+01
  -5.300514e+01  -1.241039e+02
   3.344022e+01  -1.072978e+02
   1.045810e+02  -9.511284e+00
   1.813031e+02   8.682148e+01
   7.295264e+01   1.386187e+02
  -2.530682e+01   1.599010e+02
  -9.772970e+01   9.354385e+01
  -9.342105e+01   5.537182e+01
  -1.115929e+02   3.120661e+01
  -1.708381e+02   3.670713e+01
  -2.831452e+02  -1.895064e+01
  -2.181049e+02  -1.711461e+02
  -8.259769e+00  -2.678460e+02
   3.132725e+02  -2.040273e+02
   2.888535e+02  -1.309641e+02
   1.003496e+02   1.038207e+02
  -2.488685e+00   1.176918e+02
  -1.914858e+01   1.105899e+02
   2.409242e+01   3.799196e+01
   7.084263e+01   2.620157e+01
   2.933844e+01   2.660804e+01
   1.147650e+01   6.838956e+01
  -3.640128e+01   2.969672e+01
  -6.783253e+01  -2.394976e+01
   3.362900e+01  -4.350068e+01
   5.845398e+01  -1.603404e+01
   9.152976e+01   1.247198e+02
  -5.205382e+01   2.127259e+02
  -1.612179e+02   1.211588e+02
  -2.423231e+02  -4.075316e+01
  -1.506359e+02  -1.970064e+02
  -4.892607e+00  -1.853679e+02
   8.351443e+01  -6.403086e+01
   7.538006e+01   1.792980e+01
  -4.734643e+00   8.132630e+00
  -2.619459e+01  -2.203759e+01
  -9.165112e+00  -7.882878e+01
   7.034989e+01  -3.717603e+01
   9.332763e+01  -4.437886e+00
  -1.871633e+01   3.206567e+01
  -6.106751e+01  -3.462027e+01
  -8.170856e+00  -8.265622e+01
   9.588041e+01  -6.157690e+01
   1.928769e+02   2.526999e+01
   1.356864e+02   8.895982e+01
  -1.093818e+01   1.627228e+02
  -1.561897e+02   1.014769e+02
  -1.548237e+02   6.280399e+01
  -8.339367e+01  -3.063588e+01
   2.176754e+01   4.184073e+00
   4.763261e+01   9.512107e-01
  -3.809133e+01   7.690443e+01
  -1.155204e+02  -1.898484e+01
  -9.434758e+01  -5.030967e+01
   1.013979e+01  -9.007788e+01
   7.200372e+01  -5.254102e+01
   1.009925e+02  -1.082716e+01
   3.145469e+01   3.358271e+01
  -4.369490e+01  -8.705109e+00
  -2.721431e+01  -5.239055e+01
   8.085285e+01  -9.703696e+01
   1.568661e+02   1.674777e+01
   1.446195e+02   1.017136e+02
   6.672868e-01   1.213189e+02
  -1.164716e+02   1.223865e+02
  -1.167731e+02   8.623304e+00
  -6.978211e+01  -3.165539e+01
   4.742901e+01  -4.652099e+01
   3.518460e+01  -1.454551e+01
  -7.702076e+00   2.593508e+01
  -4.133350e+01  -1.026847e+01
   8.669664e+00  -1.971059e+01
   3.077938e+01   5.119611e+00
   8.500586e+01   7.617179e+01
  -2.244012e+01   8.314669e+01
  -1.072977e+02   8.052348e+01
  -1.359705e+02   4.020957e+01
  -1.117179e+02  -9.470979e+01
  -2.977592e+01  -1.583553e+02
   5.005521e+01  -8.727459e+01
   7.097483e+01  -3.037249e+01
   5.542722e+01   2.996211e+01
   3.946822e+01   1.224327e+01
   1.865672e+01   1.258612e+00
   4.325605e+01  -7.751920e+00
   6.515926e+01   3.213026e+01
  -3.783495e+01   7.729097e+01
  -6.309661e+01   2.245476e+01
  -7.524667e+01  -3.331894e+01
  -1.046748e+01  -9.587261e+01
   1.260673e+02  -5.330968e+01
   9.631179e+01   4.703015e+01
   4.846599e+01   1.403299e+02
  -4.533958e+01   1.410524e+02
  -1.757692e+02   4.986920e+01
  -1.176232e+02  -6.863680e+01
  -2.955569e+01  -1.054702e+02
   4.268587e+01  -6.392949e+01
   5.491604e+01  -8.443671e+00
   3.349726e+01  -4.638769e+01
   3.982226e+01  -6.142409e+01
   8.253008e+01  -5.556404e+01
   9.452590e+01   3.419661e+00
   4.370032e+01   1.175091e+02
   3.168714e+01   1.038181e+02
  -8.304999e+01   9.492300e+01
  -8.930560e+01  -5.322608e+01
  -8.139120e+01  -7.604982e+01
   1.610724e+01  -1.015598e+02
   6.825361e+01  -6.247686e+01
   3.951111e+01   1.531521e+01
   1.465245e+01   1.707961e+01
  -2.436073e+01   7.858569e+00
   2.969320e+01  -8.796001e-01
   6.192888e+01   4.955661e+01
   6.454049e+01   1.185989e+01
  -4.051329e+01   1.740065e+01
  -1.141726e+02  -7.857302e+00
  -1.100233e+02  -8.765212e+01
   1.276544e+01  -3.962680e+01
   7.455687e+01  -4.745649e+01
   8.097467e+01  -2.632628e+01
   8.051988e+00   4.160782e+01
  -1.925624e+01   1.975495e+01
  -8.877976e+01  -1.813708e+01
  -1.502928e+01  -5.472789e+01
   5.480747e+00  -5.266974e+01
   5.517570e+01   2.093017e+01
   6.136474e+01   3.343701e+01
   3.756914e+01   2.297584e+01
   1.210441e+01   1.575939e+01
   5.335120e+01   2.525399e+00
   8.345171e+00   4.181467e+01
  -2.046481e+01   9.976335e+01
  -5.472759e+01   5.890149e+01
  -1.173006e+02  -1.024642e+01
  -9.988033e+01  -5.646005e+01
  -7.945389e+00  -9.709938e+01
   5.074130e+01  -4.489306e+01
   1.876366e+01   2.453599e+01
  -5.074695e+01   2.209849e+01
  -6.666479e+01  -4.037352e+01
  -2.461508e+01  -9.782731e+01
   3.678721e+01  -5.702852e+01
   1.465742e+02  -3.933590e+01
   9.151648e+01  -2.193745e+01
   2.643036e+01   4.784777e+01
   1.108302e+01   3.654376e+01
  -3.212070e+01  -1.674478e+01
   4.592993e+01  -1.369887e+01
   6.820766e+01   3.055870e+00
   3.006868e+01   6.082235e+01
  -3.510216e+01   1.119302e+02
  -1.122282e+02   3.316200e+01
  -9.353626e+01  -4.710044e+01
  -1.454713e+01  -1.343817e+02
   5.356931e+01  -5.759414e+01
   6.640504e+01   2.561904e+01
   1.820151e+01   7.434075e+01
   1.464060e+01   8.207734e+01
  -9.941906e+00   1.833723e+01
  -2.933700e+01  -2.407318e+00
  -1.630603e+01  -6.603262e+00
   7.731650e+00   3.629642e+01
  -3.242283e+01  -2.919284e+00
  -9.243346e+01  -3.459473e+01
   1.743697e+01  -6.366628e+01
   2.520245e+01  -4.696875e+01
   5.387328e+01   2.473287e+01
   4.856244e+01   4.783571e+01
   3.569783e+01   2.886855e+01
  -7.400550e+01   1.709196e+01
  -5.141888e+01   1.540915e+01
  -3.245618e+01  -1.011133e+01
   1.048165e+01  -3.025091e+01
   3.140970e-01  -7.750501e+00
  -1.373624e+01   3.150526e+00
   5.082773e+00   1.214570e+01
   2.936800e+01  -1.001570e+01
   5.579088e+01  -2.537588e+00
   2.895719e+01   8.259103e+01
  -6.043221e+01   1.000636e+02
  -1.309602e+02   6.594550e+01
  -1.093163e+02  -1.148845e+01
  -5.811528e+00  -7.966666e+01
   5.878193e+01  -1.002065e+02
   5.687338e+01  -4.316202e+01
   3.746754e+01   1.135616e+01
   6.897643e+00   2.340144e+01
   3.618813e+00  -5.698558e+00
   4.234889e+01   2.059858e+01
   1.487687e+01   3.903700e+01
   1.860592e+01   7.936324e+01
  -1.962935e+01   2.363562e+01
  -4.699451e+01  -3.010668e+01
  -7.385689e+01  -5.836283e+01
   1.812965e+01  -6.423611e+01
   5.487282e+01   8.940921e+00
   5.788656e+01   5.799659e+01
   1.048082e+01   8.372146e+01
  -3.712125e+01   4.372827e+01
  -8.416546e+01   1.268227e+01
  -4.386871e+01  -2.928705e+01
   2.559411e+01  -2.764342e+01
   3.608930e+00  -1.723015e+00
  -2.803538e+01   2.085074e+00
  -5.489506e+01   6.326115e+01
  -7.780104e+00  -1.525323e+01
   6.822721e+01  -2.530943e+01
   7.471244e+01  -2.507002e+01
   4.282014e+01   2.802022e+01
   6.360466e-02   9.525699e+01
  -3.884222e+01   5.718929e+01
  -1.215225e+01  -1.746869e+01
   1.886556e+01  -3.157067e+01
   2.096499e+01  -3.943874e+01
   2.772768e+00   3.680625e+00
   2.617017e+01   8.252756e+01
  -1.631447e+01   1.907943e+01
  -1.359377e+00   7.376896e+00
  -1.254152e+01   5.096443e-02
  -1.710991e+01  -1.573943e+01
  -2.084887e+01   7.920847e+00
  -1.248020e+01   2.570701e+01
  -3.093785e+00  -2.863442e+01
  -1.167370e+00  -9.994625e+00
   2.744077e+01  -4.154599e+01
   2.072847e+01  -3.353769e+00
   1.611643e+01   4.870830e+01
  -3.643034e+01   7.866702e+00
  -4.038630e+01  -5.209130e+00
  -1.430490e+01   2.565629e+00
   4.737390e+01  -1.918594e+01
   4.137729e+01  -3.472391e+00
   4.201849e+01   1.340406e+01
  -1.963755e+01  -9.145631e+00
  -3.939619e+01   1.526531e+01
  -3.017606e+01   1.607619e+01
   3.175770e+01  -1.389343e+01
   2.060042e+01   9.911515e+00
  -2.065309e+01  -1.039485e+01
  -5.808673e+01   8.887078e+00
