
 $NMID
 id='ANONYMOUS ', fmtdat='(2E16.6)'
 volume=1.0
 tramp=1.0
 $END
   3.320666e+03   1.359758e+02
   1.844444e+03   2.218264e+03
  -3.125706e+02   2.123222e+03
  -1.835934e+03   9.383953e+02
  -6.556072e+02  -3.709263e+02
   6.332992e+02  -4.802810e+02
   7.995393e+02   3.534901e+02
  -1.129043e+02   8.990563e+02
  -7.519158e+02   6.882192e+02
  -7.143692e+02  -7.076119e+00
  -2.541430e+02  -6.903722e+02
   1.817353e+02  -7.449565e+02
   5.538501e+02  -7.976718e+00
   2.316857e+02   6.787285e+02
  -2.578184e+02   5.522356e+02
  -4.770722e+02   3.671476e+00
  -2.043133e+02  -5.714024e+02
   3.021528e+02  -3.763001e+02
   4.634939e+02  -1.391542e+02
   3.020658e+02   2.841866e+02
   5.197050e+01   3.130143e+02
  -1.895862e+02   1.822576e+02
  -1.796444e+02  -2.640428e-02
   1.040476e+02  -9.923016e+01
   3.328582e+02   1.014824e+02
   5.810555e+01   3.987138e+02
  -4.470738e+02   3.539287e+02
  -7.200691e+02  -1.492356e+02
  -3.087729e+02  -5.143189e+02
   3.820674e+02  -3.743503e+02
   6.518964e+02   5.971851e+01
   2.964178e+02   3.840884e+02
  -2.480869e+02   4.197492e+02
  -4.687221e+02   2.023219e+02
  -3.557746e+02  -1.251286e+02
  -1.713525e+01  -3.825447e+02
   2.254044e+02  -2.214547e+02
   1.442701e+02   1.867361e+02
  -1.601657e+02   3.760898e+02
  -3.825857e+02  -5.389315e+01
  -1.332589e+02  -6.489844e+02
   3.611469e+02  -6.139310e+02
   5.615855e+02   6.609258e+01
   1.707558e+02   4.637841e+02
  -2.665900e+02   1.844012e+02
  -2.962883e+02  -2.898574e+02
   1.226924e+02  -3.991800e+02
   4.339048e+02  -4.442275e+01
   5.328565e+02   3.825196e+02
   8.614456e+01   4.839919e+02
  -3.650418e+02   2.881027e+02
  -5.637713e+02  -9.105040e+01
  -2.271521e+02  -3.219189e+02
   1.466973e+02  -3.101317e+02
   4.102504e+02  -1.857458e+01
   2.042934e+02   1.642315e+02
  -8.537897e+01   1.000107e+02
  -6.078534e+01  -1.232667e+02
   1.097907e+02  -1.834780e+02
   2.859335e+02   6.860470e+01
   1.228332e+02   2.519815e+02
  -1.211368e+02   2.105377e+02
  -2.145667e+02   8.814170e+01
  -1.627697e+02  -3.519693e+01
  -5.570785e+00  -2.089677e+02
   1.964807e+02  -2.521554e+02
   2.765734e+02  -1.628679e+02
   2.389309e+02   1.209876e+02
   5.634613e+01   3.858888e+02
  -1.175888e+02   2.932580e+02
  -1.156329e+02   7.049754e+01
  -2.710604e+01   2.258382e+00
  -4.200451e+01   8.757780e+01
  -1.645798e+02   1.422534e+02
  -2.212345e+02  -6.175131e+01
  -1.057472e+02  -2.308916e+02
   1.045793e+02  -2.203510e+02
   2.229227e+02   3.210838e+01
   1.779120e+02   2.067120e+02
  -2.797251e+01   2.083240e+02
  -2.640082e+02   1.443254e+02
  -3.039319e+02  -1.940774e+02
  -1.573066e+02  -2.445859e+02
   1.179919e+02  -2.648534e+02
   1.681560e+02  -9.324890e+01
   1.561434e+02   1.608470e+01
   7.203978e+01  -3.879102e+01
   2.145159e+02  -4.131883e+01
   3.582846e+02   5.699207e+01
   2.779132e+02   2.146420e+02
  -2.976044e-01   3.559682e+02
  -2.969569e+02   4.254934e+02
  -4.538119e+02   1.962107e+02
  -2.946144e+02  -4.255228e+01
  -5.401540e+01  -2.554689e+02
   1.007202e+02  -1.613126e+02
   5.131054e+01  -1.412450e+01
  -1.176726e+02   1.084897e+02
  -1.678779e+02   1.133996e+01
  -4.377708e+01  -1.610833e+02
   1.032645e+02  -1.206913e+02
   1.198391e+02   8.620089e+01
  -3.987863e+01   1.328359e+02
  -1.914110e+02   4.852194e+01
  -1.554257e+02  -2.004224e+02
   3.926299e+00  -2.790237e+02
   1.825611e+02  -1.238071e+02
   2.539593e+02   4.644921e+01
   2.359584e+02   1.977300e+02
   9.500750e+01   2.318262e+02
  -9.994056e+01   1.200781e+02
  -1.307376e+02   1.492949e+01
  -2.503143e+00   1.400568e+01
   7.496741e+01   3.803645e+01
   3.374054e+00   1.266638e+02
  -1.066655e+02   5.743372e+01
  -1.576309e+02  -2.481047e+01
  -1.612872e+01  -9.115815e+01
   8.623310e+01   6.200251e+00
   4.552205e+01   8.815966e+01
  -1.370511e+02   2.843572e+01
  -2.286282e+02  -1.278415e+01
  -2.078230e+02  -8.418812e+01
  -3.975326e+01  -2.059805e+02
   1.633481e+02  -2.291918e+02
   2.203775e+02  -9.462148e+01
   1.345291e+02   2.992786e+01
  -1.800560e+01   1.032719e+02
  -7.153054e+01   3.488577e+01
   5.767748e+01  -8.385822e+01
   1.477174e+02  -3.391596e+01
   1.779469e+02   8.590915e+01
   7.557417e+01   1.663457e+02
  -9.038547e+01   1.410760e+02
  -1.290700e+02   4.544477e+01
  -6.621231e+01  -3.916495e+01
   4.333550e+01  -2.004226e+01
   2.995284e+01   5.777748e+01
  -6.528541e+01   9.129988e+01
  -1.541793e+02   1.235029e+01
  -1.596807e+02  -1.114383e+02
   2.845884e+01  -1.761068e+02
   1.726979e+02  -1.376905e+02
   1.461167e+02  -8.205636e+00
   4.149158e+01   1.040906e+02
  -9.521001e+01   1.159581e+02
  -4.204157e+01   5.042182e+01
   1.459205e+01  -9.443573e+00
   1.246132e+01  -4.115798e+01
   6.012239e-01   5.983139e+00
  -7.087691e+01  -2.958344e-01
  -7.987443e+01  -5.057168e+01
  -4.309528e+00  -1.213151e+02
   1.066186e+02  -1.171165e+02
   1.945900e+02  -1.809986e+00
   1.619718e+02   8.006636e+01
   5.232922e+01   2.045647e+02
  -6.526537e+01   1.672723e+02
  -1.128323e+02   5.726931e+01
  -8.133815e+01  -6.532104e+01
   1.042546e+00  -5.034463e+01
  -3.602221e+01   3.567605e+01
  -5.558662e+01  -1.156092e+01
  -3.480457e+01  -4.176891e+01
   1.908218e+01  -3.556508e+01
   7.751856e+01  -4.781012e+01
   5.726734e+01   2.980583e+01
  -1.169264e+01   7.793936e+01
  -1.401298e+02   4.212899e+01
  -2.116141e+02  -6.780998e+00
  -1.010922e+02  -1.616396e+02
   1.192070e+02  -1.900121e+02
   2.508632e+02  -9.848218e+01
   2.194479e+02   5.306461e+01
   6.382272e+01   1.073919e+02
  -5.223503e+01   1.196540e+02
  -5.379213e+01   9.033996e+01
  -7.565783e+01   6.892021e+01
  -3.750059e+01   8.412259e+01
  -5.773158e+01   4.795851e+01
  -1.083900e+02  -2.119809e+01
  -8.940586e+01  -1.289469e+02
  -1.921654e+01  -1.593825e+02
   1.054110e+02  -1.610853e+02
   1.450499e+02  -5.136376e+01
   1.111137e+02   1.280413e+02
  -6.309315e+00   1.210115e+02
  -4.754640e+01   7.813706e+01
  -5.584012e+01  -3.036076e+01
  -1.681475e+01  -3.991877e+01
  -3.600806e+00  -1.139683e+01
  -2.334096e+01  -5.644052e+00
  -6.158046e+01  -6.869024e+00
  -1.658147e+01  -3.733155e+01
   5.610600e+01  -1.965252e+01
   1.399118e+02  -8.484907e+00
   1.413937e+02   6.823092e+01
  -1.470561e+01   5.900467e+01
  -1.350779e+02   7.978897e+01
  -1.169599e+02  -1.698375e+01
  -8.120544e+01  -1.832417e+01
   4.846606e+01  -4.487015e+01
   9.480978e+01   1.288104e+01
  -1.754312e+00   5.561307e+01
  -5.892788e+01   6.748431e+01
  -5.968075e+01   2.265884e+01
  -3.245200e+01  -2.805710e+01
  -4.238979e+01  -3.613087e+01
  -3.946341e+01  -1.610923e+00
  -5.944248e+01  -1.522111e+01
  -1.334942e+01  -7.785325e+01
   2.506421e+01  -1.098752e+02
   1.122494e+02  -1.462696e+02
   1.272541e+02  -3.924891e+01
   1.127531e+02   8.375540e+01
   7.688406e+00   1.010558e+02
  -6.743137e+01   5.888369e+01
  -6.275494e+01  -1.653243e+01
   6.976406e+01  -2.467374e+01
   1.151940e+02  -8.695564e+00
   5.200802e+01   6.652833e+01
  -3.935905e+01   9.769667e+01
  -1.714256e+02   4.033051e+01
  -1.334622e+02  -2.575394e+01
  -3.513275e+01  -7.959364e+01
   5.614306e+01  -6.528261e+01
   4.898965e+01   1.266493e+00
  -1.966788e+01   3.735153e+00
  -5.479800e+01  -2.490356e+01
  -3.210377e+01  -1.189569e+02
   9.234066e+01  -1.315382e+02
   1.455866e+02  -5.141074e+01
   9.765733e+01   1.124372e+02
   8.352034e+00   1.783616e+02
  -7.910840e+01   1.009815e+02
  -8.503416e+01   2.612597e+00
  -6.722891e+01  -7.856861e+01
   7.199099e+00  -1.013762e+02
   3.393682e+01   3.542984e+01
   4.520461e+01   1.934890e+01
   4.092367e+01   1.608606e+01
   1.895349e+01  -9.729028e+00
   1.608327e+01   1.753895e+01
   6.560330e+01   6.276500e+01
   4.776090e+01   1.088527e+02
  -6.114467e+01   4.519195e+01
  -1.088814e+02  -2.446065e+01
  -1.169819e+02  -5.779695e+01
  -3.774543e+01  -5.540344e+01
   8.434941e+01  -1.087647e+01
   7.287398e+01   7.156182e+00
  -4.992597e+00   1.680845e+01
  -2.740576e+01   2.459512e+01
  -3.876628e-01   5.956391e+01
   1.037985e+01   2.757698e+01
  -1.490618e+00   9.853895e+00
  -9.664167e+01  -1.819932e+01
  -1.007801e+02  -1.367694e+01
   1.958112e+01  -6.970492e+01
   7.494581e+01  -9.790552e+01
   1.444996e+02  -7.012389e+01
   9.201514e+01   6.666521e+01
   5.006152e+01   1.078132e+02
  -7.912371e+01   1.560884e+02
  -7.163191e+01   7.182538e+01
  -7.704125e+01  -1.916113e+01
  -3.723146e+01  -2.349602e+01
   3.278999e+01   7.593061e+00
  -3.744792e+00  -1.592662e+01
  -3.985112e+01  -3.680546e+01
  -7.949400e+00  -7.280771e+01
   2.609536e+01  -4.333384e+01
   8.054609e+01   2.429570e+01
   2.735372e+01   1.101773e+02
   2.973089e+01   1.042095e+02
  -6.542174e+01   1.772386e+01
  -5.787914e+01  -9.524999e+01
  -4.144304e+01  -8.631255e+01
   4.655083e+01  -5.429448e+01
   1.266855e+02   2.909164e+01
   8.832351e+00   4.682919e+01
  -2.782338e+01   3.406949e+01
  -2.006229e+01   1.264725e+01
   3.150643e+01   2.411890e+00
   5.817819e+01  -1.141287e-01
   1.277313e+01   8.828842e+00
  -4.785745e+01   1.591011e+01
  -1.027339e+02   7.869374e+01
  -1.182047e+01  -3.513664e+00
  -3.878197e+00  -7.558842e+01
   5.716773e+01  -8.973874e+01
   2.540014e+01   9.366105e-01
  -4.437838e+00   4.890701e+01
  -1.519151e+01   6.017730e+01
  -4.496059e+01   1.017816e+01
  -9.517464e+00  -1.409201e+01
   4.317981e-01  -6.319644e+00
   7.821791e+01   1.113522e+01
   2.505211e+01   2.125011e+01
   3.024495e-01   2.843644e+01
   1.648847e+01  -3.631572e+01
  -6.123148e+00  -4.519695e+00
  -2.349940e+01   3.454797e+01
  -1.272759e+01   4.445344e+01
  -3.538438e+01  -1.547231e+00
  -1.565192e+00  -2.750139e+01
   1.372576e+00  -2.919079e+01
   2.174230e+01  -2.708534e+01
   4.789915e+00   1.350989e+01
   2.172742e+00   4.946444e+01
  -2.815399e+01   3.433132e+01
  -6.769850e+01  -1.284508e+01
  -4.959536e+01  -4.534097e+01
   3.855137e+01  -1.098625e+01
   5.293691e+01   4.633879e+00
   1.245816e+01   3.503411e+00
  -4.595939e+00  -2.337826e+01
  -5.810809e+00  -1.709160e+01
   3.977197e+01  -2.321527e+01
   8.859853e+01   3.749977e+00
