
 $NMID
 id='ANONYMOUS ', fmtdat='(2E16.6)'
 volume=1.0
 tramp=1.0
 $END
  -2.495202e+03  -3.158875e+02
  -1.066971e+03  -1.269000e+03
   5.456132e+02  -1.350219e+03
   6.758086e+02  -7.667598e+02
   5.302675e+02   1.328413e+02
  -1.146688e+02   1.355141e+02
  -3.408025e+02  -1.812514e+02
   1.255521e+02  -4.578170e+02
   4.757745e+02  -2.454159e+02
   5.767381e+02   7.012768e+01
   2.677926e+02   4.862939e+02
  -1.718204e+02   4.381803e+02
  -3.091068e+02   2.350119e+00
  -1.375205e+02  -4.896638e+02
   2.059529e+02  -4.557062e+02
   4.011279e+02  -3.126404e+01
   2.487434e+02   4.009812e+02
  -1.843208e+02   4.834470e+02
  -3.909134e+02   4.040596e+01
  -3.002708e+02  -1.802227e+02
  -2.352571e+01  -2.645048e+02
   1.073878e+02  -1.557610e+02
   9.209479e+01  -3.996139e+01
  -9.768334e+01  -3.671178e+01
  -2.147551e+02  -1.544730e+02
  -6.232425e+01  -3.117347e+02
   3.622479e+02  -1.900556e+02
   4.072590e+02   1.521034e+02
   2.813489e+02   3.209394e+02
  -2.326628e+02   2.108401e+02
  -4.083350e+02  -6.536888e+01
  -1.319561e+02  -2.916004e+02
   1.660626e+02  -2.877030e+02
   3.836799e+02  -6.427240e+01
   2.508853e+02   1.986969e+02
   8.470458e+01   2.821205e+02
  -6.515052e+01   1.600235e+02
  -5.154861e+01  -1.376438e+02
   1.198498e+02  -2.062274e+02
   2.761181e+02   5.241386e+01
   1.827938e+02   3.885277e+02
  -1.831201e+02   3.630762e+02
  -3.319921e+02  -4.788084e+01
  -6.082089e+01  -3.607736e+02
   1.385367e+02  -1.750196e+02
   1.966233e+02   1.507897e+02
  -1.482317e+02   2.783511e+02
  -3.417325e+02   7.381427e+01
  -3.706857e+02  -2.567748e+02
  -7.890825e+01  -3.840497e+02
   2.733152e+02  -1.903331e+02
   4.243807e+02   1.207852e+02
   2.075962e+02   2.044368e+02
  -1.034704e+02   1.969769e+02
  -2.215873e+02   1.009774e+01
  -1.478849e+02  -5.525207e+01
   1.903721e+00  -5.546853e+01
   5.212187e+01   6.467663e+01
  -8.846207e+01   5.814039e+01
  -1.950366e+02  -8.152715e+01
  -7.701552e+01  -1.533035e+02
   1.264412e+02  -1.748205e+02
   1.803210e+02  -3.735341e+01
   1.795707e+02   5.438788e+01
  -3.536718e+01   1.749936e+02
  -1.795472e+02   2.186429e+02
  -2.443734e+02   9.461733e+01
  -1.739984e+02  -1.367605e+02
  -8.305132e+00  -2.650524e+02
   1.002020e+02  -2.287460e+02
   9.676738e+01  -9.735722e+01
  -1.842623e+01  -4.432863e+01
   6.360474e+01  -9.925399e+01
   1.686287e+02  -8.517923e+01
   1.992773e+02   1.042200e+02
   8.192172e+01   2.286855e+02
  -9.219436e+01   1.231201e+02
  -1.412009e+02  -4.179900e+01
  -1.084865e+02  -1.983007e+02
   2.904707e+01  -1.751647e+02
   1.950322e+02  -2.590701e+00
   2.332838e+02   1.554069e+02
   1.107022e+02   2.225568e+02
  -4.801617e+01   2.456374e+02
  -1.691725e+02   8.553939e+01
  -9.803220e+01   6.851171e+01
  -6.979080e+01   4.598040e+01
  -1.647608e+02   3.175095e+01
  -2.428318e+02  -7.190341e+01
  -2.091038e+02  -1.811210e+02
   5.433392e+01  -3.105090e+02
   2.670685e+02  -2.100990e+02
   3.658800e+02  -1.188923e+02
   1.554021e+02   1.023352e+02
   4.411742e+01   1.794973e+02
  -8.599551e+01   1.501437e+02
  -1.541352e+01   4.789339e+01
   7.522610e+01  -5.504080e+01
   1.347879e+02  -1.427908e+01
   7.949473e+00   7.249450e+01
  -1.024477e+02   1.086752e+02
  -1.276683e+02  -3.099923e+01
   5.915664e+01  -8.302963e+01
   1.085641e+02  -9.156996e+00
   1.110072e+02   1.726901e+02
  -4.631224e+01   2.294156e+02
  -1.841658e+02   1.406795e+02
  -2.549091e+02  -6.029720e+01
  -1.975732e+02  -1.793285e+02
  -1.880395e+01  -2.379631e+02
   5.715175e+01  -9.747563e+01
   1.238107e+02  -2.583763e+01
   3.980208e+01  -1.536304e+01
  -6.388349e+01  -5.392015e+01
   1.702066e+01  -9.230708e+01
   5.145350e+01  -5.620600e+01
   7.653579e+01  -4.392888e+00
   9.482639e+00   4.872529e+01
  -4.036073e+01  -1.066994e+01
  -2.628946e+01  -4.969696e+01
   1.075096e+02  -2.015498e+01
   2.241450e+02   2.683476e+01
   2.256964e+02   9.673695e+01
  -1.729521e+00   1.893295e+02
  -1.621766e+02   1.668676e+02
  -1.698759e+02   7.253830e+01
  -1.308519e+02  -4.967507e+01
   1.890261e+01  -3.785125e+01
   4.776630e+01   1.985803e+01
  -5.469532e+01   4.650908e+01
  -1.128853e+02   6.467638e+00
  -1.349571e+02  -7.039267e+01
  -1.379879e+01  -1.089431e+02
   5.984282e+01  -7.758702e+01
   1.076863e+02   9.049663e+00
   5.589345e+01   4.241976e+01
  -2.207088e+01  -1.534538e+01
  -2.819748e+01  -7.458259e+01
   7.707249e+01  -6.957631e+01
   1.522250e+02  -1.843073e+01
   1.317048e+02   1.035408e+02
  -9.866946e+00   1.422504e+02
  -1.465821e+02   8.556155e+01
  -1.158478e+02   2.155248e+01
  -5.152021e+01  -8.019691e+01
   6.977313e+01  -4.090626e+01
   4.021999e+01  -1.420397e+01
   9.794118e+00  -2.948916e+00
   1.269268e+00   1.852159e+01
   5.196348e+00  -4.825264e+00
   5.835401e+01   4.273385e+01
   7.935908e+01   4.800914e+01
   3.028416e+01   1.050708e+02
  -5.922944e+01   8.971828e+01
  -1.533433e+02   1.621556e+01
  -1.012116e+02  -9.288799e+01
  -2.490937e+01  -1.406889e+02
   1.060499e+02  -1.040479e+02
   8.680367e+01  -1.513995e+01
   5.365577e+01   2.771723e+01
   9.137434e+00   1.945882e+01
   1.651227e+01  -3.001017e-01
   4.221782e+01  -9.755763e+00
   3.677633e+01   2.994607e+01
  -4.887563e+01   9.022939e+01
  -5.394111e+01   3.964130e+01
  -6.866881e+01  -4.259739e+01
   1.477481e+01  -8.559952e+01
   8.945919e+01  -3.730314e+01
   1.394979e+02   2.023770e+01
   7.312133e+01   1.438277e+02
  -9.448784e+01   1.412800e+02
  -2.074982e+02   3.845858e+01
  -1.739699e+02  -5.326472e+01
  -3.687898e+01  -1.136259e+02
   5.087041e+01  -6.149012e+01
   5.090479e+01  -6.561002e+01
   7.048993e+01  -4.584288e+01
   6.178071e+01  -3.421897e+01
   4.060110e+01  -4.687745e+01
   9.410175e+01   2.914204e+01
   5.500712e+01   8.594621e+01
   5.254592e+01   1.219422e+02
  -6.998571e+01   1.441493e+02
  -1.002666e+02  -4.807107e+00
  -9.682508e+01  -8.064527e+01
   2.434215e+00  -1.035518e+02
   5.969615e+01  -4.212138e+01
   3.743075e+01   5.776444e+00
  -6.746365e+00   1.252001e+01
  -5.296202e+00   3.500139e+01
   2.891926e+01   1.648424e+01
   5.210902e+01   3.754182e+01
   5.833409e+01   3.915979e+01
  -3.904552e+01   3.326698e+01
  -8.168826e+01   3.782568e+01
  -1.072864e+02  -4.090955e+01
   1.801538e+01  -8.727480e+01
   5.945519e+01  -6.912731e+01
   9.981242e+01  -4.857521e+00
   2.038332e+01  -7.051406e-01
  -5.684046e+00   3.776302e+01
  -3.850347e+01  -5.284463e+00
   9.820634e+00  -7.054710e+01
   2.066865e+01  -7.202532e+01
   2.029336e+01  -4.624285e+00
   1.054453e+01   2.722029e+01
   7.018258e+01   2.570272e+01
   1.539649e+01   7.365055e+00
   3.906475e+01   1.753377e+01
   2.408866e+01   2.508958e+01
   9.993544e-01   8.455490e+01
  -4.350919e+01   6.853975e+01
  -1.126588e+02   9.632796e+00
  -6.937692e+01  -4.075852e+01
   2.710439e+01  -9.776125e+01
   6.630543e+01  -5.487242e+01
   3.439709e+01   1.174371e+01
  -3.498394e+01   2.565233e+01
  -8.387449e+01  -5.231181e+01
  -4.683870e+01  -2.721748e+01
   4.471338e+01  -5.925114e+01
   1.380866e+02  -2.936541e+01
   1.143808e+02   2.886650e+01
   4.353947e+00   6.528980e+01
  -5.429973e+01   5.676282e+01
  -4.512079e+01   4.609005e+00
   4.648442e+00  -1.621858e+01
   3.145704e+01  -1.173578e+00
   5.725390e+01   7.036335e+01
  -7.983056e+01   9.799499e+01
  -1.325902e+02   2.209332e+01
  -1.411180e+02  -7.058447e+01
  -1.359528e+00  -1.295729e+02
   8.211268e+01  -6.456417e+01
   8.291487e+01   2.346648e+01
   1.445252e+01   7.298749e+01
  -1.904756e+01   5.077243e+01
  -4.962392e+01   1.649844e+01
  -3.010010e+01  -1.018230e+01
  -4.006610e+00  -2.556109e+01
  -2.307016e+00  -5.961130e+00
  -4.952759e+00  -1.634951e+01
  -4.999041e+01  -5.938108e+01
  -3.243222e+01  -7.533694e+01
   2.559867e+01  -1.457723e+01
   1.113666e+02   2.200444e+01
   8.583624e+01   5.513470e+01
   1.410552e+01   2.797491e+01
  -8.498393e+01   2.577024e+01
  -7.251181e+01  -1.837919e+01
   2.248931e+00  -6.926827e+00
   4.293159e+01  -1.945351e+01
   1.288576e+01  -2.165093e+00
  -6.107612e+00  -8.993476e+00
   2.121580e+01  -7.068748e+00
   1.244721e+01   9.474686e+00
   4.608042e+01   2.629251e+01
  -6.086774e+00   5.378909e+01
  -8.139835e+01   8.475588e+01
  -1.543671e+02   5.132256e+01
  -1.051673e+02  -4.814863e+01
  -2.624550e+01  -9.443531e+01
   4.961324e+01  -1.047136e+02
   5.900850e+01  -6.888456e+01
   6.611107e+01   1.457062e+01
  -4.628768e+00   8.831934e+00
  -2.179750e+01  -3.778950e-01
   8.467515e-02   5.996014e+00
   2.760968e+01   3.840068e+01
  -4.690141e+01   5.247272e+01
   5.380633e+00   5.192296e+01
  -5.177345e+01  -1.833605e+01
  -6.657514e+01  -5.360475e+01
  -1.862858e+00  -6.204815e+01
   4.858128e+01  -9.795565e+00
   8.962538e+01   7.012849e+01
  -4.688686e+00   5.927861e+01
  -3.918433e+01   4.506666e+01
  -5.721097e+01  -1.789659e+01
  -4.162376e+01  -4.299908e+01
   1.771946e+01  -3.691381e+01
   1.412204e+01  -2.530052e+01
  -2.090680e+01   3.037044e+00
  -6.046126e+01   1.270308e+01
  -1.553528e+01  -1.162452e+01
   3.910121e+01  -2.586846e+01
   7.439950e+01  -1.635263e+00
   4.820899e+01   6.317204e+00
   1.021219e+01   5.547591e+01
  -4.858840e+01   5.676492e+01
  -4.870677e+01  -1.396738e+01
   1.055105e+01  -4.925537e+01
   3.406083e+00  -1.419988e+01
   3.128972e+01   2.292109e+01
   8.751182e+00   7.964553e+00
  -4.894014e+00   2.161261e+01
  -1.933020e+01  -1.425819e+01
  -3.655185e+01  -2.229824e+01
  -3.893401e+01  -2.202159e+01
  -1.055915e+01   1.594728e+01
  -7.484633e+00   3.205465e+01
  -7.797446e+00  -3.545321e+01
   2.564007e+00  -4.011703e+01
   2.985526e+01  -2.392846e+00
   1.230011e+01   3.274529e+01
  -7.991801e+00   4.021604e+01
  -2.900004e+01  -1.017754e+01
  -4.894616e+00  -9.947154e+00
  -1.587273e+01  -4.681185e+01
   3.714937e+01  -7.344757e+00
   2.817092e+01   2.481163e+00
   2.933542e+01   2.346574e+01
   8.405550e+00   1.321827e+01
  -2.838799e+01   1.055015e+01
  -3.038127e+01   1.058305e+01
   7.493582e+00  -9.953865e+00
   2.050754e+01   1.726187e+01
  -1.602132e+01   5.693411e+01
  -6.795430e+01   1.583833e+01
