
 $NMID
 id='ANONYMOUS ', fmtdat='(2E16.6)'
 volume=1.0
 tramp=1.0
 $END
   3.387222e+03  -2.127844e+02
   2.220333e+03   1.599599e+03
  -6.223530e+00   1.902516e+03
  -1.381503e+03   1.507584e+03
  -8.637998e+02   9.953902e+01
   5.277537e+01  -3.622263e+02
   3.129553e+02   1.135058e+02
   8.346790e+01   6.539712e+02
  -4.044336e+02   6.370923e+02
  -5.161817e+02   4.536831e+01
  -5.311050e+02  -4.819187e+02
  -4.959560e+01  -6.180912e+02
   3.668346e+02  -2.365986e+02
   1.685569e+02   5.235859e+02
  -4.113584e+01   4.498586e+02
  -4.048178e+02   6.940408e+01
  -2.521317e+02  -5.015769e+02
   1.126460e+02  -5.808331e+02
   3.881005e+02  -1.894180e+02
   4.462529e+02   1.254677e+02
   4.726048e+01   3.338464e+02
  -1.058299e+02   2.582393e+02
  -7.246709e+01   7.370486e+01
   1.658893e+02   8.324134e+01
   2.149813e+02   2.905968e+02
   5.861925e+01   3.403439e+02
  -4.296667e+02   2.553512e+02
  -5.794604e+02  -1.639662e+02
  -3.164985e+02  -3.523146e+02
   2.526015e+02  -2.437372e+02
   5.309151e+02   2.225859e+02
   1.507570e+02   3.876378e+02
  -2.536915e+02   3.914780e+02
  -4.351200e+02   1.756082e+02
  -3.072301e+02  -1.945760e+02
  -8.707207e+01  -3.180895e+02
   6.933329e+01  -2.037939e+02
  -5.420226e+01   1.716159e+02
  -1.137940e+02   1.940845e+02
  -1.994403e+02  -5.260784e+01
  -9.706565e+01  -5.298472e+02
   2.172645e+02  -4.334436e+02
   3.342595e+02   5.859700e+01
   3.555351e+01   3.469893e+02
  -2.095340e+02   1.039889e+02
  -1.541881e+02  -3.305156e+02
   1.326319e+02  -3.464606e+02
   4.341936e+02  -9.752489e+01
   5.922120e+02   3.553524e+02
   2.047771e+02   4.212513e+02
  -3.261467e+02   3.449235e+02
  -4.720736e+02  -1.063531e+01
  -3.722878e+02  -2.543679e+02
   6.478306e+01  -1.913210e+02
   3.020659e+02   3.882142e+00
   2.249497e+02   2.598724e+00
  -3.385704e+01   3.381848e+01
  -8.652480e+01  -4.901419e+01
   1.372957e+02  -4.397642e+01
   2.444894e+02   1.002789e+02
   1.845435e+02   1.970005e+02
  -1.624985e+02   2.420579e+02
  -3.151766e+02   1.267338e+02
  -2.260774e+02  -8.159206e+01
   9.799271e+00  -2.630186e+02
   2.575251e+02  -4.009074e+02
   3.332151e+02  -1.449826e+02
   2.160739e+02   1.826277e+02
   8.173705e+01   3.828405e+02
  -6.211568e+01   2.710009e+02
  -4.862349e+01   1.395909e+02
  -3.481091e+01   1.218581e+02
  -1.217091e+02   1.153232e+02
  -2.450716e+02   3.978290e+01
  -2.528645e+02  -7.627173e+01
  -9.894753e+01  -2.437560e+02
   4.436248e+01  -1.904088e+02
   1.775962e+02   4.414897e+01
   1.205371e+02   2.614824e+02
  -2.439820e+01   2.326669e+02
  -2.434013e+02  -3.690346e+00
  -2.765373e+02  -2.321491e+02
  -1.949317e+02  -2.519419e+02
   3.368731e+01  -2.225443e+02
   1.544403e+02  -1.850159e+02
   9.482597e+01  -8.808124e+01
   1.385668e+02  -9.924482e+01
   2.543304e+02  -2.732316e+00
   3.688595e+02   1.171773e+02
   3.384778e+02   2.918894e+02
  -1.207648e+02   4.147555e+02
  -3.583720e+02   4.405585e+02
  -5.102868e+02   7.020008e+01
  -3.413606e+02  -1.477098e+02
  -2.145259e+01  -2.415072e+02
   9.322409e+01  -2.088221e+02
   3.786588e+01  -2.164046e+01
  -9.900402e+01   4.760894e+01
  -1.447222e+02  -4.566295e+01
   2.311543e+01  -1.260475e+02
   1.224044e+02  -1.215892e+02
   8.911360e+01   6.051581e+01
  -4.600333e+01   1.452888e+02
  -1.652867e+02  -3.599696e+01
  -8.389204e+01  -2.411466e+02
   6.902605e+01  -3.113743e+02
   2.686540e+02  -1.893510e+02
   3.557729e+02   1.165878e+02
   3.223452e+02   2.460781e+02
   1.057733e+01   2.771185e+02
  -1.381706e+02   1.522927e+02
  -1.402458e+02   6.561737e+00
  -2.235834e+01  -1.920795e+00
   7.468997e+01   3.430482e+01
  -2.945963e+01   1.267148e+02
  -1.426250e+02   8.440653e+01
  -1.749368e+02   5.634962e+00
  -3.221948e+01  -4.876394e+01
   5.742453e+01  -8.399173e+00
   1.058490e+01   1.091141e+02
  -1.736567e+02   8.885418e+01
  -2.963524e+02  -5.181823e+00
  -2.673929e+02  -1.496772e+02
  -8.469623e+01  -2.438313e+02
   1.974918e+02  -2.110156e+02
   2.495858e+02  -6.543139e+01
   1.556643e+02   3.195808e+01
  -2.483677e+01   8.980510e+01
  -5.463631e+01  -3.095234e+01
   7.370758e+01  -5.948337e+01
   1.950218e+02  -2.770088e+01
   1.935506e+02   1.026261e+02
   2.784575e+01   2.020150e+02
  -7.387316e+01   1.219153e+02
  -8.851153e+01   2.755774e+00
  -3.205669e+01  -8.392287e+01
   6.455498e+01   3.204957e+01
   9.553169e+00   1.182509e+02
  -1.036826e+02   1.161276e+02
  -1.781913e+02   5.122816e+00
  -1.506580e+02  -1.072714e+02
  -3.776117e+01  -1.779477e+02
   1.635033e+02  -1.070062e+02
   1.611867e+02   6.019537e+00
   5.071481e+01   8.345531e+01
  -4.936037e+01   1.134491e+02
  -4.282880e+01   3.295804e+01
  -1.554011e+01   9.776250e+00
   2.317753e+01  -1.506400e+01
  -3.161767e+01   1.127045e+01
  -6.089168e+01  -7.565868e+00
  -8.600367e+01  -1.027900e+02
  -1.980631e+01  -1.670364e+02
   1.788688e+02  -1.541876e+02
   2.577882e+02  -7.615537e-01
   2.275422e+02   1.767752e+02
   3.509522e+01   2.512757e+02
  -9.475622e+01   1.631819e+02
  -1.521906e+02   1.484124e+01
  -7.417902e+01  -4.616559e+01
  -5.802534e+01  -2.800814e+01
  -3.679636e+01  -3.546987e+00
  -8.800554e+01   5.002150e+00
  -7.614350e+01  -4.208516e+01
   2.639034e+01  -9.520525e+01
   8.506353e+01  -8.245762e+01
   8.646330e+01   4.014445e+01
  -2.522896e+01   1.378723e+02
  -1.623818e+02   5.570685e+01
  -2.017523e+02  -2.336649e+01
  -7.514032e+01  -2.188187e+02
   1.382687e+02  -1.972765e+02
   2.730025e+02  -2.644611e+01
   2.157235e+02   1.200015e+02
   1.037547e+02   1.649878e+02
  -3.361825e+01   1.314417e+02
  -6.715967e+01   6.666026e+01
  -7.117569e+01   5.296663e+01
  -5.162694e+01   7.509522e+01
  -1.022956e+02   7.317728e+01
  -1.126887e+02   8.208284e+00
  -1.189377e+02  -1.562515e+02
  -3.673330e+01  -2.312215e+02
   1.170542e+02  -1.499228e+02
   1.646512e+02   3.304649e+01
   7.646102e+01   1.389142e+02
   8.487907e+00   1.426964e+02
  -8.790207e+01   7.297702e+01
  -5.668534e+01  -1.843624e+01
  -1.462366e+00  -6.076894e+01
   2.154837e+01  -1.724189e+01
  -1.679723e+01  -3.523861e+00
  -7.554232e+01  -2.312525e+01
  -2.929392e+01  -5.161027e+01
   7.888971e+01  -2.989150e+01
   1.577987e+02  -7.801711e+00
   1.406235e+02   7.374890e+01
   1.785950e+01   7.149965e+01
  -1.387226e+02   5.950647e+01
  -1.051504e+02  -2.754201e+00
  -4.755235e+01  -6.720319e+01
   8.885793e+01  -3.128811e+01
   6.939946e+01   2.451690e+01
  -5.175489e+00   6.436209e+01
  -5.999182e+01   6.429314e+01
  -5.140937e+01  -7.611508e+00
  -3.323865e+01  -4.473927e+01
  -4.660755e+01  -6.973399e+01
  -5.506244e+01  -9.418058e+00
  -8.599401e+01   1.030189e+00
  -2.951193e+01  -7.558025e+01
   8.714026e+00  -1.627301e+02
   1.205824e+02  -1.517466e+02
   1.250123e+02  -7.430513e+00
   1.233729e+02   1.106667e+02
  -2.876758e+01   1.252327e+02
  -7.307521e+01   6.480559e+01
  -8.442505e+01  -1.273786e+01
   6.496206e+01  -2.834540e+01
   1.155025e+02   4.213260e+01
   4.101076e+01   1.089741e+02
  -1.061491e+02   1.236120e+02
  -1.587504e+02   3.616890e+01
  -1.274942e+02  -5.548049e+01
  -9.417392e+00  -6.763370e+01
   5.594372e+01  -6.261057e+01
   7.018897e+01  -3.364944e+01
  -2.190085e+01   6.105918e+01
  -8.793998e+01  -1.905983e+01
  -3.093340e+01  -9.306770e+01
   1.004123e+02  -1.236991e+02
   1.596972e+02  -4.610187e+01
   1.449040e+02   8.387615e+01
   1.944839e+01   1.832272e+02
  -6.874536e+01   9.917214e+01
  -9.557325e+01  -5.080225e+00
  -5.248566e+01  -1.224137e+02
   3.685513e+01  -8.448669e+01
   5.863021e+01  -3.253038e+01
   4.103749e+01   3.663344e+01
   1.968648e+01   4.106525e+00
   2.465856e+00  -1.052327e+01
   2.851442e+01   4.211955e+01
   6.421601e+01   9.505762e+01
   8.159203e+00   1.057287e+02
  -7.854787e+01   5.494966e+01
  -1.122961e+02  -3.642435e+01
  -1.287116e+02  -1.197396e+02
  -1.306653e+01  -6.257479e+01
   8.082540e+01  -1.381122e+01
   8.807553e+01   1.149880e+01
   1.525605e+01   2.001279e+01
  -3.508977e+01   2.026621e+01
   2.947296e+01   5.082403e+00
   1.759348e+01   7.481592e+00
   2.041119e+01  -1.834429e+00
  -4.679528e+01  -6.469357e+00
  -9.108874e+01  -1.608571e+01
  -5.510155e+01  -5.606061e+01
   1.283399e+02  -7.021755e+01
   1.602492e+02  -6.352199e+01
   1.529977e+02   6.607875e+01
   5.323771e+01   1.363188e+02
  -8.891252e+01   1.580956e+02
  -1.043119e+02   9.493326e+01
  -8.590054e+01  -3.216039e+01
  -5.896545e+00  -5.128377e+01
  -2.028251e+01  -2.560651e+00
  -2.548842e+01  -1.119150e+01
  -4.672576e+01  -4.245799e+01
  -1.254282e+01  -6.090031e+01
   7.781655e+00  -4.848221e+01
   3.531265e+01   1.552779e+01
   7.268935e+01   9.863641e+01
   2.939132e+00   1.247290e+02
  -7.869323e+01   3.807349e+01
  -9.949211e+01  -5.832886e+01
  -3.554695e+01  -1.108623e+02
   6.793535e+01  -7.082356e+01
   1.115686e+02   1.206358e+01
   2.765751e+01   3.625359e+01
  -4.699238e+01   7.796756e+01
  -5.410280e+01   4.164937e+01
   8.380543e+00  -6.391730e+00
   4.567006e+01  -1.391935e+01
   9.951839e+00   2.060898e+01
  -8.260723e+01   4.526084e+01
  -1.306469e+02   5.665107e+01
  -5.345347e+01  -2.661734e+01
  -1.118273e+00  -7.580192e+01
   4.595989e+01  -8.410635e+01
   5.907574e+01   2.297693e+01
   5.562495e+00   5.486717e+01
  -3.818462e+01   3.607920e+01
  -1.634943e+01  -1.845430e+01
  -5.191311e+01  -6.251527e+01
  -4.910645e+00  -5.311898e+01
   6.142012e+00  -4.654628e+00
   3.683025e+01   2.870953e+01
   2.125449e+01   2.786213e+00
  -1.626743e+01  -1.386415e+01
  -1.092496e+01  -6.745130e+00
   4.162294e+00   4.390651e+01
   1.170396e+01   3.428117e+01
  -1.613005e+01   2.690579e+01
  -5.695911e+01  -3.476093e+01
  -1.585803e+01  -5.890106e+01
   4.371376e+01  -1.736148e+01
   3.645615e+01   3.078651e+01
   2.089693e+01   5.656223e+01
  -7.650105e+01   1.512287e+01
  -8.660211e+01  -2.082144e+01
  -4.911261e+01  -4.240348e+01
   5.015184e+01  -4.802409e+01
   5.693383e+01  -9.169438e+00
   2.033434e+01  -7.480253e+00
  -1.849727e+01  -1.217694e+01
  -8.535390e+00   2.025926e+01
   9.949849e+00  -4.416433e+01
   8.496708e+01   7.899283e+00
