
 $NMID
 id='ANONYMOUS ', fmtdat='(2E16.6)'
 volume=1.0
 tramp=1.0
 $END
  -3.916096e+03   1.202731e+02
  -2.448537e+03  -1.960761e+03
   3.111014e+02  -2.249882e+03
   1.361292e+03  -1.223026e+03
   9.275781e+02   3.312124e+02
  -1.998740e+02   6.509396e+02
  -5.486758e+02  -3.119041e+02
  -2.118184e+02  -8.532186e+02
   5.063357e+02  -7.759619e+02
   6.973753e+02   1.167930e+02
   5.182313e+02   6.080798e+02
  -7.285998e+01   8.194036e+02
  -4.211699e+02   1.691814e+02
  -2.656048e+02  -6.119494e+02
   1.755320e+02  -6.634987e+02
   4.790898e+02  -8.622237e+01
   2.717066e+02   5.617233e+02
  -1.902804e+02   6.453477e+02
  -4.820295e+02   1.660269e+02
  -4.418053e+02  -2.198830e+02
  -3.242619e+01  -3.380578e+02
   1.614389e+02  -2.300482e+02
   1.243415e+02  -5.023352e+01
  -1.218046e+02  -1.270236e+00
  -2.951255e+02  -2.049721e+02
  -1.284890e+02  -3.523166e+02
   3.649472e+02  -3.508285e+02
   6.365077e+02   1.541184e+02
   3.481962e+02   4.104492e+02
  -3.377138e+02   3.309603e+02
  -5.748000e+02  -6.322667e+01
  -2.803178e+02  -4.444124e+02
   2.726642e+02  -4.251071e+02
   4.254473e+02  -1.940120e+02
   3.428675e+02   1.952207e+02
   1.119379e+02   3.551040e+02
  -1.296479e+02   2.452535e+02
   2.246149e+01  -1.599153e+02
   9.402468e+01  -3.499775e+02
   3.089822e+02  -3.609741e+00
   1.838280e+02   5.711623e+02
  -2.498640e+02   5.672576e+02
  -4.195427e+02  -4.590061e+01
  -9.454072e+01  -4.875843e+02
   2.330565e+02  -1.933681e+02
   2.797729e+02   2.709346e+02
  -1.143055e+02   4.423688e+02
  -5.106337e+02   1.356345e+02
  -5.964612e+02  -3.463580e+02
  -1.586988e+02  -4.799530e+02
   3.685253e+02  -3.567965e+02
   5.538586e+02   4.435882e+01
   3.497936e+02   2.837728e+02
  -1.151311e+02   2.745697e+02
  -3.288699e+02  -2.755361e+01
  -2.947260e+02  -7.680844e+01
   3.356617e+01  -7.101744e+01
   1.370893e+02   8.444563e+01
  -1.467074e+02   8.940742e+01
  -2.605079e+02  -7.018182e+01
  -1.643778e+02  -2.431954e+02
   2.058826e+02  -2.136047e+02
   3.097332e+02  -1.239931e+02
   2.113171e+02   6.733737e+01
  -7.660217e+01   2.274865e+02
  -1.994529e+02   3.441707e+02
  -3.481755e+02   2.148470e+02
  -2.636523e+02  -1.536410e+02
  -9.402701e+01  -4.578509e+02
   1.148841e+02  -3.434023e+02
   7.237349e+01  -1.283225e+02
   2.604396e+01  -4.342161e+01
   1.069834e+02  -7.031346e+01
   2.131631e+02  -1.030114e+02
   2.252625e+02   1.152062e+02
   1.327324e+02   2.219969e+02
  -8.506152e+01   1.870572e+02
  -1.626409e+02  -2.541319e+01
  -1.557519e+02  -2.253756e+02
   2.173922e+01  -2.666216e+02
   2.420827e+02  -6.687513e+01
   3.496553e+02   2.237261e+02
   2.131392e+02   2.757220e+02
  -4.177580e+01   2.569452e+02
  -2.244413e+02   1.571006e+02
  -1.156624e+02   4.304094e+01
  -1.077736e+02   8.298483e+01
  -2.549665e+02  -4.841300e+00
  -4.295192e+02  -3.546912e+01
  -3.578526e+02  -2.438162e+02
   1.043531e+02  -4.185151e+02
   3.147869e+02  -4.418221e+02
   4.808241e+02  -1.077854e+02
   3.128291e+02   9.482495e+01
   7.131826e+01   2.423347e+02
  -8.727668e+01   2.444407e+02
  -6.035870e+01   3.619560e+01
   1.165329e+02  -8.300723e+01
   1.437899e+02   2.105629e+01
   3.081361e+01   1.883546e+02
  -1.675163e+02   1.464785e+02
  -1.549444e+02  -6.785901e+01
   4.215354e+01  -1.716320e+02
   1.838343e+02   3.091403e+01
   1.381947e+02   2.163537e+02
  -2.766198e+01   3.299397e+02
  -2.060058e+02   2.073097e+02
  -3.337134e+02  -1.140917e+02
  -3.001664e+02  -2.506074e+02
  -4.545877e+01  -2.792517e+02
   1.053698e+02  -1.346320e+02
   1.442912e+02  -1.587504e+01
   2.161399e+01   7.826250e+00
  -5.425729e+01  -5.327021e+01
  -1.292532e+01  -1.415131e+02
   1.152994e+02  -9.784441e+01
   1.514824e+02   2.464396e-01
   4.417506e+01   4.112421e+01
  -5.270420e+01   2.130357e+01
  -3.668050e+00  -7.956619e+01
   1.151544e+02  -8.105884e+01
   2.854670e+02  -1.938255e+01
   2.631943e+02   8.572621e+01
   6.385097e+01   2.390444e+02
  -1.878941e+02   2.411082e+02
  -2.761098e+02   1.296160e+02
  -1.378347e+02  -1.852708e+01
   3.380308e+01  -9.097972e+01
   8.170505e+01   2.838684e+01
  -3.854488e+01   8.276023e+01
  -1.773773e+02   6.502952e+01
  -2.174759e+02  -7.315808e+01
  -2.313624e+01  -1.874976e+02
   8.275170e+01  -1.377892e+02
   9.999794e+01   3.546967e+01
   4.839578e+01   5.336817e+01
  -3.015426e+01  -4.346891e+00
  -3.388792e+01  -1.175567e+02
   8.920850e+01  -1.076298e+02
   1.988222e+02   3.335644e+00
   1.732498e+02   9.959300e+01
   1.485541e+01   1.906831e+02
  -1.596385e+02   1.257133e+02
  -1.853161e+02   7.039304e+00
  -2.093288e+01  -7.858237e+01
   7.810573e+01  -1.099765e+02
   8.789795e+01  -4.332650e+01
   9.129413e+00  -4.774000e+00
  -2.188239e+01   3.813431e+00
  -1.457385e-02  -3.226315e+00
   5.730762e+01   1.734561e+01
   6.244682e+01   1.127640e+02
  -1.185418e+01   1.379228e+02
  -1.438092e+02   1.251252e+02
  -2.296582e+02   9.087888e-01
  -2.042184e+02  -1.721431e+02
  -3.155596e+01  -2.128406e+02
   1.129311e+02  -1.529842e+02
   1.349832e+02  -2.531441e+01
   7.571907e+01   4.834662e+01
   2.889728e+01   4.201842e+01
   6.044412e+01  -3.058258e+01
   7.479728e+01  -3.250732e+01
   4.396527e+01   5.781769e+01
  -5.341806e+01   8.648088e+01
  -1.043000e+02   8.936112e+01
  -8.805380e+01  -2.820015e+01
   8.468194e+00  -1.135321e+02
   1.529472e+02  -7.302741e+01
   2.088228e+02   3.477648e+01
   1.016434e+02   1.930846e+02
  -1.233734e+02   2.053960e+02
  -2.700482e+02   8.549176e+01
  -1.944240e+02  -8.771184e+01
  -1.210430e+02  -1.690176e+02
   1.266430e+01  -1.493053e+02
   7.017331e+01  -7.902379e+01
   7.977322e+01  -3.624710e+01
   6.368306e+01  -6.873764e+01
   1.259523e+02  -7.437760e+01
   1.320147e+02   1.366195e+01
   1.187575e+02   1.516698e+02
   5.320613e+01   2.489340e+02
  -8.208900e+01   1.555861e+02
  -1.453688e+02   2.863216e+01
  -9.975334e+01  -1.815945e+02
   4.632605e+00  -1.250545e+02
   9.636174e+01  -5.926921e+01
   7.199162e+01  -8.273746e+00
   7.364695e+00   6.475861e+01
   4.557496e+00   1.900066e+01
   1.671857e+01  -2.456571e+01
   1.055115e+02   1.413595e+00
   2.504533e+01   3.643104e+01
  -7.374330e+01   5.537942e+01
  -1.889642e+02   6.104080e+00
  -1.485725e+02  -5.140192e+01
  -3.188112e-01  -1.159875e+02
   1.329312e+02  -9.923648e+01
   1.167390e+02  -2.065793e+00
   2.765390e+01   7.930829e+01
  -6.695329e+01   5.368835e+01
  -5.204383e+01  -2.377718e+01
   9.850351e+00  -7.662834e+01
   5.062816e+01  -1.084316e+02
   2.580578e+01   3.236333e+01
   4.157143e+01   4.306905e+01
   5.219412e+01   2.517780e+01
   4.969889e+01   9.729002e+00
   6.357923e+01  -4.876705e+00
   2.913750e+01   3.055067e+01
  -2.108144e+01   1.806198e+02
  -1.237082e+02   1.511244e+02
  -1.754394e+02   6.358088e+01
  -1.237747e+02  -7.572307e+01
  -1.179642e+00  -9.025789e+01
   7.694632e+01  -9.051434e+01
   7.413522e+01   2.846777e+01
  -7.154788e+01   5.366449e+01
  -1.585690e+02  -3.659589e+01
  -4.430292e+01  -9.597075e+01
   9.789605e+01  -1.294673e+02
   1.610134e+02  -2.722323e+01
   1.824375e+02   4.986384e+01
   3.259122e+01   1.055005e+02
  -3.312969e+01   4.939495e+01
  -4.285623e+01  -1.696941e+01
   8.768462e+01  -5.942602e+01
   7.294796e+01   6.690343e+00
   4.355882e+01   8.117177e+01
  -9.776754e+01   1.211285e+02
  -1.757707e+02   7.358902e+01
  -1.531959e+02  -9.431256e+01
  -4.705290e+01  -1.989806e+02
   5.746272e+01  -1.259020e+02
   1.036059e+02  -5.192311e+00
   8.320241e+01   1.155337e+02
  -1.745327e+01   9.310425e+01
  -2.716489e+01   4.712650e+00
  -1.778202e+01  -4.928525e+01
  -1.488487e+01   1.645349e+01
   2.056808e+01   4.933842e+00
  -2.348339e+01  -4.492872e+01
  -6.606357e+01  -9.243915e+01
  -1.466410e+01  -9.332523e+01
   6.611060e+01  -4.228392e+01
   1.343153e+02   3.407253e+01
   1.057523e+02   9.145541e+01
   2.771587e+01   5.867104e+01
  -8.506012e+01   2.206564e+01
  -7.498535e+01   2.275917e+01
  -1.194116e+01  -2.143891e+01
   3.119866e+01  -3.238642e+01
   8.166378e+00  -1.035719e+01
   3.106281e+00  -2.678768e+01
  -1.115920e+01   3.118565e+01
   4.305782e+01   2.946919e+00
   1.299253e+02   1.377577e+01
   4.212141e+01   8.341165e+01
  -1.330990e+02   8.976406e+01
  -1.820346e+02   5.283512e+01
  -1.498536e+02  -5.798934e+01
  -5.638831e+01  -1.307296e+02
   1.057317e+02  -1.480902e+02
   8.721910e+01  -7.169888e+01
   9.228765e+01   1.769115e+01
   1.116833e+01   5.994258e+01
   6.772054e-01   4.127653e+01
   2.344744e+01   2.888977e+01
   3.486138e+01   2.242937e+01
   2.006416e+01   8.300056e+01
  -3.039322e+01   4.915602e+01
  -7.115458e+01  -6.844847e+00
  -6.076685e+01  -1.131575e+02
  -1.986968e+00  -9.604614e+01
   9.452706e+01  -2.592137e+01
   1.138095e+02   9.674074e+01
   4.070085e+01   1.145960e+02
  -7.755896e+01   9.948804e+01
  -6.575369e+01  -3.855054e+01
  -4.925866e+01  -3.713730e+01
   1.865914e+01  -8.530421e+01
   2.593504e+01  -3.011291e+01
  -6.105319e+00   1.332475e+01
  -4.940426e+01   3.651992e+00
  -1.300721e+01  -3.604961e+01
   6.775801e+01  -8.972430e+01
   1.496172e+02  -5.979674e+01
   6.504589e+01   5.814014e+00
  -1.338436e+01   8.843740e+01
  -5.655233e+01   6.647777e+01
  -6.066503e+01   7.042780e+00
   2.235305e+01  -6.242462e+01
   2.896964e+01  -6.016336e+01
   9.289308e+00   1.369987e+01
   4.028491e+01   6.563510e+01
   2.720641e+01   3.760758e+01
  -1.778752e+01  -1.266727e+01
  -4.265251e+01  -3.442715e+01
  -1.707584e+01  -9.125114e+00
  -2.298453e+01   4.023966e+00
   1.155890e+01   2.464532e+01
  -7.442009e+00  -1.859117e+01
   2.713438e+01  -4.635273e+01
   3.558254e+00  -3.485739e+00
   6.298608e+01   3.706580e+01
   1.108491e+01   5.464498e+01
  -4.312732e+01   4.641523e+00
  -3.226477e+01  -1.844179e+01
  -1.290682e+01  -7.309267e+01
   5.486167e+01  -6.828380e+01
   5.180764e+01   6.850431e+00
   4.526262e+01   5.565678e+01
  -1.791287e+01   6.812795e+00
  -5.907247e+01   9.149937e+00
  -4.878779e+00   2.438802e+01
   5.111305e+01   1.182666e+01
   1.581385e+01  -9.818547e+00
  -1.630234e+01   2.726417e+01
  -9.051871e+01  -2.045403e+00
