
 $NMID
 id='ANONYMOUS ', fmtdat='(2E16.6)'
 volume=1.0
 tramp=1.0
 $END
  -3.203566e+03  -2.325204e+02
  -2.003752e+03  -1.365215e+03
  -7.864134e+00  -1.946302e+03
   1.206199e+03  -1.204436e+03
   9.118749e+02  -3.798307e+02
   1.429317e+02   2.657615e+02
  -8.623180e+01   7.307499e+01
  -9.050605e+01  -4.910665e+02
   2.591087e+02  -5.382901e+02
   4.975340e+02   1.322815e+01
   4.387551e+02   5.253056e+02
   1.093201e+02   5.006192e+02
  -2.532162e+02   1.927614e+02
  -2.362501e+02  -4.323081e+02
   3.144447e+01  -4.129471e+02
   3.589367e+02  -1.189644e+02
   2.527899e+02   5.369297e+02
  -1.763888e+01   5.288236e+02
  -3.482119e+02   2.603748e+02
  -4.297753e+02  -1.569793e+02
  -4.557885e+01  -2.702238e+02
   1.040336e+02  -2.788568e+02
   6.850950e+01  -5.506851e+01
  -2.073854e+02  -1.154565e+02
  -1.862443e+02  -3.431345e+02
   1.000029e+01  -3.504237e+02
   4.283944e+02  -1.597700e+02
   5.003182e+02   1.816284e+02
   2.253484e+02   2.920865e+02
  -2.828165e+02   1.515498e+02
  -5.064687e+02  -2.409053e+02
  -7.938708e+01  -3.261277e+02
   3.038772e+02  -3.726169e+02
   4.319030e+02  -1.488140e+02
   2.706107e+02   1.785288e+02
   8.954753e+01   3.302672e+02
  -1.939356e+01   1.108208e+02
   6.148717e+01  -1.277586e+02
   1.063618e+02  -7.686726e+01
   1.448295e+02   1.420589e+02
  -1.124109e+01   5.053659e+02
  -2.393668e+02   3.520588e+02
  -2.611561e+02  -4.314069e+01
  -4.557386e+01  -2.626465e+02
   9.069328e+01  -1.254059e+02
   1.407506e+02   2.634190e+02
  -1.173533e+02   3.885508e+02
  -3.842695e+02   9.036622e+01
  -4.907001e+02  -3.739374e+02
  -1.512392e+02  -4.654276e+02
   2.937747e+02  -3.121158e+02
   4.656803e+02   5.508044e+01
   3.926305e+02   2.112221e+02
  -4.555987e+01   1.556254e+02
  -2.585750e+02   3.615338e+01
  -2.254963e+02   1.254286e+01
  -1.747738e+01   8.848444e+00
   2.415559e+01   4.011213e+01
  -1.154681e+02   1.287466e+01
  -2.091711e+02  -4.827283e+01
  -1.137191e+02  -1.922178e+02
   1.527067e+02  -2.209163e+02
   2.915147e+02  -1.200212e+02
   2.575095e+02   7.960288e+01
  -4.032841e+01   3.286556e+02
  -2.407307e+02   3.024110e+02
  -3.434569e+02   1.365997e+02
  -1.896734e+02  -2.277756e+02
  -2.777978e+01  -3.601032e+02
   3.282706e+01  -2.735536e+02
   7.798325e+00  -1.518415e+02
   5.001619e+01  -1.301161e+02
   1.532907e+02  -1.039137e+02
   2.519012e+02  -2.531921e+01
   1.996664e+02   1.134701e+02
   9.518407e+01   2.231227e+02
  -7.883546e+01   2.034504e+02
  -1.871412e+02  -2.484949e+01
  -8.192556e+01  -2.627652e+02
   2.832553e+01  -2.235268e+02
   2.566657e+02   2.445969e+01
   2.863955e+02   2.625417e+02
   1.345076e+02   2.994444e+02
  -3.281798e+01   2.172008e+02
  -1.617137e+02   1.579573e+02
  -1.193305e+02   8.917537e+01
  -1.611595e+02   7.227581e+01
  -2.727698e+02   6.709455e+01
  -3.842177e+02  -1.589302e+02
  -2.665873e+02  -3.401834e+02
   4.749993e+01  -4.011379e+02
   3.756223e+02  -4.287488e+02
   4.737887e+02  -7.633454e+01
   3.214998e+02   1.040680e+02
   1.599532e+01   2.046787e+02
  -6.758572e+01   1.395837e+02
  -8.443595e+00   2.004620e+01
   1.103156e+02  -3.877502e+01
   1.410965e+02   6.134863e+01
  -4.739625e+01   1.396010e+02
  -1.575153e+02   1.217648e+02
  -8.530253e+01  -8.765921e+01
   6.138189e+01  -1.215628e+02
   1.894364e+02   2.297349e+01
   1.184687e+02   2.352591e+02
  -7.118573e+01   3.371330e+02
  -2.812390e+02   1.665849e+02
  -3.384890e+02  -1.096739e+02
  -3.237681e+02  -2.174052e+02
  -3.181207e+01  -2.286977e+02
   1.450277e+02  -1.327681e+02
   1.288857e+02  -3.273824e+01
  -1.954485e+00   8.829405e+00
  -5.873017e+01  -5.580164e+01
   1.707487e+01  -1.060135e+02
   1.243403e+02  -8.794222e+01
   1.104705e+02   3.638413e-01
   5.998248e+01   4.993602e+01
  -1.261542e+02  -1.950389e+01
  -2.488488e+01  -1.091596e+02
   1.627408e+02  -8.269457e+01
   2.842099e+02   2.899210e+01
   2.385471e+02   2.356036e+02
   6.776631e+01   2.244963e+02
  -2.114899e+02   2.136853e+02
  -2.599983e+02   5.335682e+00
  -1.005464e+02  -5.869415e+01
   2.879585e+01  -7.823089e+01
   6.488222e+01   2.148257e+01
  -7.327350e+01   1.120382e+02
  -1.527976e+02   1.802249e+01
  -1.726936e+02  -9.099300e+01
  -1.299738e+01  -2.014530e+02
   5.514364e+01  -1.456358e+02
   1.133453e+02   1.623510e+01
   3.577450e+01   4.540323e+01
  -7.486811e+01  -9.606763e+00
  -3.210604e+01  -1.172315e+02
   9.766980e+01  -1.221187e+02
   1.737520e+02   1.493395e+01
   1.567604e+02   1.488636e+02
   7.256503e+00   1.878809e+02
  -1.569660e+02   8.528756e+01
  -1.576740e+02   3.881730e+00
  -2.424301e+01  -1.028260e+02
   7.817679e+01  -1.053790e+02
   6.697667e+01   9.798739e-01
  -9.893016e+00   3.172522e+01
  -3.215032e+01   1.310802e+01
  -1.624144e+01   4.364868e+00
   4.308088e+01  -9.989049e+00
   1.043060e+02   7.125756e+01
  -5.568038e+00   1.786481e+02
  -1.521531e+02   1.534326e+02
  -2.278418e+02   1.437346e+01
  -1.933132e+02  -1.515283e+02
  -2.704115e+01  -2.316067e+02
   1.064996e+02  -1.106306e+02
   1.015905e+02  -5.174024e+01
   5.833624e+01   3.079508e+01
   6.847820e+01   4.103039e+01
   4.933374e+01  -5.741934e+00
   6.523294e+01  -4.151514e+01
   6.627591e+01   5.222463e+01
  -3.514041e+01   9.211125e+01
  -1.279821e+02   6.676520e+01
  -1.180861e+02  -4.730801e+01
   3.067162e+01  -1.210537e+02
   1.710954e+02  -5.183648e+01
   1.923687e+02   6.651217e+01
   4.696760e+01   2.082384e+02
  -1.365492e+02   2.029858e+02
  -2.768083e+02   4.577683e+01
  -2.563512e+02  -1.093625e+02
  -7.232053e+01  -1.170104e+02
   7.085129e+01  -1.225812e+02
   3.940372e+01  -4.779773e+01
   3.927261e+01  -6.809847e+01
   4.067847e+01  -7.421277e+01
   9.334608e+01  -8.454559e+01
   1.105708e+02   1.804932e+01
   8.431354e+01   1.667054e+02
   1.607958e+01   2.414434e+02
  -1.371729e+02   1.451035e+02
  -1.665947e+02  -5.109503e+00
  -1.384270e+02  -1.800139e+02
   3.261026e+00  -1.561886e+02
   7.561310e+01  -4.831668e+01
   6.076634e+01   2.799553e+01
   6.912946e+00   2.656930e+01
  -4.222839e+01   3.008500e+01
   2.348527e+01   4.680153e+00
   7.511428e+01   4.408179e+01
   4.709756e+01   4.463745e+01
  -5.405933e+01   2.714868e+01
  -1.687742e+02   1.115534e+01
  -1.385636e+02  -5.280196e+01
   6.389684e+00  -1.034289e+02
   1.441467e+02  -8.026232e+01
   1.372122e+02  -7.990043e-03
   5.907362e+01   9.682209e+01
  -5.623168e+01   1.970276e+01
  -7.741023e+01  -2.525466e+01
  -5.363115e+00  -4.111637e+01
   2.698275e+01  -8.373331e+01
   9.347247e+01   1.089654e+01
   5.361788e+01   3.875438e+01
   3.987094e+01   5.881919e+01
   5.832888e+01   2.363411e+01
   6.677122e+01   1.892600e+01
   8.003027e+01   7.355949e+01
  -5.482677e+01   1.339347e+02
  -1.176568e+02   1.262988e+02
  -1.685970e+02   2.811432e+01
  -1.248737e+02  -1.231067e+02
   7.824613e+00  -1.079650e+02
   7.394920e+01  -5.064952e+01
   5.642697e+01  -2.666242e-01
  -6.895731e+01   4.590180e+01
  -1.098956e+02  -6.276934e+01
  -4.486409e+01  -8.904249e+01
   9.579086e+01  -1.185388e+02
   1.819811e+02  -3.222749e+01
   1.358744e+02   6.314970e+01
   8.851377e+00   8.513109e+01
  -4.996730e+01   5.121264e+01
  -4.748383e+01   1.256048e+01
   4.408412e+01  -6.362325e+01
   8.115944e+01   1.095051e-01
   5.952253e+01   1.149995e+02
  -9.333569e+01   1.263800e+02
  -1.506980e+02   4.047218e+01
  -1.374322e+02  -9.479254e+01
  -1.207928e+00  -1.631450e+02
   4.468841e+01  -9.900865e+01
   1.104130e+02   3.151607e+01
   5.207473e+01   1.335301e+02
  -2.544653e+01   1.010725e+02
  -4.316155e+01   5.950917e+00
  -5.121187e+01  -4.197567e+01
   1.017453e+01  -1.612995e+01
  -1.519868e+01  -3.787444e+00
  -7.306698e+01  -3.868684e+01
  -5.730536e+01  -7.536671e+01
  -5.114457e+00  -9.973838e+01
   5.117511e+01  -5.657088e+01
   1.009165e+02   5.350498e+01
   1.579159e+02   9.230999e+01
  -6.233482e-01   4.345224e+01
  -4.866711e+01   3.654860e+01
  -6.521108e+01  -1.181711e+01
  -3.243274e+01  -7.643328e+00
   3.360315e+01  -3.412318e+01
   9.983494e-01   8.513692e+00
   7.240550e-01  -2.557848e+01
   8.899791e+00   8.931338e+00
   8.056063e+01  -9.655963e+00
   9.224281e+01  -7.226402e+00
   1.497917e+01   6.174711e+01
  -1.528971e+02   8.247078e+01
  -1.484867e+02   2.900303e+01
  -1.612543e+02  -5.797405e+01
  -4.520033e+01  -1.498614e+02
   8.514562e+01  -1.515452e+02
   1.335688e+02  -8.044263e+01
   8.488152e+01   1.416084e+01
   3.782063e+01   3.580073e+01
   5.326827e+00   1.019734e+01
   1.733025e+01  -1.236050e+01
   3.276755e+01   5.350217e+01
  -1.236023e+01   6.860394e+01
  -4.373067e+01   8.775062e+01
  -4.609944e+01   1.765888e+00
  -6.403919e+01  -8.910893e+01
  -1.422426e+00  -8.880015e+01
   9.285653e+01  -2.060364e+01
   1.138957e+02   7.661636e+01
   4.713510e+01   1.218314e+02
  -7.427968e+01   6.437248e+01
  -1.013376e+02  -9.328673e+00
  -4.351787e+01  -6.045447e+01
   4.295806e+01  -5.317237e+01
   2.658870e+01  -2.646690e+01
  -1.474067e+01   2.364686e+01
  -5.607961e+01   1.796013e+00
  -3.284925e+01  -2.205121e+01
   8.936569e+01  -8.844697e+01
   1.374607e+02  -6.827520e+01
   8.890487e+01   1.327812e+01
  -1.699218e+01   7.910749e+01
  -8.727092e+01   8.427328e+01
  -5.966119e+01  -1.730177e+01
   1.001863e+01  -7.278343e+01
   3.175925e+01  -4.265389e+01
   3.229737e+01   3.400338e+00
   2.559836e+01   5.037902e+01
  -2.155798e-01   5.571604e+01
  -1.439795e+00  -2.047808e+00
  -1.591794e+01  -4.753675e+01
  -8.721483e+00  -1.310804e+01
   1.651897e+01   1.896090e+01
  -1.703664e+01   1.467524e+01
  -2.110540e+01  -2.118917e+01
  -5.962396e+00  -4.743005e+01
   1.848013e+01  -1.980808e+01
   6.933709e+01   3.165605e+01
   1.309454e+01   4.702697e+01
  -4.145286e+01   2.605623e+01
  -7.084240e+01  -1.592935e+01
  -1.355926e+01  -6.033991e+01
   6.338624e+01  -4.170261e+01
   9.070097e+01   2.056992e+01
   3.435001e+01   5.647655e+01
  -4.485162e+01   4.667881e+01
  -4.608017e+01   2.181039e+01
  -3.461685e+01  -3.228669e+01
   3.879804e+01  -6.482344e+00
   7.172354e+00   1.900226e+01
   7.464830e+00   4.377350e+01
  -7.658327e+01  -3.463524e+01
