
 $NMID
 id='ANONYMOUS ', fmtdat='(2E16.6)'
 volume=1.0
 tramp=1.0
 $END
   2.793625e+03   1.399109e+02
   2.014095e+03   1.416602e+03
   6.356114e+01   1.806164e+03
  -1.055533e+03   9.584853e+02
  -7.585827e+02   1.439124e+02
   1.116789e+01  -2.668501e+02
   4.548900e+02   1.379509e+02
   3.127867e+01   4.746857e+02
  -4.058644e+02   5.544034e+02
  -5.726132e+02  -4.276848e+01
  -2.325673e+02  -4.759568e+02
  -1.038428e+01  -5.117686e+02
   3.099885e+02  -3.495677e+01
   2.053173e+02   3.743099e+02
  -1.073865e+02   4.655515e+02
  -3.422911e+02   1.731433e+01
  -2.092710e+02  -4.462449e+02
   7.417081e+01  -5.091783e+02
   3.768515e+02  -2.427304e+02
   3.107548e+02   1.984078e+02
   9.338693e+01   3.085908e+02
  -1.200237e+02   1.990166e+02
  -7.346417e+01   3.622287e+01
   1.686174e+02   2.603083e+01
   2.511782e+02   2.264223e+02
   4.554852e+01   2.882892e+02
  -4.538144e+02   1.900696e+02
  -5.102275e+02  -1.600427e+02
  -1.501402e+02  -3.613592e+02
   3.099686e+02  -2.223073e+02
   3.777777e+02   1.832868e+02
   2.201422e+02   2.948279e+02
  -2.400307e+02   3.545081e+02
  -3.860169e+02   1.006701e+02
  -2.867201e+02  -1.113098e+02
  -4.957111e+01  -3.388923e+02
   5.645154e+01  -1.773215e+02
  -2.557242e+00   1.088455e+02
  -1.451247e+02   1.483247e+02
  -1.898004e+02  -9.869861e+01
  -5.963592e+01  -4.653724e+02
   2.193895e+02  -4.160391e+02
   2.798778e+02   7.495947e+01
   6.853035e+01   3.498236e+02
  -1.316600e+02   2.082935e+02
  -2.091248e+02  -2.490895e+02
   4.386763e+01  -3.567323e+02
   3.880991e+02  -9.398660e+01
   4.044260e+02   2.566466e+02
   1.109948e+02   4.592641e+02
  -2.685325e+02   2.010381e+02
  -4.521920e+02  -7.329994e+01
  -2.802742e+02  -2.420027e+02
   5.952585e+01  -2.025956e+02
   2.405328e+02  -6.881187e+01
   1.830365e+02   4.589443e+01
   6.874736e+00   4.113862e+01
  -4.816604e+01  -4.785417e+01
   7.170538e+01  -5.008901e+01
   2.073504e+02   9.207594e+01
   1.117502e+02   1.717564e+02
  -1.182414e+02   2.486579e+02
  -2.984337e+02   8.674224e+01
  -2.337314e+02  -1.147153e+02
   5.209979e+01  -2.248387e+02
   2.572762e+02  -2.589240e+02
   2.890148e+02  -1.343978e+02
   2.137730e+02   1.579439e+02
   6.972466e+01   3.183463e+02
  -5.500361e+01   2.810768e+02
  -3.924435e+01   6.917202e+01
  -9.551101e+00   6.741105e+01
  -1.180059e+02   1.114752e+02
  -2.223001e+02   8.997122e+01
  -1.886951e+02  -5.774406e+01
  -7.821914e+01  -1.937026e+02
   5.753576e+01  -1.840285e+02
   1.449396e+02   8.733273e+00
   1.121793e+02   2.273451e+02
  -2.021411e+01   2.380909e+02
  -1.591434e+02   1.820681e+01
  -1.932234e+02  -1.707602e+02
  -1.434705e+02  -2.672986e+02
   2.443922e+01  -2.465699e+02
   1.340534e+02  -1.255579e+02
   8.807854e+01  -3.494443e+01
   1.244751e+02  -8.307270e+01
   2.165343e+02  -5.530530e+01
   3.385211e+02   1.217341e+02
   2.482786e+02   2.517162e+02
  -3.299855e+01   3.575087e+02
  -3.362611e+02   3.344592e+02
  -3.937969e+02   1.064739e+02
  -2.195848e+02  -1.061098e+02
  -5.321771e+00  -1.900019e+02
   1.132308e+02  -2.165890e+02
   1.623927e+00  -5.700957e+01
  -9.734712e+01   6.871581e+01
  -1.211360e+02  -1.837415e+01
  -3.262994e+01  -6.319692e+01
   8.039897e+01  -9.190736e+01
   8.666401e+01   6.058979e+01
  -1.976378e+01   1.261876e+02
  -1.145035e+02   3.932491e+01
  -1.526559e+02  -2.104082e+02
  -2.100415e+01  -2.894996e+02
   2.398640e+02  -1.907372e+02
   2.871959e+02   2.863324e+01
   2.049017e+02   2.374565e+02
   8.031299e+01   2.514789e+02
  -8.499661e+01   1.551252e+02
  -1.038596e+02   1.463584e+01
  -5.779889e+01  -5.116091e+00
   6.290265e+01   3.131587e+01
   2.677046e+00   9.836860e+01
  -8.293727e+01   6.094924e+01
  -1.141091e+02  -2.472492e+01
  -4.682284e+01  -3.076967e+01
   4.993961e+01  -1.525608e-01
   7.708669e+01   8.299715e+01
  -1.496394e+02   6.643819e+01
  -2.819621e+02  -3.443717e+01
  -1.971082e+02  -1.397468e+02
  -2.189073e+01  -2.376340e+02
   1.473552e+02  -1.646218e+02
   2.392039e+02  -1.142999e+02
   7.917373e+01   3.854646e+01
  -3.197680e+01   6.182991e+01
  -8.313921e+01  -1.047036e+00
   4.294141e+01  -1.043321e+02
   1.340818e+02  -4.987929e+01
   1.920872e+02   1.171204e+02
   6.716731e+01   1.673810e+02
  -9.417690e+01   1.344325e+02
  -1.283781e+02   4.119558e+01
  -3.958024e+01  -5.241501e+01
   4.495643e+01  -1.095535e+01
   3.309622e+01   7.624375e+01
  -6.180530e+01   1.068884e+02
  -1.556663e+02   2.655323e+01
  -1.617079e+02  -1.423661e+02
  -3.622827e+01  -1.731632e+02
   1.353833e+02  -1.128426e+02
   1.473070e+02  -7.035500e+00
   5.973830e+01   9.555811e+01
  -7.801756e+01   5.588847e+01
  -5.732806e+01   2.680838e+01
  -3.068355e+00   2.615150e+00
   1.712727e+01   8.391759e+00
  -8.278713e+00   2.838746e+01
  -5.832223e+01  -2.082125e+01
  -1.026853e+02  -7.621347e+01
  -2.743539e+01  -1.486763e+02
   9.772503e+01  -1.230402e+02
   1.981191e+02   2.880701e+01
   1.498797e+02   1.634275e+02
   2.965163e+01   1.840258e+02
  -7.950758e+01   1.045071e+02
  -1.118494e+02  -9.197517e+00
  -5.546357e+01  -6.469610e+01
  -2.265344e+01  -2.322713e+01
  -4.179859e+01  -2.692676e+00
  -8.235900e+01  -8.888790e+00
  -3.660460e+01  -4.376709e+01
   2.881717e+01  -9.635011e+01
   1.001314e+02  -5.803150e+01
   9.068007e+01   3.585527e+01
  -2.834312e+01   1.171361e+02
  -1.304966e+02   5.044163e+01
  -1.604203e+02  -6.659062e+01
  -7.394684e+01  -1.903976e+02
   1.150662e+02  -1.734240e+02
   2.192521e+02  -4.761810e+01
   1.974508e+02   8.049522e+01
   7.051418e+01   1.320667e+02
  -2.210885e+01   1.474948e+02
  -7.842620e+01   6.844624e+01
  -7.758326e+01   7.166788e+01
  -5.277686e+01   4.506537e+01
  -3.191316e+01   2.202228e+01
  -1.168122e+02   5.158109e+00
  -8.630060e+01  -1.164425e+02
  -4.647976e+01  -1.864574e+02
   1.088719e+02  -1.572674e+02
   1.378105e+02  -5.144495e+01
   7.123479e+01   1.046869e+02
   4.442915e+00   1.412804e+02
  -6.933762e+01   7.247094e+01
  -5.117621e+01  -2.523660e+01
   5.248923e+00  -4.009515e+01
   3.381225e+01  -5.109806e+00
  -2.976524e+01   3.102669e+01
  -6.636770e+01  -1.306826e+01
  -3.916482e+01  -1.057660e+01
   6.082058e+01  -1.070023e+01
   1.463599e+02  -9.932452e+00
   9.542201e+01   3.376644e+01
   1.254101e+01   6.497885e+01
  -1.277391e+02   4.141499e+01
  -1.427198e+02  -8.367714e+00
  -1.540116e+01  -5.108251e+01
   2.157869e+01  -5.528948e+01
   4.540995e+01   3.997528e+01
  -3.193665e+00   5.854192e+01
  -6.213070e+01   3.614388e+01
  -8.222527e+01   1.439385e+01
  -4.927380e+01  -1.854679e+01
  -4.128475e+01  -2.925797e+01
  -5.568221e+01   1.625552e+00
  -4.903450e+01   8.436410e+00
  -1.965386e+01  -7.252061e+01
   2.961855e+01  -1.444621e+02
   1.168121e+02  -1.131690e+02
   1.380936e+02  -4.355377e+01
   9.546218e+01   8.258064e+01
   3.247326e+01   8.589395e+01
  -5.348443e+01   7.020082e+01
  -3.110768e+01  -2.745266e+01
   6.606523e+01  -2.839416e+01
   1.021263e+02   5.286570e+01
   7.801521e+01   9.316692e+01
  -7.743126e+01   9.223914e+01
  -1.444223e+02   3.290340e+01
  -1.336715e+02  -3.784878e+01
  -3.800898e+01  -6.107833e+01
   3.944515e+01  -5.585908e+01
   4.471259e+01  -7.260995e+00
  -3.350530e+01   1.316902e+01
  -4.715200e+01   6.385470e-01
  -2.462622e+01  -9.678501e+01
   3.801784e+01  -1.376663e+02
   1.549079e+02  -4.360169e+01
   1.206256e+02   1.028125e+02
  -1.091583e-01   1.768744e+02
  -2.121758e+01   1.257869e+02
  -6.141056e+01  -3.019375e+01
  -5.726149e+01  -1.236202e+02
   9.091296e+00  -6.159609e+01
   5.062486e+01  -5.547455e+00
   5.940937e+01   2.721703e+01
   5.646066e+01   1.157067e+01
   8.505516e+00  -2.133352e+01
   3.735196e+01  -6.599431e+00
   7.205316e+01   8.472949e+01
   4.301458e+01   9.229135e+01
  -3.740383e+01   2.273497e+01
  -1.061030e+02  -2.168369e+01
  -1.152466e+02  -6.727872e+01
  -2.368191e+01  -4.979499e+01
   6.250583e+01   6.042311e-01
   4.943208e+01   1.469578e+01
   4.649970e+00   1.420416e+01
  -1.275253e+01   2.751986e+01
  -1.703773e+01  -3.361524e+00
   4.905820e+01  -1.479945e+00
   3.460578e+01  -1.362875e+01
  -3.709701e+01   7.163300e+00
  -6.283915e+01   9.163683e+00
  -2.902624e+01  -8.288396e+01
   7.796844e+01  -1.060471e+02
   1.411133e+02  -4.816869e+01
   1.292450e+02   3.637172e+01
   4.304073e+01   1.355935e+02
  -6.216481e+01   1.377091e+02
  -8.255869e+01   1.135502e+01
  -6.948230e+01  -1.900970e+01
  -1.664763e+01  -4.717912e+01
   1.741883e+01  -2.242393e+01
  -3.210243e+00  -1.771498e+01
  -3.346413e+01  -3.818152e+01
  -3.823396e+01  -8.654268e+01
   4.731500e+01  -7.761628e+01
   5.917721e+01   6.229412e+01
   6.162540e+01   3.883710e+01
   4.952025e-01   8.293455e+01
  -7.935584e+01   4.949207e+01
  -9.139749e+01  -3.240294e+01
  -4.938847e+00  -1.108827e+02
   5.310401e+01  -2.277723e+01
   9.330351e+01   1.816796e+01
   3.758206e+01   2.687654e+01
  -1.966409e+01   6.666986e+01
  -6.805724e+00  -1.197030e+00
   2.233042e+01   7.327122e+00
   4.595500e+01  -7.707006e+00
   2.804668e+01   2.149239e+01
  -4.369459e+01   7.114070e+01
  -8.023547e+01   5.070663e+01
  -5.619524e+01  -2.782904e+01
   2.273042e+01  -5.458108e+01
   4.409552e+01  -4.849068e+01
   2.119287e+01  -6.223534e+00
   1.612811e+00   3.697197e+01
  -2.599129e+01   3.592409e+01
  -2.009208e+01  -1.750792e+01
  -8.504333e+00  -5.132853e+01
   8.185298e-01  -3.334834e+01
   2.702213e+01   1.132272e+01
   5.028221e+01  -2.452920e+00
   3.447558e+01  -1.004255e+01
  -1.479296e+01  -2.650840e+01
  -1.696012e+01  -1.858117e+01
   1.033024e+01   3.362642e+01
  -1.736959e+01   3.059908e+01
  -2.469769e+01   1.559423e+01
  -5.313870e+00  -5.241635e+00
   2.215122e+01  -3.894941e+01
   3.447839e+01  -3.923018e+01
   5.918029e+01   6.466660e+01
   1.242121e+01   4.969087e+01
  -6.856613e+01   1.145785e+01
  -6.610323e+01   6.625961e+00
  -8.131666e+01  -3.407063e+01
   1.825001e+01  -4.884020e+01
   5.408641e+01  -1.667289e+01
   3.649141e+00  -8.328586e+00
  -4.509595e+01   1.391038e+01
  -4.200868e+01   1.458336e+01
   1.145317e+01  -3.828995e+01
   4.621499e+01  -2.343772e+01
