
 $NMID
 id='ANONYMOUS ', fmtdat='(2E16.6)'
 volume=1.0
 tramp=1.0
 $END
  -4.568159e+03   6.026112e+02
  -2.961183e+03  -2.906870e+03
   9.938546e+02  -3.345651e+03
   2.488404e+03  -8.373993e+02
   9.924524e+02   7.675265e+02
  -5.832686e+02   8.559376e+02
  -1.090147e+03  -3.572106e+02
  -1.112298e+02  -1.089059e+03
   9.938101e+02  -9.949874e+02
   9.195919e+02   8.516505e+01
   5.273787e+02   9.657754e+02
  -1.825078e+02   1.094252e+03
  -6.576293e+02   1.352612e+02
  -5.190993e+02  -7.041302e+02
   2.349155e+02  -9.464578e+02
   7.322095e+02  -4.595648e+00
   2.389826e+02   8.107271e+02
  -4.328642e+02   7.776800e+02
  -6.648244e+02   8.701385e+01
  -4.152402e+02  -4.027014e+02
  -1.647649e+01  -4.305851e+02
   2.577331e+02  -3.180626e+02
   2.615378e+02  -5.790932e+01
  -6.835313e+01   1.039646e+02
  -4.007137e+02  -1.430384e+02
  -2.808495e+02  -4.327472e+02
   4.950791e+02  -4.915500e+02
   9.646740e+02   3.445766e+01
   4.562276e+02   6.239889e+02
  -4.375576e+02   6.057723e+02
  -7.434119e+02  -3.780756e+01
  -4.497925e+02  -5.395986e+02
   2.101452e+02  -5.398740e+02
   5.725764e+02  -3.252509e+02
   4.810650e+02   2.821552e+02
   1.404595e+02   5.167927e+02
  -2.245878e+02   3.440920e+02
  -1.855896e+02  -2.161340e+02
   1.634987e+02  -5.334595e+02
   5.077114e+02   2.829684e+00
   2.520133e+02   7.690113e+02
  -3.017029e+02   8.317272e+02
  -6.356147e+02   9.601002e+01
  -2.201796e+02  -4.783259e+02
   2.980604e+02  -3.630279e+02
   4.151714e+02   3.437155e+02
   5.407974e-01   6.003658e+02
  -6.051844e+02   2.148748e+02
  -6.599797e+02  -4.951697e+02
  -2.361224e+02  -6.102939e+02
   3.943530e+02  -3.649525e+02
   7.591479e+02  -3.128696e+01
   4.026922e+02   4.292039e+02
  -2.033562e+02   4.109424e+02
  -4.627142e+02   6.343626e+01
  -2.737429e+02  -2.038972e+02
   1.392444e+02  -1.440220e+02
   1.813303e+02   1.465562e+02
  -1.767598e+02   1.834310e+02
  -3.499360e+02  -4.404854e+01
  -1.679021e+02  -3.640490e+02
   1.933613e+02  -3.135195e+02
   3.704305e+02  -7.443013e+01
   1.986017e+02   7.765736e+01
  -4.951397e+01   2.016069e+02
  -2.317431e+02   3.389710e+02
  -3.339998e+02   2.802081e+02
  -3.130579e+02  -1.332293e+02
  -8.893456e+01  -4.939553e+02
   8.420637e+01  -4.131747e+02
   1.066482e+02  -1.005932e+02
   6.254978e+01   6.143148e+01
   2.501057e+01  -7.899624e+01
   1.598124e+02  -1.456013e+02
   3.064214e+02   9.248729e+01
   2.039386e+02   2.993457e+02
  -3.978698e+01   2.814860e+02
  -2.697931e+02   3.942548e+01
  -2.168430e+02  -2.050165e+02
   1.749127e+00  -2.865128e+02
   2.995026e+02  -1.108613e+02
   3.644041e+02   2.150403e+02
   2.101800e+02   3.747757e+02
  -1.480228e+02   3.558864e+02
  -2.711009e+02   1.696233e+02
  -1.965438e+02   3.461154e+01
  -1.163043e+02   1.067939e+01
  -2.625462e+02   1.026635e+02
  -3.983587e+02  -4.458826e+01
  -3.366991e+02  -2.851301e+02
  -3.576615e+01  -4.274342e+02
   4.099258e+02  -3.911183e+02
   4.601313e+02  -2.432347e+02
   3.739542e+02   1.068023e+02
   4.825480e+01   3.310387e+02
  -1.322912e+02   2.799510e+02
  -1.073223e+02  -2.119295e+00
   1.460013e+02  -1.503532e+02
   2.309233e+02  -1.310225e+01
   9.035107e+01   1.842397e+02
  -1.923398e+02   2.203670e+02
  -1.976747e+02  -6.400367e+01
  -1.815942e+01  -1.769392e+02
   1.872812e+02  -5.648187e+01
   1.266619e+02   2.553735e+02
  -1.320065e+01   3.374451e+02
  -2.246673e+02   1.724127e+02
  -3.026741e+02  -3.963730e+01
  -2.947733e+02  -2.851839e+02
  -1.189548e+02  -2.269638e+02
   7.569240e+01  -1.625760e+02
   2.004327e+02  -1.086183e+01
   7.367093e+01   1.980810e+01
  -6.166248e+01  -4.107361e+01
  -2.354818e+01  -1.080832e+02
   1.134904e+02  -1.431251e+02
   1.942022e+02   7.461119e+00
   6.577585e+01   1.149694e+02
  -9.116058e+01   6.533563e+01
  -8.026000e+01  -7.734826e+01
   1.047672e+02  -8.505639e+01
   2.960309e+02  -1.384892e+01
   2.869280e+02   1.175082e+02
   5.524201e+01   3.058312e+02
  -1.647501e+02   2.854432e+02
  -3.256238e+02   1.583456e+02
  -1.903844e+02  -3.305285e+01
   2.843075e+01  -1.261881e+02
   1.035764e+02  -4.440850e+00
  -2.940992e+01   1.038398e+02
  -2.390736e+02   7.041490e+01
  -2.228783e+02  -8.047891e+01
  -6.476008e+01  -2.044359e+02
   7.543035e+01  -1.705707e+02
   1.538189e+02  -4.258139e+01
   9.477053e+01   6.127122e+01
  -1.142420e+01  -1.531634e+01
  -3.119987e+01  -6.849577e+01
   8.126664e+01  -1.240934e+02
   2.195018e+02  -2.440439e+01
   2.121444e+02   8.024809e+01
   3.090791e+01   2.376542e+02
  -1.738463e+02   1.596347e+02
  -2.048764e+02   6.094865e+00
  -7.372780e+01  -1.105176e+02
   8.464994e+01  -1.111426e+02
   7.687797e+01  -3.726179e+01
   2.545357e+01   2.024436e+01
  -4.045161e+01   2.908033e+01
   2.934342e+01  -9.697770e+00
   1.211001e+02   1.056335e+01
   1.047094e+02   5.506268e+01
   1.862527e+01   1.859823e+02
  -1.427167e+02   1.600866e+02
  -2.265021e+02   2.195513e+01
  -2.098924e+02  -1.508397e+02
  -3.226670e+01  -2.361311e+02
   1.005999e+02  -2.114883e+02
   1.622936e+02  -2.463896e+01
   6.563661e+01   5.048251e+01
   1.236816e+01   2.508063e+01
   5.778891e+01  -2.906530e+01
   8.710392e+01  -3.761095e+01
   4.792233e+01   6.664398e+01
  -5.828848e+01   8.941881e+01
  -1.356544e+02   3.891783e+01
  -1.046024e+02  -4.578579e+01
  -4.930264e+00  -1.078434e+02
   1.358691e+02  -1.073002e+02
   2.380071e+02   4.622382e+01
   1.005452e+02   2.228456e+02
  -5.496481e+01   2.438258e+02
  -2.349254e+02   1.341851e+02
  -3.022557e+02  -4.237583e+01
  -1.493586e+02  -1.378613e+02
   2.033033e+01  -1.680503e+02
   7.895871e+01  -7.936003e+01
   5.749792e+01  -4.843148e+01
   4.334156e+01  -8.495148e+01
   8.885915e+01  -8.061970e+01
   1.321883e+02   1.075678e+01
   9.361060e+01   1.855895e+02
   3.982865e+01   2.327736e+02
  -1.025763e+02   1.974948e+02
  -1.760154e+02   2.312798e+01
  -1.410824e+02  -9.768469e+01
  -2.844856e+01  -1.593775e+02
   3.921396e+01  -1.286840e+02
   3.617057e+01   2.045452e+01
  -4.135467e+00   3.786859e+01
  -4.112681e+00   3.997328e+01
   4.080890e+01   3.732242e+01
   7.361552e+01   2.577351e+01
   5.347896e+01   3.231295e+01
  -3.866598e+01   5.881600e+01
  -1.651941e+02   4.641908e+00
  -1.660191e+02  -4.441277e+01
  -1.484240e+01  -9.497788e+01
   1.488895e+02  -4.896334e+01
   1.221322e+02  -4.043086e+00
   5.168138e+01   3.155396e+01
  -6.696243e+01   7.468607e+01
  -8.860864e+01  -3.276479e+01
   2.580200e+00  -5.327986e+01
   5.278604e+01  -7.461412e+01
   6.474070e+01   1.842145e+00
   1.735342e+01   6.732448e+01
   5.144105e+01   3.923579e+01
   6.242791e+01   2.947697e+00
   5.199793e+01  -5.144534e+00
   4.494350e+01   7.439083e+01
  -5.446603e+01   1.839500e+02
  -1.250795e+02   1.677099e+02
  -1.784159e+02   3.972181e+01
  -1.617710e+02  -8.968076e+01
  -1.685941e+01  -1.250537e+02
   1.032291e+02  -5.899468e+01
   8.523728e+01  -1.160051e+01
  -5.868449e+01   4.614277e+01
  -1.490307e+02  -5.036779e+01
  -8.857188e+01  -1.121104e+02
   8.872212e+01  -1.259040e+02
   1.767845e+02  -6.356657e+01
   1.726326e+02   3.550351e+01
   3.699664e+01   7.172031e+01
  -7.731916e+01   1.002746e+02
  -3.844411e+01   2.002566e+01
   2.381968e+01  -1.698807e+01
   1.079797e+02   3.344194e+01
   4.097384e+01   1.124941e+02
  -1.005794e+02   1.201419e+02
  -1.672421e+02   8.031883e+01
  -1.248172e+02  -1.072805e+02
  -2.618259e+01  -2.204772e+02
   9.011747e+01  -1.694343e+02
   9.883543e+01  -3.549745e+01
   8.082864e+01   1.341131e+02
   2.545117e+01   9.083511e+01
  -3.219184e+01   2.080062e+01
  -5.572164e+01  -1.321461e+01
  -3.210254e+01   4.017363e+00
  -1.537174e+01   1.398816e+01
   2.320649e+01  -1.243277e+01
  -3.169595e+01  -8.466025e+01
  -5.736057e+01  -1.248013e+02
   5.742920e+01  -4.419272e+01
   1.386562e+02   1.165867e+01
   1.761220e+02   5.145330e+01
   3.265512e+01   6.769245e+01
  -9.138211e+01   1.851123e+01
  -7.803275e+01   1.724932e+01
  -1.320580e+00   4.614192e+00
   3.782211e+01  -1.803845e+01
  -1.109816e+01  -2.341545e+01
  -2.319347e+01   7.855923e+00
  -2.311472e+01  -7.596941e+00
   8.620058e+01  -2.337864e+01
   9.430478e+01   2.329812e+01
  -2.040486e+00   8.879234e+01
  -1.137900e+02   1.081230e+02
  -1.802774e+02   8.143536e+01
  -1.400731e+02  -7.372998e+01
  -7.538478e+01  -1.837276e+02
   1.057047e+02  -1.642447e+02
   1.196745e+02  -6.701840e+01
   1.096654e+02   4.682776e+01
   2.823508e+01   1.820334e+01
  -1.317947e+01   1.841737e+01
   4.181003e+01  -2.859720e+00
   4.157387e+01   5.547879e+01
  -9.459151e+00   9.950056e+01
  -4.361514e+01   7.938912e+01
  -8.149734e+01  -1.341153e+01
  -8.656787e+01  -1.073976e+02
  -2.932537e+01  -1.247134e+02
   1.006024e+02  -6.705805e+01
   1.130169e+02   6.320756e+01
   4.205394e+01   9.179084e+01
  -8.064379e+01   6.728978e+01
  -8.889301e+01   2.762723e+00
  -4.674001e+01  -5.679269e+01
   2.003315e+01  -2.151215e+01
   4.957022e+01  -1.685117e+01
  -2.193497e+01  -5.253595e+00
  -4.392697e+01   5.836848e+00
  -1.449761e+01  -5.049609e+01
   9.965858e+01  -7.276852e+01
   1.207187e+02  -7.100232e+01
   6.486099e+01   1.033900e+01
   1.612013e+01   8.620321e+01
  -6.605263e+01   6.255418e+01
  -4.991901e+01   7.108892e+00
  -2.752488e+01  -8.529037e+01
  -2.883666e+01  -3.006487e+01
   4.654049e+01   2.536379e+01
   3.098946e+01   6.371795e+01
   5.342304e-01   3.630797e+01
  -4.163735e+01  -7.158852e+00
  -3.898018e+01  -5.392035e+01
  -7.528314e+00  -9.419254e+00
   9.721664e+00   3.418141e+01
   1.564247e+01  -1.375679e+01
   1.129460e+01  -4.222161e+01
   1.865503e+01  -5.561171e+01
   2.063177e+01  -7.268906e+00
   3.134207e+00   3.411954e+01
  -4.585760e+01   6.246601e+01
  -7.056696e+01   4.779230e+00
  -6.933301e+01  -3.680359e+01
  -3.060913e+01  -7.308169e+01
   6.990959e+01  -3.319776e+00
   1.148662e+02   1.626866e+01
   4.818952e+01   4.480443e+01
  -2.662201e+01   4.589672e+01
  -5.666032e+01   3.114949e+01
  -1.294987e+01  -1.445620e+01
   4.040756e+01  -1.581774e+01
   3.503179e+01   3.683763e+01
  -3.623860e+01   3.524310e+01
  -6.501873e+01   1.991356e+01
