
 $NMID
 id='ANONYMOUS ', fmtdat='(2E16.6)'
 volume=1.0
 tramp=1.0
 $END
  -4.337903e+03   3.330550e+01
  -2.960745e+03  -2.754892e+03
   9.434572e+02  -3.112204e+03
   2.655260e+03  -6.977384e+02
   8.224925e+02   9.615341e+02
  -8.109117e+02   6.205636e+02
  -9.661716e+02  -6.499505e+02
   4.819309e+01  -1.155045e+03
   9.955394e+02  -8.825876e+02
   9.409267e+02   1.546298e+02
   4.983490e+02   9.675604e+02
  -3.469976e+02   9.112763e+02
  -7.004852e+02   8.733645e+01
  -3.199891e+02  -7.449725e+02
   3.162828e+02  -7.264882e+02
   7.003853e+02  -1.689921e+01
   2.290143e+02   7.503373e+02
  -4.160125e+02   6.381462e+02
  -6.080263e+02  -5.334627e+01
  -4.468416e+02  -3.864833e+02
   4.627246e+00  -4.573697e+02
   2.789698e+02  -3.026041e+02
   2.409470e+02  -4.558137e+01
  -1.154902e+02   9.830637e+01
  -4.636196e+02  -8.728008e+01
  -2.395072e+02  -3.587927e+02
   4.403138e+02  -4.584389e+02
   9.103674e+02   8.048745e+01
   4.914343e+02   5.935532e+02
  -4.496777e+02   6.204410e+02
  -7.451518e+02  -9.233087e+01
  -3.597657e+02  -5.651738e+02
   3.155246e+02  -5.326187e+02
   6.119066e+02  -2.343008e+02
   4.064319e+02   2.951430e+02
   7.763510e+01   5.581715e+02
  -3.060206e+02   2.946991e+02
  -1.792594e+02  -2.511542e+02
   2.554137e+02  -5.277324e+02
   4.743124e+02  -9.393180e+00
   3.164677e+02   7.200849e+02
  -2.624297e+02   6.803205e+02
  -6.125339e+02  -1.741757e+01
  -2.268434e+02  -5.246716e+02
   3.054972e+02  -3.561667e+02
   5.189582e+02   3.821844e+02
   1.233314e+01   5.745813e+02
  -5.293341e+02   1.580866e+02
  -6.597295e+02  -5.192769e+02
  -2.085754e+02  -5.912783e+02
   3.563408e+02  -3.485963e+02
   6.472539e+02   1.187442e+02
   4.193982e+02   3.986812e+02
  -2.280058e+02   4.105130e+02
  -4.845879e+02   2.239572e+01
  -2.815936e+02  -2.624713e+02
   1.688915e+02  -1.372164e+02
   1.999503e+02   1.785714e+02
  -2.076324e+02   1.830989e+02
  -3.527241e+02  -7.617714e+01
  -1.645732e+02  -3.287246e+02
   2.589711e+02  -3.002192e+02
   3.829616e+02  -3.130790e+01
   1.767453e+02   9.637312e+01
  -4.829082e+01   1.618373e+02
  -2.533768e+02   2.559765e+02
  -3.190172e+02   2.003122e+02
  -3.216974e+02  -1.133203e+02
  -5.464919e+01  -4.892107e+02
   1.540562e+02  -3.067288e+02
   1.015564e+02  -9.845266e+01
   2.593411e+01   3.908704e+01
   2.621929e+01  -7.128562e+01
   1.596291e+02  -1.344352e+02
   2.776581e+02   4.552374e+01
   2.081199e+02   2.699967e+02
  -5.089679e+01   2.623809e+02
  -2.762109e+02   2.983464e+01
  -1.948232e+02  -2.606022e+02
   7.754408e+00  -3.118204e+02
   2.509124e+02  -1.034887e+02
   3.940003e+02   1.446483e+02
   2.158273e+02   3.303554e+02
  -1.340439e+02   3.296041e+02
  -2.658636e+02   1.033045e+02
  -1.730232e+02  -1.116414e+01
  -7.873465e+01  -1.279326e+01
  -2.464012e+02   7.700752e+01
  -3.287647e+02  -7.630512e+01
  -3.675712e+02  -2.441984e+02
   2.400074e+01  -3.803665e+02
   3.389170e+02  -4.058334e+02
   4.863713e+02  -1.792394e+02
   3.679615e+02   8.855472e+01
   6.555497e+01   3.231144e+02
  -1.436540e+02   2.679562e+02
  -1.174869e+02   3.007285e+01
   9.934332e+01  -1.317454e+02
   2.021400e+02  -1.364636e+01
   7.709952e+01   2.395081e+02
  -1.825217e+02   1.943763e+02
  -1.392892e+02  -4.131196e+01
   1.370179e+01  -1.997018e+02
   2.244165e+02  -3.662800e+01
   1.446686e+02   2.637567e+02
   1.165143e+00   3.483855e+02
  -1.968391e+02   1.721329e+02
  -2.954911e+02  -7.027160e+01
  -2.695289e+02  -2.583425e+02
  -5.246733e+01  -2.661386e+02
   1.114892e+02  -1.376088e+02
   2.099047e+02  -1.821435e+01
   6.713203e+01   2.843789e+01
  -5.666445e+01  -4.955612e+01
  -3.698225e+01  -1.394060e+02
   1.191882e+02  -8.784880e+01
   2.339142e+02  -3.193987e+00
   5.526855e+01   6.935271e+01
  -1.299582e+02   2.458084e+01
  -6.057725e+01  -6.945719e+01
   1.204343e+02  -8.779397e+01
   2.502298e+02   7.468992e-01
   2.863178e+02   1.146813e+02
   8.230228e+01   2.402870e+02
  -2.052595e+02   2.551620e+02
  -2.866875e+02   1.162972e+02
  -1.812606e+02  -6.127452e+01
   1.437281e+01  -1.299579e+02
   1.006328e+02   1.603196e+01
  -1.986680e+01   1.004158e+02
  -2.295465e+02   8.531606e+01
  -1.904362e+02  -8.651034e+01
  -3.863044e+01  -2.224462e+02
   1.153584e+02  -1.626459e+02
   1.359765e+02  -3.352807e+01
   7.762911e+01   4.535042e+01
  -9.239114e+00  -2.011092e+01
  -1.357952e+01  -8.056579e+01
   6.960581e+01  -9.799036e+01
   1.767817e+02  -5.813996e+00
   1.595174e+02   1.222369e+02
   1.913254e+01   2.034257e+02
  -1.396631e+02   1.031238e+02
  -2.154014e+02   1.556368e+01
  -3.915459e+01  -1.058776e+02
   7.265328e+01  -9.613860e+01
   7.437960e+01  -5.863001e+01
   3.197353e+01  -5.430165e+00
  -2.536362e+01   3.118054e+01
   2.530843e+01  -3.317289e+01
   9.275938e+01   1.771825e+01
   7.089317e+01   8.872294e+01
  -1.063291e+01   1.438585e+02
  -1.704112e+02   1.073751e+02
  -2.092949e+02  -2.281200e+00
  -2.140723e+02  -1.462546e+02
  -1.934511e+01  -2.064524e+02
   1.111610e+02  -1.597070e+02
   1.403410e+02   1.275853e+01
   4.883314e+01   6.860899e+01
   4.957175e+01   2.613191e+01
   3.655844e+01   2.385080e+01
   6.523545e+01  -3.105443e+00
   4.303474e+01   4.906763e+01
  -6.327110e+01   6.301718e+01
  -7.446457e+01   2.341165e+01
  -6.025613e+01  -6.453614e+01
   1.690116e+01  -1.212525e+02
   1.322651e+02  -9.410134e+01
   1.626684e+02   7.693741e+01
   7.884579e+01   2.250618e+02
  -7.979367e+01   1.783868e+02
  -1.938758e+02   9.428424e+01
  -2.342569e+02  -7.990565e+01
  -8.795707e+01  -1.561416e+02
   6.636314e+01  -1.860018e+02
   1.091390e+02  -1.026522e+02
   9.362396e+01  -4.329367e+01
   7.090694e+01  -6.456606e+01
   6.742016e+01  -7.526934e+01
   1.439084e+02   5.305232e+01
   9.408366e+01   1.351035e+02
   3.184496e+01   1.987734e+02
  -1.044611e+02   1.684508e+02
  -1.831524e+02   3.239669e+01
  -1.147357e+02  -1.033364e+02
  -1.828035e+01  -1.876233e+02
   5.441932e+01  -1.223701e+02
   5.940966e+01   7.910203e+00
  -1.656522e+01   5.409364e+01
   1.455601e+01   3.864999e+01
   2.950341e+01   1.865418e+01
   6.920939e+01   7.732873e+00
   4.091752e+01   4.806876e+01
  -5.828446e+01   3.022803e+01
  -1.664606e+02  -1.872189e+01
  -1.250249e+02  -1.969857e+01
   2.140102e+00  -5.904079e+01
   1.304154e+02  -9.316502e+01
   1.425069e+02   1.155540e+01
   4.946575e+01   3.742825e+01
  -4.353347e+01   4.859543e+01
  -6.682637e+01  -1.629921e+01
   6.996689e+00  -5.030329e+01
   7.326774e+01  -5.098178e+01
   7.251858e+01   9.764125e+00
   6.243463e+01   5.688199e+01
   4.354816e+01   5.322125e+01
   7.262587e+01   1.046560e+01
   7.873984e+01   7.838660e+00
   3.412589e+01   1.082213e+02
  -4.240318e+01   2.080188e+02
  -1.444794e+02   1.590747e+02
  -1.374552e+02   9.241024e+00
  -1.377517e+02  -7.677880e+01
  -1.717477e+01  -1.293632e+02
   8.950294e+01  -4.593221e+01
   7.065767e+01   3.209006e+01
  -6.020919e+01   2.644323e+01
  -1.277026e+02  -5.321604e+01
  -9.846697e+01  -1.110482e+02
   6.792564e+01  -1.118972e+02
   1.698171e+02  -5.717095e+01
   1.744081e+02   5.259076e+01
   6.272305e+01   7.108551e+01
  -4.496724e+01   1.001636e+02
  -4.101603e+01  -1.219545e+01
   3.696703e+01   1.119497e+01
   9.132071e+01   1.814916e+01
   3.724874e+01   1.062082e+02
  -1.162771e+02   9.265847e+01
  -1.585750e+02   2.391665e+01
  -1.170790e+02  -6.811238e+01
  -5.867372e+01  -1.840298e+02
   9.604037e+01  -1.425655e+02
   1.288404e+02  -8.427341e-02
   5.866106e+01   9.865884e+01
   8.316230e+00   1.043661e+02
  -4.717031e+01   1.995062e+01
  -7.310279e+01  -2.224364e+01
  -2.705728e+01  -4.806438e+01
   2.256176e+01   1.102991e+01
  -6.898898e+00  -1.872949e+01
  -7.237837e+01  -7.715457e+01
  -1.755907e+01  -1.499603e+02
   3.721439e+01  -5.493917e+01
   1.483017e+02   5.113130e+01
   1.523609e+02   9.023407e+01
   1.065878e+01   5.064135e+01
  -1.044341e+02  -4.683923e+00
  -7.602992e+01  -4.752383e+00
  -1.697072e+01  -5.032048e+00
   2.572787e+01  -2.458628e+01
   3.410070e+01  -3.083100e+01
  -1.670732e-01  -2.010452e+01
  -1.509092e+01  -1.771129e+01
   6.802696e+01   5.465924e+00
   1.128102e+02   2.331159e+01
   1.209299e+01   7.746381e+01
  -1.105432e+02   9.803916e+01
  -1.741734e+02   5.146722e+01
  -1.380520e+02  -8.557028e+01
  -5.477000e+01  -1.698290e+02
   1.123107e+02  -1.328620e+02
   1.194442e+02  -7.535959e+01
   8.209669e+01   1.635026e+01
   3.305117e+01   1.910994e+01
  -2.126544e+01   8.082125e-01
   1.343683e+01  -1.632352e+01
   4.810889e+01   4.772017e+01
   1.657912e+01   7.794363e+01
  -3.508629e+01   3.657549e+01
  -8.320888e+01  -5.918268e+01
  -6.552898e+01  -1.078772e+02
   1.558866e+00  -7.585757e+01
   7.397415e+01  -2.433949e+01
   8.809059e+01   7.590350e+01
   1.792989e+01   1.163334e+02
  -6.561716e+01   5.378847e+01
  -1.298302e+02  -1.721075e+01
  -3.702380e+01  -5.946856e+01
   2.680451e+01  -3.148806e+01
   2.585944e+01  -3.742362e+01
  -5.992483e+01  -3.722627e+00
  -4.865678e+01  -1.193731e+01
  -3.303768e+01  -7.959560e+00
   1.043939e+02  -6.619260e+01
   1.187990e+02  -3.099774e+01
   4.356374e+01   5.111906e-01
  -2.252206e+01   4.723356e+01
  -8.080484e+01   4.861973e+01
  -4.603064e+01   1.432720e+01
   8.463556e+00  -8.816710e+01
  -3.933737e+00  -3.600463e+01
   3.560581e+01  -5.150264e+00
   3.118864e+01   5.570012e+01
  -1.868911e+01   1.694308e+01
  -5.846564e+01  -1.726326e+01
  -1.996970e+01  -6.700901e+00
   1.428358e+00   2.121643e+01
  -2.988185e+00   4.083007e+01
  -1.779305e+01  -2.129217e+01
   1.090660e+01  -5.532791e+01
   1.681299e+01  -4.510562e+01
   5.608299e+01  -2.541506e+01
   1.320119e+01   5.418793e+01
  -1.754216e+01   7.586150e+01
  -7.266692e+01  -6.420845e+00
  -3.675225e+01  -5.226250e+01
  -4.778891e+01  -8.013145e+01
   7.474552e+01  -4.552865e+01
   7.277993e+01  -1.298123e+01
   3.347079e+01   2.108164e+01
  -2.949052e+01   2.330858e+01
  -6.622754e+01   1.787262e+01
  -1.684864e+01  -9.851864e+00
   2.239440e+01  -6.405410e+00
   3.633981e+01   2.653920e+01
  -7.461373e+01   4.830966e+01
  -9.523499e+01  -2.781036e+00
