
 $NMID
 id='ANONYMOUS ', fmtdat='(2E16.6)'
 volume=1.0
 tramp=1.0
 $END
   3.705429e+03   2.546480e+02
   2.134230e+03   2.304548e+03
  -7.469965e+02   2.574992e+03
  -2.115742e+03   6.944455e+02
  -6.911282e+02  -1.106768e+03
   6.830622e+02  -4.987507e+02
   8.394045e+02   4.380266e+02
  -1.265549e+02   1.027373e+03
  -7.400276e+02   6.471576e+02
  -7.397431e+02  -8.802008e+01
  -4.270600e+02  -8.303805e+02
   2.786931e+02  -7.259106e+02
   5.017033e+02  -4.915211e+01
   1.971504e+02   5.722491e+02
  -3.129281e+02   5.949214e+02
  -5.596525e+02  -3.009811e+01
  -2.203746e+02  -6.154573e+02
   3.665412e+02  -5.156042e+02
   5.384395e+02   6.424455e+01
   3.582704e+02   3.381037e+02
  -4.707194e+01   4.097565e+02
  -2.616476e+02   2.282916e+02
  -1.753778e+02   2.586348e+01
   4.827094e+01  -8.847134e+01
   4.123368e+02   6.552490e+01
   1.820759e+02   3.077014e+02
  -4.039387e+02   3.971878e+02
  -7.525609e+02  -1.468595e+02
  -3.956970e+02  -5.067794e+02
   3.755824e+02  -4.927952e+02
   6.478467e+02   3.035133e+01
   2.993270e+02   5.546862e+02
  -2.558901e+02   4.905673e+02
  -4.678124e+02   1.453292e+02
  -3.508468e+02  -2.160259e+02
  -5.551326e+01  -4.342752e+02
   2.073977e+02  -2.442711e+02
   1.573594e+02   2.123501e+02
  -1.645153e+02   3.719536e+02
  -3.771068e+02   2.613984e+00
  -2.459647e+02  -5.225758e+02
   3.149075e+02  -5.326344e+02
   5.022331e+02   6.855062e+01
   1.853076e+02   4.520348e+02
  -2.272232e+02   2.513593e+02
  -4.068257e+02  -2.937659e+02
   5.152851e+01  -5.020936e+02
   4.487349e+02  -9.231805e+01
   4.813035e+02   4.192956e+02
   2.134456e+02   5.684751e+02
  -3.094688e+02   2.973882e+02
  -5.127387e+02  -1.657831e+02
  -3.366475e+02  -3.030570e+02
   1.566147e+02  -3.202199e+02
   3.411924e+02  -6.323722e+00
   1.946135e+02   1.459665e+02
  -1.288804e+02   1.269521e+02
  -1.617463e+02  -1.250075e+02
   1.344344e+02  -1.224088e+02
   3.104563e+02   1.101563e+02
   1.327999e+02   2.643640e+02
  -2.224537e+02   2.474417e+02
  -3.611857e+02   5.208187e+01
  -1.500307e+02  -7.482763e+01
   3.403793e+01  -1.307223e+02
   2.179798e+02  -1.968524e+02
   3.041946e+02  -1.876763e+02
   2.561033e+02   8.823685e+01
  -1.679707e+00   3.510979e+02
  -1.589193e+02   2.894443e+02
  -9.092959e+01   7.295045e+01
  -1.981916e+01  -4.802492e+01
  -3.910450e+01   3.330628e+01
  -1.446002e+02   9.538523e+01
  -1.971835e+02  -3.733066e+01
  -1.517088e+02  -2.258354e+02
   2.580496e+01  -2.010862e+02
   1.914183e+02  -3.633274e+00
   1.792205e+02   1.918249e+02
  -1.416364e+01   2.920690e+02
  -2.303893e+02   6.501637e+01
  -2.582258e+02  -1.631651e+02
  -1.888588e+02  -3.218738e+02
   1.040826e+02  -2.451604e+02
   2.355977e+02  -1.028543e+02
   1.461811e+02   2.956953e+01
   6.174113e+01   1.755634e+00
   2.315988e+02  -4.889151e+01
   3.081416e+02   3.031799e+01
   3.058133e+02   2.569662e+02
  -2.259798e+01   3.624845e+02
  -2.970010e+02   3.606702e+02
  -4.171465e+02   1.220752e+02
  -3.412003e+02  -8.549197e+01
  -5.602608e+01  -2.496124e+02
   1.275462e+02  -2.010013e+02
   8.707006e+01  -2.826484e+01
  -4.777909e+01   9.207097e+01
  -2.168397e+02  -1.649941e+01
  -5.512111e+01  -1.791649e+02
   1.777284e+02  -1.472451e+02
   1.500992e+02   5.029227e+01
  -5.919983e+00   1.665522e+02
  -1.841958e+02   1.903437e+01
  -1.095732e+02  -1.958791e+02
   4.340473e+01  -3.004699e+02
   1.642321e+02  -1.400335e+02
   2.528526e+02   7.146847e+01
   2.277827e+02   2.019903e+02
   5.584025e+01   2.294921e+02
  -1.055416e+02   1.015418e+02
  -1.525234e+02  -1.075374e+01
  -5.871346e+01  -2.666223e+01
   6.923843e+01   2.165157e+01
   3.692818e+00   1.008445e+02
  -1.187625e+02   7.814926e+01
  -2.041513e+02  -7.415406e+00
  -3.879262e+01  -9.490172e+01
   6.489778e+01   3.302670e+00
   5.295414e+01   5.418489e+01
  -1.156927e+02   7.625638e+01
  -2.199739e+02  -1.444328e+00
  -2.783872e+02  -1.181064e+02
  -3.846110e+01  -1.948299e+02
   1.810212e+02  -1.955264e+02
   1.959241e+02  -1.219383e+02
   1.485049e+02   8.781621e+01
  -2.370022e+01   1.024849e+02
  -1.196374e+02  -2.008647e+01
   3.635151e+01  -1.067158e+02
   1.902391e+02  -4.546326e+01
   2.147511e+02   7.991522e+01
   4.264679e+01   1.834196e+02
  -7.178954e+01   1.316454e+02
  -1.408541e+02   2.347095e+00
  -8.008435e+01  -1.767938e+01
   1.620980e+01  -6.111550e+00
   7.609307e+00   1.014631e+02
  -6.759858e+01   7.244518e+01
  -1.431286e+02   5.456223e+00
  -1.251843e+02  -6.732838e+01
  -2.126068e+01  -2.217613e+02
   1.559864e+02  -1.218140e+02
   1.764932e+02  -2.146110e+01
   3.915514e+01   8.863322e+01
  -6.604863e+01   7.349669e+01
  -5.345032e+01   3.631756e+01
  -6.910564e+00  -2.204695e+01
   9.925768e+00  -1.916447e+01
  -1.995512e+01   1.161118e+00
  -8.363151e+01  -3.728798e+01
  -8.132311e+01  -8.719762e+01
   3.056190e+01  -1.316573e+02
   1.320447e+02  -1.281329e+02
   1.256631e+02  -3.870737e+00
   1.706098e+02   1.495522e+02
   3.692266e+01   1.631409e+02
  -9.233517e+01   1.507160e+02
  -1.258757e+02  -1.089265e+01
  -4.073883e+01  -5.715686e+01
  -2.944607e+01  -2.311389e+01
  -5.378639e+01  -4.764042e+00
  -6.478005e+01   5.972377e+00
  -7.590870e+00  -3.775404e+01
   4.604063e+01  -4.500837e+01
   1.020744e+02  -2.429635e+01
   4.919593e+01   2.908486e+01
   9.410033e+00   6.691651e+01
  -9.031209e+01   3.681504e+01
  -1.365935e+02  -8.047423e+01
  -7.199053e+01  -1.735199e+02
   5.956796e+01  -1.275836e+02
   1.715591e+02  -8.983887e+01
   1.955139e+02   9.448927e+01
   9.999273e+01   1.236343e+02
  -5.633182e+01   1.039347e+02
  -9.240087e+01   7.383817e+01
  -7.293295e+01   6.720743e+01
  -4.932737e+01   5.845734e+01
  -7.635522e+01   6.162076e+01
  -8.680944e+01  -1.050262e+01
  -6.046541e+01  -1.313096e+02
  -1.995796e+01  -1.606850e+02
   7.497273e+01  -1.274873e+02
   1.652588e+02   1.828224e+01
   1.209923e+02   9.108976e+01
  -1.712969e+01   1.564131e+02
  -4.760611e+01   6.821976e+01
  -4.796831e+01  -4.980446e+00
   1.378811e+01  -4.742826e+01
  -2.755226e+01  -3.220542e+01
  -4.308746e+01  -2.450156e+01
  -6.064150e+01  -1.863419e+01
  -4.930197e+00  -2.915915e+01
   2.354867e+01   1.036507e+00
   1.018866e+02  -1.031744e+01
   9.613024e+01   1.905849e+01
   2.041578e+01   4.130205e+01
  -9.171169e+01   5.855880e+01
  -1.100842e+02   2.262579e+00
  -1.935513e+01  -3.561408e+01
   3.913000e+01  -3.650656e+01
   4.909837e+01   2.087352e+01
  -1.336080e+00   4.068190e+01
  -3.097031e+01   5.339210e+01
  -5.346424e+01   5.059456e+00
  -4.212507e+01  -4.211530e+01
  -1.835142e+01  -3.013856e+01
  -5.514213e+01   3.679361e+01
  -3.433985e+01  -1.148434e+01
  -7.688178e+00  -4.428426e+01
   3.005695e+01  -1.278620e+02
   1.031225e+02  -1.357854e+02
   1.283470e+02  -3.475288e+00
   8.705913e+01   8.953952e+01
  -3.590932e+00   1.010680e+02
  -6.658123e+01   2.940072e+01
  -5.704272e+01   5.510506e+00
   5.454905e+01  -4.341722e+01
   1.102997e+02   6.389775e+01
   5.269667e+01   8.872605e+01
  -7.362522e+01   9.653233e+01
  -1.396276e+02   4.944077e+01
  -1.247261e+02  -4.529064e+01
  -2.468426e+01  -6.012534e+01
   1.698904e+01  -4.695700e+01
   3.311650e+01   2.290997e+00
  -4.350383e+01  -1.392183e+01
  -7.605686e+01  -5.261052e+01
  -2.256791e+01  -1.108047e+02
   5.654913e+01  -1.139606e+02
   1.133881e+02  -3.469667e+01
   1.184734e+02   6.358870e+01
   1.590926e+00   1.769538e+02
  -8.567866e+01   1.147837e+02
  -8.967830e+01  -4.516853e+00
  -1.702846e+01  -6.689910e+01
  -2.509175e+00  -8.209768e+01
   3.656249e+01  -1.029324e+01
   5.351774e+01   1.728931e+01
  -2.354936e+01   5.604989e+00
   1.017811e+01  -7.451808e+00
   1.095328e+01   3.429797e+01
   3.736227e+01   5.732787e+01
   2.053416e+01   9.539842e+01
  -3.608034e+01   2.438595e+01
  -9.290576e+01  -5.337118e+01
  -9.536656e+01  -9.091936e+01
  -1.994495e+01  -5.168523e+01
   9.948296e+01  -3.218422e+00
   5.098047e+01   2.322768e+01
   2.962508e+01  -2.385899e+01
  -3.358233e+01   2.861143e+01
  -2.422285e+01   1.686131e+01
   2.564820e+01  -1.259260e+01
   9.067887e+00   9.205298e+00
  -3.883808e+01  -1.041209e+01
  -5.864960e+01  -3.862741e+01
  -1.960636e+01  -5.825744e+01
   8.377078e+01  -8.906202e+01
   1.338630e+02  -3.193132e+01
   1.355063e+02   5.833358e+01
   1.228573e+00   1.251299e+02
  -6.495000e+01   1.163322e+02
  -8.519311e+01   6.095218e+01
  -6.323709e+01  -1.062673e+01
  -2.986442e+01  -4.415770e+00
   7.128193e+00   6.197277e+00
  -2.971090e+01   1.470139e+01
  -2.854232e+01  -3.615289e+01
   6.480089e-01  -6.824056e+01
   2.564634e+01  -7.168125e+01
   3.904140e+01   2.905418e+01
   8.085496e+01   1.207546e+02
  -2.425390e+01   1.307420e+02
  -5.719605e+01   9.618373e-01
  -7.577321e+01  -1.139816e+02
  -2.314685e+01  -6.576858e+01
   4.684311e+01  -2.387250e+01
   7.368137e+01   8.886182e+00
   4.162933e+01   5.287924e+01
  -1.642464e+01   2.061023e+01
  -2.998350e+01   1.377674e+01
   2.910160e+01   3.634534e+00
   5.356151e+01   5.947374e+00
  -6.639899e+00   3.526476e+01
  -6.233292e+01   2.277030e+01
  -6.063555e+01   4.512353e+01
  -4.490288e+01   1.271119e+01
   1.866727e+01  -2.164021e+01
   5.148352e+01  -5.325988e+01
   4.905736e+01  -1.741888e+01
  -4.899814e+00   5.108187e+01
  -1.122886e+01   4.588560e+01
  -2.686935e+01  -2.313069e+01
  -1.470402e+01  -1.895303e+01
  -3.225930e+00  -2.232815e+01
   8.298333e+01   2.812806e+01
   3.252613e+01   1.756945e+01
   2.609862e+01  -7.683004e+00
  -5.362464e+00  -4.938395e+01
  -1.436443e+01   1.674931e+00
  -1.613793e+01   2.826248e+01
  -1.804741e+01   3.287998e+01
  -3.730202e+01   1.112273e+01
  -2.941713e+01  -3.198424e+01
   3.623601e+00  -3.954906e+01
   4.057996e+01  -2.707373e+01
   2.535373e+01   5.105159e+01
   4.465861e+01   6.196980e+01
  -3.660544e+01   1.387696e+01
  -7.673648e+01  -1.076072e+01
  -2.946561e+01  -2.402327e+01
   5.127355e+01  -5.102993e+01
   3.582132e+01  -3.051603e+01
   1.201252e+01   2.884280e+01
   1.115906e+01  -7.737928e+00
  -4.906314e+01  -2.556898e+01
   2.744473e+01  -1.000531e+01
   6.389151e+01  -1.775310e+01
