
 $NMID
 id='ANONYMOUS ', fmtdat='(2E16.6)'
 volume=1.0
 tramp=1.0
 $END
   2.715356e+03  -1.026988e+01
   1.672617e+03   1.030538e+03
   1.155939e+02   1.927622e+03
  -1.017163e+03   1.190629e+03
  -8.363605e+02   2.913392e+02
   1.795272e+02  -1.612315e+02
   2.558999e+02   3.138105e+01
   7.912218e+01   4.464746e+02
  -4.233158e+02   6.754860e+02
  -4.727441e+02   1.327950e+02
  -4.637783e+02  -5.167377e+02
  -8.903051e+01  -4.627503e+02
   1.847375e+02  -1.854942e+02
   1.822715e+02   2.915917e+02
  -1.562803e+02   4.949933e+02
  -3.960661e+02   1.015571e+02
  -2.493790e+02  -4.068712e+02
   1.122774e+02  -5.907445e+02
   3.859718e+02  -3.301851e+02
   3.782536e+02   1.949735e+02
   1.100223e+02   2.675887e+02
  -1.718267e+02   2.276675e+02
  -4.594446e+01   4.407251e+01
   1.727661e+02   2.734329e+01
   2.097032e+02   2.140015e+02
  -6.105266e+01   3.290407e+02
  -4.412289e+02   1.961082e+02
  -5.093593e+02  -1.929112e+02
  -2.264823e+02  -4.242163e+02
   3.273142e+02  -2.332843e+02
   3.923436e+02   1.249944e+02
   2.052748e+02   3.461289e+02
  -2.018899e+02   2.863586e+02
  -3.994630e+02   1.418640e+02
  -3.137973e+02  -9.170883e+01
  -3.582347e+01  -3.133116e+02
   1.033422e-01  -1.535476e+02
  -6.220029e+01   9.749305e+01
  -1.862308e+02   1.876900e+02
  -1.896408e+02  -1.653282e+02
   1.793587e+01  -4.151848e+02
   1.979463e+02  -3.932321e+02
   2.975361e+02   1.297454e+01
   1.097438e+02   2.337473e+02
  -1.547970e+02   1.899605e+02
  -1.822711e+02  -2.648222e+02
   1.139046e+02  -3.857337e+02
   3.782146e+02   3.501508e+00
   4.724467e+02   2.929951e+02
   7.693783e+01   5.229201e+02
  -2.221457e+02   2.629977e+02
  -4.733821e+02   1.667957e+01
  -3.452025e+02  -2.429857e+02
   6.107600e+01  -1.892311e+02
   1.717208e+02  -5.271772e+01
   1.704688e+02   2.589345e+01
   9.439425e+00   2.233859e+01
  -4.823159e+01  -9.408340e+01
   7.780435e+01  -3.221977e+01
   1.570955e+02   3.342838e+01
   8.021329e+01   1.186033e+02
  -1.314768e+02   2.512314e+02
  -3.422978e+02   1.164746e+02
  -2.315767e+02  -4.253393e+01
  -4.513519e+01  -2.466061e+02
   2.369695e+02  -3.530356e+02
   3.400007e+02  -1.788305e+02
   1.941227e+02   1.593662e+02
   6.950184e+01   3.124874e+02
   2.437467e+01   2.265224e+02
  -2.112537e+01   1.278097e+02
  -2.720156e+01   8.608024e+01
  -1.079607e+02   1.360625e+02
  -1.688002e+02   6.689958e+01
  -2.698757e+02  -7.895565e+01
  -7.550144e+01  -2.733681e+02
   9.575248e+01  -1.663837e+02
   1.887775e+02   4.224343e+01
   1.347665e+02   1.729338e+02
  -3.802257e+01   2.634728e+02
  -2.383590e+02   2.745718e+01
  -2.581890e+02  -1.449229e+02
  -1.703411e+02  -2.586336e+02
   3.288827e+01  -2.587149e+02
   1.218881e+02  -1.742403e+02
   1.243140e+02  -8.087912e+01
   1.112848e+02  -5.197766e+01
   2.792638e+02  -3.420111e+01
   3.294688e+02   8.639808e+01
   2.804976e+02   2.476539e+02
  -1.979015e+00   3.253147e+02
  -2.919248e+02   3.363065e+02
  -4.408558e+02   1.511354e+02
  -2.084550e+02  -6.853872e+01
  -3.024567e+01  -2.099542e+02
   8.265859e+01  -1.799177e+02
  -5.570062e+00  -3.477469e+01
  -9.732764e+01   6.096050e+01
  -1.289752e+02   2.705367e-01
  -6.863406e-03  -1.097255e+02
   1.234210e+02  -1.203087e+02
   6.388352e+01   6.692998e+01
  -3.083334e+01   1.099667e+02
  -1.741640e+02   2.661009e+01
  -1.656594e+02  -1.617674e+02
  -2.416329e+01  -2.588220e+02
   2.126858e+02  -1.413446e+02
   3.252260e+02   2.517213e+01
   2.480629e+02   2.337637e+02
   1.023209e+02   2.335206e+02
  -8.234422e+01   1.228324e+02
  -1.538309e+02   1.003621e+01
  -2.732168e+01   7.916193e+00
   5.100084e+01   7.637962e+01
  -8.482081e+00   1.199943e+02
  -1.291353e+02   5.788664e+01
  -1.317129e+02   1.574028e+00
  -4.214417e+01  -7.888380e+01
   7.225772e+01   1.860419e+01
   6.818062e+01   1.152838e+02
  -1.039849e+02   6.144102e+01
  -2.457050e+02   1.150011e-01
  -2.377043e+02  -1.918427e+02
  -3.682497e+01  -2.020154e+02
   1.278784e+02  -2.258891e+02
   2.180423e+02  -8.614163e+01
   1.425163e+02   4.412559e+01
  -3.624793e+01   6.948838e+01
  -9.838685e+01  -6.457792e+00
   4.344487e+01  -8.976062e+01
   1.405233e+02  -5.396248e+01
   1.617706e+02   1.055445e+02
   3.159539e+01   1.162988e+02
  -6.693158e+01   1.330234e+02
  -8.012625e+01   1.315930e+01
  -9.199238e+01  -4.310949e+01
   4.296673e+01   8.795633e+00
   1.841408e+01   8.656764e+01
  -6.834064e+01   8.128416e+01
  -1.776561e+02   4.169103e+01
  -1.303881e+02  -8.806058e+01
  -1.819873e+01  -1.778784e+02
   1.048761e+02  -8.507303e+01
   1.305195e+02  -4.079570e+00
   7.155772e+01   6.740018e+01
  -3.228579e+01   1.114332e+02
  -4.182095e+01   1.988742e+01
  -1.115956e+01  -1.567804e+01
   5.829442e+01  -5.686685e-01
   2.542635e-01   1.444926e+01
  -8.629168e+01  -1.382248e+01
  -1.082174e+02  -6.202139e+01
  -4.424735e+01  -1.554891e+02
   8.517032e+01  -1.333188e+02
   1.871516e+02   4.596880e+00
   1.693581e+02   1.227019e+02
   5.684856e+01   1.750525e+02
  -1.058203e+02   1.365650e+02
  -1.274195e+02   3.247688e+01
  -7.234314e+01  -3.110879e+01
  -3.503856e+01  -1.976987e+01
  -1.780066e+01   3.739695e+01
  -8.497025e+01  -6.649907e+00
  -6.687941e+01  -9.988137e+00
   5.172174e+01  -1.254230e+02
   1.125753e+02  -5.772031e+01
   9.790606e+01   4.124126e+01
  -5.785307e+00   1.356939e+02
  -1.446759e+02   9.253533e+01
  -1.865555e+02  -3.690945e+01
  -1.083861e+02  -1.788741e+02
   7.788457e+01  -1.998100e+02
   2.033426e+02  -3.081065e+01
   2.547127e+02   8.072246e+01
   9.758730e+01   1.225480e+02
  -5.289947e+01   1.302145e+02
  -5.199879e+01   8.879322e+01
  -5.474815e+01   2.065462e+01
  -4.400128e+01   6.274145e+01
  -4.457943e+01   5.213670e+01
  -1.413424e+02  -1.211652e+01
  -1.434108e+02  -1.150825e+02
  -4.271639e+01  -1.653920e+02
   8.149498e+01  -1.331485e+02
   1.385985e+02  -3.924658e+01
   1.035507e+02   8.995155e+01
   1.572434e+01   1.091264e+02
  -5.940099e+01   9.343614e+01
  -3.844925e+01  -6.857643e+00
   1.111630e+01  -3.868801e+01
   3.442332e+01  -5.696761e+01
  -2.043670e+01   8.449618e+00
  -6.995646e+01  -2.064373e+01
  -3.849124e+01  -1.691338e+01
   4.516981e+01  -4.800321e+01
   1.807728e+02  -1.702004e+00
   1.039686e+02   2.723543e+01
   3.360418e+01   8.093864e+01
  -1.099251e+02   6.206091e+01
  -1.377131e+02  -8.028984e+00
  -4.640320e+01  -4.765185e+01
   3.080278e+01  -2.096864e+01
   5.613327e+01   3.436855e+01
   2.153089e+00   6.612469e+01
  -5.465196e+01   6.514072e+01
  -6.340396e+01   7.836975e+00
  -3.108781e+01  -1.711244e+01
  -5.489449e+01  -3.291028e+01
  -5.663792e+01  -1.837381e+01
  -8.450290e+01   8.733823e-01
  -1.834321e+01  -9.274824e+01
   2.015563e+01  -1.516452e+02
   1.454888e+02  -1.562185e+02
   1.149991e+02  -2.248720e+01
   1.247788e+02   7.346734e+01
   3.553501e+01   9.331617e+01
  -8.265260e+01   5.678977e+01
  -3.820671e+01   1.715666e+01
   4.918329e+01  -2.413862e+01
   1.218937e+02   1.902400e+01
   4.896421e+01   1.186163e+02
  -6.218665e+01   1.347891e+02
  -1.559290e+02   6.973588e+01
  -1.258206e+02  -2.135204e+01
  -4.854996e+01  -3.372534e+01
   6.320521e+01  -3.526952e+01
   3.924090e+01   4.226603e+00
  -2.600478e+01   5.424498e+01
  -6.426960e+01   4.931474e+00
  -6.183853e+01  -9.009337e+01
   4.400773e+01  -1.042813e+02
   1.342791e+02  -6.788732e+01
   1.160355e+02   1.118179e+02
   1.453517e+01   1.700072e+02
  -4.136717e+01   1.305925e+02
  -8.422551e+01  -1.995698e+01
  -5.912653e+01  -9.479383e+01
  -6.871463e+00  -1.020428e+02
   4.235623e+01  -3.209662e+01
   3.996317e+01   2.314586e+01
   3.089245e+01  -3.396134e+00
  -1.696748e+01   1.197851e+01
   3.338661e+01   2.498331e+01
   6.159996e+01   9.997731e+01
   3.871303e+01   5.113376e+01
  -5.509185e+01   2.519825e+01
  -1.079352e+02  -2.004409e+01
  -7.206217e+01  -6.753747e+01
  -1.952957e+01  -2.858491e+01
   8.879917e+01  -4.528696e+01
   7.067930e+01   1.341473e+01
   1.148316e+01   2.701184e+01
  -1.722762e+01   1.717422e+01
  -1.959453e+01   1.145286e+01
   1.186527e+01  -2.224352e+01
   1.938034e+01   4.922407e+00
  -1.807498e+01  -2.202759e+01
  -8.384228e+01   2.971915e-01
  -4.599002e+01  -2.104240e+01
   1.062561e+02  -1.125434e+02
   1.651088e+02  -5.288305e+01
   1.753451e+02   4.286436e+01
   4.112523e+01   1.189901e+02
  -1.346882e+01   1.546977e+02
  -9.738374e+01   2.588802e+01
  -7.504395e+01   2.006682e+00
  -1.771526e+01  -3.644429e+01
   1.782223e+01  -1.526453e+01
  -1.514775e+01  -3.078825e+01
  -1.774515e+01  -7.007663e+01
  -4.322839e+00  -6.111512e+01
   9.211567e+00  -5.380457e+01
   6.194705e+01  -1.752066e+01
   5.418221e+01   1.304519e+02
   2.287776e+01   9.688762e+01
  -4.984317e+01   4.007902e+01
  -7.796556e+01  -5.185733e+01
  -2.067091e+01  -8.717695e+01
   3.874059e+01  -4.270969e+01
   6.732364e+01   1.663968e+01
   1.995064e+01   6.031998e+01
  -4.075371e+01   3.802014e+01
  -1.097563e+01   2.372815e+00
   2.047574e+01  -1.687373e+01
   6.776620e+01  -2.777840e+01
   1.792292e-02  -7.268820e-01
  -7.909961e+01   9.990359e+01
  -7.386341e+01   4.961563e+01
  -5.611601e+01  -2.784981e+01
   1.687372e+00  -8.561712e+01
   3.628059e+01  -6.701425e+01
   2.263625e+01   2.883697e+00
   1.608397e+01   5.271268e+01
  -2.237248e+01   5.140068e+01
  -4.021280e+01  -2.630574e+01
  -6.084110e+01  -4.545334e+01
   9.661766e+00  -2.823396e+01
  -4.944597e-01  -8.006044e-01
   6.101424e+01   1.595706e+01
   4.100247e+01  -1.009454e+01
  -2.875149e+01  -2.842689e+01
   3.276799e+00   2.917829e+01
   1.528835e+01   2.965945e+01
  -4.046176e-01   5.402747e+01
  -2.942932e+01   4.583797e+01
  -5.779552e+01  -2.845272e+01
   6.425852e+00  -7.629510e+00
   3.500073e+01  -4.425519e+01
   5.171153e+01   2.062891e+01
   4.049214e+01   5.339157e+01
  -6.746593e+01   4.190087e+01
  -6.651317e+01  -2.231349e+01
  -6.066345e+01  -2.330118e+01
   3.806641e+01  -4.148220e+01
   6.589266e+01  -8.904995e+00
   5.748304e-01  -1.604640e+01
  -4.631981e+01   1.097508e+01
  -4.681722e+01   7.168749e+00
   3.124813e+01  -4.408944e+01
   3.729584e+01  -1.816130e+01
