
 $NMID
 id='ANONYMOUS ', fmtdat='(2E16.6)'
 volume=1.0
 tramp=1.0
 $END
  -2.591233e+03   2.623059e+02
  -2.204189e+03  -1.585047e+03
  -5.845079e+01  -2.135405e+03
   1.250618e+03  -1.081445e+03
   7.317088e+02  -1.867368e+02
  -1.464547e+02   2.592909e+02
  -4.434280e+02  -1.249175e+02
  -2.216720e+01  -5.938968e+02
   4.378088e+02  -6.810461e+02
   5.333937e+02  -6.495792e+01
   3.725625e+02   5.542066e+02
   6.681515e+01   5.847319e+02
  -3.179460e+02   1.669508e+02
  -2.906263e+02  -3.903333e+02
   1.022142e+02  -5.258649e+02
   4.149421e+02  -1.512121e+01
   2.659551e+02   4.938817e+02
  -1.902586e+02   5.117797e+02
  -3.766516e+02   2.380429e+02
  -3.762333e+02  -1.933814e+02
  -1.338933e+02  -3.093644e+02
   1.492266e+02  -2.317219e+02
   7.109938e+01  -3.465872e+01
  -1.594682e+02  -4.202357e+01
  -2.170252e+02  -2.127343e+02
  -3.019735e+01  -3.592511e+02
   4.468196e+02  -2.002238e+02
   5.950738e+02   1.049963e+02
   2.775624e+02   4.259859e+02
  -3.154436e+02   2.691969e+02
  -5.190335e+02  -1.351887e+02
  -2.562059e+02  -3.863486e+02
   2.579817e+02  -3.718486e+02
   4.286646e+02  -1.983701e+02
   3.068614e+02   8.957027e+01
   6.846289e+01   3.347063e+02
  -5.909197e+01   1.900548e+02
  -5.683051e+00  -1.365098e+02
   1.612166e+02  -2.346768e+02
   2.193970e+02   8.670630e+01
   9.300215e+01   4.981186e+02
  -2.419815e+02   4.633884e+02
  -3.003465e+02  -5.199179e+00
  -1.065475e+02  -3.157677e+02
   1.667144e+02  -2.457096e+02
   2.462144e+02   2.685550e+02
  -7.203394e+01   4.115557e+02
  -4.092307e+02   9.219386e+01
  -4.805212e+02  -3.485845e+02
  -1.186701e+02  -4.958285e+02
   2.345911e+02  -2.705086e+02
   5.016934e+02  -2.037321e+01
   3.199131e+02   2.891432e+02
  -3.641939e+01   2.017805e+02
  -2.344276e+02   8.337053e+01
  -1.869235e+02  -3.058917e+01
   2.260855e+01  -4.945206e+01
   2.797260e+01   6.338459e+01
  -5.659512e+01   8.523621e+01
  -2.162960e+02  -6.122718e+01
  -1.134268e+02  -1.738315e+02
   1.353450e+02  -2.083690e+02
   3.292985e+02  -1.076793e+02
   2.050112e+02   6.650921e+01
   3.609684e+01   2.005193e+02
  -2.105382e+02   3.379192e+02
  -2.689258e+02   1.785151e+02
  -1.909606e+02  -1.594814e+02
  -4.288779e+00  -2.909316e+02
  -1.709935e+01  -2.779025e+02
   4.834670e+01  -1.255413e+02
   5.562745e+01  -4.083661e+01
   1.082770e+02  -1.146383e+02
   1.899471e+02  -8.759194e+01
   2.309134e+02   4.145008e+01
   8.088987e+01   2.305012e+02
  -1.039337e+02   1.849549e+02
  -2.183316e+02  -3.652300e+01
  -1.229100e+02  -1.801067e+02
   2.860066e+01  -2.689755e+02
   2.207123e+02  -7.012426e+01
   2.873685e+02   1.201810e+02
   1.293999e+02   2.817115e+02
  -6.983432e+01   2.730321e+02
  -1.342881e+02   1.559079e+02
  -1.012480e+02   6.066493e+01
  -1.280744e+02   3.564577e+01
  -2.229700e+02   7.890859e+01
  -3.493310e+02  -6.426634e+01
  -3.264511e+02  -2.513487e+02
  -2.295329e+01  -3.425739e+02
   2.788787e+02  -3.441596e+02
   3.792007e+02  -1.839352e+02
   2.367516e+02   6.400315e+01
   7.165832e+00   2.179482e+02
  -6.495522e+01   2.010272e+02
  -2.123464e+01   5.292455e+01
   8.730108e+01  -5.119672e+01
   1.686613e+02   1.583906e+01
   8.619288e+00   1.027158e+02
  -1.345883e+02   1.296609e+02
  -1.107492e+02  -7.465668e+01
  -4.535206e+00  -1.383425e+02
   1.571708e+02  -4.005532e+01
   1.450919e+02   1.698559e+02
   2.979720e+01   2.695140e+02
  -2.219479e+02   1.479209e+02
  -2.963596e+02  -6.332973e+01
  -2.569605e+02  -2.224279e+02
  -1.536467e+02  -2.774367e+02
   1.050205e+02  -1.181579e+02
   1.422044e+02   1.089464e+01
   5.909350e+01   4.837095e+00
  -2.480790e+01  -6.781191e+01
  -6.592883e+00  -1.080580e+02
   1.311086e+02  -6.131803e+01
   1.280726e+02   2.552595e+00
   1.856394e+01   5.426321e+01
  -7.823132e+01  -3.591856e+00
  -4.881642e+01  -9.911089e+01
   9.300757e+01  -6.621625e+01
   2.768558e+02  -1.441568e+01
   2.193043e+02   1.538952e+02
   5.653254e+01   2.058706e+02
  -1.642393e+02   2.138289e+02
  -2.378459e+02   1.485681e+02
  -1.401214e+02  -3.555998e+01
   3.661601e+01  -7.421759e+01
   9.681050e+01   7.143994e+00
  -3.150248e+01   1.017233e+02
  -1.480184e+02   5.224659e+01
  -1.685037e+02  -1.081540e+02
  -4.064777e+01  -1.597466e+02
   4.724383e+01  -9.762885e+01
   1.167713e+02  -1.579166e+01
   6.825301e+01   7.224857e+01
  -5.998812e-01  -7.213067e+00
  -6.066395e+01  -7.497813e+01
   9.674414e+01  -8.975740e+01
   1.925499e+02  -7.672879e+01
   1.556234e+02   1.048224e+02
   2.846971e+01   2.004390e+02
  -1.009781e+02   1.152510e+02
  -1.575957e+02   2.826244e+01
  -5.866992e+01  -6.756612e+01
   3.946380e+01  -7.915804e+01
   5.896437e+01  -1.670155e+01
   4.062267e+01   4.541806e+00
  -2.389888e+01   1.864245e+01
   1.436996e+00  -2.290147e+01
   5.318346e+01   3.244592e+01
   1.086156e+02   2.141380e+01
  -2.111349e+00   1.518484e+02
  -1.050235e+02   1.674830e+02
  -2.052951e+02   5.121995e+00
  -2.123309e+02  -1.018480e+02
  -3.634962e+01  -1.523160e+02
   1.007073e+02  -1.334483e+02
   1.295762e+02  -3.419593e+01
   4.115649e+01   3.783173e+01
   5.434329e+00   4.708622e+01
   1.449264e+01  -4.140055e+01
   6.895182e+01  -2.338300e+01
   9.621803e+01   3.040077e+01
  -4.785502e+01   1.032152e+02
  -1.212170e+02   5.420814e+01
  -1.122215e+02  -1.962900e+01
   1.523765e+01  -1.192832e+02
   1.123160e+02  -3.347094e+01
   1.520799e+02   1.881551e+01
   1.115978e+02   1.567964e+02
  -9.083015e+01   1.735390e+02
  -1.916386e+02   3.450698e+01
  -2.329015e+02  -4.172210e+01
  -9.487030e+01  -1.436865e+02
   2.768772e+01  -1.146803e+02
   8.211443e+01  -7.973840e+01
   3.781419e+01  -5.077829e+01
   5.960011e+01  -7.160982e+01
   3.615686e+01  -6.714305e+01
   1.293088e+02  -7.435238e+00
   1.228316e+02   1.023018e+02
   3.386134e+01   1.832422e+02
  -9.847060e+01   1.513796e+02
  -1.395269e+02   1.634055e+01
  -1.238729e+02  -1.020139e+02
   1.269401e+01  -1.354568e+02
   6.787785e+01  -1.235167e+02
   4.021598e+01   2.346340e+01
  -1.686647e+01   3.415607e+01
  -4.262764e+01   1.406100e+01
   3.537519e+01   1.507063e+01
   9.291615e+01   3.800290e+01
   3.987151e+01   1.090199e+01
  -7.675020e+01   4.989307e+01
  -1.394848e+02   1.667306e+01
  -1.007815e+02  -6.678767e+01
  -3.631328e+01  -7.364278e+01
   1.225412e+02  -4.480904e+01
   1.317583e+02  -1.567236e+01
   5.886546e+01   2.467627e+01
  -3.673347e+01   5.118131e+01
  -6.164805e+01  -2.949058e+01
   8.710435e+00  -4.106703e+01
   3.121209e+01  -3.740907e+01
   8.714076e+01  -1.360200e+00
   4.083984e+01   4.361032e+01
   5.585373e+01   2.939210e+01
   7.025979e+01   3.740608e+01
   6.191600e+01  -2.765202e+01
   5.967940e+00   7.082442e+01
  -2.752238e+01   1.165681e+02
  -1.337815e+02   1.146986e+02
  -1.214759e+02   4.316128e+01
  -1.234220e+02  -8.669670e+01
  -3.283800e+01  -1.227584e+02
   5.691928e+01  -8.577796e+01
   6.319591e+01   5.352705e+00
  -4.494246e+01   1.601524e+01
  -1.153569e+02  -1.161276e+01
  -9.013925e+01  -1.040664e+02
   7.226172e+01  -1.059450e+02
   1.707715e+02  -6.886775e+01
   1.379769e+02   4.127246e+01
   5.099257e+01   4.096660e+01
  -2.674113e+01   5.960281e+00
  -3.684695e+01   2.583379e+00
   3.772220e+01  -2.476863e+01
   9.040282e+01  -1.130291e+01
   6.706580e+01   9.538632e+01
  -5.691910e+01   1.445910e+02
  -1.373183e+02   5.586586e+01
  -1.089222e+02  -7.683984e+01
  -2.696033e-01  -1.781647e+02
   5.595133e+01  -1.356472e+02
   6.024911e+01   2.377008e+01
   6.940403e+01   1.112537e+02
  -1.811493e+00   8.054157e+01
  -4.750010e+01   2.547833e+01
  -5.840574e+01  -2.353328e+01
  -2.228561e+01   3.216223e+00
  -6.131180e-01  -1.266645e+01
  -4.300321e+01  -1.073899e+01
  -2.817279e+01  -9.391111e+01
  -7.029914e+01  -9.255598e+01
   2.415964e+01  -3.276178e+01
   1.131883e+02   1.698259e+01
   1.115404e+02   7.701478e+01
  -3.661689e+00   5.034618e+01
  -8.465085e+01   6.318514e+01
  -5.370111e+01   1.738827e+01
  -1.602187e+01  -1.296583e+01
   3.018909e+01  -1.141964e+01
   1.777350e+01  -1.205653e+00
   4.786019e+00  -7.165946e+00
  -1.932757e+01   1.394226e+01
   5.750372e+01  -2.398820e+01
   8.097592e+01   1.886400e+01
   4.648288e+01   7.790278e+01
  -8.978778e+01   1.140093e+02
  -1.900195e+02   7.995219e+01
  -1.479837e+02  -3.278327e+01
  -2.131560e+01  -1.465347e+02
   1.785272e+01  -1.531664e+02
   9.926907e+01  -4.649458e+01
   7.801146e+01   8.669785e+00
   1.436480e+01   2.570513e+01
  -1.039092e+01   1.426507e+01
   2.860833e+01   2.105476e+00
   2.258339e+01   4.028008e+01
  -9.585202e+00   7.681836e+01
  -2.089349e+01   4.263396e+01
  -6.124651e+01  -4.395844e+00
  -1.084186e+02  -9.342622e+01
  -2.283884e+01  -1.110192e+02
   5.682280e+01  -4.882118e+01
   9.117843e+01   5.900257e+01
   1.174679e+01   6.647227e+01
  -2.486909e+01   3.447230e+01
  -6.625524e+01  -1.993140e+01
  -3.769028e+01  -2.343517e+01
   1.496599e+01  -3.469495e+01
   2.128462e+00  -1.257698e+01
  -2.341282e+01   8.032082e+00
  -6.497854e+01   1.866600e+01
  -8.198561e+00  -2.520808e+01
   7.589301e+01  -6.551112e+01
   8.086808e+01  -5.982361e+01
   9.201722e+01   3.467890e+01
  -1.659467e+01   7.946029e+01
  -5.206717e+01   6.886908e+01
  -2.889344e+01   5.193192e+00
  -4.612340e+00  -4.697393e+01
  -7.979772e-01  -5.390087e+01
   2.991019e+01   2.684209e+01
  -4.212666e+00   4.695267e+01
  -1.708392e+01   3.946703e+01
  -3.336253e-01  -3.898711e+00
  -7.425219e+01  -2.469624e+01
  -3.387771e+01   2.091761e+01
   8.652369e-01   3.481765e+01
   3.429649e+01  -1.381966e+01
  -7.819548e+00  -3.061782e+01
   1.153319e+00  -5.484714e+01
   2.152418e+01  -3.052702e+01
   2.112928e+01   2.140919e+01
   1.061134e+01   4.199140e+01
  -3.348518e+01   1.447615e+01
  -7.298144e+01  -2.269724e+01
  -2.343137e+01  -2.857485e+01
   4.222537e+01  -6.297002e+01
   7.545102e+01   1.555869e+01
   7.125400e+01   1.859311e+01
  -1.812894e+01   5.946796e+01
  -6.018960e+01   1.824060e+01
  -6.685723e-02   2.646471e+01
   1.174531e+01  -1.169885e+00
   2.040157e+01   6.556081e+00
  -3.025367e+01   5.212655e+01
  -5.563825e+01   1.488714e+01
