
 $NMID
 id='ANONYMOUS ', fmtdat='(2E16.6)'
 volume=1.0
 tramp=1.0
 $END
  -1.860918e+03  -1.912442e+01
  -1.724281e+03  -1.465165e+03
   1.706168e+02  -1.498192e+03
   9.304789e+02  -6.589893e+02
   7.210241e+02   8.670099e+01
  -9.203981e+01   2.190433e+02
  -4.851318e+02  -1.137185e+02
   1.498811e+01  -4.896855e+02
   3.561750e+02  -4.105097e+02
   5.134558e+02   5.049091e+01
   2.357752e+02   4.040196e+02
  -5.721562e+01   5.469769e+02
  -2.002252e+02   1.063829e+02
  -1.268108e+02  -2.366704e+02
   9.052223e+01  -3.750585e+02
   2.922399e+02   3.695067e+00
   1.609309e+02   3.666515e+02
  -1.717294e+02   3.259827e+02
  -3.310188e+02   1.120900e+02
  -2.422813e+02  -1.015461e+02
  -1.270977e+01  -2.186758e+02
   1.289400e+02  -1.399853e+02
   8.994845e+01  -5.278887e+01
  -2.976747e+01   4.926638e+01
  -1.613148e+02  -7.282748e+01
  -6.391436e+01  -2.407248e+02
   1.684238e+02  -2.062311e+02
   4.293601e+02  -1.174367e+01
   1.855330e+02   2.772218e+02
  -2.458143e+02   2.644376e+02
  -3.412261e+02  -3.749840e-01
  -2.268908e+02  -2.628961e+02
   1.668943e+02  -2.600781e+02
   2.195489e+02  -1.419789e+02
   1.922735e+02   1.039132e+02
   5.084123e+01   2.308978e+02
  -8.733733e+01   1.379208e+02
  -5.333501e+01  -3.905252e+01
   1.555411e+02  -2.028992e+02
   2.289208e+02  -2.944812e+01
   6.367509e+01   3.506653e+02
  -1.276579e+02   3.622725e+02
  -3.161051e+02  -4.756144e+01
  -7.331794e+01  -2.150173e+02
   1.295420e+02  -6.374222e+01
   1.583743e+02   1.758490e+02
  -3.975622e+01   2.242276e+02
  -3.044178e+02   7.640984e+01
  -3.276759e+02  -2.083695e+02
  -8.445961e+01  -2.703800e+02
   1.279764e+02  -1.092157e+02
   2.812997e+02   3.605303e+01
   1.393927e+02   2.029578e+02
  -3.656796e+01   1.349711e+02
  -2.244669e+02   7.825818e+01
  -1.489772e+02  -1.212058e+02
   3.544223e+01  -7.657266e+01
   8.282769e+01   8.369345e+01
  -2.484146e+01   9.322453e+01
  -1.653778e+02  -3.991392e+01
  -9.024563e+01  -1.477906e+02
   1.475813e+02  -1.774471e+02
   1.940734e+02  -4.453986e+01
   1.243077e+02   5.299494e+01
  -1.071567e+01   1.199126e+02
  -1.174302e+02   1.498818e+02
  -1.409847e+02   1.030219e+02
  -1.250539e+02  -6.355999e+01
  -2.244374e+01  -2.009092e+02
   2.018972e+01  -1.411289e+02
   3.449568e+01  -4.337896e+01
   3.040074e+01  -4.513170e+01
   3.184699e+01  -3.450731e+01
   7.175351e+01  -6.527157e+01
   1.591228e+02  -5.951842e+00
   1.082939e+02   1.483578e+02
  -7.841582e+00   1.417299e+02
  -1.527029e+02   3.950517e+01
  -7.366276e+01  -1.284042e+02
  -1.797158e+00  -1.696148e+02
   7.199422e+01  -4.511161e+01
   1.726750e+02   7.643051e+01
   1.104196e+02   2.078454e+02
  -5.204951e+01   1.920965e+02
  -1.467943e+02   6.773498e+01
  -7.126741e+01   2.700274e+01
  -4.525397e+01  -3.325917e+00
  -1.713511e+02   4.060535e+01
  -2.003625e+02  -2.462881e+01
  -1.686726e+02  -1.134834e+02
  -2.723824e+01  -1.487490e+02
   1.655313e+02  -1.798865e+02
   2.326081e+02  -1.304352e+02
   1.796816e+02   4.769973e+01
   3.305992e+01   1.372938e+02
  -5.909527e+01   1.260184e+02
  -1.789224e+00   1.824391e+01
   4.225959e+01  -3.401513e+01
   1.076250e+02  -2.100642e+01
   3.163002e+01   1.047214e+02
  -8.434113e+01   7.932086e+01
  -9.090432e+01  -2.200160e+01
   1.039968e+01  -9.781458e+01
   1.032685e+02  -2.385665e+01
   5.998942e+01   1.176006e+02
   1.051355e+01   2.279566e+02
  -1.051301e+02   5.556102e+01
  -1.518266e+02  -2.721474e+01
  -7.616405e+01  -1.083951e+02
   1.019547e+01  -1.127880e+02
   4.273687e+01  -9.853690e+01
   7.320095e+01  -2.088752e+01
   3.274550e+01   2.050046e+01
  -3.767296e+01  -1.853765e+01
   9.541596e+00  -6.203998e+01
   7.824739e+01  -2.958407e+01
   8.186049e+01   1.167994e+01
   2.507454e+01   3.599971e+01
  -5.292220e+01  -7.894259e+00
   7.782618e+00  -4.859260e+01
   8.594623e+01  -2.184006e+01
   1.507557e+02  -1.137877e+00
   1.263586e+02   6.792579e+01
   2.529756e+01   1.053327e+02
  -1.222424e+02   1.635200e+02
  -1.790546e+02   9.357877e+01
  -5.397532e+01  -5.627944e+00
   1.246335e+01  -6.205862e+01
   4.952092e+01  -2.941827e+01
   8.804508e+00   8.685430e+01
  -9.545544e+01   7.227415e+01
  -1.353830e+02  -3.451527e+01
  -4.904348e+01  -7.139475e+01
   4.797868e+01  -5.847654e+01
   9.554341e+01  -1.439924e+01
   2.291151e+01   9.082906e+00
  -2.256730e+01   5.573625e+00
  -1.664501e+01  -4.217907e+01
   4.982265e+01  -6.379816e+01
   1.154743e+02  -1.262948e+01
   7.226354e+01   4.828596e+01
   2.532526e+01   1.338251e+02
  -3.885429e+01   8.347912e+01
  -1.172834e+02   2.003352e+01
  -2.468575e+01  -4.695124e+01
  -7.465382e-01  -2.956762e+01
   3.457500e+01  -3.129710e+01
   8.561247e+00   3.443809e+01
  -2.043983e+01   4.444846e+01
   1.647471e+01  -2.439709e+01
   5.740814e+01  -4.160151e+00
   6.122201e+01   2.852036e+01
   2.490202e+01   1.036499e+02
  -5.794109e+01   6.128366e+01
  -9.322610e+01  -2.331837e+01
  -1.195507e+02  -9.488007e+01
  -1.770892e+01  -8.383634e+01
   9.598221e+01  -7.830501e+01
   7.576573e+01  -2.725154e+01
   4.451400e+01   5.231982e+01
   5.193850e+00   3.192700e+01
  -4.272952e+00  -6.172872e+00
   3.751034e+01   1.351611e+01
   1.774191e+01  -6.733024e+00
  -4.557780e+01   3.779127e+01
  -5.686257e+01   3.983707e+01
  -5.568898e+01  -5.527476e+00
   4.056474e+00  -6.768082e+01
   8.467385e+01  -4.067461e+01
   9.894600e+01  -4.715950e-01
   2.120829e+01   1.040387e+02
  -6.621049e+01   7.977483e+01
  -1.269658e+02   5.002845e+01
  -1.245982e+02  -4.469707e+01
  -7.037311e+01  -8.470525e+01
   4.444444e+01  -9.944412e+01
   8.026595e+01  -2.354652e+01
   4.543380e+01   2.274650e-01
   2.657125e+01  -5.807887e+01
   5.420939e+01  -3.958056e+01
   1.285272e+02  -1.173071e+00
   7.786845e+01   6.519962e+01
   3.467966e+01   1.178975e+02
  -2.481165e+01   1.119885e+02
  -1.317987e+02   2.518102e+01
  -7.430923e+01  -3.656153e+01
  -2.319498e+01  -7.685669e+01
   5.157611e+01  -5.309607e+01
   4.623062e+01   8.693982e+00
  -1.978884e+01   3.425125e+01
   2.580024e+01   1.781673e+01
   5.471597e+01   1.508507e+01
  -9.505063e+00  -9.910027e+00
  -7.198173e+00  -3.111193e+01
  -2.324818e+01   3.528793e+01
  -8.718283e+01  -1.357979e+01
  -9.229722e+01  -3.954845e+01
   4.895447e+00  -5.359826e+01
   6.693082e+01  -2.369327e+01
   5.164307e+01  -3.017848e+00
   5.693217e+00   4.802891e+00
  -2.216572e+01   4.508360e+00
  -3.298586e+01  -2.059648e+01
  -9.371629e-01  -1.587103e+01
   1.392877e+01  -2.095750e+01
   3.526119e+01   5.530304e+00
   6.151515e+00   2.653240e+01
   2.682534e+01   2.055432e+01
   5.560796e+00  -6.193244e+00
   6.316075e+01  -4.908118e-01
   2.729215e+01   3.196896e+01
   5.924912e+00   8.748543e+01
  -3.868789e+01   7.982194e+01
  -1.000393e+02   1.745193e+01
  -8.654278e+01  -3.413378e+01
  -1.525440e+01  -5.627541e+01
   4.313338e+01  -5.894705e+01
   2.537371e+01   1.596368e+01
  -4.033877e+01  -9.533258e-01
  -1.055223e+02  -1.365889e+01
  -8.261601e+01  -6.105347e+01
   3.386132e+01  -5.151844e+01
   8.138654e+01  -6.671795e+01
   6.954251e+01   4.921537e+01
   2.853768e+01   2.967265e+01
  -2.191679e+01   5.971461e+01
  -2.726389e+01   3.140179e+00
   5.020449e+01  -2.107003e+01
   5.835472e+01   1.655171e+01
   1.251174e+01   5.781668e+01
  -5.222344e+01   8.464342e+01
  -7.455203e+01  -1.204156e+00
  -6.540721e+01  -3.998575e+01
  -1.825166e+01  -1.468183e+02
   4.510898e+01  -8.528858e+01
   6.171507e+01  -7.622928e+00
   4.714967e+01   7.739296e+01
  -8.402636e+00   6.240632e+01
  -5.585810e+01  -2.012723e+01
  -1.828611e+01   4.378757e+00
   1.124529e+01  -2.008149e+01
  -1.839389e+00  -1.404602e+01
  -4.748498e+01  -1.296958e+01
  -5.166932e+01  -5.900238e+01
  -1.467588e+01  -4.097475e+01
   3.010210e+01  -3.164324e+01
   8.635923e+01   2.775346e+01
   4.765816e+01   5.388646e+01
   1.914438e+01   1.648844e+01
  -6.238059e+01   2.018582e+01
  -4.433985e+01  -1.926725e+00
  -3.674685e+00  -7.401997e+00
   3.506040e+01  -1.984203e+01
   2.545755e+01  -2.416544e+01
   9.455609e+00  -6.504782e+00
   2.810548e+00   1.130972e+01
   3.095874e+01   2.766212e+00
   3.643610e+01   1.880579e+01
   2.327178e+01   4.064553e+01
  -8.481612e+01   5.454628e+01
  -1.189905e+02   7.494897e+01
  -6.525545e+01   8.744972e-01
  -1.955050e+01  -7.332951e+01
   5.813982e+01  -7.596055e+01
   4.826784e+01  -4.990563e+01
   3.099068e+01   1.730049e+01
   1.047318e+01   4.464579e+01
   8.973945e-01   4.454692e+01
  -9.068267e+00   1.714825e-01
   5.647202e+00   2.664802e+01
   2.404308e+01   5.755418e+01
   8.139272e+00   5.575360e+01
  -1.427977e+01  -5.899539e+00
  -4.175274e+01  -7.112859e+01
  -2.695114e+01  -4.205410e+01
   3.723101e+01  -1.028133e+00
   6.209185e+01   3.137168e+01
   5.450046e+00   5.571146e+01
   2.532532e+01   3.707226e+01
  -3.626635e+01   7.403613e+00
  -3.399287e+01  -1.361024e+00
   3.659533e+01  -1.558190e+01
   7.679301e-01  -1.554717e+01
  -1.351228e+01   6.416265e+00
  -1.758087e+01   1.558203e+01
  -2.931009e+01  -1.249600e+01
   4.450215e+01  -2.291428e+01
   4.874087e+01  -3.239709e+01
   4.935768e+01   6.891305e+00
   8.348834e-01   4.611011e+01
  -4.422516e+01   2.714136e+01
  -1.738689e+01   3.675987e+00
   1.252696e+01  -4.591705e+01
   3.331500e+01  -1.706375e+01
   4.342814e+01  -2.497150e+00
   6.983594e+00   1.313415e+01
  -9.261914e+00   1.814202e+01
  -2.554442e+01  -8.362692e+00
  -3.266056e+01  -1.065769e+01
  -1.458813e+01   1.216661e+01
  -1.250785e+01   2.663468e+00
   8.286955e+00  -7.602460e+00
   9.472223e+00  -2.495622e+01
   1.690600e+01  -4.510259e+01
   2.843057e+01   3.957016e+00
   9.502933e+00   3.127512e+01
   1.432157e+01   2.919638e+01
  -1.839897e+01  -2.060582e+01
  -7.773831e+00  -5.201285e+01
   9.904700e+00  -2.520032e+01
   2.976928e+01  -1.936174e+01
   5.566787e+01  -1.077201e+01
   8.663980e+00   1.060722e+01
  -3.147676e+01   1.966866e+01
  -6.819848e+01  -9.207183e-01
  -7.195412e-01   1.283192e+00
  -2.724251e+01  -2.722507e+00
   2.204139e+01   9.387197e+00
  -2.648525e+01   9.811214e+00
  -2.542051e+01   3.662771e+01
