
 $NMID
 id='ANONYMOUS ', fmtdat='(2E16.6)'
 volume=1.0
 tramp=1.0
 $END
   3.091722e+03   2.330973e+02
   2.045097e+03   1.677511e+03
  -2.840667e+02   2.303963e+03
  -1.093237e+03   1.218983e+03
  -8.823478e+02   5.266797e+00
   2.275333e+02  -1.515085e+02
   3.668236e+02   7.932020e+01
   4.120389e+01   6.188239e+02
  -6.314767e+02   6.342765e+02
  -6.424273e+02   2.145720e+02
  -3.875715e+02  -5.062482e+02
   1.354325e+02  -6.524317e+02
   3.189666e+02  -1.959118e+02
   2.122466e+02   3.125487e+02
  -1.795675e+02   5.923366e+02
  -4.097814e+02   3.370480e+01
  -3.494280e+02  -4.673474e+02
   9.308209e+01  -5.721608e+02
   4.954627e+02  -2.161218e+02
   3.783328e+02   2.408694e+02
   1.156463e+02   3.461077e+02
  -1.671175e+02   2.286555e+02
  -6.767242e+01   6.406793e+01
   1.215730e+02   5.740002e+01
   2.646411e+02   1.898525e+02
   1.349020e+01   3.338124e+02
  -4.481920e+02   1.631148e+02
  -5.884788e+02  -2.246610e+02
  -2.138054e+02  -3.361793e+02
   3.839641e+02  -2.569675e+02
   3.682474e+02   2.322277e+01
   2.272837e+02   4.193860e+02
  -1.998247e+02   3.386566e+02
  -4.800166e+02   9.253890e+01
  -3.190237e+02  -1.082451e+02
  -6.047116e+01  -3.076326e+02
   3.134420e+01  -1.764585e+02
   2.929337e+01   1.669613e+01
  -1.929668e+02   3.074728e+02
  -2.202244e+02  -7.499465e+01
  -8.899121e+01  -5.182293e+02
   3.044961e+02  -4.184992e+02
   3.413444e+02  -2.439602e+01
   2.110532e+02   2.874619e+02
  -1.302921e+02   1.147534e+02
  -1.728133e+02  -3.080779e+02
   1.441336e+02  -3.339287e+02
   4.932230e+02   2.207964e+01
   4.205550e+02   3.452181e+02
   9.733110e+01   4.966214e+02
  -3.235891e+02   1.979920e+02
  -5.443589e+02  -1.567116e+02
  -3.147318e+02  -2.055661e+02
   7.084445e+01  -2.173646e+02
   3.102594e+02  -1.396106e+02
   2.004365e+02   5.120211e+01
  -2.894373e+01   5.455598e+00
  -5.310277e+01  -5.894104e+01
   3.513828e+01  -5.662806e+01
   1.704686e+02   2.520054e+01
   1.177521e+02   1.620695e+02
  -1.845833e+02   2.189031e+02
  -3.130876e+02   1.197201e+02
  -2.562289e+02  -9.219554e+01
  -5.713750e+00  -2.745789e+02
   3.060021e+02  -3.670078e+02
   3.818526e+02  -1.067995e+02
   2.287403e+02   1.311105e+02
   7.744017e+00   3.415153e+02
  -3.553505e+01   3.483484e+02
  -8.798613e+00   1.382149e+02
  -2.773024e+01   7.412093e+01
  -8.984287e+01   1.291849e+02
  -1.826600e+02   3.713276e+01
  -2.598592e+02  -7.525503e+01
  -8.892394e+01  -2.677602e+02
   9.645669e+01  -1.616671e+02
   1.476508e+02   1.201058e+01
   1.047590e+02   2.124049e+02
  -2.318610e+01   2.464561e+02
  -1.954691e+02   6.649563e+01
  -2.803934e+02  -7.442182e+01
  -1.313495e+02  -2.848638e+02
   4.882965e+01  -2.622643e+02
   1.879468e+02  -1.428305e+02
   1.274464e+02  -5.602396e+01
   1.379302e+02  -5.623866e+01
   2.315266e+02  -4.526043e+01
   3.774877e+02   6.358048e+01
   2.662861e+02   2.753683e+02
  -1.729276e+01   3.752023e+02
  -3.318970e+02   3.806246e+02
  -4.625868e+02   1.153520e+02
  -2.399493e+02  -7.379482e+01
  -1.849028e+01  -2.591696e+02
   9.167641e+01  -2.311116e+02
   6.248622e+01  -3.067936e+01
  -1.487631e+02   1.728264e+01
  -1.289463e+02  -3.471268e+00
   1.490716e+00  -1.330428e+02
   1.256929e+02  -1.065782e+02
   9.702926e+01   4.645682e+01
  -2.379940e+01   1.320387e+02
  -1.122299e+02   5.197346e+01
  -1.412935e+02  -2.231881e+02
   5.718704e+01  -3.311620e+02
   2.289226e+02  -2.004423e+02
   2.931703e+02   3.415632e+01
   2.735362e+02   2.065740e+02
   5.292715e+01   2.337382e+02
  -1.239230e+02   1.135327e+02
  -1.106576e+02  -6.376440e+00
  -3.889927e+01   1.703728e+00
   3.999291e+01   5.588021e+01
  -1.810074e+01   1.209183e+02
  -8.883789e+01   8.118914e+01
  -1.473479e+02  -3.397880e+01
  -4.228780e+01  -6.519784e+01
   5.443004e+01  -3.083118e+01
   5.769487e+01   1.095057e+02
  -1.329593e+02   9.118685e+01
  -3.347880e+02  -9.510329e+01
  -2.364890e+02  -1.793430e+02
   2.311932e+01  -2.744449e+02
   1.578148e+02  -2.085881e+02
   2.779266e+02  -1.102788e+02
   1.269416e+02   5.955002e+01
  -1.997350e+01   4.616139e+01
  -4.254865e+01  -2.472839e+01
   6.122701e+01  -6.398771e+01
   2.060256e+02  -2.788991e+01
   1.783399e+02   9.674831e+01
   3.814128e+01   1.436067e+02
  -1.024154e+02   1.421527e+02
  -1.356481e+02   2.742445e+01
  -5.627383e+01  -1.375480e+01
   5.546636e+01   1.858559e+01
   6.983819e+00   9.019873e+01
  -8.590135e+01   9.752393e+01
  -1.925807e+02   3.576484e+01
  -1.890806e+02  -1.212084e+02
  -2.766094e+01  -2.202599e+02
   1.574118e+02  -1.613729e+02
   1.772955e+02  -2.185580e+01
   6.705171e+01   9.223336e+01
  -3.478595e+01   8.498877e+01
  -6.078442e+01   2.073663e+01
   8.968428e+00  -3.680936e+01
   3.677438e+01  -2.472040e+01
  -1.000736e+01  -7.175461e+00
  -1.020404e+02  -1.853783e+01
  -1.183129e+02  -7.372546e+01
   2.301906e+01  -1.330695e+02
   1.271189e+02  -1.150446e+02
   2.283576e+02  -1.328157e+01
   1.740664e+02   1.464218e+02
   3.769308e+01   1.909588e+02
  -1.216864e+02   1.443847e+02
  -1.062945e+02   4.017432e+01
  -5.505991e+01  -7.647815e+01
  -2.400545e+01  -4.261425e+01
  -6.025481e+01   3.661875e+01
  -9.841138e+01  -2.228584e+01
  -5.758540e+01  -2.957829e+01
   6.605952e+01  -8.347508e+01
   1.261829e+02  -5.697475e+01
   1.022077e+02   3.052517e+01
  -2.173751e+01   1.028154e+02
  -1.469299e+02   1.026131e+02
  -2.107530e+02  -6.827168e+01
  -1.040877e+02  -2.033378e+02
   9.044858e+01  -1.913614e+02
   2.554973e+02  -5.644162e+01
   1.952426e+02   8.670671e+01
   6.674877e+01   1.595817e+02
  -6.520483e+01   1.445533e+02
  -1.065187e+02   7.481443e+01
  -5.591687e+01   5.067416e+01
  -7.291769e+01   9.327809e+01
  -7.450915e+01   6.019578e+01
  -1.282168e+02   3.751513e+00
  -8.912626e+01  -1.498708e+02
  -2.746456e+01  -2.190495e+02
   1.173511e+02  -1.491406e+02
   1.426361e+02  -4.592521e+01
   7.370119e+01   1.070856e+02
  -8.915182e+00   1.137169e+02
  -7.583941e+01   9.331613e+01
  -7.956602e+01  -9.239152e+00
   1.955127e+01  -3.894667e+01
   3.640014e+01  -1.803645e+01
  -1.551760e+01   1.322837e+01
  -7.193063e+01  -1.130704e+01
  -2.110269e+01  -2.870509e+01
   8.170882e+01  -4.840096e+01
   2.123774e+02   8.167913e+00
   1.334454e+02   8.275216e+01
   1.912753e+01   8.973424e+01
  -1.455291e+02   6.562017e+01
  -1.160831e+02   2.699304e+01
  -6.077294e+01  -4.634705e+01
   2.231081e+01  -2.765885e+01
   5.999661e+01   2.528562e+01
  -3.641684e+00   6.567336e+01
  -4.743745e+01   3.175747e+01
  -9.657995e+01  -2.150903e+01
  -3.227778e+01  -6.619266e+01
  -4.696515e+01  -4.026494e+01
  -3.840375e+01   1.227152e+01
  -9.102345e+01  -1.731401e+01
  -3.889030e+01  -6.056513e+01
  -4.055431e+00  -1.589786e+02
   1.186882e+02  -1.151654e+02
   1.729983e+02  -1.965460e+01
   8.675239e+01   1.088840e+02
  -3.915686e+01   1.090967e+02
  -1.176982e+02   2.958769e+01
  -8.752643e+01  -1.028556e+01
   4.528898e+01  -2.174332e+00
   9.576812e+01   5.080138e+01
   4.201518e+01   1.243694e+02
  -9.363773e+01   1.150046e+02
  -1.685087e+02   5.290658e+01
  -1.454920e+02  -5.783981e+01
  -2.046718e+01  -8.743681e+01
   7.754287e+01  -6.756471e+01
   6.900611e+01  -1.639217e+01
  -3.871630e+01   2.795058e+01
  -8.830613e+01  -2.515558e+01
  -2.636817e+00  -1.155785e+02
   1.089525e+02  -1.462504e+02
   1.337599e+02  -6.335537e+01
   1.032257e+02   9.882921e+01
  -2.915170e+00   1.751983e+02
  -8.049646e+01   1.592674e+02
  -9.335339e+01  -4.911987e+00
  -6.397214e+01  -1.179150e+02
   4.940382e+00  -8.303135e+01
   4.295769e+01  -2.527065e-01
   5.117282e+01   2.230406e+01
   1.488849e+01  -1.012635e+01
   1.782056e+01  -1.586802e+01
   3.304684e+01   1.475882e+01
   7.618958e+01   7.652828e+01
   2.199995e+00   7.695127e+01
  -2.486662e+01   4.030438e+01
  -1.307269e+02  -2.188013e+01
  -9.448651e+01  -4.287857e+01
  -2.168753e+01  -6.031432e+01
   7.753137e+01  -3.319992e+01
   9.305125e+01  -2.762994e+01
   1.390653e+01   2.568089e+01
  -2.570891e+01   2.452334e+01
  -2.352690e+01   2.726443e+01
   2.346817e+01   5.701360e+00
  -2.758946e+00  -1.646620e+01
  -7.529519e+01   1.627584e+01
  -8.824540e+01  -3.865643e+01
  -1.721778e+01  -7.662142e+01
   8.149255e+01  -1.251980e+02
   1.540625e+02  -5.196486e+01
   1.737265e+02   6.655173e+01
   2.238331e+01   1.501787e+02
  -5.850157e+01   1.135792e+02
  -1.158684e+02   6.678492e+01
  -6.308945e+01  -7.882426e+00
  -4.730765e+01  -4.391975e+01
   1.291725e+01  -2.503672e+01
  -1.058609e+01  -4.300795e+00
  -2.377570e+01  -2.769510e+01
  -1.866484e+01  -8.461447e+01
   1.268625e+01  -6.594853e+01
   4.155539e+01   2.172358e+01
   4.856350e+01   9.449932e+01
   1.669899e+01   1.277657e+02
  -5.331405e+01   4.836348e+01
  -7.671414e+01  -6.791905e+01
  -5.176358e+01  -9.076799e+01
   4.248974e+01  -5.360533e+01
   9.043183e+01   1.221578e+01
   4.031564e+01   9.155334e+01
  -1.284060e+01   7.140372e+01
  -2.794396e+01   3.118389e+01
   2.026464e+01  -3.282193e+01
   2.150515e+01  -2.206651e+01
   4.561841e+00   3.111273e+01
  -5.984307e+01   6.996558e+01
  -1.224237e+02   9.001084e+01
  -8.184565e+01  -2.185374e+01
   6.062106e+00  -5.422165e+01
   3.994620e+01  -8.591839e+01
   9.892033e+01  -2.603901e+01
  -7.685554e+00   7.318051e+01
   6.410568e+00   8.408828e+01
  -7.773017e+00  -2.334539e+01
  -4.740441e+01  -6.023182e+01
  -2.687982e+01  -4.260143e+01
   2.074846e+01   1.331484e+01
   5.932955e+01   3.375263e+01
   3.278704e+01   3.328702e+01
  -2.552944e+01  -7.583604e+00
   5.376913e+00  -3.483112e+01
  -3.562467e+00   5.697133e+01
  -1.286432e+01   4.248101e+01
  -3.241086e+01   4.381562e+01
  -6.092014e+01  -1.688401e+01
   1.819702e+01  -6.281898e+01
   2.828116e+01  -3.250820e+01
   9.220715e+01   3.211596e+01
   2.872763e+01   6.434666e+01
  -4.431838e+01   6.205097e+01
  -3.883225e+01  -5.621123e+00
  -4.774254e+01  -4.958959e+01
   3.355714e+01  -3.864435e+01
   5.237045e+01   9.176040e+00
   1.161714e+01  -1.801992e+01
  -3.874542e+01  -4.569046e+00
  -4.135727e+01   4.518183e+01
   2.474899e-01  -6.163715e+01
   9.354544e+01   1.142575e+01
