
 $NMID
 id='ANONYMOUS ', fmtdat='(2E16.6)'
 volume=1.0
 tramp=1.0
 $END
   4.769813e+03  -5.592355e+02
   3.050994e+03   3.115088e+03
  -5.292049e+02   2.990444e+03
  -2.449919e+03   1.317285e+03
  -1.197630e+03  -5.738694e+02
   5.764720e+02  -8.554925e+02
   9.200445e+02   3.212065e+02
   9.683371e+01   1.205618e+03
  -8.445188e+02   8.486663e+02
  -9.980082e+02   1.032999e+02
  -6.063196e+02  -9.465052e+02
   1.778159e+02  -1.017925e+03
   6.797654e+02  -1.768770e+02
   5.336261e+02   6.767960e+02
  -2.492601e+02   7.897954e+02
  -6.789774e+02  -6.538142e+01
  -4.039302e+02  -7.043184e+02
   3.906319e+02  -7.580922e+02
   5.394334e+02  -1.632171e+02
   5.486063e+02   3.481449e+02
   1.053502e+02   4.453914e+02
  -2.348092e+02   3.022073e+02
  -2.255730e+02   5.839739e+01
   1.160703e+02  -9.890185e+01
   4.116549e+02   5.473521e+01
   2.613548e+02   4.404909e+02
  -4.696581e+02   4.836998e+02
  -8.810400e+02  -5.613260e+01
  -5.390340e+02  -6.131458e+02
   3.638976e+02  -5.317865e+02
   8.579465e+02  -1.178197e+02
   3.676928e+02   4.483937e+02
  -2.709747e+02   6.037027e+02
  -5.554455e+02   2.739678e+02
  -5.023964e+02  -2.225403e+02
  -1.666698e+02  -5.471899e+02
   2.099722e+02  -3.732797e+02
   2.095116e+02   1.733512e+02
  -1.983524e+02   4.381176e+02
  -4.816735e+02  -3.531024e+01
  -3.353796e+02  -7.123752e+02
   2.274100e+02  -7.635682e+02
   5.864107e+02  -1.176541e+02
   3.242641e+02   5.020950e+02
  -2.987175e+02   3.983858e+02
  -4.013187e+02  -3.256228e+02
   4.379190e+01  -5.774790e+02
   6.190227e+02  -1.290560e+02
   6.454546e+02   4.762034e+02
   1.954892e+02   6.021977e+02
  -4.244078e+02   4.301080e+02
  -6.864974e+02   4.520191e+01
  -4.590544e+02  -3.890524e+02
   1.194656e+02  -4.055794e+02
   4.501040e+02  -1.195224e+02
   3.202012e+02   1.896585e+02
  -1.234582e+02   1.458831e+02
  -1.737527e+02  -1.391016e+02
   1.663304e+02  -2.593885e+02
   4.425734e+02  -2.909491e+01
   1.895539e+02   3.767847e+02
  -1.515086e+02   2.812409e+02
  -3.821841e+02   5.683117e+01
  -1.719527e+02  -9.508513e+01
   9.703452e+00  -2.260861e+02
   1.946109e+02  -3.442323e+02
   3.012932e+02  -2.818512e+02
   3.318603e+02   9.043536e+01
   5.553895e+01   4.911289e+02
  -2.034580e+01   4.109243e+02
  -9.809945e+01   1.710432e+02
  -6.030072e+01  -7.555506e+00
  -3.488928e+01   7.446680e+01
  -2.212629e+02   1.920268e+02
  -2.778541e+02  -1.051415e+02
  -1.356673e+02  -2.944851e+02
   4.133602e+01  -2.456160e+02
   2.440381e+02  -2.122769e+01
   2.606689e+02   1.677306e+02
   6.975291e+00   3.312275e+02
  -2.293392e+02   1.305965e+02
  -4.095068e+02  -1.431591e+02
  -2.396299e+02  -3.710759e+02
   9.181417e+01  -3.758268e+02
   2.824882e+02  -1.443799e+02
   1.870529e+02  -1.668331e+01
   1.011660e+02  -3.896308e+01
   2.449311e+02  -5.883770e+01
   4.150655e+02   5.549699e+01
   4.330607e+02   2.785219e+02
   1.969418e+01   4.473944e+02
  -4.005458e+02   4.529135e+02
  -5.014213e+02   2.582633e+02
  -4.084114e+02  -1.064235e+02
  -5.684181e+01  -2.939477e+02
   1.306350e+02  -2.507634e+02
   1.143200e+02  -3.419956e+01
  -8.757720e+01   1.508439e+02
  -2.355685e+02   2.765503e+01
  -6.300621e+01  -2.157421e+02
   1.753385e+02  -1.829347e+02
   1.659179e+02   2.237196e+00
  -8.665441e-02   2.344558e+02
  -2.113568e+02   4.727726e+01
  -1.762090e+02  -2.241542e+02
  -1.535334e+01  -3.938233e+02
   1.972488e+02  -2.045097e+02
   3.228904e+02   1.659082e+00
   2.892724e+02   2.478812e+02
   1.209151e+02   2.341797e+02
  -9.011777e+01   1.701723e+02
  -1.997771e+02   2.547583e+01
  -7.839062e+01  -1.976236e+01
   9.262378e+01   1.019480e+01
   2.995979e+01   1.058668e+02
  -1.168525e+02   1.096127e+02
  -1.949570e+02  -1.315602e+00
  -6.745670e+01  -7.357915e+01
   6.949777e+01  -8.850876e+00
   5.404179e+01   4.274514e+01
  -1.416531e+02   1.035710e+02
  -2.977947e+02  -2.252928e+00
  -3.183694e+02  -9.988514e+01
  -5.672116e+01  -2.891747e+02
   1.580043e+02  -2.690371e+02
   3.012390e+02  -1.265285e+02
   1.505486e+02   2.455910e+01
  -1.652708e+01   1.051836e+02
  -9.960286e+01  -5.295157e+00
   4.146789e+01  -1.391558e+02
   2.309577e+02  -6.871545e+01
   2.763306e+02   8.040602e+01
   1.204186e+02   2.153707e+02
  -7.312065e+01   1.566405e+02
  -1.248710e+02   8.561853e+01
  -1.098438e+02  -3.775165e+01
  -8.596746e+00  -2.220804e+00
   1.831299e+01   8.110106e+01
  -7.518471e+01   1.263382e+02
  -1.842713e+02   3.723819e+01
  -2.160522e+02  -9.193219e+01
  -5.076881e+00  -2.433278e+02
   1.357216e+02  -1.515205e+02
   2.206106e+02  -3.611595e+01
   5.915280e+01   1.164017e+02
  -4.428488e+01   1.130368e+02
  -7.669610e+01   4.096697e+01
  -3.694579e+01  -3.179565e+01
   2.939582e+01  -4.164030e+00
  -1.332404e+01   3.471804e+01
  -9.204244e+01  -1.233399e+01
  -1.057827e+02  -5.869047e+01
  -2.043398e+01  -1.936619e+02
   1.029948e+02  -1.701699e+02
   2.484349e+02  -4.431327e+01
   2.172689e+02   1.861063e+02
   6.050129e+01   2.256265e+02
  -9.630448e+01   1.941768e+02
  -1.732898e+02  -1.101384e-01
  -8.539471e+01  -5.053945e+01
  -3.993401e+01  -4.543619e+01
  -6.510026e+01   2.539761e+01
  -1.020548e+02   3.116897e+01
  -6.406717e+01  -3.724456e+01
   4.054509e+01  -9.822980e+01
   1.169756e+02  -1.221004e+01
   9.566447e+01   2.223289e+01
   1.945179e+01   1.152049e+02
  -1.325056e+02   1.201297e+02
  -2.133759e+02  -5.305120e+01
  -9.919890e+01  -1.826656e+02
   4.533749e+01  -2.698291e+02
   2.511020e+02  -1.389167e+02
   3.222986e+02   5.205563e+01
   1.225991e+02   1.691924e+02
  -2.596249e+01   1.259808e+02
  -8.629340e+01   1.111736e+02
  -9.599209e+01   9.109628e+01
  -4.771955e+01   1.064442e+02
  -1.131081e+02   1.162150e+02
  -9.411406e+01  -1.688552e+01
  -1.258770e+02  -1.489388e+02
  -4.528113e+01  -2.539482e+02
   8.065934e+01  -1.939818e+02
   1.955707e+02  -4.541082e+01
   1.561002e+02   9.578462e+01
   4.395679e+01   1.743850e+02
  -5.037243e+01   1.145008e+02
  -3.125237e+01   1.850722e+01
  -1.729850e+00  -3.407440e+01
  -1.994186e+00  -5.560017e+01
  -4.681152e+01  -4.622037e+00
  -9.595717e+01  -1.478547e+01
  -8.271134e+01  -7.723184e+01
   7.034647e+01  -3.190689e+01
   1.616708e+02  -2.263097e+01
   1.254700e+02   2.541334e+01
   2.095922e+01   8.230041e+01
  -1.545214e+02   7.034352e+01
  -1.458941e+02   5.083157e+01
  -3.793479e+01  -7.207168e+01
   5.252473e+01  -7.390847e+01
   8.087635e+01   8.550635e+00
   1.636041e+01   5.429539e+01
  -5.184878e+01   7.491634e+01
  -6.481700e+01  -2.986811e+01
  -5.214386e+01  -4.580605e+01
  -7.175024e+01  -3.987604e+01
  -7.747055e+01   1.002824e+01
  -5.429153e+01  -5.228982e+00
  -4.941430e+01  -9.450123e+01
   4.273173e+01  -1.554421e+02
   1.067109e+02  -1.583709e+02
   1.782443e+02  -3.786517e+01
   1.273718e+02   8.728514e+01
  -2.207734e+00   9.063012e+01
  -8.667840e+01   7.955350e+01
  -8.427771e+01   4.267978e+00
   6.305529e+01  -2.211223e+01
   1.427462e+02   2.819580e+01
   1.162700e+02   1.259352e+02
  -1.200895e+02   1.323678e+02
  -1.627270e+02   4.941227e+01
  -1.281759e+02  -2.862115e+01
  -4.636583e+01  -7.472614e+01
   6.717915e+01  -5.619609e+01
   2.663455e+01   4.940867e+00
  -1.582784e+00   3.015225e+01
  -7.651805e+01  -2.436128e+01
  -2.229477e+01  -1.294578e+02
   5.602754e+01  -1.582417e+02
   1.651548e+02  -8.401886e+01
   1.277585e+02   5.762060e+01
   2.371491e+01   1.909291e+02
  -8.341514e+01   1.266105e+02
  -1.179173e+02   1.374750e+01
  -7.753350e+01  -1.142604e+02
  -3.621934e+01  -1.161823e+02
   3.674762e+01  -2.735259e+01
   5.480159e+01   3.918810e+01
   3.213217e+01  -2.841443e+01
   1.549826e+01  -3.170169e+01
   2.604032e+00   3.043540e+01
   6.901491e+01   1.178341e+02
   6.254022e+01   1.016090e+02
  -5.248495e+01   6.030225e+01
  -1.819237e+02  -5.591859e+01
  -1.755562e+02  -7.064973e+01
  -1.207026e+01  -6.006598e+01
   7.213236e+01  -4.245500e+01
   9.986459e+01  -3.571902e+01
   9.088785e+00  -1.198859e+01
  -4.827846e+01   1.413608e+01
  -1.512743e+01   3.036839e+01
  -7.606403e-01  -5.961737e+00
   1.656843e+01  -1.723880e+01
  -1.049787e+02   3.173176e+01
  -7.537268e+01  -2.221986e+01
   5.313291e+00  -7.755099e+01
   9.145455e+01  -1.577872e+02
   1.773982e+02  -7.501669e+01
   1.515790e+02   8.251693e+01
   4.631142e+01   1.775039e+02
  -7.462560e+01   1.288855e+02
  -1.515361e+02   8.126525e+01
  -9.839248e+01  -1.166581e+01
  -3.811162e+01  -3.358059e+01
  -1.913825e+01  -2.057150e+01
  -5.616094e-01   7.417337e+00
  -4.098280e+01  -4.595964e+01
  -1.597981e+01  -7.589735e+01
   4.788379e+00  -9.708983e+01
   7.379902e+01  -7.747198e-01
   7.992275e+01   1.036623e+02
   3.101381e+01   1.241094e+02
  -8.298375e+01   3.519200e+01
  -1.177096e+02  -7.606263e+01
  -7.072524e+01  -1.075495e+02
   9.026273e+01  -7.018292e+01
   1.270283e+02   1.640833e+01
   4.206575e+01   3.506542e+01
  -4.285524e+01   6.747159e+01
  -2.760503e+01   3.718408e+01
   3.054457e+01   1.976496e+01
   5.925588e+01  -2.176670e+01
   2.863478e+01   4.538566e+01
  -9.479575e+01   5.772209e+01
  -8.638128e+01   8.168838e+01
  -4.695194e+01   1.225494e+01
  -2.474206e+00  -8.109395e+01
   7.809639e+01  -8.571845e+01
   4.548311e+01   1.844983e+01
   2.027597e+01   6.230792e+01
  -3.021676e+01   5.063070e+01
  -5.446548e+01  -2.061980e+01
  -3.582810e+01  -6.629473e+01
  -1.025541e+01  -5.722785e+01
   2.526069e+01   2.800733e+00
   2.585100e+01   2.365061e+01
   2.713656e+01  -3.421001e+00
   4.088927e-01  -4.796348e-01
  -1.899487e+00   7.062960e+00
  -6.109662e+00   1.944736e+01
  -2.523542e+01   3.392401e+01
  -3.280840e+01   2.254662e+01
  -1.317959e+01  -3.575886e+01
   1.875808e+00  -6.042886e+01
   6.065234e+01  -3.182427e+01
   6.927199e+01   3.782477e+01
   3.725047e+01   4.303364e+01
  -5.744759e+01   6.369778e+01
  -1.034376e+02  -1.288431e+01
  -6.470185e+01  -3.656660e+01
   2.675433e+01  -3.272368e+01
   5.564069e+01  -1.429885e+01
   2.101376e+01  -2.181734e+01
  -4.575305e+01   1.307347e+01
  -4.472192e+01  -3.583062e+01
   3.789843e+01  -2.833324e+01
   1.171095e+02  -2.159983e+01
