
 $NMID
 id='ANONYMOUS ', fmtdat='(2E16.6)'
 volume=1.0
 tramp=1.0
 $END
  -4.838847e+03  -2.008575e+02
  -2.322301e+03  -2.805671e+03
   9.394159e+02  -2.632157e+03
   2.372105e+03  -5.529766e+02
   7.571307e+02   9.095028e+02
  -7.929952e+02   5.526302e+02
  -9.722840e+02  -5.156566e+02
  -3.760404e+01  -1.086709e+03
   7.436220e+02  -8.025530e+02
   9.908997e+02  -4.132411e+01
   4.942814e+02   8.595661e+02
  -3.964137e+02   8.795245e+02
  -6.566086e+02   1.731568e+02
  -3.630473e+02  -7.360755e+02
   2.909754e+02  -8.168794e+02
   6.628251e+02   8.742102e+01
   2.931151e+02   6.372978e+02
  -3.740873e+02   6.504352e+02
  -6.736350e+02  -4.738898e+01
  -3.941292e+02  -3.629447e+02
   4.636962e+01  -4.313125e+02
   3.439662e+02  -2.225711e+02
   2.335027e+02   1.258935e+01
  -8.647731e+01   1.304571e+02
  -4.521834e+02  -2.567607e+01
  -2.419286e+02  -3.697074e+02
   4.438744e+02  -4.714828e+02
   7.998099e+02   5.414098e+01
   4.185098e+02   5.592607e+02
  -4.261462e+02   4.929883e+02
  -7.557394e+02   1.735539e+00
  -3.397974e+02  -5.348459e+02
   3.440147e+02  -5.775088e+02
   6.142847e+02  -2.275655e+02
   3.400702e+02   2.144258e+02
   7.187513e+01   4.773588e+02
  -2.110007e+02   2.599133e+02
  -2.386107e+02  -2.245027e+02
   1.539574e+02  -4.956620e+02
   4.031532e+02   7.550839e+01
   3.031910e+02   6.458623e+02
  -3.636823e+02   7.487107e+02
  -6.173654e+02  -8.251757e-01
  -2.223446e+02  -6.174146e+02
   3.001584e+02  -3.392664e+02
   3.191615e+02   3.659096e+02
  -5.626352e+01   5.363097e+02
  -5.126260e+02   1.384129e+02
  -4.829402e+02  -3.761979e+02
  -2.013850e+02  -6.056300e+02
   4.184272e+02  -2.943255e+02
   5.850685e+02   7.899584e+01
   3.586616e+02   3.003846e+02
  -1.788760e+02   3.845025e+02
  -4.324292e+02   5.633939e+01
  -2.244766e+02  -2.018356e+02
   1.113479e+02  -1.565611e+02
   1.507568e+02   1.336304e+02
  -1.854513e+02   2.172206e+02
  -3.410989e+02  -8.980008e+01
  -1.378810e+02  -3.290772e+02
   2.567191e+02  -2.536324e+02
   3.349292e+02  -4.763079e+00
   1.688682e+02   1.043646e+02
   1.633085e+01   1.740499e+02
  -2.115592e+02   2.721008e+02
  -3.302671e+02   2.133564e+02
  -2.937386e+02  -8.735922e+01
  -4.622888e+01  -3.953210e+02
   1.681198e+02  -3.644873e+02
   1.348860e+02  -1.003965e+02
   2.612523e+01   1.997051e+01
   4.608101e+01  -4.503500e+01
   2.115980e+02  -1.399588e+02
   2.376493e+02   5.364069e+01
   1.981858e+02   2.399861e+02
  -3.917085e+01   2.357613e+02
  -2.095454e+02   9.460523e+00
  -1.992487e+02  -2.205407e+02
   2.739484e+01  -2.510474e+02
   2.253521e+02  -1.040518e+02
   3.009322e+02   7.826849e+01
   2.059639e+02   3.554871e+02
  -1.127653e+02   2.897816e+02
  -2.546540e+02   1.210585e+02
  -1.079886e+02  -2.643318e+01
  -8.708047e+01   1.105520e+01
  -2.348136e+02   6.306133e+01
  -3.236719e+02  -3.655923e+01
  -3.672653e+02  -2.644923e+02
   4.559210e+01  -3.805836e+02
   3.213508e+02  -4.493170e+02
   4.273058e+02  -1.165838e+02
   3.396092e+02   1.393430e+02
   4.121423e+01   3.159325e+02
  -1.566458e+02   2.856981e+02
  -9.275153e+01   5.652348e+01
   1.037708e+02  -1.290658e+02
   2.168853e+02  -5.907148e+00
   5.108440e+01   1.815569e+02
  -1.519111e+02   1.452261e+02
  -1.742064e+02  -6.733288e+01
   1.171442e+01  -2.021438e+02
   1.747278e+02  -1.751964e+01
   1.481908e+02   2.998109e+02
  -6.362327e+01   3.341716e+02
  -2.338676e+02   2.036239e+02
  -2.848482e+02  -5.583588e+01
  -2.342976e+02  -1.970831e+02
  -5.835801e+01  -2.435554e+02
   1.193095e+02  -9.464205e+01
   1.928099e+02  -3.843717e+01
   5.759324e+01   2.070565e+01
  -6.484134e+01  -4.356445e+01
  -4.126026e+01  -1.174903e+02
   1.129800e+02  -9.799193e+01
   1.875637e+02   1.357449e+01
   7.035650e+01   7.319148e+01
  -8.019457e+01   3.157039e+01
  -6.685772e+01  -8.655733e+01
   1.096681e+02  -3.646802e+01
   2.344410e+02  -2.324771e+01
   2.623862e+02   1.194714e+02
   5.769085e+01   2.462202e+02
  -2.351849e+02   2.507969e+02
  -2.949454e+02   1.314456e+02
  -1.398048e+02  -5.302903e+01
   5.201353e+00  -1.122814e+02
   8.866663e+01   1.038133e+01
  -3.552751e+01   8.917211e+01
  -1.850513e+02   8.122407e+01
  -1.966213e+02  -9.775598e+01
  -5.019491e+01  -2.143386e+02
   9.859527e+01  -1.539738e+02
   1.356311e+02  -8.040773e+00
   5.101547e+01   5.040371e+01
  -3.223904e+01   6.959875e+00
  -2.741771e+01  -5.933717e+01
   8.253782e+01  -8.806988e+01
   1.339185e+02  -2.418148e+01
   1.807182e+02   7.364881e+01
   3.794875e+01   2.132156e+02
  -1.485672e+02   1.320015e+02
  -1.981381e+02  -2.569842e+00
  -8.359246e+01  -1.363097e+02
   4.434907e+01  -1.066601e+02
   7.077672e+01  -4.233195e+01
   1.986966e+01   4.786022e+01
   1.465260e+01   3.149847e+01
   3.289287e+01   2.816380e+01
   9.143349e+01   1.233949e+01
   7.817922e+01   9.221352e+01
  -4.162508e+01   1.820450e+02
  -1.304429e+02   1.404571e+02
  -2.370127e+02   5.222389e+01
  -1.762385e+02  -1.526233e+02
  -4.964415e+01  -2.162572e+02
   1.101075e+02  -1.616475e+02
   1.696783e+02  -3.104168e+01
   7.741301e+01   6.341983e+01
   8.446436e+00   3.088911e+01
   3.424187e+01  -2.337403e+01
   6.123036e+01  -2.765908e+01
   1.781001e+01   5.445537e+01
  -3.424463e+01   8.473786e+01
  -5.971356e+01   5.055765e+01
  -6.679873e+01  -5.794538e+01
   2.390150e+01  -5.104375e+01
   1.417635e+02  -5.149569e+01
   1.629497e+02   5.077915e+01
   1.008360e+02   1.911338e+02
  -7.775250e+01   2.140617e+02
  -2.532012e+02   1.030104e+02
  -2.110682e+02  -1.146913e+02
  -8.650490e+01  -2.015135e+02
   4.431107e+01  -1.589717e+02
   1.087234e+02  -5.471834e+01
   6.837842e+01  -6.792482e+01
   1.015811e+02  -6.006995e+01
   7.191517e+01  -7.706371e+01
   1.188338e+02   3.095189e+01
   6.690510e+01   1.631750e+02
   7.506709e+01   2.233064e+02
  -5.606549e+01   1.622552e+02
  -1.997064e+02  -3.800469e+00
  -1.108621e+02  -9.211687e+01
  -1.950012e+00  -1.415372e+02
   8.431355e+01  -7.500803e+01
   8.185664e+01   8.842704e+00
  -8.842251e+00   3.237148e+01
  -5.885170e+00   3.429798e+01
   3.948762e+01   1.418126e+01
   8.773280e+01   3.508733e+01
   2.485079e+01   2.418709e+01
  -3.247036e+01   3.143908e+01
  -1.208230e+02   5.841822e+00
  -1.233345e+02  -3.184410e+01
  -1.987433e+01  -7.566739e+01
   1.067960e+02  -8.253526e+01
   1.269550e+02  -3.925924e+01
   6.859447e+01   2.228301e+01
  -6.187618e+01   3.380752e+01
  -6.864320e+01  -9.658378e+00
   1.350589e+01  -7.693281e+01
   7.934501e+01  -4.393933e+01
   5.189527e+01   7.519435e+00
   3.557715e+01   9.569993e+01
   5.585909e+01   3.520866e+01
   3.084706e+01   1.086938e+01
   6.018908e+01  -6.795424e+00
   2.559601e+01   7.520360e+01
  -3.487317e+01   1.141092e+02
  -9.245058e+01   1.388005e+02
  -1.464826e+02   3.512076e+00
  -1.338772e+02  -7.981594e+01
   9.477167e+00  -9.103519e+01
   9.309258e+01  -8.179341e+01
   6.468941e+01   2.163432e+01
  -8.072324e+01  -2.761156e+00
  -1.358095e+02  -4.712977e+01
  -5.465181e+01  -1.277088e+02
   8.857610e+01  -9.108409e+01
   1.423223e+02  -6.510159e+01
   1.684731e+02   6.026078e+01
   2.445011e+01   5.914837e+01
  -4.675797e+01   6.745602e+01
  -3.770855e+01  -1.176116e+01
   3.113455e+01  -3.550242e+00
   7.214220e+01   3.078330e+01
   2.056455e+01   1.224327e+02
  -8.679635e+01   1.457409e+02
  -1.825501e+02   5.382521e+01
  -1.148816e+02  -8.429554e+01
   2.543197e+01  -1.888951e+02
   9.194531e+01  -1.510202e+02
   1.192205e+02  -1.210912e+01
   7.443763e+01   9.775405e+01
   1.750473e+01   1.001161e+02
  -4.304567e+01   1.698490e+01
  -5.811427e+01  -2.835768e+01
  -2.578512e+01  -1.874428e+01
  -1.230155e+01   6.747964e+00
   2.616422e+01  -1.325496e+01
  -3.644040e+01  -1.181852e+02
  -7.041386e+01  -9.696396e+01
   2.285497e+01  -6.224152e+01
   1.267360e+02   3.607535e+01
   1.425449e+02   9.069702e+01
   3.807477e+01   6.566812e+01
  -7.459795e+01   1.766203e+01
  -9.013977e+01   2.380962e+00
  -2.001460e+01  -1.392422e+01
   1.407002e+01  -2.589018e+01
   9.831603e+00  -1.367395e+01
  -3.183947e+01  -7.667802e+00
   2.752125e+01   3.588817e+00
   5.835045e+01  -6.084388e+00
   8.058955e+01   7.488473e+00
   1.324254e+01   8.104310e+01
  -9.022221e+01   9.392451e+01
  -1.408266e+02   7.865735e+00
  -1.133511e+02  -8.892444e+01
   8.494382e+00  -1.539577e+02
   1.185998e+02  -1.723672e+02
   1.303618e+02  -4.224079e+01
   7.760172e+01   2.670671e+01
   4.528442e+01   2.110847e+01
  -9.605910e+00   4.023617e+01
   6.210579e+00  -1.730943e+01
   2.409657e+01   3.077723e+01
   9.316287e+00   7.718032e+01
  -2.951006e+01   8.139183e+01
  -9.298858e+01  -4.335532e+01
  -5.556757e+01  -1.035358e+02
   4.047693e+01  -1.155324e+02
   7.422855e+01  -1.641637e+01
   7.322264e+01   9.680548e+01
   1.607980e+01   1.020205e+02
  -7.112935e+01   4.460227e+01
  -1.048373e+02   1.450964e+01
  -5.219601e+01  -4.925320e+01
   2.893331e+01  -2.041060e+01
   4.725332e+01  -5.129952e+01
  -2.442833e+01   2.004649e+01
  -7.505081e+01  -4.293437e+00
  -1.436804e+01  -1.519251e+01
   1.123443e+02  -1.791178e+01
   8.529150e+01  -6.579658e+01
   4.056284e+01   2.930530e+01
  -1.367960e+00   8.350817e+01
  -4.598530e+01   6.925858e+01
  -3.975083e+01   7.300504e+00
   2.620107e+01  -6.287843e+01
   2.402658e+01  -1.395075e+01
   9.312644e+00   1.527400e+01
   4.880186e+01   8.078623e+01
   1.320599e+01   1.453834e+01
  -2.612013e+01  -1.497074e+01
  -4.435791e+01  -1.462667e+01
  -1.531268e+01   9.007409e+00
   2.212426e+01   6.338066e+00
  -9.013878e+00  -2.109217e+01
   6.517321e+00  -7.493974e+01
   1.477574e+01  -2.763626e+01
   5.644198e+01  -3.968568e+00
   4.707833e+01   5.698170e+01
  -9.046329e+00   4.530553e+01
  -2.562010e+01   1.972430e+01
  -5.517575e+01  -3.716747e+01
  -3.190326e+01  -6.558049e+01
   1.436037e+01  -1.272646e+01
   8.051906e+01   4.038097e+01
   3.754460e+01   5.131584e+01
  -5.250400e+01   2.323023e+01
  -7.474093e+01   2.402271e-01
  -1.952443e+01   7.096871e-01
  -3.970807e+00  -4.129883e+00
   2.734131e+01   3.977151e+01
   5.413624e-01   3.545225e+01
  -9.757535e+01   2.434907e+01
