
 $NMID
 id='ANONYMOUS ', fmtdat='(2E16.6)'
 volume=1.0
 tramp=1.0
 $END
  -4.501819e+03   5.345529e+02
  -2.295120e+03  -2.650194e+03
   6.002859e+02  -2.716124e+03
   2.111481e+03  -1.058291e+03
   1.187529e+03   4.246310e+02
  -5.059779e+02   7.232971e+02
  -7.510877e+02  -2.046003e+02
  -2.276207e+02  -1.148136e+03
   7.512724e+02  -7.284635e+02
   8.997349e+02  -9.384863e+01
   5.270831e+02   7.918333e+02
  -1.581228e+02   9.391805e+02
  -6.439944e+02   2.393801e+02
  -5.589888e+02  -6.567946e+02
   2.155464e+02  -7.143951e+02
   6.108037e+02  -2.110181e+01
   3.391319e+02   7.208909e+02
  -3.207977e+02   7.435549e+02
  -6.215118e+02   2.134320e+02
  -4.848622e+02  -3.299448e+02
  -1.444704e+02  -4.197816e+02
   1.716436e+02  -2.856385e+02
   2.206193e+02  -1.185475e+02
  -1.037613e+02   5.101661e+01
  -3.766045e+02  -6.318687e+01
  -2.013259e+02  -4.764153e+02
   4.571020e+02  -4.582509e+02
   7.557804e+02  -4.857957e+01
   4.899653e+02   5.921780e+02
  -2.910705e+02   4.910749e+02
  -7.941494e+02   9.408647e+01
  -4.019474e+02  -4.416134e+02
   2.202780e+02  -5.253603e+02
   6.112951e+02  -3.002546e+02
   4.467495e+02   2.101048e+02
   1.666326e+02   4.750610e+02
  -1.657883e+02   2.995112e+02
  -1.984716e+02  -1.668531e+02
   1.500190e+02  -4.130742e+02
   4.307467e+02   5.231814e+01
   3.251770e+02   7.284044e+02
  -9.983926e+01   7.122080e+02
  -5.683270e+02   1.793625e+02
  -4.123070e+02  -3.635859e+02
   2.603640e+02  -3.630318e+02
   3.699032e+02   3.159645e+02
  -5.562701e+01   5.921778e+02
  -5.950687e+02   1.606898e+02
  -6.457064e+02  -4.126299e+02
  -1.118457e+02  -5.870807e+02
   4.165021e+02  -3.963563e+02
   6.477066e+02  -1.087886e+01
   4.174930e+02   3.681972e+02
  -7.760584e+01   3.305152e+02
  -3.720531e+02   1.428705e+02
  -3.106709e+02  -1.937784e+02
   4.751957e+01  -9.194892e+01
   1.536611e+02   1.210073e+02
  -1.045523e+02   1.962199e+02
  -3.817033e+02   2.077069e+01
  -1.612453e+02  -3.311580e+02
   1.714135e+02  -2.778874e+02
   3.728786e+02  -5.835850e+01
   1.999010e+02   1.291691e+02
  -1.775283e+01   2.241266e+02
  -2.494786e+02   3.125141e+02
  -3.076004e+02   2.100841e+02
  -2.780091e+02  -8.458418e+01
  -1.029031e+02  -4.584830e+02
   9.828020e+00  -3.320080e+02
   1.166647e+02  -1.934997e+02
   4.981653e+01   2.816157e+00
   5.618802e+01  -8.018683e+01
   1.484694e+02  -1.896973e+02
   2.470909e+02   9.004179e+01
   1.661891e+02   2.817459e+02
  -5.912642e+01   2.891407e+02
  -2.108954e+02   2.658440e+01
  -2.357276e+02  -1.740832e+02
  -1.536719e+01  -2.843609e+02
   2.112416e+02  -1.557254e+02
   3.893598e+02   1.527790e+02
   1.919232e+02   3.485650e+02
  -8.232250e+01   3.461542e+02
  -2.266676e+02   1.533482e+02
  -1.933925e+02   6.277578e+00
  -9.092003e+01   5.520207e+01
  -2.169218e+02   8.823744e+01
  -4.162607e+02  -3.416074e+01
  -3.858420e+02  -3.124574e+02
  -6.259225e+01  -4.087129e+02
   3.820332e+02  -4.242388e+02
   4.437007e+02  -2.445995e+02
   3.804652e+02   1.345534e+02
   3.893597e+01   2.394748e+02
  -1.294672e+02   2.455502e+02
  -7.414055e+01   2.567235e+01
   1.146085e+02  -1.090255e+02
   1.698647e+02  -3.365988e+01
   3.631278e+01   1.746540e+02
  -1.780305e+02   1.969707e+02
  -1.323727e+02   1.060576e+01
  -1.027256e+01  -1.967319e+02
   1.773172e+02  -4.258969e+01
   1.831098e+02   2.462021e+02
   3.995587e+01   3.856898e+02
  -2.168963e+02   2.597997e+02
  -3.347620e+02  -6.237495e+00
  -2.809195e+02  -2.140933e+02
  -1.319082e+02  -2.733017e+02
   1.275203e+02  -1.513055e+02
   1.767958e+02  -3.307953e+01
   5.690521e+01   1.536168e+01
  -7.294750e+01  -5.744227e+01
  -3.869311e+01  -9.742389e+01
   1.348644e+02  -1.354658e+02
   1.608452e+02   1.097651e+00
   8.419498e+01   7.302213e+01
  -8.841440e+01   6.545400e+00
  -4.041038e+01  -4.684661e+01
   1.513848e+02  -4.879319e+01
   3.038537e+02   5.659549e+01
   2.776289e+02   1.337592e+02
   4.488374e+01   2.723224e+02
  -1.324726e+02   2.320218e+02
  -3.215707e+02   9.170535e+01
  -1.695045e+02  -2.593066e+01
   1.577591e+01  -1.230182e+02
   8.616297e+01  -2.361178e+01
  -5.486631e+01   9.720779e+01
  -1.836303e+02   6.343050e+01
  -2.455130e+02  -8.738229e+01
  -1.061201e+02  -2.162796e+02
   5.448057e+01  -1.440073e+02
   1.432369e+02  -5.161760e+01
   6.888449e+01   7.150261e+00
  -3.325481e+01   4.041245e+00
  -4.661736e+01  -6.875790e+01
   9.203761e+01  -1.223020e+02
   1.742213e+02  -3.393383e+01
   1.951443e+02   1.019922e+02
   2.743862e+01   2.299901e+02
  -1.494322e+02   1.582118e+02
  -2.087580e+02   1.011366e+01
  -7.136013e+01  -1.200153e+02
   8.962124e+01  -1.125388e+02
   8.563160e+01  -2.947700e+01
   6.038180e+01   2.072318e+01
  -5.709385e+00   4.094962e+01
   1.573249e+00  -6.216400e+00
   7.835797e+01  -2.843685e+01
   1.241065e+02   6.320948e+01
   3.080823e+01   1.951633e+02
  -9.892963e+01   1.326913e+02
  -2.503592e+02   3.800259e+01
  -2.121372e+02  -1.800748e+02
  -3.576666e+01  -2.352194e+02
   1.085884e+02  -2.047954e+02
   1.547571e+02  -3.695374e+01
   7.126371e+01   8.218435e+01
   6.824163e+01   4.195012e+01
   8.320088e+01   8.318396e+00
   7.934073e+01  -7.641438e+00
   6.190665e+01   2.222547e+01
  -7.214543e+01   1.017625e+02
  -1.285795e+02   3.122853e+01
  -9.753104e+01  -4.135083e+01
  -2.568962e+01  -1.199734e+02
   1.092209e+02  -1.184200e+02
   2.112542e+02   7.016934e+01
   1.078368e+02   1.807379e+02
  -8.789691e+01   2.395485e+02
  -2.690658e+02   1.144949e+02
  -2.870453e+02  -7.748155e+01
  -1.239497e+02  -1.690470e+02
   2.861445e+01  -1.792775e+02
   1.195322e+02  -9.655272e+01
   1.009599e+02  -7.501986e+01
   4.647112e+01  -1.320362e+02
   9.288216e+01  -1.052506e+02
   9.117266e+01  -9.468739e+00
   1.225765e+02   1.736824e+02
   7.398387e+01   2.280792e+02
  -1.031133e+02   2.129144e+02
  -1.977669e+02   3.621638e+01
  -1.185310e+02  -1.058296e+02
  -7.416985e+01  -1.428151e+02
   6.165797e+01  -8.478908e+01
   5.409135e+01  -3.676812e+00
   4.893548e+00   6.323631e+01
   3.013764e+01   1.744521e+01
   4.388127e+01   1.836380e+01
   9.735396e+01   1.861993e+01
   4.235166e+01   4.319994e+01
  -5.076849e+01   1.313174e+01
  -1.754323e+02   1.288585e+01
  -1.323262e+02  -5.733905e+01
  -2.095163e+01  -7.407884e+01
   1.260920e+02  -7.624128e+01
   1.328538e+02  -2.350770e+00
   5.023707e+01   3.981977e+01
  -7.816636e+01   1.393395e+00
  -6.282116e+01  -2.189200e+01
  -2.272480e+01  -8.035757e+01
   7.706254e+01  -6.458904e+01
   4.229313e+01   2.588542e+01
   7.033205e+01   5.288291e+01
   4.948726e+01   4.671040e+01
   7.153322e+01  -3.311444e+00
   6.229324e+01   9.916508e+00
   2.358948e+01   9.698270e+01
  -5.014713e+01   1.531770e+02
  -7.507837e+01   1.469188e+02
  -1.527579e+02   2.850337e+01
  -1.391852e+02  -8.267549e+01
   2.852263e+00  -9.446605e+01
   7.934528e+01  -5.755847e+01
   6.736767e+01  -3.413115e+01
  -6.251925e+01   2.084866e+01
  -1.530863e+02  -7.515577e+00
  -7.222686e+01  -1.227743e+02
   6.922892e+01  -1.452043e+02
   1.617295e+02  -7.614800e+01
   1.525335e+02  -3.125727e+00
   4.346908e+01   8.748463e+01
  -2.729711e+01   7.198725e+01
  -4.853046e+01  -6.527372e+00
   2.151339e+01  -5.379207e+01
   1.030421e+02   2.135003e+01
   3.392674e+01   1.140257e+02
  -4.503323e+01   1.482668e+02
  -1.581753e+02   7.552271e+01
  -1.592879e+02  -1.605800e+02
   2.858786e+00  -2.303876e+02
   8.632382e+01  -1.255181e+02
   1.357452e+02  -1.904016e+01
   8.240687e+01   1.254641e+02
   2.192165e+01   1.031466e+02
  -3.479302e+01   3.553825e+01
  -3.132647e+01  -3.471404e+01
  -1.474730e+01   2.175765e+01
  -2.065561e+01   3.336000e+01
  -2.210085e+01  -9.648778e+00
  -7.358245e+01  -1.085366e+02
  -1.431046e+01  -7.065942e+01
   5.521029e+01  -7.581469e+01
   1.856567e+02   4.324367e+01
   1.765255e+02   4.582663e+01
   3.056903e+01   4.263357e+01
  -7.159722e+01   5.442309e+01
  -8.819968e+01   9.008998e+00
   5.917324e+00  -2.121999e+00
   3.806073e+01  -2.816756e+01
   1.727739e+01   4.772341e-01
  -6.932108e+00   6.705012e+00
  -1.917302e+01   4.006197e+01
   1.061218e+02   3.784616e+01
   1.146221e+02   1.064362e+01
   4.186744e+01   1.087413e+02
  -1.033856e+02   1.212700e+02
  -1.945605e+02   6.199721e+01
  -1.507783e+02  -5.014490e+01
  -2.674127e+01  -1.914411e+02
   9.321722e+01  -1.453323e+02
   1.337245e+02  -8.705661e+01
   8.706640e+01   4.291493e+01
   2.212173e+01   5.111497e+01
   3.592253e-01   3.549129e+01
  -2.474417e+01   1.001075e+00
   3.051594e+01   7.157091e+01
  -4.991527e+00   8.266551e+01
  -1.868900e+01   1.032531e+02
  -1.059046e+02  -4.369036e+00
  -5.833132e+01  -7.007735e+01
  -4.583279e+01  -1.117270e+02
   7.141022e+01  -3.842355e+01
   1.065290e+02   8.468981e+01
   5.537081e+01   1.050425e+02
  -1.075041e+02   6.146450e+01
  -1.201647e+02   4.943668e+00
  -6.205799e+01  -3.198504e+01
   4.658903e+01  -6.339682e+01
   5.276796e+01  -4.452285e+01
  -9.550797e+00   2.356225e+01
  -7.448354e+01   2.454764e+01
  -6.458029e+00  -5.281069e+01
   7.874238e+01  -5.547239e+01
   1.059850e+02  -1.043064e+02
   5.191872e+01  -2.182886e+01
  -1.334983e+01   8.482920e+01
  -5.378684e+01   6.340983e+01
  -3.834227e+01  -1.769647e+01
  -2.579390e+01  -7.176586e+01
   9.565550e+00  -4.676665e+01
   4.729595e+01   9.999144e+00
   4.725471e+01   6.636214e+01
  -2.467364e+00   4.552575e+01
  -2.783826e+01  -2.692931e+01
  -3.339587e+01  -1.650780e+01
  -1.752293e+01   2.056839e+01
   1.563841e+01  -1.000333e+00
  -5.731150e-01   7.888980e+00
  -1.392918e+01  -1.578478e+01
   3.304017e+01  -4.182184e+01
   4.122379e+01  -1.665426e+01
   7.905316e+00   5.428292e+01
   4.094533e+00   5.766606e+01
  -4.414828e+01   2.473114e+01
  -8.703839e+01  -3.626919e+01
  -1.438055e+01  -5.964116e+01
   3.775394e+01  -2.725485e+01
   1.286268e+02   5.533141e-01
   4.614090e+01   2.533830e+01
  -2.457647e+01   2.992695e+01
  -8.890323e+01   6.738145e+00
  -1.493264e+01   1.468865e+01
   3.449777e+01  -1.609768e+01
   2.258614e+01   1.793698e+01
  -4.193014e+01   4.869920e+01
  -9.052145e+01   1.917742e+01
