
 $NMID
 id='ANONYMOUS ', fmtdat='(2E16.6)'
 volume=1.0
 tramp=1.0
 $END
  -3.102277e+03   1.289068e+02
  -1.943613e+03  -1.523695e+03
   4.757300e+01  -1.954850e+03
   1.358082e+03  -1.041747e+03
   7.726896e+02  -1.009966e+02
  -2.078987e+02   1.837960e+02
  -4.267675e+02  -8.396976e+01
   6.500863e+01  -5.695067e+02
   4.829298e+02  -6.411929e+02
   5.992748e+02  -7.769398e+01
   5.362731e+02   5.884399e+02
  -5.882375e+00   6.296854e+02
  -3.331409e+02   2.242652e+02
  -2.323005e+02  -4.195010e+02
   2.248622e+02  -5.620513e+02
   4.303617e+02   1.379842e+01
   2.568874e+02   4.914193e+02
  -1.466046e+02   5.971506e+02
  -3.933376e+02   2.287563e+02
  -3.450814e+02  -1.385655e+02
  -9.107799e+01  -3.397598e+02
   1.384054e+02  -1.852459e+02
   8.308234e+01  -4.014563e+01
  -1.564282e+02  -1.407182e+01
  -2.439451e+02  -1.529764e+02
  -4.558948e+01  -3.596483e+02
   4.259457e+02  -2.248109e+02
   6.612618e+02   1.577623e+02
   2.219979e+02   4.811769e+02
  -2.925174e+02   2.280885e+02
  -5.476965e+02  -1.020170e+02
  -1.801797e+02  -4.365051e+02
   2.665995e+02  -3.793552e+02
   4.324853e+02  -9.468263e+01
   3.659640e+02   1.815996e+02
   5.457083e+01   2.931381e+02
  -4.719505e+01   2.015954e+02
   2.574879e+01  -1.148578e+02
   1.840978e+02  -2.238423e+02
   2.851816e+02   1.122958e+02
   3.170943e+01   4.891603e+02
  -1.946663e+02   4.114149e+02
  -2.880562e+02  -5.854750e+00
  -1.429493e+02  -2.921960e+02
   2.267524e+02  -1.157965e+02
   2.044267e+02   3.691856e+02
  -1.339703e+02   4.071037e+02
  -3.990310e+02   6.234533e+01
  -5.288350e+02  -3.506453e+02
  -1.822819e+02  -5.013112e+02
   2.764677e+02  -2.771981e+02
   4.870297e+02   2.013521e+01
   3.090897e+02   3.367679e+02
  -5.693406e+01   2.106542e+02
  -2.510503e+02   8.500444e+01
  -1.915460e+02  -5.887977e+01
   5.081047e+00  -2.916878e+01
   5.158633e+01   1.361590e+02
  -1.506994e+02   6.208484e+01
  -2.346642e+02  -3.911098e+01
  -1.094667e+02  -1.558113e+02
   1.129791e+02  -2.084847e+02
   2.591659e+02  -9.997454e+01
   2.338500e+02   9.328614e+01
   1.626964e+01   2.576496e+02
  -2.007376e+02   3.593464e+02
  -3.088309e+02   2.219183e+02
  -2.114198e+02  -1.619739e+02
  -6.973435e+01  -3.467368e+02
   5.496645e+00  -2.957305e+02
   8.405886e+00  -1.541607e+02
   1.544555e+01  -7.190176e+01
   1.057325e+02  -1.197920e+02
   2.155889e+02  -9.298932e+01
   2.424204e+02   1.191398e+02
   1.448656e+02   2.328868e+02
  -9.468151e+01   2.286925e+02
  -2.063227e+02  -4.969697e+01
  -1.720286e+02  -2.460374e+02
   5.286771e+01  -2.370307e+02
   2.031258e+02  -8.925332e+01
   2.954055e+02   1.009064e+02
   2.106829e+02   2.618077e+02
  -4.450407e+01   2.836426e+02
  -1.200156e+02   1.572222e+02
  -1.115502e+02   4.719588e+01
  -1.065212e+02   3.455607e+01
  -2.391082e+02   4.117214e+01
  -3.325258e+02  -7.913383e+00
  -3.481494e+02  -2.200017e+02
   3.773934e+00  -4.477361e+02
   3.406746e+02  -3.907244e+02
   4.580902e+02  -2.121763e+02
   2.568489e+02   1.068532e+02
   4.256780e+01   2.724358e+02
  -1.068969e+02   1.742355e+02
  -2.591231e+01   4.795260e+01
   1.126442e+02  -3.028967e+01
   1.758416e+02   6.567662e+01
  -2.426597e+00   1.539835e+02
  -1.458662e+02   1.118060e+02
  -1.396476e+02  -5.745875e+01
   8.624325e+00  -1.322281e+02
   1.546760e+02  -1.330236e+01
   1.867772e+02   1.700265e+02
   2.987742e+00   2.943124e+02
  -1.664983e+02   2.257676e+02
  -3.325090e+02  -3.133217e+01
  -2.725367e+02  -2.299394e+02
  -8.690460e+01  -2.687168e+02
   1.216758e+02  -1.429401e+02
   1.497631e+02   1.359079e+00
   2.020582e+01   1.148261e+01
  -4.510070e+01  -6.894274e+01
  -1.241343e+01  -1.046663e+02
   1.163888e+02  -5.302085e+01
   1.391704e+02  -1.729565e+00
   3.973889e+01   6.836739e+01
  -7.080574e+01   1.182361e+00
  -4.020732e+01  -5.984933e+01
   1.403387e+02  -8.968227e+01
   2.776089e+02   9.745383e+00
   2.502997e+02   1.333700e+02
   4.856067e+01   2.531777e+02
  -1.954810e+02   2.628779e+02
  -2.506987e+02   7.711500e+01
  -1.492235e+02  -5.691189e+01
   2.629108e+01  -5.261328e+01
   6.336791e+01   2.397863e+00
  -2.944697e+01   9.942468e+01
  -1.745186e+02   6.108734e+01
  -1.675504e+02  -8.205054e+01
  -7.315992e+01  -1.764049e+02
   1.032458e+02  -1.311312e+02
   1.205693e+02  -4.180509e+01
   3.905392e+01   5.962976e+01
  -3.513444e+01   6.353604e-01
  -3.506846e+01  -1.056616e+02
   8.559388e+01  -1.320056e+02
   1.940895e+02  -2.977452e+01
   1.876006e+02   9.220673e+01
   1.392719e+01   1.958325e+02
  -1.448929e+02   1.422445e+02
  -1.411800e+02   7.425970e-01
  -5.656862e+01  -9.418895e+01
   4.503851e+01  -1.010015e+02
   6.083377e+01   8.529699e+00
   9.622384e+00   2.622469e+01
  -1.292199e+01   1.328706e+01
   6.403158e+00  -1.575734e+01
   1.079895e+02   1.467079e+01
   1.012200e+02   6.913433e+01
   3.636582e+00   1.473289e+02
  -1.164761e+02   1.910424e+02
  -1.771307e+02   5.205099e+01
  -1.606890e+02  -1.733053e+02
  -6.456381e+01  -2.084358e+02
   1.105414e+02  -1.418496e+02
   9.885394e+01  -3.196085e+01
   7.457540e+01   2.248679e+01
   1.437030e+00   2.731575e+01
   5.006809e+01  -2.134378e+01
   1.049982e+02  -2.369301e+01
   5.175925e+01   4.293763e+01
  -2.930387e+01   1.114262e+02
  -1.124278e+02   4.110297e+01
  -9.929384e+01  -3.332436e+01
  -3.445567e+01  -1.089014e+02
   1.059195e+02  -1.108374e+02
   2.115374e+02   5.360851e+01
   1.164406e+02   2.177986e+02
  -9.283486e+01   2.074305e+02
  -2.405286e+02   4.791880e+01
  -2.034025e+02  -1.004412e+02
  -7.786104e+01  -1.657315e+02
   2.783051e+01  -1.118386e+02
   6.888304e+01  -9.833968e+01
   7.213647e+01  -4.868926e+01
   1.494983e+01  -1.171398e+02
   9.878913e+01  -6.049944e+01
   1.163800e+02   1.603140e+01
   1.286862e+02   1.578284e+02
  -3.062878e-01   1.648695e+02
  -9.882812e+01   1.837229e+02
  -1.506447e+02   1.910400e+01
  -1.238480e+02  -9.612828e+01
  -2.162331e+01  -1.417830e+02
   7.586628e+01  -9.623773e+01
   5.026898e+01  -2.474446e+01
  -1.003937e+01   2.690738e+01
  -3.659239e+01   4.310485e+01
   4.745065e+01   2.071691e-01
   9.576817e+01   2.705219e+01
   3.698544e+01   3.438347e+01
  -5.660855e+01   5.207855e+01
  -1.284108e+02   1.569804e+01
  -1.329049e+02  -3.707565e+01
  -9.214882e-01  -8.344399e+01
   1.319511e+02  -5.113631e+01
   1.459272e+02   8.253833e+00
   4.306764e+01   5.780347e+01
  -5.350414e+01   3.999944e+01
  -6.571169e+01  -4.184144e+00
  -2.818515e+01  -6.194321e+01
   4.193631e+01  -4.801593e+01
   7.924887e+01   7.751060e+00
   2.097838e+01   1.546885e+01
   4.974751e+01   2.199337e+01
   6.857836e+01  -8.247979e+00
   5.045881e+01  -2.636414e+01
   2.906670e+01   6.181481e+01
  -5.840239e+01   1.177843e+02
  -9.258488e+01   1.410083e+02
  -1.557549e+02   2.174265e+00
  -1.163489e+02  -8.427755e+01
  -3.904120e+01  -1.114286e+02
   7.951828e+01  -7.821448e+01
   6.355269e+01   2.548205e+01
  -5.283090e+01   5.094960e+01
  -1.505295e+02  -2.197347e+01
  -6.755585e+01  -9.074096e+01
   1.027141e+02  -1.176129e+02
   2.097853e+02  -7.232118e+01
   1.324800e+02   3.238921e+01
   5.741892e+01   5.365943e+01
  -4.906359e+01   5.759079e+01
  -5.503692e+01   1.858947e+01
   2.890753e+01  -1.121988e+01
   6.275976e+01   6.216439e+00
   1.826023e+01   1.072146e+02
  -1.902891e+01   1.253725e+02
  -1.300758e+02   8.091179e+01
  -1.051446e+02  -5.017123e+01
  -3.936978e+01  -1.527325e+02
   6.020804e+01  -9.957042e+01
   1.098280e+02  -1.497363e+01
   7.550118e+01   9.486260e+01
   6.720253e+00   8.451117e+01
  -5.159684e+01   9.826719e+00
  -6.456268e+01  -3.036597e+00
  -2.513075e+01   2.198313e+00
   5.310062e+01   1.695787e+01
  -4.333924e+01  -1.476060e+01
  -6.841028e+01  -7.702687e+01
  -3.178692e+01  -9.369277e+01
   6.271043e+01  -2.765362e+01
   1.047159e+02   3.151376e+01
   1.361039e+02   6.866098e+01
   1.519547e+01   2.611722e+01
  -7.132394e+01   5.093066e+01
  -7.468702e+01   1.609915e+01
  -2.128742e+01  -7.374861e+00
   1.828916e+01  -3.078304e+01
   2.289401e+01  -2.322196e+01
  -1.859197e+01  -1.215506e-01
  -1.681600e+00   1.236734e+01
   6.135728e+01  -1.473556e+01
   8.575225e+01   9.238776e+00
   3.097342e+01   4.082931e+01
  -5.552549e+01   1.281957e+02
  -1.710399e+02   8.104331e+01
  -1.229970e+02  -2.348714e+01
  -5.680384e+01  -1.403890e+02
   4.657058e+01  -1.655053e+02
   1.068264e+02  -4.555880e+01
   9.027492e+01   2.160012e+00
   5.179252e+01   2.507751e+01
  -2.610415e-01   1.817082e+01
   2.411327e+01   2.513225e+00
   4.820465e+01   3.518596e+01
   2.670176e+01   6.681304e+01
  -2.677880e+01   5.259717e+01
  -9.033743e+01   2.323100e+01
  -4.853473e+01  -9.252284e+01
   3.450911e+01  -1.125725e+02
   7.810094e+01  -2.278727e+01
   6.843865e+01   1.885219e+01
   5.176950e+01   7.831723e+01
  -5.488304e+01   4.087702e+01
  -1.140622e+02  -2.677638e-01
  -1.692060e+01  -5.096465e+01
   4.456302e+01  -2.972473e+01
   4.687220e+01  -4.347119e+01
  -3.965106e+01   9.794373e+00
  -5.990694e+01   3.543225e+01
  -5.768734e+01  -9.459654e-01
   7.967112e+01  -6.792955e+01
   1.066307e+02  -8.034226e+01
   6.719476e+01  -9.535208e-01
  -9.144097e+00   8.718227e+01
  -5.517368e+01   8.207468e+01
  -3.258749e+01  -2.047186e+00
  -1.613154e+00  -4.336618e+01
   2.347735e+01  -1.841043e+01
   2.691055e+01   1.272715e+01
   2.549499e+01   8.279748e+01
   2.686199e+01   6.102777e+01
  -1.287729e+01   1.836045e+01
  -3.290323e+01  -4.827723e+01
  -3.348382e+01  -2.143024e+01
  -1.705383e+01   1.884366e+01
   1.271469e+01  -7.631562e+00
  -4.201209e+00  -2.930651e+01
   1.388210e+01  -5.312212e+01
   1.638544e+01  -9.792280e+00
   2.173008e+01   3.780300e+01
   1.106868e+01   4.433920e+01
  -3.874502e+01   1.849300e+01
  -4.530330e+01  -3.125573e+01
  -1.930801e+01  -4.888359e+01
   6.548600e+01  -7.440619e+01
   7.419609e+01   1.609394e+01
   4.279534e+01   5.909090e+01
  -1.488067e+01   4.192931e+01
  -7.514194e+01  -2.767534e+01
  -1.092639e+01   1.218889e+01
   5.783188e+01   9.659061e-01
   3.892723e+01  -7.274121e-01
  -4.274975e+01   3.135723e+01
  -8.212718e+01   3.633349e+01
