
 $NMID
 id='ANONYMOUS ', fmtdat='(2E16.6)'
 volume=1.0
 tramp=1.0
 $END
   4.211065e+03  -4.477367e+02
   2.189630e+03   2.298278e+03
  -6.266214e+02   2.278747e+03
  -1.869620e+03   7.169334e+02
  -8.362914e+02  -6.693982e+02
   6.023332e+02  -5.474088e+02
   8.615198e+02   3.663485e+02
   3.773162e+01   9.340026e+02
  -5.748424e+02   6.893116e+02
  -7.572201e+02  -5.282474e+01
  -3.782610e+02  -6.510658e+02
   2.619851e+02  -7.885892e+02
   5.776378e+02  -1.219173e+02
   4.024819e+02   6.067931e+02
  -1.641596e+02   7.078592e+02
  -5.165716e+02   2.692757e+01
  -2.565613e+02  -6.170533e+02
   2.164341e+02  -5.042959e+02
   5.977429e+02   4.996403e+00
   3.328089e+02   3.512530e+02
   1.062113e+00   3.664331e+02
  -2.724176e+02   2.147937e+02
  -1.873871e+02   2.649519e+01
   9.091014e+01  -1.105440e+02
   3.610246e+02   4.346207e+01
   2.004235e+02   3.261604e+02
  -3.020811e+02   4.594309e+02
  -7.662835e+02   7.074787e+00
  -3.461144e+02  -4.384173e+02
   3.852533e+02  -4.442845e+02
   6.474123e+02  -8.633100e+01
   2.971773e+02   4.164390e+02
  -2.625592e+02   4.892696e+02
  -5.415573e+02   2.576378e+02
  -3.246918e+02  -1.636183e+02
  -6.771597e+01  -4.065246e+02
   1.736831e+02  -2.200382e+02
   1.873425e+02   1.720172e+02
  -1.396849e+02   4.283300e+02
  -3.640461e+02  -2.652435e+01
  -2.395863e+02  -5.811577e+02
   2.874209e+02  -6.719594e+02
   5.851950e+02  -3.011765e+01
   2.543631e+02   4.886132e+02
  -2.088952e+02   3.198130e+02
  -2.881352e+02  -3.325405e+02
   4.853057e+01  -4.526168e+02
   4.693972e+02  -1.566803e+02
   4.361071e+02   3.389149e+02
   1.686055e+02   4.729297e+02
  -3.311876e+02   2.797448e+02
  -5.366396e+02  -6.410744e+01
  -3.496360e+02  -2.557999e+02
   1.089555e+02  -3.900120e+02
   3.955934e+02  -1.287547e+02
   1.975698e+02   1.715842e+02
  -1.355383e+02   1.304003e+02
  -1.424288e+02  -1.419941e+02
   1.368491e+02  -1.862175e+02
   3.126659e+02   3.344509e+01
   1.140500e+02   2.499908e+02
  -2.453051e+02   2.419797e+02
  -3.012555e+02   1.619021e+01
  -1.572190e+02  -7.669851e+01
   4.122485e+01  -1.230948e+02
   1.242281e+02  -2.517616e+02
   2.548623e+02  -1.923355e+02
   2.881978e+02   9.000474e+01
   5.128702e+01   3.886011e+02
  -1.177900e+02   2.938613e+02
  -8.443403e+01   8.660037e+01
  -2.476095e+00  -1.412816e+00
  -2.423190e+01   6.111306e+01
  -1.297993e+02   1.113622e+02
  -2.054547e+02  -3.694003e+01
  -1.573049e+02  -1.998146e+02
   3.109942e+01  -2.459896e+02
   1.644958e+02  -3.895940e+00
   1.783670e+02   2.070465e+02
  -2.987459e+01   2.425450e+02
  -1.586773e+02   1.041424e+02
  -2.552396e+02  -8.447120e+01
  -1.749143e+02  -2.686531e+02
   1.090853e+02  -2.467479e+02
   1.960536e+02  -5.955910e+01
   1.284110e+02  -1.672222e+00
   3.896091e+01  -3.749908e+01
   1.838033e+02  -4.566183e+01
   3.387819e+02   2.441120e+01
   2.949877e+02   2.090155e+02
   2.151445e+01   3.362525e+02
  -2.488823e+02   3.411750e+02
  -4.008785e+02   1.278327e+02
  -3.105694e+02  -8.141879e+01
  -4.242846e+01  -2.538002e+02
   1.436246e+02  -2.373578e+02
   7.675392e+01  -4.754640e+01
  -7.918586e+01   8.365589e+01
  -1.939168e+02   5.749788e+00
  -4.833756e+01  -1.592834e+02
   1.289472e+02  -1.393586e+02
   1.520766e+02   5.552867e+01
   5.779338e+00   1.813825e+02
  -1.353151e+02   1.609550e+01
  -1.376631e+02  -2.130236e+02
   7.214270e+01  -3.088790e+02
   1.419458e+02  -1.643720e+02
   2.671937e+02   4.785675e+01
   2.127036e+02   1.161637e+02
   8.379685e+01   2.306798e+02
  -9.211318e+01   1.371221e+02
  -1.302635e+02   3.992526e+01
  -5.375790e+01  -4.907744e+01
   6.032475e+01   1.410313e+01
   3.867010e+01   7.035979e+01
  -1.103979e+02   8.285437e+01
  -1.634624e+02  -4.616549e+00
  -4.337311e+01  -5.348128e+01
   5.218106e+01  -4.497904e+01
   7.186044e+01   7.611515e+01
  -9.533172e+01   1.034316e+02
  -2.115797e+02  -2.312251e+01
  -2.363858e+02  -1.005318e+02
  -6.011972e+01  -1.931142e+02
   1.250218e+02  -2.289829e+02
   2.427097e+02  -6.705427e+01
   1.392525e+02   4.348249e+01
  -8.399320e+00   7.055988e+01
  -4.852407e+01   3.110469e+01
   6.475597e+00  -8.489357e+01
   1.593962e+02  -8.536669e+01
   1.744257e+02   8.045515e+01
   5.783331e+01   1.815813e+02
  -7.825989e+01   1.315920e+02
  -9.584606e+01   6.196153e+01
  -5.800242e+01  -1.994826e+01
   2.103394e+01  -1.731433e+01
   3.535054e+01   7.702715e+01
  -5.915811e+01   8.264390e+01
  -1.391768e+02   5.355155e+00
  -1.387568e+02  -6.366187e+01
  -5.217147e+01  -1.987141e+02
   7.622246e+01  -1.817734e+02
   1.888152e+02   3.321460e+00
   6.061336e+01   9.415464e+01
  -4.533701e+01   1.033396e+02
  -6.997677e+01   3.031974e+01
  -1.523549e+01  -4.457772e+01
  -1.449666e+01  -3.794505e+01
  -1.805942e+01   3.738338e+00
  -8.317888e+01  -3.541137e+00
  -7.377693e+01  -3.256488e+01
   2.261043e+01  -1.343464e+02
   1.156062e+02  -9.777014e+01
   2.025168e+02  -3.995434e+01
   1.417025e+02   1.241683e+02
   4.923267e+01   1.430465e+02
  -8.097568e+01   1.360547e+02
  -1.449464e+02  -8.619511e+00
  -6.768578e+01  -5.083025e+01
  -2.805857e+01  -3.596900e+01
  -3.855084e+01   7.513698e+00
  -9.665322e+01   3.063052e+01
  -3.469857e+01  -2.454946e+01
   2.391193e+00  -6.307509e+01
   7.898416e+01  -2.916827e+01
   5.648658e+01   3.485241e+01
  -6.666458e+00   7.896198e+01
  -9.362076e+01   9.029477e+01
  -1.581293e+02  -4.569760e+01
  -1.045175e+02  -1.621103e+02
   7.545874e+01  -1.694645e+02
   2.397765e+02  -7.449803e+01
   2.060740e+02   9.500236e+01
   9.785835e+01   1.564259e+02
  -3.188720e+01   1.224453e+02
  -1.201287e+02   7.022446e+01
  -5.567573e+01   7.063215e+01
  -8.227222e+01   8.376617e+01
  -9.946942e+01   5.992228e+01
  -8.785960e+01  -2.076464e+01
  -1.003711e+02  -1.377608e+02
  -4.220533e+01  -1.768821e+02
   6.522688e+01  -1.172931e+02
   1.718340e+02   1.535701e-01
   1.065341e+02   1.096863e+02
   1.676285e+01   1.118800e+02
  -4.439350e+01   8.693227e+01
  -5.711251e+01  -7.354995e+00
  -1.377835e+01  -3.272451e+01
   2.397577e+01  -5.043883e+01
  -3.781852e+01  -2.419533e+00
  -6.531162e+01  -9.134018e+00
  -2.763583e+01  -3.202987e+01
   4.036824e+01  -2.354893e+01
   1.039127e+02  -1.208135e+01
   9.979832e+01   3.823319e+01
   2.978249e+01   6.609384e+01
  -1.147283e+02   6.144033e+01
  -1.175994e+02   4.448493e+01
  -3.091694e+01  -1.973523e+01
   6.298073e+01  -5.654466e+01
   6.941808e+01   3.463001e+01
   5.180832e+00   5.012717e+01
  -4.140107e+01   7.749370e+01
  -4.187825e+01  -1.352522e+01
  -3.591121e+01  -6.014307e+01
  -5.412742e+01  -4.530512e+01
  -5.165022e+01   8.628590e-01
  -3.824609e+01   1.339657e+01
  -3.810596e+01  -6.437059e+01
   4.614627e+01  -1.012084e+02
   9.075920e+01  -8.747786e+01
   1.101848e+02  -7.390756e+00
   1.020351e+02   9.948335e+01
   2.133772e+01   7.392361e+01
  -6.765871e+01   5.272224e+01
  -3.985700e+01   3.530493e+00
   6.696378e+01  -1.878905e+01
   1.253628e+02   6.870027e+01
   7.700032e+01   9.752128e+01
  -8.831520e+01   6.470804e+01
  -1.736606e+02   5.004086e+01
  -1.001253e+02  -2.928238e+01
  -3.774399e+01  -6.533136e+01
   4.542705e+01  -6.766179e+01
   4.401118e+00   6.903435e+00
  -3.954063e+01   1.205961e+01
  -6.473227e+01  -5.063271e+01
  -5.448839e+01  -1.486365e+02
   4.873223e+01  -9.860460e+01
   1.044295e+02  -9.128815e+01
   1.516699e+02   6.580897e+01
   1.391382e+01   1.523381e+02
  -4.988438e+01   1.137257e+02
  -7.495795e+01   2.575631e+01
  -5.120620e+01  -9.579278e+01
  -3.083043e+01  -8.177550e+01
   2.552641e+01  -9.130542e+00
   6.095522e+01   2.296751e+01
   6.753295e+00   2.737094e+00
   1.258943e+01  -2.430380e+01
   8.377184e-01   2.679438e+01
   3.826954e+01   1.175436e+02
   3.565604e+01   6.648460e+01
  -2.385318e+01   2.409303e+01
  -1.053970e+02  -9.728453e+00
  -9.812547e+01  -8.066106e+01
  -8.319797e-01  -5.048560e+01
   9.091622e+01  -1.079448e+01
   5.425771e+01  -3.182453e+01
   1.323912e+01  -1.800324e+01
  -1.829485e+01   7.478087e+00
   2.375880e+00   2.402152e+01
   4.648583e+01   2.739798e+01
  -1.857382e+01  -1.373618e+01
  -3.588566e+01   3.299354e+00
  -5.767118e+01  -6.202359e+01
   1.570774e+00  -7.944026e+01
   1.081631e+02  -7.615435e+01
   1.141527e+02  -4.711979e+01
   1.187049e+02   8.554842e+01
   5.938519e+00   1.392186e+02
  -6.640410e+01   1.336156e+02
  -1.184306e+02   7.069121e+01
  -4.838851e+01  -1.132399e+01
  -1.793584e+01  -2.895367e+01
   1.290422e+01  -1.536173e+01
   1.911308e+01   2.715251e+01
  -6.346127e+01  -9.771232e+00
  -2.819712e+01  -1.085585e+02
   1.003517e+01  -6.578217e+01
   7.856880e+01   4.857294e+00
   3.716477e+01   7.790658e+01
  -1.229384e+01   1.144837e+02
  -7.672292e+01  -2.201024e+01
  -8.922855e+01  -5.997492e+01
  -3.002563e+01  -8.632363e+01
   4.593956e+01  -4.241175e+01
   1.078666e+02  -3.086571e+00
   2.608749e+01   2.255865e+01
  -2.642522e+01   5.489579e+00
  -3.701828e+01   2.094691e+01
   2.435387e+01   3.848372e+01
   5.493085e+01   1.246074e+01
   2.376141e+01   4.625587e+01
  -5.576715e+01   4.469129e+01
  -9.756672e+01   6.002099e+01
  -5.148459e+01  -2.121332e+01
  -2.394000e+01  -7.538341e+01
   4.169741e+01  -7.632768e+01
   2.970804e+01   1.697134e+01
  -3.579088e+01   5.568308e+01
  -4.827735e+00   2.516994e+01
  -3.543748e+01   9.920281e+00
   6.644581e+00  -2.073505e+01
  -1.905825e+00  -1.787573e+01
   2.508772e+01   3.195999e+00
   4.357477e+01   1.481833e+00
   9.518396e+00   6.274223e+00
  -1.030811e+01  -1.325957e-01
  -1.194739e+01  -8.234210e+00
   1.849561e+01   3.228115e+01
  -2.491760e+01   5.306727e+01
  -2.996711e+01   3.668498e+01
  -2.105541e+01  -2.218175e+01
   1.934627e+01  -3.286034e+01
   4.083110e+01  -3.192055e+01
   1.848487e+01   5.334042e+01
   4.564795e+00   6.693452e+01
  -3.995185e+01   1.093874e+01
  -5.219700e+01   1.249544e+01
  -3.454551e+01  -2.813523e+01
   2.661329e+01  -1.872482e+01
   4.753081e+01  -2.420974e+01
   2.281102e+01  -3.117108e+01
  -4.449393e+00  -1.774213e+01
  -2.920594e+01   1.127006e+01
   1.218490e+01  -5.566500e+01
   7.404008e+01  -2.529386e+01
