
 $NMID
 id='ANONYMOUS ', fmtdat='(2E16.6)'
 volume=1.0
 tramp=1.0
 $END
   2.841261e+03   3.737949e+02
   2.152444e+03   1.601449e+03
  -7.167122e+01   2.046608e+03
  -1.400436e+03   9.760385e+02
  -9.942277e+02  -9.610067e+01
   2.778790e+02  -3.202515e+02
   4.785071e+02   7.535331e+01
   9.288545e+00   6.558403e+02
  -4.558174e+02   6.300362e+02
  -7.871657e+02   1.512561e+02
  -3.951960e+02  -5.786166e+02
   6.803201e+00  -6.956828e+02
   3.635664e+02  -2.703189e+02
   3.898253e+02   4.926942e+02
  -1.033054e+02   5.966660e+02
  -3.678666e+02   7.406089e+01
  -2.345315e+02  -5.532108e+02
   2.457714e+02  -6.058420e+02
   5.526610e+02  -1.589339e+02
   4.682628e+02   3.207944e+02
   1.159755e+02   4.187290e+02
  -1.079902e+02   2.315360e+02
  -1.037178e+02   7.476405e+01
   1.508045e+02   4.708879e+01
   2.669058e+02   1.600768e+02
   3.584908e+01   3.206674e+02
  -4.075311e+02   8.020368e+01
  -5.958127e+02  -1.853683e+02
  -2.536642e+02  -4.051850e+02
   3.670368e+02  -2.735279e+02
   5.573139e+02   3.547676e+01
   2.423637e+02   4.287334e+02
  -2.661011e+02   2.794099e+02
  -4.534753e+02   1.835864e+02
  -2.594760e+02  -1.237675e+02
   2.029492e+01  -3.218923e+02
   3.442687e+01  -2.100654e+02
   6.185289e+01   5.893762e+01
  -2.154004e+02   2.247024e+02
  -2.849619e+02  -1.597661e+02
   3.583095e+01  -4.617960e+02
   2.176250e+02  -4.343939e+02
   4.421223e+02  -6.750205e+01
   1.897654e+02   3.619482e+02
  -1.514697e+02   1.234747e+02
  -2.269751e+02  -2.538399e+02
   4.211512e+01  -4.480030e+02
   4.020029e+02  -6.883001e+00
   3.833183e+02   2.916543e+02
   8.132056e+01   4.376778e+02
  -2.712151e+02   1.758942e+02
  -5.264301e+02  -7.866450e+01
  -3.336059e+02  -2.274308e+02
   8.226867e+01  -2.673208e+02
   3.230928e+02  -7.539644e+01
   1.766384e+02   7.937052e+01
   2.500363e+00   7.470106e+01
  -5.375003e+01  -6.558580e+01
   6.150056e+01  -1.048522e+02
   2.817493e+02   2.158425e+00
   1.168181e+02   2.326223e+02
  -1.662938e+02   2.553953e+02
  -3.351191e+02   9.013006e+01
  -2.027550e+02  -5.605533e+01
   1.820238e+01  -2.918150e+02
   2.226222e+02  -2.558285e+02
   2.919735e+02  -1.274538e+02
   2.393325e+02   1.444677e+02
   4.198949e+01   3.032297e+02
  -1.606145e+01   3.548837e+02
  -6.717625e+01   1.684447e+02
  -3.263100e+01   5.684348e+01
  -8.860719e+01   1.063807e+02
  -1.824127e+02   3.758522e+01
  -2.072861e+02  -7.194165e+01
  -6.448476e+01  -2.343997e+02
   9.578503e+01  -1.988786e+02
   1.796754e+02   3.478338e+01
   1.587689e+02   2.079098e+02
  -1.906441e+01   2.109067e+02
  -2.155852e+02   1.006457e+02
  -3.192231e+02  -1.493494e+02
  -1.888031e+02  -2.715854e+02
   1.298021e+02  -2.821641e+02
   1.810568e+02  -1.210016e+02
   1.840209e+02  -3.033366e+01
   1.222955e+02  -6.101555e+01
   2.310769e+02  -5.469068e+01
   3.887824e+02   8.137364e+01
   2.849109e+02   3.524954e+02
   1.846509e+01   4.540561e+02
  -3.557142e+02   2.565688e+02
  -4.629837e+02   2.183503e+02
  -2.086067e+02  -4.923258e+01
  -7.173825e+00  -2.172417e+02
   7.744326e+01  -1.791826e+02
   4.947040e+01  -3.957897e+01
  -1.335514e+02   6.741884e+01
  -1.285479e+02  -9.826014e-01
  -1.236447e+01  -1.661951e+02
   1.454101e+02  -1.119017e+02
   1.066924e+02   3.588323e+01
  -3.900457e+01   1.297629e+02
  -1.743201e+02   3.766909e+01
  -1.734149e+02  -2.030842e+02
   5.267381e+00  -3.102291e+02
   2.351429e+02  -1.983587e+02
   3.160535e+02   6.987034e+00
   2.435473e+02   2.806943e+02
   1.054874e+02   3.085585e+02
  -1.102553e+02   1.764109e+02
  -1.422096e+02   2.676308e+01
  -4.041101e+01  -2.880166e+01
   3.414932e+01   4.426073e+01
   3.123943e+00   8.178861e+01
  -1.554786e+02   4.767748e+01
  -1.535216e+02   5.015050e+00
  -5.457287e+01  -2.929322e+01
   6.040433e+01  -1.576904e+01
   3.111735e+00   9.439340e+01
  -1.140880e+02   9.577066e+01
  -2.428141e+02  -4.520734e+01
  -2.370176e+02  -1.788396e+02
  -6.001444e+00  -2.598753e+02
   1.741128e+02  -1.752284e+02
   3.043947e+02  -1.086859e+02
   1.276180e+02   5.123053e+01
  -1.364747e+01   9.876784e+01
  -3.986700e+01  -1.761363e+01
   5.279836e+01  -3.915890e+01
   1.622574e+02  -5.641300e+01
   1.521466e+02   1.720098e+02
   5.093927e+01   1.973814e+02
  -5.526593e+01   1.455767e+02
  -1.438413e+02   5.849244e+01
  -6.225514e+01  -5.005453e-02
   1.658666e+01   2.710658e+00
  -3.546718e+00   1.146015e+02
  -1.234046e+02   8.188997e+01
  -2.116389e+02   2.669618e+01
  -1.962578e+02  -1.352718e+02
  -3.045802e+01  -2.199384e+02
   1.716763e+02  -1.559489e+02
   1.317904e+02  -1.921703e+01
   4.840390e+01   9.882471e+01
  -7.766588e+01   1.176327e+02
  -5.893052e+01   3.565169e+01
  -1.415355e+01  -2.534820e+01
   3.495799e+01  -6.437556e-01
   4.866497e-01   1.959663e+01
  -7.841165e+01  -1.199839e+00
  -6.511499e+01  -7.435693e+01
   2.277075e+01  -1.829553e+02
   1.038134e+02  -9.939807e+01
   2.156223e+02  -4.681727e+00
   1.764981e+02   1.096499e+02
   1.369308e+01   2.102729e+02
  -7.653791e+01   1.202563e+02
  -1.207963e+02   2.674462e+01
  -7.400885e+01  -5.156585e+01
  -4.299759e+01  -1.633641e+01
  -3.832416e+01   1.954535e+01
  -9.909436e+01  -6.234514e+00
  -6.657008e+01  -3.905863e+01
   3.668947e+01  -7.920016e+01
   8.873742e+01  -9.003802e+01
   1.063910e+02   3.966491e+01
  -1.787612e+01   1.230543e+02
  -1.476772e+02   8.691292e+01
  -1.540117e+02  -6.716112e+01
  -6.750274e+01  -2.139470e+02
   1.106642e+02  -2.097140e+02
   2.665835e+02  -1.002038e+02
   2.027919e+02   6.073983e+01
   7.835176e+01   1.352564e+02
  -5.839685e+01   1.295033e+02
  -1.177567e+02   8.991218e+01
  -7.509666e+01   6.276494e+01
  -5.163084e+01   1.581846e+02
  -1.025237e+02   5.445622e+01
  -8.507227e+01   4.094802e-01
  -7.736430e+01  -1.540487e+02
   1.210441e+01  -1.908979e+02
   1.138910e+02  -1.015763e+02
   1.682922e+02  -1.131288e+01
   1.572179e+02   9.905417e+01
   3.397871e+01   1.400462e+02
  -7.375393e+01   9.431992e+01
  -2.860215e+01   7.718645e+00
   9.193878e+00  -5.348997e+01
   3.285644e+01  -4.349517e+01
  -3.519363e+01  -4.751531e+00
  -6.754466e+01  -9.959940e+00
  -1.868623e+01  -3.778232e+01
   5.869845e+01  -2.312322e+01
   1.730577e+02   2.223266e+01
   1.222388e+02   6.373663e+01
   1.866512e+01   9.961123e+01
  -1.117038e+02   5.532390e+01
  -1.621691e+02   3.405537e+01
  -5.471708e+01  -3.900198e+01
   1.305160e+01   1.984435e-01
   8.328329e+01   1.904868e+00
   9.129871e+00   9.732041e+01
  -5.995888e+01   4.084499e+01
  -6.482401e+01   6.628068e+00
  -4.256106e+01  -7.397704e+01
  -4.524169e+01  -5.668805e+01
  -4.830060e+01   1.425344e+01
  -5.907089e+01  -1.781594e+01
  -3.848012e+01  -6.589945e+01
   2.768704e+01  -1.351636e+02
   1.351223e+02  -1.180187e+02
   1.697654e+02  -3.076425e+01
   1.140672e+02   8.136691e+01
   1.256642e+01   1.231850e+02
  -9.493420e+01   5.074393e+01
  -6.611836e+01  -1.500304e+01
   3.244382e+01  -4.397147e+01
   1.327526e+02   4.263474e+01
   5.927394e+01   8.562324e+01
  -1.077103e+02   1.289962e+02
  -1.445409e+02   7.955374e+01
  -1.624979e+02  -1.732350e+01
  -2.430753e+01  -8.975496e+01
   6.755933e+01  -8.896847e+01
   3.769800e+01   8.418361e+00
  -8.360950e+00   1.518105e+01
  -1.055026e+02  -3.123267e+01
  -2.204078e+01  -8.002291e+01
   8.727825e+01  -1.535668e+02
   1.181760e+02  -5.304661e+01
   1.285268e+02   1.193410e+02
  -4.352646e+00   1.659809e+02
  -7.802326e+01   1.304834e+02
  -7.384073e+01   1.112487e-01
  -2.001002e+01  -1.032580e+02
  -1.268690e+00  -7.840393e+01
   7.144146e+01  -2.537565e+01
   2.425627e+01   3.559492e+01
  -1.388012e+00  -1.342717e+01
  -1.079196e+01   1.289515e+01
   1.174133e+01   5.508040e+00
   3.349867e+01   1.236066e+02
   7.236792e+01   9.783906e+01
  -2.517212e+01   4.437059e+01
  -1.293131e+02  -2.555747e+01
  -8.990406e+01  -9.354589e+01
  -1.833995e+01  -3.243743e+01
   5.249492e+01  -2.335049e+01
   7.300141e+01  -4.062965e+01
   3.374426e+01   1.042572e+01
  -2.000236e+01   3.257036e+01
  -1.775234e+01   1.176574e+01
   3.259032e+01   1.398597e+01
  -2.500050e+01  -2.379424e+01
  -8.786041e+01  -1.680679e+00
  -8.835780e+01  -2.954337e+01
  -6.409364e+00  -9.209930e+01
   1.058191e+02  -1.175463e+02
   1.673625e+02  -5.788699e+01
   1.054193e+02   5.378328e+01
   3.059101e+01   1.487519e+02
  -9.452377e+01   1.173697e+02
  -1.060687e+02   6.435027e+01
  -7.910901e+01  -3.299033e+00
  -2.643120e+01  -3.129478e+01
   2.009778e+01  -4.904799e+01
  -1.568243e+01  -1.949964e+01
  -3.671336e+01  -2.754515e+01
  -9.542087e+00  -8.032600e+01
   2.610962e+01  -5.217518e+01
   8.853618e+01   3.045045e+01
   6.670148e+01   9.824054e+01
  -1.735530e+01   1.031549e+02
  -5.667236e+01   1.711203e+01
  -6.613277e+01  -4.952981e+01
  -2.486358e+01  -5.268715e+01
   6.212330e+01  -3.481927e+01
   1.024232e+02  -1.524608e+01
   8.022475e+00   5.644932e+01
  -2.532881e+01   7.577064e+01
  -1.418641e+01   1.077101e+01
   1.421815e+01  -3.336923e+01
   4.707057e+01   8.671074e-01
   3.249542e+01   2.610742e+01
  -5.391773e+01   8.708306e+01
  -1.095584e+02   4.175212e+01
  -5.053430e+01  -1.080478e+01
   1.915143e+00  -7.393701e+01
   3.342558e+01  -6.236952e+01
   3.781558e+01   7.480657e+00
   1.519207e+01   5.909262e+01
  -4.080717e+00   5.704475e+01
  -2.451930e+01   8.543910e+00
  -1.374085e+01  -1.131828e+01
   2.032234e+01  -4.451013e+01
   1.650076e+01   2.871942e+01
   5.030738e+01   3.349876e+01
   4.133532e+01   1.850671e+01
  -9.705351e+00  -1.015087e+01
  -1.183688e+01   7.909955e+00
   1.246654e+01   4.822744e+01
  -8.112746e+00   5.998625e+01
  -3.870126e+01  -8.155318e+00
  -4.595974e+00  -1.628930e+01
  -2.584413e+01  -5.703129e+01
   5.058406e+01  -2.383449e+01
   9.736087e+01   3.591489e+01
   2.476078e+01   4.765870e+01
  -3.451576e+01   3.089760e+01
  -1.148260e+02  -6.508565e+00
  -4.014539e+01  -6.527918e+01
   3.244877e+01  -4.753254e+01
   4.515476e+01  -1.334407e+01
   6.084155e+01  -5.142576e+01
  -2.957544e+01   1.158871e+01
  -1.632294e+01  -3.893227e+00
   9.662288e+00  -1.763174e+01
   7.913243e+01   1.863920e+01
