
 $NMID
 id='ANONYMOUS ', fmtdat='(2E16.6)'
 volume=1.0
 tramp=1.0
 $END
  -4.806392e+03   3.449277e+02
  -2.947364e+03  -2.574906e+03
   6.072941e+02  -2.723573e+03
   2.180849e+03  -1.172774e+03
   1.186343e+03   3.837177e+02
  -6.024554e+02   7.157584e+02
  -9.959195e+02  -3.353187e+02
   4.231455e+01  -1.175455e+03
   7.870807e+02  -7.733149e+02
   1.100620e+03   7.877216e+01
   5.501795e+02   8.977514e+02
  -1.532055e+02   9.200450e+02
  -5.985385e+02   2.256237e+02
  -5.907047e+02  -6.200679e+02
   1.985778e+02  -7.647672e+02
   6.144242e+02   4.359633e+01
   3.499875e+02   6.800831e+02
  -2.519298e+02   6.853090e+02
  -6.146240e+02   2.443383e+02
  -4.447124e+02  -3.474735e+02
  -4.047801e+01  -4.938255e+02
   2.426522e+02  -2.818788e+02
   2.270333e+02  -5.702375e+01
  -1.227014e+02   8.983252e+01
  -4.400481e+02  -7.379238e+00
  -2.670090e+02  -4.377383e+02
   3.770327e+02  -4.747469e+02
   8.061224e+02  -6.897713e+01
   4.275125e+02   5.465739e+02
  -3.413439e+02   5.183066e+02
  -8.122325e+02   1.677976e+02
  -3.927610e+02  -4.273704e+02
   2.913489e+02  -5.954549e+02
   5.840092e+02  -1.590310e+02
   4.298531e+02   2.201056e+02
   1.302246e+02   4.946182e+02
  -1.798402e+02   3.118768e+02
  -2.539049e+02  -1.997464e+02
   8.663307e+01  -3.449220e+02
   4.506729e+02  -1.964621e+01
   2.077734e+02   7.064136e+02
  -2.441421e+02   7.260408e+02
  -5.617767e+02   1.630649e+02
  -4.189010e+02  -5.224978e+02
   2.778039e+02  -3.667219e+02
   4.662047e+02   3.035876e+02
  -6.075434e+01   5.512414e+02
  -5.351209e+02   1.207257e+02
  -6.811201e+02  -3.593544e+02
  -2.386101e+02  -6.036768e+02
   3.803974e+02  -4.336570e+02
   6.597016e+02   9.944846e+01
   4.170606e+02   4.314699e+02
  -1.131812e+02   3.887308e+02
  -4.690499e+02   1.899199e+02
  -2.928508e+02  -1.809848e+02
   9.379057e+01  -8.849531e+01
   1.462570e+02   1.442757e+02
  -1.358157e+02   2.357005e+02
  -4.379997e+02  -4.322978e+00
  -1.481405e+02  -3.557768e+02
   1.389724e+02  -2.717189e+02
   3.664130e+02  -9.033438e+01
   2.038804e+02   3.001660e+01
  -2.687219e+01   2.110475e+02
  -1.990121e+02   2.965805e+02
  -3.114586e+02   2.488171e+02
  -2.985009e+02  -7.603668e+01
  -8.834882e+01  -4.085617e+02
   8.885022e+00  -4.167237e+02
   1.252813e+02  -1.758706e+02
   5.549389e+01  -1.366056e+01
   3.685828e+01  -8.306128e+01
   1.629783e+02  -1.410288e+02
   2.697873e+02   1.001438e+01
   1.725624e+02   2.636105e+02
  -1.998525e+01   2.630047e+02
  -2.475484e+02   2.777519e+01
  -2.451026e+02  -1.964819e+02
   5.385886e+00  -2.688105e+02
   2.250001e+02  -1.612927e+02
   3.930454e+02   1.038565e+02
   1.835449e+02   3.727415e+02
  -3.838472e+01   3.093364e+02
  -2.351657e+02   1.551341e+02
  -1.660333e+02   5.849482e+01
  -1.025809e+02   3.960846e+01
  -2.102620e+02   5.218886e+01
  -4.174596e+02  -4.157137e+01
  -3.733703e+02  -2.908394e+02
  -9.420110e+01  -4.905709e+02
   3.623795e+02  -4.051512e+02
   4.820935e+02  -2.595323e+02
   3.748310e+02   1.226823e+02
   9.844218e+01   2.596943e+02
  -8.047126e+01   2.614640e+02
  -8.441116e+01   3.763197e+01
   9.057478e+01  -1.415154e+02
   1.823791e+02  -3.122330e+01
   9.507800e+01   2.134010e+02
  -1.347028e+02   2.172467e+02
  -2.192245e+02   4.619882e+00
   1.005283e+01  -1.904645e+02
   2.200270e+02  -5.722083e+01
   2.094960e+02   2.546519e+02
   4.550146e+01   3.403470e+02
  -1.990403e+02   2.469832e+02
  -3.416492e+02   1.420485e+00
  -3.026725e+02  -2.220157e+02
  -1.185922e+02  -2.489881e+02
   1.057479e+02  -1.428006e+02
   1.986440e+02  -1.995589e+01
   7.314791e+01   3.079686e+01
  -5.589668e+01  -4.319199e+01
  -4.454781e+01  -1.133745e+02
   8.536511e+01  -1.342213e+02
   1.877156e+02   9.162114e+00
   5.222283e+01   7.032516e+01
  -7.498750e+01   3.238652e+01
  -4.309817e+01  -5.570442e+01
   1.065834e+02  -8.798491e+01
   2.622248e+02  -2.709527e+00
   2.949334e+02   1.555550e+02
   9.649167e+01   2.775958e+02
  -1.274723e+02   2.858403e+02
  -2.870574e+02   1.899379e+02
  -1.633934e+02  -4.589710e+01
  -8.855090e+00  -1.408080e+02
   9.876011e+01  -3.957662e+00
  -2.527592e+01   1.105496e+02
  -1.714043e+02   1.084784e+02
  -2.150162e+02  -1.183370e+02
  -1.191528e+02  -1.967544e+02
   3.245142e+01  -1.375082e+02
   1.513384e+02  -6.931321e+01
   8.863550e+01   7.211724e+00
  -1.159645e+01  -9.080931e+00
  -4.221998e+01  -8.798248e+01
   6.980591e+01  -1.323289e+02
   2.321919e+02  -2.934587e+01
   1.719760e+02   1.013577e+02
  -5.401730e-01   2.277636e+02
  -1.427851e+02   1.815947e+02
  -1.866042e+02   1.421133e+01
  -4.733527e+01  -9.873736e+01
   5.538346e+01  -1.396365e+02
   7.299092e+01  -1.325749e+01
   3.049515e+01   2.456946e+01
  -5.915409e+00   2.262902e+01
  -3.916556e-01  -1.470291e+01
   8.331772e+01  -1.398115e+01
   1.038516e+02   7.741372e+01
   2.505014e+01   1.579639e+02
  -1.153838e+02   1.486906e+02
  -2.507083e+02   3.762014e+01
  -2.132442e+02  -1.560748e+02
  -7.514879e+01  -2.165714e+02
   1.266369e+02  -1.963778e+02
   1.481396e+02  -3.835494e+01
   5.182079e+01   4.783969e+01
   3.387686e+01   3.308482e+01
   4.883898e+01  -2.383190e+00
   7.125484e+01  -3.013099e+01
   2.975892e+01   6.642553e+01
  -4.715703e+01   9.329174e+01
  -1.053317e+02   5.446872e+01
  -7.189835e+01  -3.043127e+01
   2.433351e+01  -1.309597e+02
   1.327671e+02  -1.113089e+02
   1.897148e+02   1.170391e+01
   1.086364e+02   1.746074e+02
  -7.878629e+01   2.462084e+02
  -2.617986e+02   1.508021e+02
  -2.914068e+02  -5.825259e+01
  -1.302277e+02  -1.993016e+02
   4.663885e+01  -1.768150e+02
   6.845677e+01  -7.301497e+01
   6.244733e+01  -7.200925e+01
   4.606689e+01  -1.008447e+02
   8.590271e+01  -7.962975e+01
   1.309010e+02   1.302460e+01
   1.449824e+02   1.240791e+02
   4.369806e+01   2.503984e+02
  -8.202115e+01   2.008762e+02
  -1.608374e+02   1.939502e+01
  -1.631725e+02  -8.306346e+01
  -6.192272e+01  -1.531233e+02
   5.759537e+01  -1.199177e+02
   1.584088e+01  -2.565095e+01
  -9.373346e-01   5.064384e+01
   1.223366e+01   3.857150e+01
   4.063258e+01   1.697115e+01
   6.721774e+01   2.166148e+01
   4.061091e+01   6.197939e+01
  -4.051428e+01   4.549521e+01
  -1.491771e+02   1.693506e+00
  -1.292673e+02  -1.215648e-03
  -3.704687e+01  -6.515309e+01
   1.344485e+02  -6.823697e+01
   1.333833e+02  -3.503730e+01
   4.932525e+01   4.124694e+01
  -5.627350e+01   1.547851e+01
  -1.036649e+02   1.831312e+00
  -1.767149e+01  -6.234779e+01
   7.847072e+01  -5.769450e+01
   5.964819e+01   2.125264e+01
   5.008568e+01   5.473546e+01
   5.546603e+01   2.569356e+01
   4.155660e+01   2.247777e-01
   2.624666e+01   1.393028e+00
   3.336756e+01   7.903151e+01
  -3.923861e+01   1.648440e+02
  -1.177816e+02   1.692558e+02
  -1.494611e+02   4.565536e+01
  -1.542268e+02  -6.757699e+01
  -2.879540e+01  -1.091500e+02
   9.481495e+01  -5.711443e+01
   1.004464e+02  -1.953642e+01
  -5.597460e+01   2.482698e+01
  -1.271246e+02  -7.346351e+01
  -8.481667e+01  -9.735769e+01
   8.794794e+01  -1.566940e+02
   1.923043e+02  -9.600843e+01
   1.749419e+02  -5.879578e+00
   1.450710e+01   6.390918e+01
  -7.591545e+01   8.083712e+01
  -3.720671e+01  -5.784920e+00
   1.245644e+01  -3.755029e+01
   1.101508e+02  -1.278160e+01
   2.818650e+01   1.422649e+02
  -1.023219e+02   2.038133e+02
  -1.824659e+02   6.418086e+01
  -1.246023e+02  -6.346139e+01
  -4.157572e+01  -1.751802e+02
   7.699242e+01  -1.406548e+02
   1.346093e+02  -6.322285e+00
   7.428817e+01   1.024659e+02
   4.637481e+01   1.296040e+02
  -5.337882e+01   3.791652e+00
  -2.418471e+01  -1.152224e+01
  -6.139214e+00  -4.536069e+00
   1.870317e+01   4.711916e+01
  -1.512193e+01  -2.433332e+01
  -8.242442e+01  -7.826265e+01
  -3.223134e+01  -7.880772e+01
   6.142251e+01  -5.300228e+01
   1.889414e+02   2.749022e+01
   1.413438e+02   6.986126e+01
   5.222102e+01   7.975466e+01
  -4.842260e+01   2.337789e+01
  -6.647027e+01   1.319164e+01
  -1.991007e+01  -1.368327e+01
   3.650946e+01  -3.469921e+01
  -7.493191e+00  -1.824017e+01
  -3.404806e+01  -6.480630e+00
   9.144453e+00   9.699124e+00
   9.497550e+01   5.956621e+00
   7.402675e+01   8.875665e+00
   1.550713e+01   7.587241e+01
  -9.899201e+01   1.349056e+02
  -1.789625e+02   6.089827e+01
  -1.753657e+02  -5.166899e+01
  -7.383234e+00  -1.643492e+02
   6.226316e+01  -1.516510e+02
   1.388303e+02  -7.367414e+01
   9.400480e+01   1.010396e+01
   1.878464e+01   3.678858e+01
  -3.054869e+01   1.724440e+01
   4.176959e+01   8.911167e+00
   4.480031e+01   4.544961e+01
   3.239068e+01   5.825025e+01
  -3.822404e+01   7.597773e+01
  -8.016087e+01  -2.137533e+01
  -9.058838e+01  -5.037519e+01
  -1.066186e+01  -1.565406e+02
   7.265579e+01  -5.309208e+01
   1.032410e+02   9.319530e+01
   3.306393e+01   1.173213e+02
  -1.010008e+02   6.681133e+01
  -1.436785e+02   2.400992e+01
  -4.474380e+01  -4.109546e+01
   4.617997e+01  -6.229346e+01
   1.480656e+01  -2.981112e+01
  -3.527391e+01  -7.936350e+00
  -7.452549e+01   1.642776e+01
  -1.517276e+01  -1.906240e+01
   8.731117e+01  -5.982924e+01
   1.007438e+02  -5.378838e+01
   3.735849e+01   3.983569e+00
  -4.238038e+01   9.457669e+01
  -5.558991e+01   6.879801e+01
  -4.388593e+01   1.449526e+00
  -7.427794e+00  -7.092188e+01
   5.826029e-01  -4.707565e+01
   6.319971e+01   2.232456e+01
   4.621876e+01   5.068225e+01
  -1.332173e+01   2.305032e+01
  -2.097923e+01   2.322887e+01
  -3.497953e+01  -6.271031e+01
  -3.201350e+01  -2.858980e+01
  -1.651232e+01   1.116740e+01
  -1.358465e+01   1.116334e+01
   1.905006e+01  -1.569111e+01
   2.247154e+01  -4.324690e+01
   4.477071e+01  -2.737896e+01
   3.514718e+01   5.361283e+01
  -8.200524e+00   6.112926e+01
  -3.965011e+01   2.834810e+01
  -5.080508e+01   5.634583e+00
  -1.026161e+01  -7.096237e+01
   8.913867e+01  -7.271246e+01
   8.549045e+01   1.957995e+01
   4.080739e+01   1.331487e+01
  -4.116076e+01   2.235968e+01
  -4.882755e+01   3.192193e+01
  -2.576395e+01   1.101458e+01
   2.457406e+01  -1.166297e+01
   3.338932e+01   3.269758e+01
  -3.074586e+01   3.393311e+01
  -1.099056e+02   4.099787e+01
