
 $NMID
 id='ANONYMOUS ', fmtdat='(2E16.6)'
 volume=1.0
 tramp=1.0
 $END
   3.696138e+03  -1.838102e+02
   2.628707e+03   2.045005e+03
  -4.918323e+02   2.443979e+03
  -1.644393e+03   9.384924e+02
  -8.928334e+02  -3.890474e+02
   4.150242e+02  -3.269936e+02
   6.981527e+02   2.839915e+02
  -4.094775e+01   7.500769e+02
  -7.254833e+02   6.071601e+02
  -8.117973e+02  -2.913252e+01
  -4.130778e+02  -6.897723e+02
   9.213465e+01  -6.716457e+02
   5.116479e+02  -1.610969e+02
   3.954873e+02   5.597272e+02
  -2.169310e+02   6.603955e+02
  -4.607561e+02  -2.699327e+01
  -2.674288e+02  -5.353622e+02
   2.745590e+02  -4.678986e+02
   5.449156e+02  -7.366995e+01
   3.555398e+02   2.018591e+02
   1.241601e+02   3.491959e+02
  -1.604245e+02   2.219396e+02
  -1.400853e+02  -1.674202e+01
   1.588187e+02  -2.443167e+01
   3.564275e+02   1.305777e+02
   1.240296e+02   3.795019e+02
  -4.419394e+02   3.279877e+02
  -7.073297e+02  -1.131447e+02
  -3.252557e+02  -3.665952e+02
   3.418565e+02  -3.626570e+02
   6.359231e+02   5.169844e+01
   2.213365e+02   4.218180e+02
  -3.028748e+02   4.551849e+02
  -3.971001e+02   1.584837e+02
  -3.493081e+02  -2.775208e+02
  -7.230196e+01  -3.398165e+02
   1.373785e+02  -2.237146e+02
   7.934121e+01   1.837025e+02
  -1.612767e+02   3.186927e+02
  -3.244713e+02  -4.800850e+01
  -1.251343e+02  -5.825130e+02
   3.587560e+02  -5.725794e+02
   4.756794e+02   1.523006e+01
   1.927732e+02   4.188883e+02
  -2.505967e+02   1.841314e+02
  -2.869830e+02  -3.031038e+02
   7.098092e+01  -4.238161e+02
   4.808019e+02  -6.349724e+01
   4.715773e+02   4.280296e+02
   1.587630e+02   4.921773e+02
  -2.973835e+02   3.311154e+02
  -4.780033e+02  -7.983770e+01
  -2.996208e+02  -2.809724e+02
   1.201461e+02  -2.801668e+02
   3.612510e+02  -1.211023e+02
   2.066395e+02   7.655330e+01
  -5.768463e+01   7.061596e+01
  -8.334492e+01  -1.533853e+02
   1.256186e+02  -1.341876e+02
   2.853639e+02   5.245220e+01
   1.246061e+02   2.263297e+02
  -1.555797e+02   2.216695e+02
  -2.721457e+02   7.278295e+01
  -1.597573e+02  -5.165598e+01
   1.254995e+01  -2.510145e+02
   2.058417e+02  -3.466997e+02
   3.507553e+02  -1.833680e+02
   2.386119e+02   1.270942e+02
   7.468939e+01   4.228248e+02
  -1.158005e+01   3.448254e+02
  -5.156340e+01   1.274704e+02
   2.036296e+01   5.768932e+01
  -5.078614e+01   1.414277e+02
  -2.136751e+02   1.335591e+02
  -2.395096e+02  -5.647663e+01
  -1.462230e+02  -2.240805e+02
   8.206290e+01  -2.011274e+02
   1.732934e+02   1.007618e+01
   1.830945e+02   2.281350e+02
  -2.040520e+01   2.680433e+02
  -2.279551e+02   1.275313e+02
  -3.298012e+02  -9.870001e+01
  -1.842616e+02  -3.289835e+02
   5.632388e+01  -1.997093e+02
   2.076348e+02  -1.339418e+02
   1.042527e+02  -3.900808e+01
   9.026497e+01  -3.031949e+01
   2.222239e+02  -4.091685e+01
   3.314796e+02   2.320718e+01
   3.226868e+02   2.605334e+02
   1.639055e+01   4.357835e+02
  -3.696846e+02   3.883258e+02
  -3.719891e+02   2.454919e+02
  -2.813317e+02  -1.272897e+02
  -6.155883e+00  -2.798776e+02
   6.524406e+01  -2.167275e+02
   2.834841e+01  -4.309712e+01
  -1.207410e+02   7.980104e+01
  -1.559432e+02  -5.872260e+01
  -4.540582e+01  -1.886131e+02
   1.230575e+02  -1.252182e+02
   1.656485e+02   6.726450e+01
  -2.555702e+01   1.398556e+02
  -1.798001e+02   4.859097e+01
  -1.718780e+02  -1.902887e+02
   2.895169e+01  -3.112992e+02
   2.083112e+02  -1.833298e+02
   3.232565e+02   3.691846e+01
   2.649558e+02   1.924809e+02
   9.953239e+01   2.468782e+02
  -1.029717e+02   1.390775e+02
  -1.434724e+02  -1.601389e+00
  -4.768224e+01  -5.987969e+00
   5.667825e+01   7.236713e+01
   2.714166e+01   9.242627e+01
  -1.021915e+02   9.484133e+01
  -1.448504e+02  -5.790561e+00
  -4.323721e+01  -9.227029e+01
   8.947360e+01  -2.088342e+01
   3.556716e+01   7.706615e+01
  -7.115861e+01   1.070040e+02
  -2.133528e+02   1.629952e+01
  -2.209143e+02  -1.050615e+02
  -2.255204e+01  -2.500080e+02
   1.743606e+02  -2.509055e+02
   2.132368e+02  -1.218729e+02
   1.440144e+02   4.516758e+01
  -1.616512e+01   7.675204e+01
  -7.865842e+01  -8.788131e+00
   2.727428e+01  -8.788186e+01
   1.811320e+02  -5.453922e+01
   1.918285e+02   9.944126e+01
   5.031548e+01   1.650420e+02
  -9.722882e+01   1.470521e+02
  -1.327412e+02   4.976411e+01
  -5.120231e+01  -3.059074e+01
   1.241372e+01  -2.679059e+01
   6.326470e+01   8.024432e+01
  -7.225269e+01   1.152908e+02
  -1.552960e+02   4.541446e+01
  -2.154381e+02  -1.193718e+02
  -2.454777e+00  -1.632313e+02
   1.611200e+02  -1.545065e+02
   1.477136e+02   2.057574e+01
   6.344180e+01   7.941105e+01
  -3.929599e+01   1.181221e+02
  -4.402874e+01   2.126228e+01
   5.250183e+00  -4.451349e+01
   2.081741e+01  -1.425189e+01
  -6.746185e+00   4.655184e+00
  -7.432534e+01  -2.499532e+01
  -8.613952e+01  -6.709382e+01
  -3.116286e+01  -1.499978e+02
   1.041291e+02  -1.733475e+02
   1.996002e+02  -4.205229e+01
   1.835967e+02   1.341371e+02
   4.950824e+01   2.328023e+02
  -6.368470e+01   1.517199e+02
  -1.297258e+02   1.626566e+01
  -7.569023e+01  -3.311652e+01
  -1.474515e+01  -2.456026e+01
  -3.458206e+01  -1.664311e+01
  -1.018867e+02   2.508270e+01
  -4.303261e+01  -3.613498e+01
   3.430503e+01  -7.750362e+01
   8.594103e+01  -3.829376e+01
   1.037715e+02   4.894638e+01
   9.338187e+00   1.385816e+02
  -9.225923e+01   1.306338e+02
  -1.990910e+02  -5.399418e+01
  -8.355545e+01  -1.524250e+02
   5.438759e+01  -2.262937e+02
   2.482810e+02  -1.134958e+02
   2.267241e+02   6.513099e+01
   1.141742e+02   1.716990e+02
  -1.632931e+01   1.075344e+02
  -9.064208e+01   1.106575e+02
  -5.829034e+01   6.018088e+01
  -5.021812e+01   1.037859e+02
  -8.086528e+01   5.495846e+01
  -1.202533e+02  -4.087703e+01
  -1.101251e+02  -1.541110e+02
   8.774145e+00  -2.118164e+02
   7.946440e+01  -1.478636e+02
   1.534506e+02  -3.079106e+01
   1.238701e+02   1.093779e+02
   2.437310e+01   1.403664e+02
  -4.438653e+01   7.839433e+01
  -6.275000e+01   7.695296e+00
   2.376569e+00  -5.039020e+01
   3.033372e+01  -4.621415e+01
  -3.152546e+01  -2.621538e+01
  -4.571008e+01  -2.037127e+01
  -2.739724e+01  -3.741604e+01
   5.598987e+01  -3.018364e+01
   1.429317e+02  -2.027324e+01
   1.402301e+02   5.347459e+01
   4.020472e+01   7.840849e+01
  -1.100917e+02   4.784087e+01
  -1.287450e+02   1.110872e+01
  -5.763288e+01  -3.259399e+01
   1.347864e+01  -3.112178e+01
   5.699832e+01   3.700002e+00
   1.051588e-01   5.471536e+01
  -4.670638e+01   5.218448e+01
  -6.981785e+01   5.415108e+00
  -1.321716e+01  -1.750969e+01
  -2.693396e+01  -3.497093e+01
  -5.729944e+01  -8.827057e+00
  -6.062905e+01  -1.958586e+01
  -4.981592e+01  -5.425551e+01
   1.387327e+01  -1.112982e+02
   1.077944e+02  -1.731720e+02
   1.617099e+02  -3.259977e+01
   1.056522e+02   6.314817e+01
   4.223381e+01   1.063826e+02
  -7.012051e+01   5.803615e+01
  -3.938911e+01  -8.931141e+00
   4.256064e+01  -3.880114e+01
   1.507382e+02   3.666265e+01
   5.014079e+01   9.474582e+01
  -1.117051e+02   9.381377e+01
  -1.735900e+02   4.096905e+01
  -1.483661e+02  -9.567221e+00
  -6.603113e+01  -7.151314e+01
   3.918971e+01  -6.910157e+01
   2.685169e+01  -1.169085e+01
  -4.527369e+01   2.931067e+01
  -6.671714e+01  -1.778179e+00
  -3.736194e+01  -1.293986e+02
   6.303087e+01  -1.396387e+02
   1.526269e+02  -8.533082e+01
   1.350334e+02   5.657898e+01
   1.863614e+01   1.717937e+02
  -6.714911e+01   1.005049e+02
  -8.483881e+01   1.625378e+00
  -4.639321e+01  -1.157919e+02
  -1.712666e+01  -8.715482e+01
   6.680241e+01  -2.943558e+01
   4.700299e+01   2.705230e+01
   2.961878e+01  -1.494256e+01
  -1.031360e+00  -3.170854e+01
   2.912382e+00   1.209488e+01
   5.361444e+01   1.104583e+02
   5.664897e+01   9.414008e+01
  -4.819948e+01   2.369980e+01
  -1.174961e+02  -1.328086e+01
  -1.337269e+02  -6.130411e+01
  -3.162145e+01  -3.488788e+01
   8.635899e+01  -2.768424e+01
   6.877760e+01   3.695240e+00
   2.495378e+01  -2.781540e+00
  -2.025401e+01   2.120406e+01
  -3.463507e+01   2.881182e+01
   2.321478e+01  -1.087161e+01
  -5.126879e+00  -2.232854e+01
  -6.731839e+01   4.099558e+01
  -8.523839e+01  -2.057926e+01
  -1.136795e+01  -3.025183e+01
   1.022286e+02  -1.472459e+02
   1.574293e+02  -5.801721e+01
   1.363633e+02   5.885525e+01
   1.523010e+01   1.260215e+02
  -1.007808e+02   1.050580e+02
  -9.602536e+01   2.950675e+01
  -7.937036e+01   6.925460e+00
  -3.366894e+01  -2.252601e+01
   1.268427e+01  -4.960961e+01
  -1.826060e+01  -2.269500e+01
   3.379015e-01  -3.225642e+01
  -4.330833e-01  -6.086603e+01
   2.121164e+01  -9.440185e+01
   8.843271e+01   1.092594e+01
   8.617321e+01   8.900067e+01
   5.640170e-01   1.279073e+02
  -6.511471e+01   1.801451e+01
  -6.934558e+01  -2.461864e+01
  -2.126270e+01  -8.713931e+01
   3.983721e+01  -3.885046e+01
   9.049065e+01  -2.067722e+01
   3.809539e+01   5.156635e+01
  -1.832881e+01   5.063965e+01
  -2.167179e+01   2.103230e+01
   4.226134e+01  -1.208499e+01
   6.893574e+01  -2.964717e+01
  -1.399013e+00   7.693016e+00
  -5.380061e+01   7.221047e+01
  -1.105637e+02   6.702925e+01
  -7.712530e+01  -3.496240e+00
   5.382849e+00  -6.958268e+01
   5.751501e+01  -8.502395e+01
   9.487114e+00  -9.065189e+00
   4.137630e+00   9.072515e+01
  -3.385298e+00   5.653353e+01
  -4.116766e+01  -1.235091e+01
  -1.106903e+01  -4.497773e+01
  -8.024013e+00  -2.636276e+01
   2.476733e+01  -1.107919e+01
   7.465952e+00   4.574136e+01
   4.360283e+01  -7.336179e-01
  -1.804604e+01   5.114136e+00
   2.285588e+00   1.737950e+01
  -3.823560e+01   4.908162e+01
   1.597930e+00   1.847381e+01
  -6.583587e+01   1.996076e+01
  -3.919470e+00  -3.949989e+01
  -3.097491e+01  -6.346912e+01
   5.070749e+01  -3.001236e+01
   7.358712e+01   2.299221e+01
   3.596994e+01   6.670651e+01
  -2.245897e+01   5.280379e+01
  -6.327144e+01  -1.743794e+01
  -4.668006e+01  -3.818870e+01
  -1.699037e+00  -2.599603e+01
   1.020462e+02  -1.437266e+01
   1.958295e+01  -1.475071e+01
  -3.782304e+01   1.527726e+01
  -1.928078e+01  -1.835100e+01
  -3.863682e+00  -4.123684e+01
   8.409174e+01  -3.148463e+01
