
 $NMID
 id='ANONYMOUS ', fmtdat='(2E16.6)'
 volume=1.0
 tramp=1.0
 $END
  -3.408891e+03   3.540688e+02
  -2.314674e+03  -1.853462e+03
   3.816720e+02  -2.015702e+03
   1.584373e+03  -9.620045e+02
   8.321840e+02   5.032650e+02
  -3.394423e+02   4.281521e+02
  -7.237804e+02  -2.988475e+02
   3.098101e+01  -7.995084e+02
   6.592523e+02  -5.880472e+02
   7.084423e+02   5.091757e+01
   3.814806e+02   6.434164e+02
  -7.564192e+01   6.582746e+02
  -4.759081e+02   1.815917e+02
  -3.845424e+02  -5.845812e+02
   1.474927e+02  -5.154229e+02
   4.054161e+02   2.014935e+01
   1.862287e+02   4.596952e+02
  -1.921730e+02   4.261226e+02
  -4.475285e+02   1.035911e+02
  -3.351355e+02  -1.183941e+02
  -6.807265e+01  -3.495180e+02
   1.583081e+02  -1.785628e+02
   1.156347e+02  -8.818831e+00
  -1.570699e+02   5.077344e+01
  -3.107118e+02  -1.821899e+01
  -1.342589e+02  -3.313991e+02
   3.601789e+02  -3.538961e+02
   6.521088e+02   1.753090e+01
   3.273199e+02   3.275763e+02
  -2.570969e+02   2.958880e+02
  -6.077027e+02  -2.836090e+00
  -2.184717e+02  -3.785746e+02
   2.523014e+02  -4.316090e+02
   3.814915e+02  -1.529805e+02
   3.245009e+02   1.999752e+02
   6.365901e+01   3.502752e+02
  -1.236465e+02   2.212579e+02
  -9.179347e+01  -1.659740e+02
   1.007318e+02  -3.222468e+02
   3.020910e+02   3.809388e+01
   1.175339e+02   4.945212e+02
  -2.694722e+02   5.821986e+02
  -4.576154e+02   3.988165e+01
  -2.779353e+02  -3.758156e+02
   1.969781e+02  -2.071932e+02
   2.859226e+02   2.354363e+02
  -6.642544e+00   3.674577e+02
  -4.117414e+02   1.020235e+02
  -4.248848e+02  -3.300324e+02
  -1.430907e+02  -4.182888e+02
   2.309401e+02  -2.764630e+02
   4.580509e+02   5.008397e+01
   2.695890e+02   2.511981e+02
  -9.697798e+01   2.752004e+02
  -3.514197e+02   1.053151e+02
  -1.941362e+02  -7.716881e+01
   1.005168e+02  -1.058377e+02
   7.403086e+01   9.216783e+01
  -1.133320e+02   1.466802e+02
  -2.594853e+02  -5.973325e+01
  -1.235826e+02  -2.105776e+02
   1.121606e+02  -1.859752e+02
   2.264005e+02  -4.584214e+01
   1.460962e+02   7.227742e+01
  -1.372812e+01   2.085282e+02
  -1.493500e+02   3.015390e+02
  -2.674723e+02   1.750847e+02
  -2.223331e+02  -5.031130e+01
  -6.047320e+01  -3.517127e+02
   1.801293e+01  -2.936651e+02
   5.638143e+01  -8.943026e+01
   2.990762e+01  -1.798017e+00
   5.409513e+01  -9.951409e+01
   1.478752e+02  -9.442143e+01
   1.859381e+02   5.386218e+01
   1.262321e+02   2.201046e+02
  -7.877671e+01   2.113924e+02
  -1.734182e+02   6.111082e+00
  -1.463620e+02  -1.949632e+02
   1.839793e+01  -1.915044e+02
   2.185787e+02  -1.153708e+02
   2.745190e+02   1.001812e+02
   1.213349e+02   3.015514e+02
  -9.081169e+01   1.988189e+02
  -1.681143e+02   7.142096e+01
  -9.290496e+01   2.086168e+01
  -6.615205e+01   5.365545e+01
  -1.944704e+02   4.022769e+01
  -2.961081e+02  -8.111708e-01
  -2.962195e+02  -2.037171e+02
  -1.185204e+01  -3.951311e+02
   2.861640e+02  -3.349429e+02
   3.758949e+02  -2.273051e+02
   2.570281e+02   6.614520e+01
   3.906098e+01   2.189388e+02
  -6.293715e+01   1.925239e+02
  -1.788263e+01   2.674749e+01
   9.604905e+01  -1.198496e+02
   1.341112e+02   3.400868e+01
   5.084985e+01   1.824435e+02
  -7.737708e+01   1.282319e+02
  -1.635460e+02  -1.126519e+01
  -1.341572e+01  -1.377512e+02
   1.450028e+02  -3.313506e+01
   1.577845e+02   1.537873e+02
   2.152944e+01   2.511234e+02
  -1.692620e+02   1.786643e+02
  -2.886718e+02  -3.699387e+01
  -1.867577e+02  -1.802838e+02
  -1.353211e+02  -2.440586e+02
   8.540469e+01  -1.442768e+02
   1.464582e+02  -2.363028e+01
   4.169668e+01  -1.042025e+01
  -7.284516e+01  -2.702005e+01
  -4.041000e+01  -7.731063e+01
   9.125767e+01  -7.679898e+01
   9.830846e+01  -2.141678e+01
   3.195568e+01   6.617201e+01
  -5.305028e+01   1.771550e+01
  -1.789624e+01  -5.340812e+01
   8.926872e+01  -7.149646e+01
   2.227543e+02  -1.012385e+01
   2.202879e+02   7.524080e+01
   8.662073e+01   1.823694e+02
  -1.235408e+02   2.020079e+02
  -1.438731e+02   7.589918e+01
  -1.296581e+02  -6.578798e+01
  -8.705700e+00  -6.416127e+01
   6.106500e+01   6.020697e+00
  -2.434550e+01   9.782112e+01
  -1.395295e+02   7.231818e+01
  -1.627670e+02  -5.580788e+01
  -1.010679e+02  -1.478330e+02
   6.941293e+01  -1.103657e+02
   1.203720e+02  -4.962803e+01
   9.247390e+01   2.407028e+00
  -3.681288e+01   3.013976e+01
  -4.547665e+01  -7.080976e+01
   2.745700e+01  -9.729315e+01
   1.747253e+02  -4.801021e+01
   1.598723e+02   5.923743e+01
   5.016977e+00   1.531112e+02
  -1.282665e+02   1.289381e+02
  -1.500168e+02   1.146631e+01
  -9.454056e+00  -6.800471e+01
   4.587191e+01  -9.185549e+01
   4.436025e+01   3.713570e-02
  -6.818423e+00   8.713172e+00
  -2.337919e+01   8.420453e-01
   4.517422e+00  -1.653057e+01
   4.359515e+01  -2.490240e+01
   5.266577e+01   6.708826e+01
   2.517466e+01   9.903689e+01
  -8.146399e+01   1.404972e+02
  -1.655648e+02   6.288411e+01
  -1.562493e+02  -1.256021e+02
  -5.630103e+01  -1.937222e+02
   6.969924e+01  -1.292013e+02
   6.745198e+01  -2.201373e+01
   6.385371e+01   5.067206e+01
  -1.053204e+01  -9.638962e+00
   2.933587e+01  -3.543419e+01
   6.346571e+01   7.022262e+00
   3.390909e+01   1.651593e+01
  -3.223110e+01   8.268699e+01
  -4.321687e+01   1.998474e+01
  -1.038400e+02  -2.761553e+01
   1.061361e+01  -9.646063e+01
   8.103904e+01  -1.008024e+02
   1.609509e+02   8.178617e+00
   9.232974e+01   1.580890e+02
  -3.854629e+01   2.125315e+02
  -1.714137e+02   1.269006e+02
  -2.240496e+02  -7.779643e+01
  -1.039490e+02  -1.078342e+02
   1.022460e+01  -1.142948e+02
   7.875707e+01  -5.527557e+01
   8.308088e+01  -3.941282e+01
   6.862578e+01  -7.672524e+01
   1.096060e+02  -7.580428e+01
   8.282472e+01   1.637579e+00
   9.331857e+01   8.183541e+01
   1.767385e+01   1.566907e+02
  -5.236923e+01   1.814110e+02
  -1.224323e+02   1.243797e+01
  -1.084078e+02  -8.295063e+01
  -1.534909e+01  -1.320514e+02
   3.068509e+01  -8.480525e+01
   3.871894e+01  -1.328881e+01
   1.166784e+01   5.201250e+01
  -1.905552e+01   3.044333e+01
   3.122082e+01   1.186672e+01
   5.796593e+01   1.075592e+01
   3.453315e+01   1.329350e+01
  -2.973560e+01   2.982832e+01
  -1.070614e+02   1.994142e+01
  -1.166555e+02  -1.781789e+01
  -1.592348e+01  -5.395352e+01
   7.435433e+01  -3.951181e+01
   1.229521e+02  -1.677745e+01
   3.910413e+01   4.141277e+01
  -6.002794e+01   3.687376e+01
  -6.659226e+01  -2.861134e+01
  -1.363989e+00  -5.629918e+01
   3.867120e+01  -5.268021e+01
   3.976147e+01  -1.582018e+01
   4.299403e+01   2.468624e+01
   1.018819e+01   4.183641e+01
   6.951982e+01   4.141523e+00
   4.950367e+01  -7.793607e+00
   2.758574e+01   3.361012e+01
  -1.463866e+01   7.328126e+01
  -5.076224e+01   1.088327e+02
  -1.060720e+02   2.232085e+01
  -9.434688e+01  -4.262160e+01
  -5.679526e+01  -1.306505e+02
   3.563267e+01  -5.327564e+01
   5.527728e+01   1.000682e+01
  -3.412045e+01   1.972412e+01
  -1.145038e+02  -4.534010e+01
  -7.967359e+01  -9.585783e+01
   4.817663e+01  -8.297464e+01
   1.564906e+02  -6.206893e+01
   1.518129e+02   2.149355e+01
   6.763404e+01   8.244431e+01
  -6.934233e+01   1.922436e+01
  -2.689656e+01   3.367949e+00
   2.280642e+01   3.604624e+00
   5.855904e+01   1.192265e+01
   1.203621e+01   8.324071e+01
  -1.507341e+01   1.393592e+02
  -1.297546e+02   5.673387e+01
  -8.753429e+01  -5.463870e+01
  -6.150734e+01  -1.433677e+02
   6.458019e+01  -9.157121e+01
   1.059909e+02  -2.879968e+01
   3.096775e+01   1.005465e+02
   3.431856e+01   1.071532e+02
  -5.973652e+01   1.686989e+01
  -5.034865e+01  -3.146109e+01
  -1.677826e+01  -3.801585e+00
  -2.119134e+01   1.332333e+01
  -2.778355e+01  -9.753624e+00
  -3.533029e+01  -9.107997e+01
  -4.275777e+01  -7.048899e+01
   4.807069e+01  -4.409254e+01
   1.181994e+02   1.819678e+01
   1.044732e+02   4.200489e+01
   1.062542e+01   2.989926e+01
  -4.808017e+01   4.617918e+01
  -6.902339e+01   2.723500e+01
   3.786512e+00  -1.907574e+00
   3.738169e+01  -1.309560e+01
   2.687043e+01  -1.484539e+01
  -2.709321e+01  -9.313979e+00
   1.177857e+01   1.163486e+01
   6.611210e+01  -1.054057e+01
   7.189482e+01   2.342805e+01
  -2.770517e+01   4.788218e+01
  -1.019013e+02   1.291927e+02
  -1.306438e+02   8.744137e+01
  -1.244039e+02  -3.827955e+01
  -3.768002e+01  -1.194333e+02
   6.116320e+01  -9.630541e+01
   8.191805e+01  -7.462842e+01
   2.753535e+01   1.543720e+00
   3.379365e+01   2.201881e+01
  -1.421706e+01   1.285584e+01
   6.922461e+00   1.171067e+01
   2.807771e+01   2.022471e+01
   9.996235e+00   6.652352e+01
  -3.155427e+01   4.712732e+01
  -6.945249e+01   4.087403e+01
  -7.653353e+01  -7.461275e+01
  -1.429916e+00  -8.765897e+01
   4.578450e+01  -3.052723e+01
   8.068903e+01   1.514193e+01
   1.576515e+01   7.210767e+01
  -2.461571e+01   3.121533e+01
  -7.186976e+01   1.615888e+01
  -3.667708e+01  -3.717516e+01
   1.331230e+01  -1.577520e+01
   3.175419e+00  -3.455697e+00
  -3.071953e+01   2.725113e+01
  -5.360621e+01   3.021452e+01
  -8.121104e+00  -4.478425e+01
   3.336414e+01  -5.686528e+01
   9.781677e+01  -4.978222e+01
   5.670123e+01   1.803260e+01
  -2.607756e+01   9.606431e+01
  -4.720345e+01   6.484632e+01
  -8.740365e-01   4.341724e+00
   1.518128e+01  -5.325787e+01
   2.749167e+01  -4.954993e+00
   3.663082e+01   1.063086e+01
   1.737513e+01   6.125030e+01
   2.676860e+01   4.858980e+01
  -1.720128e+01   2.820803e-01
  -2.949987e+01  -4.321455e+01
  -1.865534e+01  -1.205409e+01
   8.679376e+00   1.697218e+01
   3.857791e+00  -1.965949e+00
   1.383025e+01  -1.254169e+01
   2.578371e+01  -2.476749e+01
   2.717279e+01  -8.959381e+00
   2.362964e+01   3.296471e+01
   2.604351e+00   6.246268e+01
  -4.036336e+01   2.005411e+01
  -5.350933e+01  -2.618959e+01
  -1.241309e+01  -2.094366e+01
   5.139958e+01  -4.273259e+01
   4.977994e+01   5.774934e+01
   2.772020e+01   2.144370e+01
  -2.236570e+01   1.159492e+01
  -5.590475e+01   9.333647e+00
   1.332103e+01   1.112076e+01
   3.886235e+01  -1.725457e+01
   1.253283e+01  -9.101239e+00
   7.116009e-02   5.469146e+01
  -9.333714e+01   3.327265e+01
