
 $NMID
 id='ANONYMOUS ', fmtdat='(2E16.6)'
 volume=1.0
 tramp=1.0
 $END
   3.462235e+03  -4.896285e+02
   2.127212e+03   1.782156e+03
  -3.407435e+02   2.197997e+03
  -1.684332e+03   7.680251e+02
  -8.418355e+02  -6.170705e+02
   4.926565e+02  -5.306918e+02
   6.556350e+02   3.572548e+02
   1.212175e+02   7.756480e+02
  -6.143002e+02   6.363615e+02
  -7.236486e+02  -2.986409e+01
  -3.393072e+02  -6.886453e+02
   1.786382e+02  -7.113240e+02
   5.163811e+02  -5.882062e+01
   4.385268e+02   5.600874e+02
  -1.717903e+02   5.689656e+02
  -4.692339e+02   5.556302e+01
  -2.070687e+02  -4.407934e+02
   1.852395e+02  -4.827341e+02
   4.148144e+02  -8.668919e+01
   3.153018e+02   2.350503e+02
   8.100947e+01   3.482729e+02
  -1.827769e+02   1.722035e+02
  -1.445967e+02   3.698663e-01
   1.075898e+02  -5.903533e+01
   3.161799e+02  -3.090674e+01
   1.614734e+02   2.862033e+02
  -3.250615e+02   3.557111e+02
  -7.161962e+02   5.902930e+01
  -3.548220e+02  -3.538594e+02
   2.902851e+02  -3.352443e+02
   6.065301e+02  -6.959953e+01
   2.297218e+02   3.732111e+02
  -2.463733e+02   3.906161e+02
  -3.953178e+02   1.780723e+02
  -3.544022e+02  -1.731939e+02
  -4.648358e+01  -3.601525e+02
   1.423133e+02  -2.026619e+02
   1.501512e+02   2.146351e+02
  -1.130069e+02   3.392343e+02
  -2.890069e+02  -3.129490e+01
  -1.972473e+02  -4.781573e+02
   2.215479e+02  -6.019880e+02
   5.119656e+02  -9.338613e+01
   2.477004e+02   4.022683e+02
  -2.326986e+02   2.204777e+02
  -3.214673e+02  -2.025066e+02
  -2.800314e+01  -3.867529e+02
   4.197193e+02  -1.333319e+02
   4.540580e+02   2.703140e+02
   1.372531e+02   4.693647e+02
  -2.651791e+02   3.378090e+02
  -5.084120e+02  -2.117786e+01
  -3.289861e+02  -2.269534e+02
   1.056462e+02  -3.238058e+02
   3.684896e+02  -9.750379e+01
   2.055637e+02   1.282401e+02
  -1.425126e+02   9.697164e+01
  -1.121275e+02  -1.108808e+02
   1.156282e+02  -1.835801e+02
   2.927728e+02   1.843611e+01
   1.490031e+02   1.862084e+02
  -1.761101e+02   2.138668e+02
  -1.925425e+02   3.977666e+01
  -1.510236e+02  -8.940575e+01
   4.920280e+01  -1.678638e+02
   1.616399e+02  -2.536877e+02
   2.247772e+02  -2.237933e+02
   2.138535e+02   4.810451e+01
   5.719537e+01   3.706157e+02
  -5.393125e+01   3.217335e+02
  -8.687961e+01   7.778988e+01
   4.860890e+00  -1.344619e+01
  -8.532618e+00   7.472028e+01
  -1.492323e+02   1.109125e+02
  -2.068702e+02  -3.220961e+01
  -1.341763e+02  -2.229481e+02
   3.524009e+01  -2.227114e+02
   1.891646e+02  -7.730165e+00
   1.828970e+02   2.091934e+02
   3.654349e+00   2.058638e+02
  -2.184764e+02   1.059623e+02
  -2.866613e+02  -1.272451e+02
  -1.482863e+02  -2.784106e+02
   2.661757e+01  -2.402730e+02
   1.787224e+02  -8.418386e+01
   9.631456e+01  -2.934920e+01
   5.405293e+01  -1.481860e+01
   1.468536e+02  -2.256975e+01
   3.070092e+02  -1.971215e+01
   2.817181e+02   2.202311e+02
   2.462414e+01   3.723189e+02
  -2.503702e+02   3.188403e+02
  -3.921199e+02   2.751676e+02
  -2.694185e+02  -5.619913e+01
  -6.596873e+01  -2.330652e+02
   8.742148e+01  -1.799517e+02
   4.577741e+01  -2.217443e+01
  -6.551830e+01   9.304419e+01
  -1.482042e+02  -7.545271e+00
  -9.112838e+01  -1.631243e+02
   9.011112e+01  -1.318393e+02
   1.482882e+02   3.971763e+00
   9.598183e+00   1.665376e+02
  -1.152381e+02   6.131219e+01
  -1.784505e+02  -1.686526e+02
   2.309437e+01  -3.019112e+02
   1.388761e+02  -1.724969e+02
   2.862685e+02   2.469207e+01
   1.875488e+02   2.198862e+02
   1.569527e+02   1.743542e+02
  -7.584041e+01   1.074600e+02
  -1.617907e+02   3.504244e+01
  -2.399696e+01  -2.039307e+00
   8.690581e+01   3.897459e+01
   4.435566e+01   9.110952e+01
  -8.844531e+01   9.357534e+01
  -1.350021e+02   1.744487e+01
  -5.198215e+01  -6.141902e+01
   7.801658e+01  -2.289372e+01
   6.843778e+01   5.909234e+01
  -9.109425e+01   6.838743e+01
  -2.036047e+02   5.360433e+01
  -2.433199e+02  -9.689071e+01
  -1.050572e+02  -1.625015e+02
   1.022271e+02  -2.202911e+02
   1.645181e+02  -9.057004e+01
   1.374654e+02   6.260018e+01
  -8.583379e+00   8.811030e+01
  -9.456922e+01   1.917198e+01
   5.367230e+00  -7.083418e+01
   1.203575e+02  -1.124426e+02
   1.782126e+02   6.851476e+01
   7.273047e+01   1.562685e+02
  -5.549572e+01   1.487748e+02
  -1.018129e+02   2.333060e+01
  -4.084220e+01  -2.843159e+01
  -5.162080e-01  -3.605712e+01
   2.687288e+01   8.702513e+01
  -2.396633e+01   8.378085e+01
  -1.346077e+02   8.987739e+01
  -1.664717e+02  -5.193650e+01
  -2.171529e+01  -1.750239e+02
   9.749029e+01  -1.629571e+02
   1.739260e+02  -2.174595e+00
   5.064278e+01   8.514642e+01
  -3.995190e+01   1.192819e+02
  -7.251443e+01  -2.117952e+01
  -2.877396e+01  -2.405009e+01
   1.069887e+01  -3.048429e+01
  -3.220216e+01   2.091820e-01
  -7.330290e+01   2.752421e+01
  -7.237139e+01  -5.690607e+01
  -8.198068e+00  -1.144980e+02
   7.588113e+01  -1.122694e+02
   1.599310e+02  -7.304532e+01
   1.568508e+02   1.090834e+02
   5.263241e+01   1.968173e+02
  -5.517006e+01   1.432604e+02
  -1.225804e+02  -7.028092e-01
  -3.354576e+01  -2.235158e+01
  -1.653875e+00  -2.313631e+01
  -6.159301e+01   2.265188e+01
  -3.844477e+01   8.260093e+00
  -2.467563e+01  -3.762202e+01
   1.886554e+01  -7.838582e+01
   9.083277e+01  -2.274593e+01
   8.022105e+01   1.607003e+01
   2.931002e+00   9.288135e+01
  -7.239173e+01   7.903673e+01
  -1.671256e+02  -2.037555e+01
  -1.009737e+02  -1.941109e+02
   1.502452e+01  -1.625097e+02
   1.848644e+02  -1.388341e+02
   1.946647e+02   4.157168e+01
   1.228525e+02   1.256356e+02
  -4.349119e+00   1.132444e+02
  -5.333118e+01   8.615030e+01
  -6.855887e+01   5.439605e+01
  -6.156281e+01   9.978503e+01
  -9.791684e+01   5.569077e+01
  -7.908433e+01  -2.187767e+01
  -1.085118e+02  -8.025947e+01
  -2.260461e+01  -1.445954e+02
   7.509560e+01  -1.655692e+02
   1.373171e+02   7.540794e-01
   1.091838e+02   9.995621e+01
   2.435667e+01   9.090714e+01
  -4.959185e+01   7.541935e+01
  -4.524487e+01  -9.853595e+00
  -1.730145e+01  -3.812945e+01
  -7.686140e+00  -2.587567e+01
  -4.872051e+01  -1.975643e+01
  -6.605619e+01  -1.405422e+01
  -3.753967e+01  -2.714372e+01
   3.645954e+01  -2.641681e+01
   1.050259e+02  -2.488928e+01
   8.864055e+01   3.481978e+01
   9.736539e+00   3.640855e+01
  -8.484110e+01   7.189944e+01
  -9.101879e+01   1.996206e+01
  -4.686075e+01  -5.978517e+01
   5.185466e+01  -6.828664e+01
   6.319986e+01   2.183520e+01
   7.842332e+00   5.821143e+01
  -7.845003e+01   6.500665e+01
  -4.368306e+01   1.172466e+01
  -2.317376e+01  -3.379351e+01
  -2.585682e+01  -2.711730e+01
  -5.556778e+01   1.748773e+01
  -8.201244e+01   8.919015e+00
  -4.699784e+01  -4.238610e+01
   1.372584e+01  -8.949542e+01
   4.415362e+01  -9.984889e+01
   9.370863e+01  -3.335137e+01
   9.473604e+01   7.235475e+01
   4.447041e+01   9.826476e+01
  -5.436048e+01   5.181514e+01
  -4.033715e+01   3.964954e+00
   5.636166e+01  -6.922112e+00
   1.080657e+02   1.462012e+01
   5.367723e+01   7.808901e+01
  -5.487593e+01   7.154101e+01
  -1.453917e+02   9.073856e+01
  -1.057051e+02  -6.699109e+00
  -6.058134e+01  -4.893147e+01
   3.485956e+01  -5.589286e+01
   4.292640e+01   6.813903e-01
  -2.651310e+01   2.603513e+01
  -1.059011e+02   5.925770e+00
  -1.990034e+01  -8.711185e+01
   2.265804e+01  -1.063937e+02
   1.169110e+02  -8.640572e+01
   8.669999e+01   7.067925e+01
   1.799824e+01   1.567820e+02
  -7.035813e+01   1.073888e+02
  -9.523038e+01   3.794552e+00
  -5.593463e+01  -9.663298e+01
  -3.937551e+01  -8.650382e+01
   3.924830e+01  -1.212393e+01
   5.145167e+01   1.715519e+01
   2.167421e+01   4.366912e+01
   3.962551e+01  -3.183641e+01
   2.726765e+01   1.895391e+01
   4.219722e+01   8.153749e+01
   3.616855e+01   8.209619e+01
  -2.396125e+01   5.024435e+01
  -1.038089e+02  -1.715062e+01
  -9.885032e+01  -5.490566e+01
  -1.223089e+01  -2.694181e+01
   7.021040e+01  -3.442999e+01
   6.368067e+01  -2.374787e+01
   1.355257e+01  -8.188172e+00
  -4.646650e+01   3.612240e+01
  -2.550075e+01   1.121355e+01
   3.131243e+01   2.687594e+01
  -4.380808e+00  -7.041880e+00
  -7.433833e+01   1.136645e+01
  -8.608993e+01  -3.077498e+01
  -1.211378e+01  -3.754770e+01
   1.174578e+02  -1.012171e+02
   1.102407e+02  -3.515836e+01
   1.226833e+02   5.562448e+01
   3.774539e+01   1.230164e+02
  -8.034663e+01   8.790685e+01
  -6.396903e+01   1.755115e+01
  -3.034046e+01   8.111429e+00
  -2.601530e+01  -3.499967e+01
   6.999095e+00  -1.193681e+01
  -7.353961e+00   1.076110e+01
  -3.768731e+01  -1.695875e+01
  -1.421017e+01  -9.382924e+01
   3.866984e+01  -4.997856e+01
   7.239975e+01   9.327001e+00
   3.773404e+01   8.276256e+01
   1.723333e+01   8.752262e+01
  -5.923806e+01   1.221648e+00
  -9.276234e+01  -5.438354e+01
  -2.906445e+01  -8.528323e+01
   1.681844e+01  -3.557655e+01
   5.924643e+01  -4.225756e+00
   2.720073e+01   2.026649e+01
  -1.893528e+01   3.906812e+01
  -1.849989e+01   1.300349e+01
   2.590451e+01  -5.272520e+00
   7.414693e+01  -2.818132e+01
   2.228821e+01   1.573591e+01
  -7.046022e+01   2.878476e+01
  -8.659259e+01   4.657852e+01
  -6.159795e+01  -1.911766e+01
  -3.284040e-01  -8.618411e+01
   4.366919e+01  -4.176038e+01
   2.400686e+01  -3.965132e+00
   1.624375e+00   5.362124e+01
  -9.750363e+00   5.372754e+01
  -2.375538e+01  -1.846557e+01
   5.021773e+00  -3.514397e+01
   7.485950e+00   8.045366e+00
   6.936368e+00  -8.350278e+00
   3.909996e+01   1.758154e+00
   1.494644e+00   1.795762e+00
  -1.381448e+01   6.718620e+00
   1.076090e+01   1.577469e+01
  -1.703742e+01  -1.980142e+00
  -2.098138e+00   3.361973e+01
  -5.148485e+01   2.156370e+01
  -2.074609e+01  -6.907759e+01
  -5.009429e+01  -6.562295e+01
   4.480449e+01  -1.283144e+01
   2.388449e+01   3.000904e+01
   4.887351e+00   5.267543e+01
  -3.514353e+01   2.872050e+01
  -5.768650e+01  -3.621949e+01
  -3.467781e+01  -2.841353e+01
   1.489983e+01  -4.228214e+01
   6.900195e+01   1.884140e-01
  -4.026086e+00  -9.154510e+00
  -1.455151e+01  -5.419594e+00
  -3.996223e+01   2.656056e+00
   2.063809e+01  -5.434018e+01
   7.166957e+01  -3.174271e+01
