
 $NMID
 id='ANONYMOUS ', fmtdat='(2E16.6)'
 volume=1.0
 tramp=1.0
 $END
   4.337527e+03   5.073276e+02
   2.091747e+03   2.825085e+03
  -9.481477e+02   2.822150e+03
  -2.153174e+03   8.406043e+02
  -8.912418e+02  -8.346250e+02
   8.058661e+02  -5.885939e+02
   1.025984e+03   5.396233e+02
  -8.395521e+01   1.180499e+03
  -9.184919e+02   8.417447e+02
  -1.090382e+03  -2.255129e+02
  -4.498531e+02  -1.019208e+03
   3.795917e+02  -8.921548e+02
   7.032915e+02  -9.148180e+01
   3.758646e+02   8.846282e+02
  -3.782123e+02   6.463056e+02
  -6.549626e+02  -2.425758e+01
  -2.234972e+02  -6.894239e+02
   3.735880e+02  -5.427484e+02
   5.660269e+02  -6.352602e+01
   3.331370e+02   3.998820e+02
   3.055591e+01   4.952759e+02
  -2.505704e+02   2.681805e+02
  -2.411624e+02   7.186417e-01
   9.866507e+01  -1.464474e+02
   4.096720e+02   1.385756e+02
   2.418174e+02   5.703599e+02
  -4.544180e+02   4.500888e+02
  -9.644669e+02  -8.670579e+01
  -3.830429e+02  -6.257579e+02
   3.963651e+02  -4.278483e+02
   8.906104e+02   9.321255e+01
   3.650782e+02   4.733016e+02
  -3.027961e+02   5.126104e+02
  -5.882525e+02   2.003859e+02
  -4.650957e+02  -2.432206e+02
  -1.374086e+01  -5.116495e+02
   2.568107e+02  -2.647350e+02
   2.210518e+02   3.103377e+02
  -2.097821e+02   4.037486e+02
  -5.042094e+02   3.359875e+01
  -2.583731e+02  -6.559985e+02
   3.254738e+02  -7.370812e+02
   6.816402e+02   3.787822e+01
   2.511600e+02   5.878129e+02
  -4.060579e+02   3.608038e+02
  -4.127490e+02  -3.183458e+02
   1.215350e+02  -6.266706e+02
   6.343969e+02  -1.152642e+02
   6.024491e+02   4.270911e+02
   1.479139e+02   6.592491e+02
  -4.112628e+02   3.295241e+02
  -7.023218e+02  -1.205152e+02
  -3.739075e+02  -4.149151e+02
   1.910109e+02  -3.730159e+02
   4.726336e+02  -8.195991e+01
   2.152951e+02   2.315774e+02
  -1.182458e+02   1.040155e+02
  -1.543119e+02  -1.705792e+02
   1.785373e+02  -1.990030e+02
   3.897527e+02   1.149204e+02
   9.874111e+01   3.375848e+02
  -2.245810e+02   1.934284e+02
  -3.010626e+02   6.842335e+01
  -1.751022e+02  -4.289723e+01
   4.488837e+01  -2.169320e+02
   2.203571e+02  -3.204287e+02
   3.099450e+02  -2.650979e+02
   2.954821e+02   1.472628e+02
   7.990351e+01   3.992925e+02
  -1.492899e+02   4.218067e+02
  -1.538814e+02   8.678134e+01
  -3.219024e+01  -6.184096e+01
  -1.573031e+01   5.476829e+01
  -1.955925e+02   1.168421e+02
  -2.781223e+02  -5.214170e+01
  -1.407397e+02  -2.860288e+02
   9.925243e+01  -3.095306e+02
   2.197334e+02  -3.170799e+01
   2.008974e+02   2.538780e+02
  -1.001168e+01   2.719415e+02
  -2.406781e+02   1.684468e+02
  -4.041641e+02  -2.026496e+02
  -1.531035e+02  -3.741824e+02
   4.679960e+01  -3.265967e+02
   2.647996e+02  -1.271199e+02
   1.102661e+02   1.918682e+00
   7.291941e+01  -1.305230e+01
   2.221810e+02  -4.215079e+01
   4.331775e+02   8.612960e+01
   2.932591e+02   3.100633e+02
  -4.220198e+01   4.065346e+02
  -3.658876e+02   3.798647e+02
  -5.389861e+02   1.825846e+02
  -3.553790e+02  -7.874374e+01
  -2.849088e+01  -2.901686e+02
   1.304447e+02  -2.244303e+02
   8.863307e+01  -3.498658e+01
  -1.015052e+02   1.419347e+02
  -1.990854e+02   1.321012e+01
  -4.271469e+01  -1.813456e+02
   1.696956e+02  -1.447450e+02
   1.909994e+02   4.876704e+01
  -3.340624e+01   1.805264e+02
  -2.172905e+02   3.981737e+00
  -1.200879e+02  -2.650412e+02
   3.267002e+01  -3.316444e+02
   2.258244e+02  -1.898099e+02
   3.247182e+02   4.366991e+01
   2.567000e+02   2.066075e+02
   8.242718e+01   2.864679e+02
  -9.680684e+01   1.566496e+02
  -1.790636e+02   2.900762e+01
  -1.011886e+02  -3.243570e+01
   8.593893e+01   2.614658e+01
   5.423631e+01   1.569521e+02
  -1.519598e+02   1.211618e+02
  -1.993795e+02  -5.265824e+00
  -3.629474e+01  -7.059351e+01
   1.046956e+02  -1.481561e+01
   5.163816e+01   5.515186e+01
  -8.820425e+01   7.020899e+01
  -2.375887e+02  -1.278925e+00
  -2.352034e+02  -1.840242e+02
  -5.767185e+01  -2.623880e+02
   1.758002e+02  -2.435322e+02
   2.853807e+02  -1.541196e+02
   1.783919e+02   8.257571e+01
  -3.680441e+01   1.423115e+02
  -8.339223e+01   2.883360e+01
   5.603904e+01  -9.829877e+01
   1.968416e+02  -4.481175e+01
   1.701029e+02   7.376469e+01
   9.108064e+00   1.929348e+02
  -7.749375e+01   1.857403e+02
  -1.909826e+02   2.934151e+01
  -6.234010e+01  -5.549539e+01
   4.956638e-02  -3.362622e+00
   2.451201e+01   9.974539e+01
  -7.898540e+01   1.378342e+02
  -1.706067e+02   3.130452e+01
  -2.054306e+02  -1.267970e+02
  -4.985856e+01  -2.156311e+02
   1.799418e+02  -1.467759e+02
   1.843467e+02  -1.126194e+01
   8.989098e+01   1.430004e+02
  -5.190881e+01   1.217066e+02
  -8.520967e+01   2.557712e+00
  -1.623456e+01  -4.411164e+01
   3.217514e+01  -3.200654e+01
  -2.808894e+01  -2.086474e+01
  -3.434237e+01  -8.671067e+00
  -8.959297e+01  -8.634564e+01
   3.467706e+00  -1.525811e+02
   1.374061e+02  -1.503815e+02
   2.552712e+02   2.298636e+00
   1.971440e+02   1.492645e+02
   6.270205e+01   2.373004e+02
  -1.127497e+02   1.562441e+02
  -1.507325e+02   8.067720e+00
  -9.620648e+01  -5.528739e+01
  -4.330916e+01  -4.992158e+01
  -7.914825e+01   1.705764e+01
  -5.935030e+01   1.012261e+01
  -3.425886e+01  -3.730048e+01
   4.758111e+01  -5.040620e+01
   1.003939e+02  -1.937676e+01
   5.801523e+01   3.159221e+01
   7.483926e+00   9.306170e+01
  -1.527070e+02   9.462636e+01
  -2.070602e+02  -4.180295e+01
  -1.119498e+02  -2.271320e+02
   1.304208e+02  -2.696073e+02
   3.266822e+02  -9.611198e+01
   2.263380e+02   1.109376e+02
   1.115684e+02   1.813709e+02
  -4.532380e+01   1.456535e+02
  -9.362181e+01   1.013471e+02
  -6.459314e+01   9.744890e+01
  -1.025800e+02   6.950675e+01
  -5.847813e+01   1.119965e+02
  -1.209769e+02  -4.449768e+00
  -1.432791e+02  -1.943726e+02
   3.319559e+00  -1.933247e+02
   1.003621e+02  -1.688319e+02
   1.743835e+02  -2.116776e+01
   1.253823e+02   1.382316e+02
   2.633615e+01   1.651571e+02
  -8.193407e+01   8.522207e+01
  -6.683316e+01  -1.554368e+01
  -1.436362e+01  -5.339068e+01
   3.085761e+01  -3.937129e+01
  -2.304836e+01  -2.348076e+01
  -3.762148e+01  -3.865232e+01
  -1.208605e+01  -1.927389e+01
   5.647566e+01  -3.547566e+01
   1.273060e+02   1.549781e+01
   1.221097e+02   5.194669e+01
   1.575818e+00   8.555007e+01
  -9.119585e+01   8.414213e+01
  -1.509308e+02   7.120762e+00
  -2.918167e+01  -3.839151e+01
   6.997732e+01  -2.016758e+01
   1.093692e+02   1.732811e+01
  -2.752745e-01   5.487616e+01
  -7.991947e+01   4.109183e+01
  -6.507449e+01  -1.400614e+01
  -3.379867e+01  -3.306186e+01
  -3.944859e+01  -4.863301e+01
  -6.600613e+01   6.492147e+00
  -3.238240e+01   1.278253e+00
  -3.477820e+01  -9.587804e+01
   3.028304e+01  -1.258156e+02
   1.109245e+02  -1.275500e+02
   1.585850e+02  -3.482136e+01
   1.272444e+02   9.570722e+01
  -1.817148e+01   1.301727e+02
  -8.106354e+01   1.987545e+01
  -6.991954e+01  -1.297636e+00
   6.647856e+01  -2.741308e+01
   1.171917e+02   4.326889e+01
   6.895621e+01   1.084734e+02
  -1.150232e+02   1.031599e+02
  -2.218241e+02   4.917981e+01
  -1.910449e+02  -3.605208e+01
  -2.847727e+01  -6.951190e+01
   4.075807e+01  -3.206814e+01
   2.673153e+01  -3.169707e+00
  -2.360081e+01   3.977829e+01
  -8.347970e+01  -3.327104e+01
  -5.738103e+01  -1.263501e+02
   1.124857e+02  -1.548381e+02
   1.770273e+02  -8.520171e+01
   1.202427e+02   1.215317e+02
  -1.044798e+01   2.060744e+02
  -5.565231e+01   1.567917e+02
  -1.424798e+02  -4.617049e+00
  -6.477116e+01  -1.024928e+02
   1.220626e+00  -1.289913e+02
   4.846866e+01  -1.592448e+01
   5.758683e+01   5.323932e+01
   4.205966e+01  -1.185917e+01
   4.703024e+00  -3.147086e+01
  -2.122460e+00  -1.190002e+01
   6.877156e+01   1.015787e+02
   4.852223e+01   7.627481e+01
  -4.632888e+01   4.229123e+01
  -1.393712e+02  -4.067721e+01
  -1.385119e+02  -1.017796e+02
   4.193948e+00  -5.038514e+01
   1.076563e+02  -7.618858e+00
   9.994061e+01   1.609023e+00
   1.114555e+01  -1.004025e+00
  -5.102597e+01   3.049875e+01
   1.034177e+01   3.006491e+01
   2.016921e+01   1.244930e+01
  -1.379388e+01  -9.952790e-01
  -6.811031e+01  -6.713852e+00
  -8.840718e+01   1.149480e+00
  -2.696059e+01  -8.923664e+01
   1.198171e+02  -1.197076e+02
   1.570445e+02  -3.706228e+01
   1.344547e+02   6.492427e+01
   1.256300e+01   1.581620e+02
  -5.161568e+01   1.354385e+02
  -1.222337e+02   3.315592e+01
  -5.012937e+01  -3.691553e+01
  -3.317442e+01  -2.211435e+01
  -5.418966e+00   1.235723e+01
  -1.846101e+01  -1.328361e+01
  -2.893443e+01  -3.022429e+01
  -1.790629e+01  -5.443239e+01
   2.584048e+01  -7.068984e+01
   7.605888e+01   2.667150e+01
   9.297503e+01   8.159577e+01
  -2.092473e+01   8.533411e+01
  -9.429754e+01   1.089199e+01
  -8.064413e+01  -8.624900e+01
  -3.910616e+01  -7.943726e+01
   8.510545e+01  -5.408101e+01
   1.134884e+02   1.587658e+01
   5.875088e+01   4.207738e+01
  -4.351335e+01   3.061894e+01
  -5.854972e+01   2.996913e+01
   4.434732e+01  -1.509454e+01
   6.764880e+01  -1.138154e+01
  -1.976524e+01   4.735561e+01
  -7.466609e+01   1.102926e+02
  -1.063259e+02   4.498427e+01
  -3.408593e+01   7.117196e+00
  -5.444762e+00  -1.097848e+02
   3.492109e+01  -9.786691e+01
   1.706221e+01  -4.461725e+00
   2.078884e+01   5.679165e+01
  -3.004809e+01   2.307957e+01
  -5.466146e+01  -2.090294e+01
  -2.438062e+01  -5.334948e+01
  -3.858485e+01  -2.734476e+01
   9.224835e+00  -3.930308e+01
   2.834247e+01  -7.260971e-01
   3.146871e+01  -2.809641e+01
  -2.348450e+00  -9.501451e+00
  -3.816459e+00  -1.098583e+01
  -2.540951e+01   1.610231e+01
  -3.320305e+00   1.414239e+01
   3.340341e+00   1.136294e+01
  -3.269015e+01  -2.883995e+01
   4.163829e+01  -5.972271e+01
   4.311358e+01  -1.173055e+00
   6.659571e+01   5.666098e+01
   1.552761e+01   6.119857e+01
  -5.049149e+01   4.355380e+01
  -9.392579e+01  -3.448084e+00
  -9.320663e+00  -2.302932e+01
   4.970259e+01  -6.833549e+01
   2.752925e+01  -3.081229e+01
   6.013866e+01  -1.084460e+00
  -2.863088e+01   2.405163e+01
  -5.608790e+01  -1.586253e+01
   5.662525e+01  -8.485229e+00
   8.814706e+01   5.120943e+00
