
 $NMID
 id='ANONYMOUS ', fmtdat='(2E16.6)'
 volume=1.0
 tramp=1.0
 $END
  -4.230085e+03  -6.395998e+01
  -2.534082e+03  -2.677059e+03
   8.964125e+02  -2.787379e+03
   2.164954e+03  -8.743827e+02
   9.007675e+02   8.516505e+02
  -7.454887e+02   5.709328e+02
  -1.042630e+03  -6.059805e+02
  -2.900340e+01  -1.175229e+03
   8.958094e+02  -9.421286e+02
   1.201184e+03   1.460456e+02
   4.843177e+02   1.023820e+03
  -2.578441e+02   9.116112e+02
  -7.771256e+02   1.894809e+02
  -4.155893e+02  -8.191308e+02
   2.921375e+02  -7.560420e+02
   6.326748e+02  -5.201787e+01
   2.454252e+02   6.704139e+02
  -3.755288e+02   6.022417e+02
  -5.938140e+02   5.624742e+01
  -3.804129e+02  -3.818305e+02
  -2.990814e+01  -5.450763e+02
   2.609578e+02  -2.928265e+02
   2.197127e+02  -2.682904e+01
  -8.483560e+01   1.395244e+02
  -4.137590e+02  -1.095991e+02
  -2.632470e+02  -5.002091e+02
   4.394341e+02  -5.426874e+02
   9.926764e+02   3.692267e+01
   4.210054e+02   4.868473e+02
  -4.521141e+02   4.841202e+02
  -8.895522e+02   3.009974e+01
  -4.060917e+02  -4.461788e+02
   2.609093e+02  -5.314167e+02
   6.142841e+02  -1.957153e+02
   4.554046e+02   2.219434e+02
   4.410526e+01   5.252133e+02
  -2.872857e+02   2.993735e+02
  -2.365582e+02  -2.817290e+02
   1.157259e+02  -4.645926e+02
   4.435686e+02   1.788061e+01
   2.968742e+02   6.820661e+02
  -2.470293e+02   7.008634e+02
  -7.184472e+02  -1.941610e+00
  -3.428952e+02  -5.385954e+02
   3.273888e+02  -3.791261e+02
   4.622265e+02   3.047661e+02
  -5.731096e+01   6.068846e+02
  -5.691659e+02   2.413724e+02
  -6.574512e+02  -4.050096e+02
  -1.547234e+02  -6.538063e+02
   3.388252e+02  -3.688317e+02
   6.820693e+02   1.477130e+02
   4.009969e+02   3.984247e+02
  -1.734651e+02   3.820739e+02
  -5.083779e+02   1.067724e+02
  -2.700438e+02  -2.414418e+02
   1.267007e+02  -9.427839e+01
   1.553971e+02   1.800493e+02
  -1.453944e+02   2.190039e+02
  -3.815237e+02  -9.843559e+01
  -1.608448e+02  -2.726110e+02
   1.574185e+02  -2.566224e+02
   3.284411e+02  -6.961159e+01
   2.059443e+02   5.848666e+01
  -4.656665e+01   2.339255e+02
  -2.144526e+02   3.153012e+02
  -3.382525e+02   2.407610e+02
  -3.306849e+02  -1.335293e+02
  -1.051927e+02  -4.467697e+02
   9.676836e+01  -3.918349e+02
   1.232821e+02  -9.998179e+01
   6.329574e+01   3.466419e+01
   1.614005e+01  -9.906930e+01
   2.155056e+02  -1.469047e+02
   3.233443e+02   1.286623e+01
   1.991244e+02   2.604884e+02
  -5.628803e+01   3.258720e+02
  -2.231245e+02   1.859269e+01
  -2.658129e+02  -2.470526e+02
  -4.164155e+01  -2.859889e+02
   2.745795e+02  -1.189675e+02
   4.017426e+02   1.696568e+02
   2.102686e+02   3.875544e+02
  -3.686849e+01   3.314803e+02
  -2.493069e+02   1.398906e+02
  -1.281253e+02   3.143654e+01
  -1.039073e+02   1.695058e+01
  -2.064679e+02   5.690579e+01
  -4.539895e+02  -6.984179e+01
  -3.226189e+02  -2.841808e+02
   3.423121e+00  -4.339631e+02
   3.580953e+02  -4.561646e+02
   5.342111e+02  -1.758846e+02
   3.372755e+02   4.830283e+01
   3.969061e+01   2.550809e+02
  -1.014350e+02   2.646473e+02
  -8.443885e+01   1.603027e+01
   9.642328e+01  -1.557871e+02
   2.022380e+02  -4.590760e+00
   7.583704e+01   1.975032e+02
  -1.724729e+02   1.793609e+02
  -2.203961e+02  -7.758223e+01
   1.100377e+01  -1.950487e+02
   2.017690e+02  -6.741442e+01
   1.513412e+02   2.841274e+02
  -2.313397e+01   3.644550e+02
  -2.039815e+02   1.905978e+02
  -3.255983e+02  -5.031786e+01
  -2.720611e+02  -1.695908e+02
  -1.346675e+02  -2.691150e+02
   1.194414e+02  -1.716091e+02
   1.657695e+02  -4.138445e+01
   7.383318e+01   5.220616e+01
  -1.080323e+02  -4.080126e+01
  -2.879819e+01  -1.507170e+02
   1.301860e+02  -1.037464e+02
   1.947627e+02   7.527921e+00
   7.243514e+01   6.178786e+01
  -9.446125e+01   1.613949e+01
  -3.895006e+01  -7.355320e+01
   1.145239e+02  -9.138945e+01
   3.037784e+02  -9.591203e+00
   2.844291e+02   1.357008e+02
   5.673281e+01   2.729956e+02
  -1.516793e+02   3.042757e+02
  -3.114603e+02   1.190534e+02
  -1.769896e+02  -7.060135e+01
  -2.048573e+00  -1.241002e+02
   8.434826e+01  -8.791026e+00
  -4.277682e+01   1.129580e+02
  -1.877051e+02   9.673200e+01
  -1.876746e+02  -7.718264e+01
  -5.015949e+01  -1.822127e+02
   5.262466e+01  -1.798038e+02
   1.664017e+02  -5.487822e+01
   1.202919e+02   4.145429e+01
  -1.828485e+01  -7.952858e+00
  -4.072612e+01  -8.104097e+01
   5.182819e+01  -1.244453e+02
   1.969372e+02  -9.260120e+00
   1.918436e+02   1.064406e+02
   5.432383e+01   2.474418e+02
  -1.359380e+02   1.885603e+02
  -1.843870e+02   6.917284e+00
  -5.634662e+01  -1.425211e+02
   5.778315e+01  -1.562737e+02
   9.558350e+01  -1.176514e+01
   4.726046e+01   1.591255e+01
   3.784605e+00   1.975575e+01
   2.361407e+01   3.409434e+00
   5.232741e+01  -2.669536e+01
   6.321416e+01   8.563532e+01
   1.813846e+01   1.362890e+02
  -1.327530e+02   1.663607e+02
  -2.618764e+02   1.431264e+01
  -1.942380e+02  -1.429343e+02
  -3.894081e+01  -2.434152e+02
   1.000453e+02  -1.833556e+02
   1.595977e+02  -1.020196e+01
   7.809591e+01   4.998469e+01
   2.983734e+01   4.419072e+01
   6.811318e+01  -1.907206e+01
   9.093825e+01  -2.205533e-01
   4.543448e+01   3.293260e+01
  -4.661478e+01   8.002294e+01
  -1.121721e+02   3.798394e+01
  -7.785253e+01  -3.991079e+01
  -8.484672e-01  -1.025407e+02
   1.470195e+02  -9.061417e+01
   1.736881e+02   3.275489e+01
   1.249418e+02   1.975391e+02
  -1.116043e+02   2.682735e+02
  -3.197641e+02   1.007666e+02
  -2.524767e+02  -7.252137e+01
  -1.646954e+02  -1.669510e+02
   4.199808e+01  -1.540407e+02
   5.946805e+01  -9.758846e+01
   8.545478e+01  -5.947969e+01
   1.072601e+02  -1.078042e+02
   7.864124e+01  -8.082938e+01
   1.311744e+02   2.363098e+01
   1.184401e+02   1.828963e+02
   3.326209e+01   1.782653e+02
  -9.669761e+01   1.581417e+02
  -1.905509e+02   4.656327e+01
  -1.373283e+02  -1.389872e+02
  -1.659815e+01  -1.538647e+02
   8.157570e+01  -8.952389e+01
   4.829644e+01  -4.519207e-01
  -2.301199e+01   3.922989e+01
  -7.837847e+00   2.154598e+01
   4.174353e+01   3.050542e+01
   9.595000e+01   1.221071e+01
   3.495712e+01   2.962849e+01
  -6.730479e+01   6.404676e+01
  -1.503271e+02  -2.247321e+01
  -1.249504e+02  -3.204831e+01
  -3.333152e+01  -9.122449e+01
   9.334472e+01  -6.277572e+01
   1.489638e+02  -2.424763e+01
   4.651077e+01   4.043053e+01
  -7.459527e+01   7.004149e+00
  -1.119560e+02   1.489742e+01
  -3.868041e+00  -7.354543e+01
   3.863141e+01  -6.103375e+01
   6.724221e+01   8.682527e+00
   4.511949e+01   6.166260e+01
   3.894330e+01   1.279994e+01
   6.886653e+01   2.399835e+01
   8.498855e+01   2.105525e+01
   1.774391e+01   3.663560e+01
  -2.004491e+01   1.533042e+02
  -1.274780e+02   1.319688e+02
  -2.008306e+02   5.924522e+01
  -1.561052e+02  -9.751399e+01
  -1.941701e+01  -1.008291e+02
   1.012236e+02  -3.843025e+01
   5.658647e+01   1.181980e+01
  -7.453604e+01   1.632350e+01
  -1.954044e+02  -5.450842e+01
  -7.020863e+01  -1.213461e+02
   5.452522e+01  -7.911303e+01
   2.278442e+02  -7.337632e+01
   1.577064e+02   2.276969e+01
   2.313537e+01   6.096888e+01
  -4.304586e+01   5.901592e+01
  -3.531179e+01  -1.960831e+01
   1.708653e+01  -1.614517e+01
   1.149716e+02   1.323661e+01
   2.062732e+01   1.507149e+02
  -7.976795e+01   1.890717e+02
  -1.821946e+02   5.932306e+01
  -1.173535e+02  -6.468599e+01
  -5.553410e-02  -2.190170e+02
   6.428730e+01  -1.639248e+02
   1.308709e+02  -1.974011e+01
   4.769147e+01   1.096541e+02
   1.122539e+01   1.141837e+02
  -4.842738e+01  -4.090314e+00
  -8.484711e+01  -1.020419e+01
  -2.820048e+01   5.077277e+00
   3.916573e+00   4.081591e+01
  -3.833170e+00  -2.863103e+00
  -3.567818e+01  -9.966345e+01
  -4.414619e+01  -1.310272e+02
   3.635255e+01  -6.774788e+01
   1.798457e+02   2.828840e+01
   1.159789e+02   7.758789e+01
   4.967254e+01   5.483643e+01
  -1.081606e+02  -3.244862e+00
  -1.108602e+02  -5.692539e+00
  -1.193711e+01  -2.516928e+01
   3.273092e+01  -1.453819e+01
  -8.148159e+00  -4.527555e+01
  -2.269876e+01   7.365866e-02
   2.405140e+00   3.276892e+01
   9.720397e+01   2.521274e+01
   9.970187e+01   1.081346e+01
   1.403266e+01   1.102474e+02
  -1.122368e+02   1.151571e+02
  -1.907668e+02   5.188324e+01
  -1.484735e+02  -6.603299e+01
  -1.069438e+01  -1.724683e+02
   6.411891e+01  -1.418489e+02
   1.138646e+02  -9.086851e+01
   7.898609e+01  -3.227642e+00
   3.910737e+01   3.691971e+01
   8.939151e+00  -1.648498e+01
  -4.484501e+00  -1.169346e+01
   3.609484e+01   4.007497e+01
   2.407177e+01   5.579947e+01
  -3.033864e+01   4.598823e+01
  -6.276566e+01  -9.020750e+00
  -8.510239e+01  -1.055947e+02
  -3.278517e+01  -1.295480e+02
   8.528947e+01  -1.085491e+01
   1.044986e+02   9.116645e+01
   1.354531e+01   6.322322e+01
  -7.620541e+01   5.338973e+01
  -1.279529e+02   8.858377e+00
  -5.615743e+01  -3.912733e+01
   4.782152e+01  -2.883625e+01
   4.540639e+01  -5.154507e+01
  -5.981560e+01  -4.128655e+00
  -7.522925e+01   4.696685e+01
   2.734372e+00  -4.761595e+01
   8.105308e+01  -5.397112e+01
   1.088136e+02  -8.831460e+01
   7.864629e+01  -4.429329e+00
  -3.511272e+01   1.164324e+02
  -8.732270e+01   7.945271e+01
  -3.848757e+01   1.385238e+00
   1.878219e+01  -6.669988e+01
   8.267967e+00  -2.206716e+01
   6.511029e+01   1.867884e+01
  -1.495023e+01   8.810560e+01
   2.887749e+01   3.660960e+01
  -1.707480e+01  -9.944481e+00
  -2.934539e+01  -2.889907e+01
  -5.495208e+00   1.873562e+01
  -6.778506e+00   2.925195e+01
   1.382450e+01   3.036339e+00
   1.769896e+01  -2.399768e+01
   1.824784e+01  -2.029991e+01
   2.915709e+01   2.293428e+00
   6.021878e+01   4.260906e+01
  -3.025292e+01   6.511451e+01
  -4.255598e+01   3.970747e+00
  -8.404781e+01  -5.951643e+01
  -4.507035e+01  -6.499610e+01
   8.035357e+01  -5.558745e+01
   8.801474e+01   3.276908e+01
   5.302931e+01   4.309852e+01
  -2.171978e+01   3.656267e+01
  -5.158784e+01   1.892300e+00
  -3.939281e+01  -2.119032e+01
   3.887634e+01   2.188136e+01
   4.348468e+01   3.184904e+01
  -3.545775e+01   3.096699e+01
  -9.519752e+01   1.225256e+01
