
 $NMID
 id='ANONYMOUS ', fmtdat='(2E16.6)'
 volume=1.0
 tramp=1.0
 $END
  -4.043850e+03   1.715391e+01
  -2.381541e+03  -2.625497e+03
   1.019895e+03  -2.533791e+03
   1.976111e+03  -9.807365e+02
   8.095400e+02   6.864458e+02
  -4.562288e+02   4.750058e+02
  -6.819738e+02  -4.019098e+02
  -1.099199e+02  -9.122490e+02
   7.554513e+02  -6.343581e+02
   8.528937e+02   1.314390e+02
   3.715658e+02   7.575615e+02
  -2.148741e+02   7.272085e+02
  -6.052263e+02   1.292628e+02
  -3.129866e+02  -6.688794e+02
   2.664085e+02  -5.543386e+02
   5.157516e+02  -4.577474e+00
   1.810320e+02   5.021910e+02
  -2.506418e+02   5.604441e+02
  -5.760231e+02   2.118620e+01
  -3.576515e+02  -2.591426e+02
  -4.465132e+01  -3.912951e+02
   1.870812e+02  -2.627993e+02
   1.670674e+02  -2.831809e+01
  -1.313951e+02   7.402557e+01
  -3.796239e+02  -1.381902e+02
  -1.848502e+02  -3.149612e+02
   4.124095e+02  -3.572976e+02
   6.268127e+02   8.071670e+01
   3.315966e+02   3.573231e+02
  -3.713487e+02   3.558958e+02
  -6.668793e+02  -6.623139e+01
  -2.699418e+02  -4.207411e+02
   2.627551e+02  -4.376996e+02
   5.620746e+02  -1.778856e+02
   3.379888e+02   2.279802e+02
   1.194456e+02   4.417364e+02
  -1.658825e+02   2.260306e+02
  -1.180732e+02  -2.017127e+02
   2.064875e+02  -3.132278e+02
   3.407283e+02   1.627648e-01
   2.449923e+02   4.917039e+02
  -3.157632e+02   6.198204e+02
  -6.222262e+02   1.708375e+01
  -2.289494e+02  -5.049592e+02
   2.544764e+02  -2.384692e+02
   2.781300e+02   2.813856e+02
  -5.182477e+01   4.387065e+02
  -4.146464e+02   7.648289e+01
  -4.968660e+02  -3.399144e+02
  -1.691169e+02  -4.628872e+02
   3.210311e+02  -3.008461e+02
   4.866181e+02   1.287944e+02
   2.682743e+02   2.775187e+02
  -1.254014e+02   3.135495e+02
  -4.182415e+02   9.109902e+01
  -1.835945e+02  -1.790419e+02
   1.311694e+02  -7.436768e+01
   1.429903e+02   1.356099e+02
  -1.445988e+02   1.586242e+02
  -3.082768e+02  -7.680793e+01
  -1.409613e+02  -2.648271e+02
   1.912189e+02  -2.941095e+02
   3.055094e+02  -6.466537e+01
   1.900383e+02   7.048290e+01
  -2.656778e+01   2.674401e+02
  -2.214478e+02   3.381841e+02
  -3.132220e+02   2.261229e+02
  -3.327169e+02  -1.593290e+02
  -4.659506e+01  -3.884510e+02
   7.492652e+01  -3.830920e+02
   1.004257e+02  -1.132255e+02
   1.460976e+01   6.112206e+00
   6.162227e+01  -1.006311e+02
   2.329058e+02  -1.160988e+02
   2.447775e+02   7.333837e+01
   1.326298e+02   2.534264e+02
  -7.645396e+01   2.012562e+02
  -1.521037e+02  -6.888407e+00
  -1.797056e+02  -2.654809e+02
  -7.652631e+00  -2.662488e+02
   2.578445e+02  -9.006768e+01
   3.167245e+02   1.292727e+02
   1.916322e+02   3.517375e+02
  -7.010061e+01   2.687043e+02
  -1.631706e+02   1.432754e+02
  -1.450268e+02   9.435133e+00
  -1.038533e+02   6.503923e+01
  -2.136353e+02   5.575573e+01
  -3.820407e+02  -8.448426e+01
  -3.157423e+02  -2.156610e+02
   1.337638e+01  -4.077208e+02
   3.990440e+02  -3.713475e+02
   4.390920e+02  -1.661691e+02
   3.552724e+02   8.982215e+01
   3.667332e+01   2.995202e+02
  -1.026445e+02   1.944923e+02
  -1.060776e+01   6.377135e+01
   9.091606e+01  -1.032319e+02
   1.566086e+02  -3.893759e+00
   6.496487e+01   1.904118e+02
  -1.226659e+02   5.128435e+01
  -1.643864e+02  -6.665706e+01
   1.116048e+01  -1.858950e+02
   1.814485e+02  -5.562733e+01
   1.587200e+02   1.969066e+02
  -2.762835e+01   2.916661e+02
  -2.121703e+02   2.183125e+02
  -2.691514e+02  -8.261677e+00
  -2.468947e+02  -1.665320e+02
  -7.274452e+01  -2.626764e+02
   1.211745e+02  -1.421186e+02
   1.132401e+02  -1.405872e+01
   5.292919e+01   1.469412e+01
  -7.028095e+01  -2.188277e+01
   7.253154e+00  -9.814351e+01
   1.022613e+02  -8.461685e+01
   1.476319e+02   1.835098e+00
   5.256777e+01   9.560914e+01
  -6.926947e+01   1.747686e+01
  -3.405767e+01  -6.961289e+01
   1.428602e+02  -8.300978e+01
   2.557516e+02   4.435849e+01
   2.410808e+02   1.157046e+02
   5.440498e+01   2.093492e+02
  -1.481457e+02   2.577955e+02
  -2.478376e+02   6.914344e+01
  -1.498738e+02  -5.683148e+01
   1.965145e+01  -8.819646e+01
   5.275583e+01  -2.240988e+01
  -4.394701e+01   9.657094e+01
  -1.767240e+02   6.036120e+01
  -1.854199e+02  -7.416303e+01
  -7.516216e+01  -1.681162e+02
   1.116875e+02  -1.292469e+02
   1.440301e+02  -3.837747e+01
   4.279673e+01   4.444637e+01
  -3.136783e+01   2.623070e+01
  -4.342167e+01  -9.749333e+01
   3.596710e+01  -9.146025e+01
   1.625686e+02  -1.982455e+01
   2.008006e+02   1.319335e+02
   3.442007e+01   1.673955e+02
  -1.557450e+02   1.625934e+02
  -1.773380e+02  -1.228704e+01
  -9.243321e+01  -9.513137e+01
   5.119323e+01  -8.006295e+01
   9.407429e+01   3.161654e+00
   1.843258e+01   3.369380e+01
   1.260808e+00   1.070573e+01
   1.210287e+01  -9.178928e+00
   6.625431e+01   2.536394e+01
   1.019024e+02   7.627315e+01
   3.575380e+01   1.655033e+02
  -1.024985e+02   1.387217e+02
  -1.870831e+02   5.219364e+01
  -2.031082e+02  -1.477866e+02
  -1.345277e+00  -2.416138e+02
   5.792704e+01  -1.582434e+02
   1.301702e+02  -3.248741e+01
   3.298749e+01   4.989710e+01
   3.588534e+01   3.616985e+01
   6.825760e+01  -2.866884e+01
   7.681210e+01   2.441700e+00
   3.453790e+01   5.032530e+01
  -3.538982e+01   9.490536e+01
  -9.297762e+01   4.593806e+01
  -6.819223e+01  -3.821550e+01
  -2.286573e+01  -1.191847e+02
   1.458343e+02  -9.830037e+01
   1.925365e+02   1.372211e+01
   8.502322e+01   1.920841e+02
  -8.135351e+01   2.647379e+02
  -2.303650e+02   7.265808e+01
  -2.549954e+02  -7.789111e+01
  -7.066845e+01  -1.557885e+02
   3.544560e+01  -1.383484e+02
   7.312710e+01  -7.563410e+01
   4.795391e+01  -6.205092e+01
   5.617573e+01  -8.870389e+01
   4.949135e+01  -8.513714e+01
   1.211538e+02   3.076291e+01
   1.033437e+02   1.511029e+02
   3.511445e+01   2.053561e+02
  -7.881732e+01   1.431460e+02
  -1.663453e+02   4.244086e+01
  -1.096483e+02  -1.181507e+02
  -1.637436e+01  -2.013615e+02
   4.629720e+01  -8.184267e+01
   7.000290e+01   7.251239e+00
  -4.536311e+00   4.735098e+01
  -1.247472e+00   4.496590e+01
   2.903286e+01   4.327065e+01
   7.563912e+01   3.070550e+01
   4.813442e+01   4.296042e+01
  -4.847102e+01   4.589749e+01
  -1.331711e+02  -1.951088e+01
  -1.360521e+02  -6.854739e+00
  -4.016393e+01  -9.144806e+01
   1.275958e+02  -4.208839e+01
   1.154573e+02  -7.118965e+00
   6.200454e+01   2.726386e+01
  -3.647842e+01   3.442537e+01
  -7.466338e+01  -2.802423e+01
   1.299185e+01  -9.413902e+01
   7.526905e+01  -8.346965e+01
   8.120715e+01   9.677609e+00
   6.907289e+01   3.881653e+01
   4.447990e+01   3.870768e+01
   6.690413e+01  -1.018226e+01
   6.014433e+01   3.154256e+01
   1.051122e+01   6.875933e+01
  -2.195014e+01   1.301250e+02
  -9.477274e+01   1.223359e+02
  -1.410660e+02   3.097831e+00
  -1.285924e+02  -7.694145e+01
  -2.004832e+01  -1.333131e+02
   6.659909e+01  -6.876868e+01
   7.057715e+01   1.239911e+01
  -3.315342e+01   1.173226e+01
  -1.186751e+02   1.346479e+01
  -5.935562e+01  -9.725521e+01
   8.065546e+01  -1.060176e+02
   1.831749e+02  -4.790537e+01
   1.651796e+02   6.277648e+00
   6.890698e+01   9.057905e+01
  -8.250090e+01   4.104996e+01
  -1.636375e+01   1.555387e+01
   2.295957e+01  -2.222706e+01
   7.827526e+01   4.404676e+01
   5.490152e+00   1.059075e+02
  -8.808608e+01   1.563161e+02
  -1.694543e+02   4.870734e+01
  -9.530982e+01  -8.378229e+01
  -3.005704e+01  -1.575036e+02
   6.963680e+01  -1.296132e+02
   1.037156e+02  -2.803697e+01
   6.007851e+01   1.003731e+02
   1.198649e+01   7.397089e+01
  -4.724476e+01   1.882868e+01
  -6.066604e+01  -2.681021e+01
  -2.478992e+01  -3.455329e+00
  -2.504505e+01   2.234898e+01
  -1.399024e+01  -2.184159e+01
  -5.151525e+01  -7.183010e+01
  -2.973223e+01  -9.999770e+01
   6.690838e+01  -1.685083e+01
   1.497372e+02   1.977581e+01
   1.493168e+02  -1.435423e+00
   4.143089e+01   5.443762e+01
  -6.085888e+01   6.323127e+00
  -8.162722e+01  -2.090926e+01
   1.516602e+01  -2.267777e+01
   1.937504e-01  -3.109255e+01
  -4.773628e+00   9.308337e+00
  -3.895201e+01  -1.908201e+01
  -5.496742e-01   2.287621e+00
   7.176251e+01  -2.494805e+01
   5.629129e+01   3.002634e+01
  -2.559587e+00   6.264413e+01
  -1.290603e+02   1.335757e+02
  -1.671506e+02   5.294567e+01
  -9.399960e+01  -4.142444e+01
  -2.509732e+01  -1.313689e+02
   8.779202e+01  -1.339081e+02
   1.080123e+02  -5.774385e+01
   1.078212e+02   1.630610e+01
   2.333920e+01   1.625302e+00
  -3.092550e+00  -7.415092e-01
   2.977334e+01  -1.889944e+01
   2.353954e+01   5.686778e+01
   1.567575e+01   7.099910e+01
  -2.381482e+01   7.241370e+01
  -7.069254e+01  -1.687264e+01
  -8.417755e+01  -8.575227e+01
   1.167352e+01  -1.235468e+02
   6.954578e+01  -4.349994e+01
   9.754658e+01   2.259541e+01
   3.744406e+01   8.177798e+01
  -3.969062e+01   3.377079e+01
  -1.018710e+02  -4.185896e+01
  -2.454787e+01  -8.335336e+01
   1.816267e+01  -3.655586e+01
   4.486493e+01  -1.795792e+01
  -4.181064e+01   2.662866e+01
  -6.527295e+01   1.010907e+01
   8.603544e-01  -2.287734e+01
   8.491087e+01  -6.575010e+01
   1.197525e+02  -9.584936e+01
   8.631238e+01  -4.545022e+00
  -3.491916e+01   5.983408e+01
  -3.478770e+01   1.066114e+02
  -3.980566e+01  -1.572905e+01
   1.230141e+01  -7.477584e+01
   3.291979e+01  -3.428352e+01
   2.691578e+01   3.941815e+01
   3.042890e+01   6.835126e+01
   1.851641e+01   3.489676e+01
  -4.166356e+01  -5.752967e+00
  -2.185822e+01  -4.094520e+01
  -2.475316e+01  -3.159847e+01
   5.392609e-01   1.580710e+01
   4.971327e+00   7.712765e+00
   1.581046e+01  -1.032605e+01
   4.801656e+00  -3.368253e+01
   3.989740e+01  -9.488094e+00
   2.309422e+01   2.277704e+01
   4.940374e+00   5.564939e+01
  -2.404526e+01   7.413478e+00
  -4.026284e+01  -2.010408e+01
  -7.742526e-01  -7.330851e+01
   6.264905e+01  -5.555332e+01
   1.193488e+02  -1.849866e+00
   5.354202e+01   3.396287e+01
  -3.024035e+01   7.215249e+01
  -4.066204e+01   4.310982e+01
  -1.380085e+01   3.642091e+01
   3.371490e+01   1.297055e+01
   3.412139e+01   1.762558e+01
  -2.239596e+01   1.948708e+01
  -1.006830e+02   2.471098e+01
