
 $NMID
 id='ANONYMOUS ', fmtdat='(2E16.6)'
 volume=1.0
 tramp=1.0
 $END
   4.161477e+03   1.328172e+02
   2.357506e+03   2.566843e+03
  -1.788024e+02   2.447627e+03
  -1.799452e+03   9.108626e+02
  -8.738326e+02  -4.090926e+02
   3.041480e+02  -4.094101e+02
   7.535904e+02   3.005791e+02
   3.593748e+01   8.880619e+02
  -6.893745e+02   7.183088e+02
  -8.320727e+02  -1.104763e+02
  -4.093214e+02  -6.407741e+02
   1.059895e+02  -8.543796e+02
   5.277058e+02  -6.145402e+01
   2.916730e+02   6.839984e+02
  -1.775316e+02   7.907263e+02
  -5.728322e+02   7.381931e+01
  -2.552500e+02  -5.522308e+02
   2.109629e+02  -6.006185e+02
   5.103422e+02  -8.713450e+01
   3.479194e+02   1.770677e+02
  -1.371073e+01   3.889490e+02
  -1.957185e+02   2.276421e+02
  -2.046349e+02   1.376421e+01
   1.253485e+02  -7.779263e+01
   3.729401e+02   2.393021e+02
   1.065773e+02   3.824984e+02
  -5.257924e+02   3.320825e+02
  -7.903848e+02  -1.552731e+02
  -3.418892e+02  -4.148544e+02
   3.381155e+02  -3.557477e+02
   7.261506e+02   1.943127e+02
   2.104899e+02   3.758263e+02
  -3.195814e+02   5.304831e+02
  -4.345217e+02   1.743602e+02
  -3.973329e+02  -1.944461e+02
  -9.485770e+01  -3.675141e+02
   1.695222e+02  -2.254563e+02
   8.201775e+01   2.162221e+02
  -1.427784e+02   3.862367e+02
  -3.593963e+02  -8.432856e+01
  -1.891771e+02  -6.183767e+02
   3.180926e+02  -6.573006e+02
   5.472171e+02   1.216991e+02
   8.372479e+01   5.503792e+02
  -2.841303e+02   3.112989e+02
  -2.263622e+02  -3.648640e+02
   9.421990e+01  -4.607903e+02
   4.904763e+02  -1.386870e+02
   6.310311e+02   4.020131e+02
   1.213259e+02   4.635774e+02
  -3.330469e+02   3.568713e+02
  -5.551454e+02  -2.389246e+01
  -3.318047e+02  -2.920794e+02
   1.066880e+02  -3.438486e+02
   4.130462e+02  -2.913348e+01
   2.715092e+02   1.156013e+02
  -7.315907e+01   7.451130e+01
  -9.034890e+01  -7.265189e+01
   1.984869e+02  -1.451985e+02
   3.360109e+02   1.648196e+02
   1.052492e+02   2.446006e+02
  -1.916301e+02   1.937220e+02
  -2.788267e+02   5.616757e+01
  -2.382401e+02  -8.027683e+01
   3.970256e+01  -2.643189e+02
   2.287146e+02  -3.958283e+02
   3.199526e+02  -1.740800e+02
   2.936780e+02   1.655337e+02
   1.046268e+02   4.388437e+02
  -9.039681e+01   3.625024e+02
  -1.234334e+02   8.001961e+01
  -3.378126e+01   5.296969e+01
  -4.493057e+01   8.852848e+01
  -2.464203e+02   1.464735e+02
  -3.082100e+02  -6.669508e+01
  -1.413639e+02  -2.366867e+02
   6.718699e+01  -2.344383e+02
   2.481869e+02  -1.068011e+01
   1.319957e+02   2.550058e+02
  -2.389992e+01   3.104192e+02
  -2.625419e+02   1.151148e+02
  -3.171308e+02  -2.194135e+02
  -1.987254e+02  -3.187319e+02
   7.635682e+01  -2.997647e+02
   1.811562e+02  -1.482406e+02
   1.565431e+02  -3.848206e+01
   9.776193e+01  -6.579937e+01
   2.251947e+02  -6.466837e+01
   4.133463e+02   1.148375e+02
   3.242971e+02   2.451039e+02
  -6.992444e+01   4.629192e+02
  -3.853901e+02   4.206488e+02
  -4.663891e+02   1.569420e+02
  -3.371321e+02  -1.181689e+02
  -6.883766e+01  -2.811986e+02
   1.209881e+02  -2.488944e+02
   8.023492e+01  -4.536524e+01
  -1.182117e+02   1.080259e+02
  -1.911467e+02  -1.759004e+01
  -3.368051e+01  -1.557472e+02
   1.657690e+02  -1.236605e+02
   1.502629e+02   1.126790e+02
  -4.377579e+01   1.731741e+02
  -1.537094e+02   1.113762e+01
  -1.483926e+02  -2.594406e+02
   2.215346e+01  -3.925666e+02
   2.921020e+02  -2.037759e+02
   3.870225e+02   1.266166e+02
   2.998947e+02   2.541522e+02
   3.076571e+01   2.905356e+02
  -1.063409e+02   1.617591e+02
  -1.528111e+02   3.072055e+00
  -6.724684e+01  -2.472579e+01
   5.674600e+01   4.213887e+01
   4.099201e-03   1.339072e+02
  -1.013564e+02   8.121066e+01
  -1.700288e+02  -1.514621e+01
  -6.239660e+01  -4.964466e+01
   6.528138e+01  -1.000094e+01
   3.365637e+01   1.034127e+02
  -1.652819e+02   7.059017e+01
  -2.919557e+02   2.260335e-01
  -2.800565e+02  -1.150713e+02
  -6.992904e+01  -2.889004e+02
   2.533844e+02  -2.668606e+02
   2.822843e+02  -1.571431e+02
   1.475545e+02   7.810354e+01
  -3.572798e+01   1.043509e+02
  -8.946404e+01   1.935578e+01
   5.512639e+01  -8.943657e+01
   1.828692e+02  -6.703005e+01
   2.071530e+02   1.224685e+02
   6.616434e+01   2.251566e+02
  -8.092102e+01   1.600982e+02
  -1.721505e+02   1.233614e+01
  -5.963469e+01  -6.142624e+01
   4.025549e+01   5.042322e+01
   6.159910e+01   9.965820e+01
  -8.041299e+01   9.310674e+01
  -2.024671e+02   5.166115e+01
  -1.470386e+02  -1.308430e+02
  -3.159935e+01  -2.187755e+02
   1.411973e+02  -1.595753e+02
   1.642559e+02  -1.236354e+01
   7.288943e+01   1.081331e+02
  -1.037446e+02   9.921059e+01
  -5.842189e+01  -1.407205e+01
  -1.268951e+00  -2.361621e+01
   1.384728e+01  -2.763925e+01
  -4.498069e+01   1.846069e+01
  -7.946794e+01   2.421568e+01
  -8.591704e+01  -5.827977e+01
  -5.760683e+01  -1.326086e+02
   1.206582e+02  -1.465523e+02
   2.354190e+02  -1.082386e+01
   1.706876e+02   1.540383e+02
   5.007677e+01   2.663135e+02
  -8.342189e+01   1.526578e+02
  -1.539685e+02   1.988001e+01
  -5.055920e+01  -7.718186e+01
  -2.605478e+01  -1.928269e+01
  -4.449850e+01   2.171977e+01
  -6.306237e+01   7.719973e+00
  -4.526174e+01  -6.135975e+01
   4.388706e+01  -7.416621e+01
   9.320823e+01  -3.297155e+01
   8.634346e+01   3.881794e+01
  -1.859513e+01   1.174653e+02
  -1.633609e+02   9.299515e+01
  -1.919424e+02  -4.617546e+01
  -1.328465e+02  -1.869085e+02
   7.441253e+01  -1.975444e+02
   2.768622e+02  -7.554565e+01
   2.366636e+02   9.469210e+01
   1.375933e+02   1.703710e+02
  -1.916346e+01   1.538448e+02
  -6.268672e+01   7.138890e+01
  -1.193174e+02   9.300824e+01
  -5.703160e+01   7.488750e+01
  -9.615246e+01   8.005610e+01
  -1.211225e+02   2.112887e+01
  -1.174592e+02  -1.119600e+02
  -1.619440e+01  -2.105694e+02
   9.861996e+01  -2.067240e+02
   2.152659e+02  -7.539390e+00
   1.144612e+02   1.485241e+02
   2.078819e+00   1.628389e+02
  -9.717121e+01   8.452240e+01
  -3.717106e+01   2.345452e+01
  -9.767597e+00  -5.322031e+01
   2.106045e+01  -1.971390e+01
  -1.126441e+01  -3.378998e+00
  -9.165568e+01  -1.654326e+01
  -2.004945e+01  -2.056714e+01
   4.518632e+01  -2.962980e+01
   1.496224e+02   8.459807e+00
   1.711967e+02   6.983454e+01
   3.184923e+01   8.913625e+01
  -1.373349e+02   7.340055e+01
  -1.665779e+02  -5.616527e-01
  -3.580526e+01  -3.463104e+01
   7.292044e+01  -2.048558e+01
   1.133037e+02   3.670852e+01
   2.731588e+01   5.952801e+01
  -5.904237e+01   6.976814e+01
  -7.320373e+01  -8.087621e+00
  -5.650942e+01  -3.233805e+01
  -3.776843e+01  -3.367592e+01
  -5.736669e+01   2.083561e+01
  -7.714487e+01  -1.633336e+01
  -4.143354e+01  -3.244601e+01
   4.605710e+01  -1.647995e+02
   1.033943e+02  -1.244943e+02
   1.882307e+02  -6.871671e+01
   1.306639e+02   8.810209e+01
   3.231200e+01   1.460502e+02
  -8.530929e+01   8.820260e+01
  -1.134190e+02  -9.179518e+00
   7.080452e+01  -3.062597e+01
   1.436897e+02   4.076734e+01
   1.190369e+02   1.085077e+02
  -1.218885e+02   9.514208e+01
  -1.797346e+02   4.913376e+01
  -1.813938e+02   1.213968e+01
  -2.843917e+01  -7.334997e+01
   5.938277e+01  -6.291136e+01
   5.951548e+01  -5.287595e+00
  -5.199324e+01   1.357107e+01
  -1.121498e+02   1.616469e+00
  -5.090862e+01  -1.182013e+02
   9.295215e+01  -1.482966e+02
   1.693840e+02  -5.643137e+01
   1.115876e+02   5.023855e+01
  -7.800990e-01   1.665859e+02
  -1.025472e+02   1.553345e+02
  -9.319551e+01  -6.825021e+00
  -7.797628e+01  -1.400645e+02
  -5.779332e+00  -1.231006e+02
   4.623426e+01  -1.102434e+01
   5.533896e+01   1.524292e+01
   2.383224e+01  -1.291432e+00
   1.988249e+01   4.070739e+00
   2.670506e+01   1.272992e+01
   5.505516e+01   9.838782e+01
   5.407715e+01   1.071164e+02
  -2.563760e+01   6.230938e+01
  -1.466079e+02  -2.708840e+01
  -1.063337e+02  -7.625519e+01
  -4.883377e+01  -6.434387e+01
   9.402176e+01  -2.100416e+01
   9.529034e+01   4.841821e+00
   1.782675e+01  -1.292174e+00
  -3.715190e+01   4.331717e+01
  -5.024768e+00   2.050652e+01
  -4.202635e-01   1.722079e+01
  -1.504718e+01   7.999725e+00
  -5.182662e+01   1.757914e+01
  -9.374444e+01   5.727097e+00
  -2.294951e+01  -5.136326e+01
   1.038692e+02  -1.156581e+02
   1.574763e+02  -4.112422e+01
   1.191528e+02   6.677210e+01
  -4.384888e+00   1.212912e+02
  -8.915044e+01   1.665568e+02
  -1.063147e+02   5.431760e+01
  -7.739884e+01  -2.518749e+01
  -2.248099e+01  -4.035596e+01
  -1.613713e+01   3.664805e+00
  -3.112481e+01   2.274366e+01
  -6.115898e+01  -5.291608e+01
   9.251081e+00  -8.996723e+01
   3.796315e+01  -7.711226e+01
   9.100771e+01   4.487890e+00
   6.281970e+01   1.015696e+02
   7.151335e+00   1.063103e+02
  -1.012337e+02   3.828075e+01
  -1.065473e+02  -5.614006e+01
  -4.328203e+01  -1.087991e+02
   6.461650e+01  -6.327892e+01
   9.343602e+01   1.007181e+01
   6.263624e+01   1.455669e+01
  -5.919786e+01   7.004433e+01
  -3.640320e+01   1.253811e+01
   2.814398e+01  -2.411020e+01
   5.317241e+01   5.798889e+00
   1.368641e+01   1.814216e+01
  -7.590287e+01   6.789938e+01
  -1.030597e+02   3.892554e+01
  -4.560908e+01  -1.268805e+01
   4.803521e-01  -8.081561e+01
   5.398338e+01  -7.720445e+01
   2.757916e+01   4.523837e+00
   1.853660e+00   4.563032e+01
  -2.470278e+01   4.543007e+01
  -1.447571e+01  -1.832801e-01
  -3.169581e+01  -5.010798e+01
   9.202325e-01  -1.940936e+01
   6.946297e+00   1.097571e+01
   7.819324e+01   1.609039e+01
   1.565644e+01   2.726216e+01
   1.416766e+01  -1.915879e+01
  -3.269912e+01  -3.025176e+00
  -1.193092e+01   4.544128e+01
  -3.327360e+00   5.165141e+01
  -2.036490e+01   3.642834e+01
  -4.623927e+01  -4.891313e+01
   1.763483e+01  -6.149754e+01
   5.959836e+01  -3.354777e+01
   4.504155e+01   1.277079e+01
   2.038320e+01   6.717252e+01
  -5.597660e+01   2.696803e+01
  -7.655812e+01  -2.209768e+01
  -3.043208e+01  -3.953159e+01
   1.655138e+01  -2.940812e+00
   5.759737e+01  -6.636569e+00
   3.052073e+01  -9.058530e-01
  -3.129849e+01   1.514712e+01
  -5.561783e+01  -1.898218e+01
   2.489272e+01  -1.267494e+01
   8.007927e+01  -1.559721e+01
