
 $NMID
 id='ANONYMOUS ', fmtdat='(2E16.6)'
 volume=1.0
 tramp=1.0
 $END
  -4.088743e+03  -1.691805e+02
  -2.358074e+03  -2.102260e+03
   2.811355e+02  -2.200146e+03
   1.521559e+03  -9.587642e+02
   1.018503e+03   1.056928e+02
  -1.968556e+02   4.077647e+02
  -6.307945e+02  -1.393279e+02
  -1.387562e+01  -7.729952e+02
   5.838281e+02  -5.355270e+02
   7.327125e+02   5.598546e+01
   4.097290e+02   5.345367e+02
  -4.389818e+01   8.110552e+02
  -4.798132e+02   5.375161e+01
  -2.451958e+02  -6.177667e+02
   1.987298e+02  -8.335278e+02
   5.073424e+02  -2.414799e+01
   2.500584e+02   5.479220e+02
  -1.869051e+02   6.239138e+02
  -4.872083e+02   1.911779e+02
  -3.869808e+02  -1.798556e+02
  -1.210727e+01  -3.923663e+02
   1.496739e+02  -2.262078e+02
   1.358756e+02  -5.348998e+01
  -1.170203e+02   3.726616e+00
  -3.524687e+02  -2.789990e+02
  -8.949366e+01  -3.882801e+02
   4.384489e+02  -2.779116e+02
   6.361106e+02   9.545973e+01
   2.979654e+02   3.530864e+02
  -3.459214e+02   3.010876e+02
  -6.505070e+02  -1.289512e+02
  -1.749898e+02  -3.205394e+02
   3.168893e+02  -4.718981e+02
   4.359716e+02  -1.291321e+02
   4.313821e+02   1.823028e+02
   1.222056e+02   3.391255e+02
  -8.968922e+01   2.029146e+02
  -9.052539e+01  -2.228038e+02
   1.722720e+02  -3.270155e+02
   2.803645e+02   1.615218e+02
   1.450384e+02   6.357345e+02
  -3.126424e+02   6.317458e+02
  -4.298777e+02  -8.599098e+01
  -1.386914e+02  -4.922399e+02
   2.465545e+02  -3.033554e+02
   2.119876e+02   3.040688e+02
  -1.356696e+02   4.805202e+02
  -4.727866e+02   1.371247e+02
  -5.720268e+02  -3.222700e+02
  -1.652354e+02  -4.664677e+02
   3.700403e+02  -3.346436e+02
   5.661730e+02  -3.242444e+00
   2.866130e+02   2.728482e+02
  -8.826317e+01   2.638918e+02
  -4.027481e+02   2.851705e+01
  -2.197186e+02  -7.294814e+01
   3.787713e+01  -1.021450e+02
   5.711123e+01   1.079932e+02
  -1.646715e+02   8.454227e+01
  -2.954376e+02  -6.850098e+01
  -1.323958e+02  -2.331584e+02
   1.562971e+02  -2.033786e+02
   2.444112e+02  -3.697305e+01
   2.335293e+02   1.154122e+02
  -1.143883e+01   2.947656e+02
  -2.551617e+02   4.170660e+02
  -3.720330e+02   2.182801e+02
  -2.366027e+02  -1.652651e+02
  -1.187261e+02  -4.563933e+02
   8.864724e+01  -3.312913e+02
   8.009876e+01  -1.404746e+02
   3.872091e+01  -6.142430e+01
   8.193140e+01  -1.040728e+02
   2.465023e+02  -1.368046e+02
   2.800622e+02   7.994906e+01
   1.285256e+02   2.505458e+02
  -7.416843e+01   2.047717e+02
  -2.421722e+02  -1.665562e+01
  -1.218231e+02  -2.446535e+02
   5.460008e+01  -3.016314e+02
   2.757251e+02  -5.858088e+01
   2.712662e+02   2.354703e+02
   2.056625e+02   3.544920e+02
  -4.180489e+01   2.666805e+02
  -1.985571e+02   1.415644e+02
  -1.439388e+02   4.014363e+01
  -1.213106e+02   4.729233e+01
  -2.633240e+02   2.741078e+00
  -3.908609e+02  -9.913829e+01
  -3.559506e+02  -2.449197e+02
   9.307069e+01  -4.917107e+02
   3.794501e+02  -4.281831e+02
   4.882732e+02  -1.548568e+02
   3.640571e+02   1.506794e+02
   5.690491e+01   2.705679e+02
  -1.227833e+02   2.571126e+02
  -4.039583e+01   3.558115e+01
   1.135840e+02  -5.659272e+01
   1.528729e+02   4.817549e+01
   2.395779e+01   1.714216e+02
  -1.576627e+02   1.514954e+02
  -1.268334e+02  -1.165830e+02
   2.953693e+01  -1.464009e+02
   1.559644e+02   1.888345e+01
   1.431080e+02   2.384949e+02
  -4.311512e+00   3.687638e+02
  -2.926732e+02   2.067915e+02
  -3.303712e+02  -1.309959e+02
  -3.164328e+02  -2.891528e+02
  -2.462909e+01  -2.660879e+02
   9.623906e+01  -1.525538e+02
   1.617481e+02   2.243464e+01
   6.253930e+01   2.924783e+01
  -3.558966e+01  -2.035573e+01
   4.729696e-02  -1.431326e+02
   1.183612e+02  -1.025261e+02
   1.915835e+02   3.807352e+01
   5.371809e+01   4.136347e+01
  -6.352004e+01   4.376607e+00
  -4.402830e+01  -8.784355e+01
   1.392196e+02  -8.641091e+01
   2.451603e+02   4.770269e+01
   2.557974e+02   1.506892e+02
   4.435145e+01   2.571798e+02
  -2.193971e+02   2.450762e+02
  -2.461443e+02   1.394134e+02
  -1.198306e+02  -4.114959e+01
   1.884587e+01  -9.411847e+01
   7.549087e+01  -4.531423e+00
  -5.067636e+01   6.861960e+01
  -1.520811e+02   2.520768e+01
  -2.023024e+02  -1.066059e+02
  -6.553881e+01  -2.259960e+02
   6.087259e+01  -1.486264e+02
   1.144700e+02  -1.651962e+01
   8.552889e+01   3.260700e+01
  -4.701282e+01  -2.361856e+01
  -2.270022e+01  -1.134016e+02
   8.498932e+01  -1.009977e+02
   2.125261e+02  -8.702649e+00
   1.760318e+02   1.454339e+02
   9.441489e+00   1.784489e+02
  -1.854110e+02   1.626129e+02
  -1.900355e+02   1.817790e+01
  -3.477013e+01  -1.089127e+02
   8.423772e+01  -8.848208e+01
   8.454084e+01  -2.309449e+01
  -6.343286e+00   1.641250e+01
  -1.346543e+01   3.031506e+01
   1.192853e+01  -2.794333e+01
   9.150583e+01   2.269814e+01
   1.034014e+02   8.274445e+01
   2.101075e+01   1.286021e+02
  -1.555300e+02   1.645601e+02
  -2.523690e+02   2.038278e+01
  -1.622694e+02  -1.351977e+02
  -7.552707e+01  -2.744644e+02
   9.508457e+01  -1.432926e+02
   1.582564e+02  -1.187033e+01
   3.219699e+01   4.375259e+01
   4.039081e+01   2.033723e+01
   4.780782e+01  -2.084975e+01
   5.922804e+01  -1.372551e+01
   2.393988e+01   5.589449e+01
  -4.513503e+01   9.650427e+01
  -7.849749e+01   6.285624e+01
  -9.103006e+01  -6.241453e+01
   8.005236e+00  -1.294180e+02
   1.494966e+02  -8.679919e+01
   2.089652e+02   4.643047e+01
   1.101438e+02   1.857348e+02
  -1.290545e+02   1.934481e+02
  -2.682182e+02   7.318868e+01
  -2.540774e+02  -1.109004e+02
  -1.256721e+02  -1.862552e+02
   4.107681e+01  -1.287097e+02
   8.229435e+01  -3.222526e+01
   1.048997e+02  -8.010483e+01
   7.051486e+01  -9.020488e+01
   9.626925e+01  -6.306116e+01
   1.106904e+02   2.473936e+01
   1.291833e+02   1.451702e+02
   1.083155e+01   2.172274e+02
  -7.542051e+01   1.870967e+02
  -2.023424e+02   4.853467e+00
  -1.147697e+02  -1.971919e+02
  -1.077267e+01  -1.581881e+02
   7.308409e+01  -1.076561e+02
   4.500379e+01  -1.990806e+01
  -2.398799e+01   1.699430e+01
  -2.630327e+01   5.426135e+01
  -2.443126e+00  -5.510105e+00
   8.295756e+01   2.089239e+01
   4.968472e+01   1.531639e+01
  -6.963050e+01   6.579724e+01
  -1.391994e+02  -1.744542e+01
  -1.511918e+02  -6.193838e+01
  -5.936475e+00  -1.038676e+02
   1.335558e+02  -7.389940e+01
   1.534385e+02   4.357540e+00
   3.906759e+01   6.982002e+01
  -8.210765e+01   1.949303e+01
  -9.523152e+01  -2.523682e+01
  -1.264147e+01  -7.868286e+01
   5.993828e+01  -5.439493e+01
   6.143484e+01  -1.288674e+01
   7.226833e+01   4.255600e+01
   4.392772e+01   4.670628e+01
   6.536756e+01   2.448387e+00
   7.407654e+01  -1.862715e+01
   4.814544e+01   5.318971e+01
  -6.209939e+01   1.638746e+02
  -1.022651e+02   9.155519e+01
  -1.705405e+02   6.841364e+01
  -1.560849e+02  -9.044502e+01
  -2.126186e+01  -1.388592e+02
   7.683955e+01  -8.289416e+01
   6.849055e+01   1.230669e+01
  -6.712230e+01   3.576878e+01
  -1.527354e+02  -1.425877e+01
  -1.012129e+02  -9.487682e+01
   1.032436e+02  -9.987843e+01
   1.874560e+02  -4.903826e+01
   1.345411e+02   4.810969e+01
   3.340934e+01   6.986519e+01
  -7.091141e+01   5.356098e+01
  -3.398652e+01   1.287411e+01
   3.057073e+01  -1.408455e+01
   8.826327e+01  -1.520133e+01
   3.384842e+01   1.207023e+02
  -8.860054e+01   1.346815e+02
  -1.848472e+02   5.879158e+01
  -1.252566e+02  -8.212212e+01
  -8.829514e-02  -1.764268e+02
   1.104313e+02  -1.388658e+02
   5.892341e+01   1.301290e+01
   6.258449e+01   1.425492e+02
  -1.105561e+01   8.674432e+01
  -6.125724e+01  -5.491085e+00
  -2.459740e+01  -3.373592e+01
  -3.462006e+01  -6.356281e+00
  -2.437213e+01   9.345856e+00
  -3.868203e+01  -4.643027e+00
  -6.475067e+01  -7.092887e+01
  -3.096527e+01  -7.298697e+01
   4.233621e+01  -8.958190e+01
   1.393198e+02   4.486034e+01
   1.141123e+02   7.948098e+01
   7.154730e+01   7.439586e+01
  -8.982634e+01   2.590680e+01
  -7.684795e+01   2.490187e+01
   7.609953e-01  -2.502184e+00
   4.352126e+01  -5.040265e+01
  -1.234312e+01  -3.680572e+01
  -6.565740e+00   1.303102e+01
   5.254587e-02   2.007782e+01
   8.304211e+01   1.994475e+01
   9.848342e+01   4.214972e+01
   4.165974e+01   8.865041e+01
  -1.080639e+02   1.270667e+02
  -1.724606e+02   7.683942e+01
  -1.573032e+02  -4.834659e+01
  -2.252151e+01  -1.405630e+02
   8.053236e+01  -1.565666e+02
   1.199177e+02  -6.078761e+01
   7.694510e+01   4.067157e+01
   1.902837e+01   3.655469e+01
   1.318575e+01   2.555900e+01
  -6.970690e+00  -1.442846e+01
   3.858416e+01   3.647112e+01
   3.647566e+01   8.641763e+01
  -1.147128e+00   8.613269e+01
  -9.361277e+01  -2.417070e+01
  -6.138222e+01  -8.909913e+01
  -1.452501e-01  -9.372649e+01
   7.315232e+01  -3.646990e+01
   1.145382e+02   4.891227e+01
   2.340190e+01   8.811862e+01
  -7.857332e+01   7.699142e+01
  -1.363925e+02  -4.288825e+00
  -5.475462e+01  -3.035300e+01
   2.475924e+01  -5.491389e+01
   2.315599e+01  -4.152837e+01
  -8.490196e+00   1.660323e+01
  -5.799482e+01   5.945801e+00
  -9.395273e+00  -3.371734e+01
   9.213547e+01  -6.042312e+01
   9.529379e+01  -4.142675e+01
   6.059273e+01   1.340677e+01
  -2.711513e+01   7.668855e+01
  -4.860335e+01   9.815340e+01
  -3.693379e+01  -3.473939e-01
  -5.946600e+00  -6.259572e+01
   2.005862e+01  -2.343868e+01
   2.950052e+01   9.274079e+00
   3.041140e+01   4.747072e+01
   7.000607e+00   4.047223e+01
  -1.988132e+01  -2.117452e+01
  -3.891045e+01  -1.873650e+01
  -6.140784e+00   1.672740e+01
   1.579592e+00   2.660130e+01
   2.072379e+01  -1.127819e+01
   1.202421e+01  -3.776397e+01
   2.026372e+01  -7.985723e+01
   3.869319e+01  -3.641251e+01
   4.952751e+01   2.837657e+01
  -3.371800e+01   7.287692e+01
  -3.894732e+01   2.448285e+01
  -5.180521e+01  -5.001716e+01
  -1.784762e+01  -6.058887e+01
   1.801839e+01  -3.199118e+01
   8.550082e+01   1.777187e+01
   6.711188e+01   4.202413e+01
  -4.947162e+01   3.594546e+01
  -5.982612e+01   1.399839e+01
  -8.698436e+00   2.267151e+01
   4.746384e+01  -3.395518e+01
   4.785890e+01   1.122323e+01
  -3.424175e+00   1.165361e+01
  -1.028584e+02   2.272181e+01
