
 $NMID
 id='ANONYMOUS ', fmtdat='(2E16.6)'
 volume=1.0
 tramp=1.0
 $END
   3.753810e+03   4.267249e+02
   2.097231e+03   2.580265e+03
  -7.138860e+02   2.330270e+03
  -1.880887e+03   4.783502e+02
  -7.418540e+02  -7.156770e+02
   7.581262e+02  -5.682234e+02
   6.992628e+02   4.146098e+02
  -5.739064e+01   1.102055e+03
  -8.851500e+02   6.020338e+02
  -7.279874e+02  -2.091753e+02
  -3.680158e+02  -6.936672e+02
   3.156910e+02  -8.156602e+02
   6.649765e+02  -5.219722e+01
   2.982796e+02   6.744121e+02
  -3.334014e+02   6.971466e+02
  -5.466332e+02  -9.054847e+01
  -2.486903e+02  -6.165627e+02
   3.815168e+02  -5.457075e+02
   4.467930e+02  -7.337852e+01
   2.956886e+02   3.654938e+02
  -4.096125e+01   3.285450e+02
  -2.286252e+02   2.369576e+02
  -1.934865e+02  -5.918799e+00
   5.371350e+01  -4.725792e+01
   4.122685e+02   1.077411e+02
   1.323813e+02   3.286027e+02
  -4.327211e+02   2.221110e+02
  -7.057490e+02  -8.623664e+01
  -3.091421e+02  -5.144552e+02
   3.433854e+02  -5.027830e+02
   6.329001e+02   1.181243e+02
   2.766728e+02   4.293684e+02
  -2.238641e+02   4.577027e+02
  -5.057321e+02   1.351106e+02
  -3.454689e+02  -2.257160e+02
  -6.765464e+01  -4.449577e+02
   2.370704e+02  -2.709644e+02
   1.357905e+02   2.349798e+02
  -1.490153e+02   4.176879e+02
  -4.144712e+02  -1.393583e+00
  -1.972480e+02  -6.026366e+02
   3.226232e+02  -7.052614e+02
   5.550813e+02   4.274247e+01
   1.872948e+02   5.843918e+02
  -2.839350e+02   2.763024e+02
  -3.304321e+02  -3.051116e+02
   1.086547e+02  -4.971673e+02
   4.581162e+02  -1.051740e+02
   4.764425e+02   3.242141e+02
   9.046876e+01   4.929856e+02
  -3.676422e+02   2.618881e+02
  -4.764076e+02  -1.288513e+02
  -2.919075e+02  -3.524754e+02
   1.597527e+02  -2.766387e+02
   4.056583e+02   3.156375e+01
   2.107705e+02   2.282175e+02
  -1.435658e+02   5.271341e+01
  -1.401294e+02  -1.639749e+02
   1.958364e+02  -1.867327e+02
   2.874694e+02   1.213883e+02
   1.031489e+02   2.933782e+02
  -1.463716e+02   2.099531e+02
  -2.520697e+02   1.755998e+01
  -1.278335e+02  -1.179062e+02
   9.222270e+01  -1.493704e+02
   1.931791e+02  -2.327328e+02
   3.089975e+02  -1.328580e+02
   2.221560e+02   1.479232e+02
   2.077509e+01   3.877512e+02
  -1.201000e+02   3.453184e+02
  -1.103882e+02   7.504509e+01
  -2.062074e+01  -3.449228e+01
  -4.552291e+01   8.694735e+01
  -1.738894e+02   1.106123e+02
  -2.350937e+02   3.877024e-02
  -9.380060e+01  -2.173306e+02
   7.904932e+01  -1.969158e+02
   2.250834e+02   4.810885e+00
   1.583144e+02   2.281547e+02
   8.183658e+00   2.608871e+02
  -2.608840e+02   4.259643e+01
  -3.025875e+02  -1.817909e+02
  -1.559650e+02  -3.188927e+02
   9.211668e+01  -2.201310e+02
   2.120488e+02  -8.071772e+01
   1.293885e+02  -3.126080e+00
   6.776908e+01  -1.433496e+01
   1.719326e+02  -4.962623e+01
   2.969097e+02   1.234703e+02
   2.800736e+02   2.765862e+02
  -5.023483e+01   3.712508e+02
  -3.306114e+02   3.077282e+02
  -4.025068e+02   1.102715e+02
  -2.914510e+02  -7.969428e+01
  -3.001622e+01  -2.158722e+02
   1.182239e+02  -2.082687e+02
   6.470730e+01  -2.079203e+01
  -1.033556e+02   1.080517e+02
  -1.402852e+02  -1.504112e+00
  -5.458331e+01  -1.800831e+02
   1.763347e+02  -1.570888e+02
   1.925854e+02   5.052607e+01
   1.683542e+01   1.691511e+02
  -1.585391e+02   2.181855e+00
  -1.166351e+02  -2.184669e+02
   2.845938e+01  -2.886744e+02
   2.242337e+02  -1.144325e+02
   2.509243e+02   1.224168e+02
   1.910801e+02   2.516824e+02
   8.846356e+01   2.239416e+02
  -1.194168e+02   9.826182e+01
  -1.544285e+02   2.342810e+01
  -6.297487e+01  -1.258841e+01
   4.997164e+01   6.222103e+01
   1.855946e+01   1.051157e+02
  -1.141822e+02   7.679495e+01
  -1.538899e+02   1.260623e-01
  -6.790168e+01  -5.262770e+01
   7.334667e+01  -1.610665e+01
   2.365901e+01   5.665533e+01
  -1.092302e+02   6.980066e+01
  -2.373170e+02  -7.125793e+01
  -1.827857e+02  -1.347235e+02
  -1.923639e+01  -2.028547e+02
   2.073354e+02  -2.266175e+02
   2.293362e+02  -1.093718e+02
   1.443316e+02   6.466742e+01
  -4.323654e+01   7.381828e+01
  -7.037145e+01  -7.025408e-02
  -3.190988e+00  -5.882666e+01
   1.613510e+02  -1.269610e+01
   1.922104e+02   8.450014e+01
   6.859279e+01   1.857203e+02
  -4.333165e+01   1.032826e+02
  -1.404355e+02  -2.064484e+01
  -5.091902e+01  -4.456056e+01
  -1.295920e+01   2.608786e+00
   4.632244e+01   5.176052e+01
  -6.571504e+01   9.356440e+01
  -1.581875e+02   2.826797e+00
  -1.305264e+02  -1.338442e+02
   3.144985e+01  -1.660590e+02
   2.144298e+02  -1.121293e+02
   1.658340e+02  -1.538394e+00
   3.470129e+01   8.989122e+01
  -9.718479e+01   6.529763e+01
  -4.867051e+01   2.462488e+01
  -2.562215e+01  -2.210376e+01
   2.021049e+01  -1.722559e+01
   9.511717e+00   2.160880e+00
  -3.554379e+01  -2.997109e+01
  -6.403797e+01  -7.437830e+01
   2.216705e+01  -1.257550e+02
   9.604089e+01  -1.271367e+02
   2.095898e+02  -1.532000e+01
   1.498588e+02   1.330710e+02
   4.265149e+01   2.238149e+02
  -1.283456e+02   1.328174e+02
  -1.201437e+02   1.493122e+01
  -4.774044e+01  -5.128862e+01
  -6.259923e+00  -4.137301e+01
  -6.500721e+01   2.336306e+01
  -3.508803e+01   9.089625e+00
  -2.009160e+01  -2.251154e+01
   1.265755e+01  -7.947641e+01
   7.386309e+01  -2.577572e+01
   6.329908e+01   3.001721e+01
  -6.073419e+00   7.013652e+01
  -1.198206e+02   5.102381e+01
  -1.040785e+02  -5.649714e+01
  -8.167105e+01  -1.747102e+02
   9.051044e+01  -1.568627e+02
   2.412691e+02  -6.347735e+01
   1.871635e+02   1.229933e+02
   9.884182e+01   1.491926e+02
  -4.043942e+01   1.361109e+02
  -7.463328e+01   9.453832e+01
  -6.833261e+01   7.472884e+01
  -6.606828e+01   7.005035e+01
  -7.429147e+01   6.058519e+01
  -1.112444e+02  -1.890804e+01
  -7.615827e+01  -8.741159e+01
  -5.146869e-01  -1.970123e+02
   8.719360e+01  -1.375333e+02
   1.415651e+02  -6.369909e+00
   9.255782e+01   1.404011e+02
   3.511756e+00   1.103518e+02
  -3.027732e+01   7.511622e+01
  -4.742617e+01   2.146642e+01
  -1.245040e+01  -3.399600e+01
  -2.475743e+01  -3.045129e+01
   4.831673e+00  -5.073116e+01
  -7.800108e+01  -1.958615e+01
  -3.210886e+01  -3.249498e+01
   2.440146e+01  -4.520781e+01
   1.466038e+02   5.042344e+00
   1.014793e+02   5.670823e+01
   1.413266e+00   6.362129e+01
  -7.525373e+01   5.379769e+01
  -1.361897e+02  -3.784847e+01
  -4.185461e+01  -1.278468e+01
   5.423880e+01  -3.839199e+01
   6.152492e+01   4.371562e+01
   1.581533e+01   6.339781e+01
  -7.306837e+01   5.765213e+01
  -4.114376e+01   1.352170e+01
  -3.130716e+01  -3.967539e+01
  -2.038799e+01  -3.166484e+01
  -7.293498e+01  -8.133058e+00
  -4.769614e+01  -1.076958e+01
  -3.410787e+01  -5.352713e+01
   2.346713e+01  -8.931012e+01
   9.554509e+01  -1.093329e+02
   1.295082e+02  -3.457929e+01
   9.722105e+01   8.883560e+01
   4.813745e+00   8.040060e+01
  -7.408342e+01   1.599114e+01
  -5.202861e+01  -3.054979e+01
   5.279900e+01  -1.979648e+01
   1.134939e+02   4.872093e+01
   7.352102e+01   1.190640e+02
  -6.271860e+01   7.987460e+01
  -1.382290e+02   3.008331e+01
  -1.385772e+02  -4.166454e+01
  -3.820049e+01  -4.596398e+01
   4.308606e+01  -2.859042e+01
   5.092934e+01   2.632107e+01
  -3.332451e+01   9.760315e+00
  -7.353642e+01  -2.612238e+01
   5.389338e+00  -9.251479e+01
   1.084017e+02  -1.039157e+02
   1.514399e+02  -3.761035e+01
   6.119181e+01   1.204481e+02
   1.675473e+01   1.435447e+02
  -1.098724e+02   9.323699e+01
  -5.957328e+01  -9.470677e+00
  -4.940245e+01  -9.461859e+01
   2.264477e+01  -1.001277e+02
   5.006330e+01  -1.278255e+01
   1.763526e+01   4.406537e+01
   2.113450e+01   1.387981e+01
   1.092661e+01  -3.000095e+01
   3.090127e+01   1.030285e+01
   5.616736e+01   1.039033e+02
   2.732340e+01   7.641031e+01
  -4.383240e+01   4.941472e+01
  -1.220459e+02  -7.665401e+01
  -1.089307e+02  -5.935052e+01
  -4.394381e+01  -5.878330e+01
   9.143039e+01  -5.776404e-01
   8.306563e+01  -1.122435e+01
   1.235056e+01  -1.393011e+01
  -3.157470e+01   3.406723e+01
  -4.219619e+00  -8.447835e+00
   1.219108e+01   3.704102e+01
  -1.898118e+01   2.256233e+00
  -8.558463e+01  -2.672512e+01
  -7.546619e+01  -3.874820e+00
  -1.850323e+00  -7.557761e+01
   1.105043e+02  -7.032780e+01
   1.333098e+02  -4.582793e+01
   1.124952e+02   4.545631e+01
   2.582054e+01   1.296404e+02
  -5.069337e+01   1.065785e+02
  -9.189292e+01   6.957520e+01
  -5.579937e+01  -2.416272e+01
  -2.787486e+01  -9.662750e+00
  -2.657720e+01  -5.286292e+00
   3.244902e+01  -2.927959e+01
  -2.016237e+01  -5.364917e+01
  -2.239827e+01  -6.268347e+01
   2.645616e+01  -4.344665e+01
   4.925856e+01   1.507306e+01
   5.358857e+01   1.083986e+02
   5.946148e+00   1.190612e+02
  -5.191813e+01  -3.166523e+00
  -5.531693e+01  -8.663306e+01
  -8.700813e+00  -9.341329e+01
   4.421728e+01  -4.686632e+01
   7.704974e+01   1.017705e+01
   3.017374e+01   4.643562e+01
  -5.348499e+01   4.857126e+01
  -1.299003e+01   4.809164e+01
   3.125931e+01   1.399501e+01
   6.067684e+01  -5.494148e+00
   6.529350e+00   1.343678e+01
  -4.736815e+01   3.219096e+01
  -9.203995e+01   3.493723e+01
  -5.161390e+01  -1.984636e+01
  -3.495770e+00  -6.833712e+01
   4.153031e+01  -4.505555e+01
   5.335724e+01   2.987830e+00
   1.598008e+01   6.160574e+01
  -4.448465e+01   2.609101e+01
  -3.141363e+00   3.095452e+00
  -2.968416e+01  -4.452108e+01
  -1.232635e+00  -1.988506e+01
   3.043075e+01   2.714263e+00
   4.128038e+01   1.341785e+00
  -8.351532e-02   1.730001e+01
  -4.109296e+00   1.494368e+01
   5.869826e+00   5.800971e+00
   3.481738e+00   4.723127e+01
  -3.946358e+01   6.701096e+01
  -2.562044e+01   1.208552e+01
  -2.082697e+01  -5.948413e+01
  -5.115172e+00  -7.638381e+01
   5.244240e+01  -1.717559e+01
   5.153560e+01   4.233463e+01
  -1.439375e+01   6.666447e+01
  -7.572107e+01   4.979319e+01
  -6.844042e+01   5.228493e+00
  -5.214718e+01  -4.013719e+01
   4.499228e+01  -2.747131e+01
   3.323213e+01  -2.460892e+00
   2.730467e+01  -7.243710e+00
  -2.835426e+01  -9.559879e+00
  -5.370679e+01  -1.744571e+01
   3.781101e+01  -2.517982e+01
   1.105719e+02   5.571204e+00
