
 $NMID
 id='ANONYMOUS ', fmtdat='(2E16.6)'
 volume=1.0
 tramp=1.0
 $END
  -4.041520e+03  -4.551674e+02
  -2.424439e+03  -2.698079e+03
   8.903049e+02  -2.855909e+03
   2.067809e+03  -5.992443e+02
   7.456724e+02   8.841543e+02
  -7.724102e+02   4.798028e+02
  -8.526356e+02  -6.097079e+02
   1.668722e+02  -1.125753e+03
   9.284908e+02  -6.752091e+02
   8.358013e+02   2.627253e+02
   3.934760e+02   8.792213e+02
  -4.337731e+02   8.445934e+02
  -6.392807e+02  -5.495738e+01
  -2.618398e+02  -7.914477e+02
   3.780408e+02  -6.897231e+02
   5.613276e+02   1.142710e+02
   2.014452e+02   6.915186e+02
  -5.114788e+02   5.603596e+02
  -5.428176e+02  -1.604661e+01
  -2.793351e+02  -3.843652e+02
   7.069873e+01  -4.129798e+02
   2.505663e+02  -2.160091e+02
   2.117148e+02   4.939605e+01
  -1.152844e+02   8.697263e+01
  -4.445144e+02  -1.411736e+02
  -1.752190e+02  -4.078270e+02
   4.585624e+02  -3.448275e+02
   7.889346e+02   2.916397e+01
   3.691807e+02   6.280881e+02
  -3.954638e+02   5.313337e+02
  -6.627029e+02  -1.677457e+02
  -2.524763e+02  -5.016479e+02
   2.895442e+02  -4.574065e+02
   5.446827e+02  -8.891663e+01
   3.672753e+02   2.796148e+02
  -3.191987e+00   4.964671e+02
  -2.479260e+02   2.922328e+02
  -1.588273e+02  -2.556959e+02
   1.940177e+02  -4.216280e+02
   3.965926e+02  -1.799332e+00
   2.063405e+02   6.788503e+02
  -3.354847e+02   7.080066e+02
  -6.262146e+02  -5.696131e+01
  -2.174385e+02  -6.014558e+02
   3.465462e+02  -3.181672e+02
   3.826686e+02   3.041916e+02
  -1.101445e+02   5.204700e+02
  -5.613260e+02   1.032441e+02
  -5.677244e+02  -4.376886e+02
  -1.329794e+02  -5.829854e+02
   4.557365e+02  -2.979558e+02
   6.032363e+02   1.945467e+02
   3.456950e+02   3.993742e+02
  -2.112963e+02   3.231447e+02
  -4.216433e+02  -8.386698e+01
  -2.011767e+02  -2.579021e+02
   1.276704e+02  -6.455506e+01
   1.637126e+02   1.328353e+02
  -2.372415e+02   1.714067e+02
  -3.910872e+02  -1.506452e+02
  -1.210845e+02  -2.969445e+02
   1.964606e+02  -2.277561e+02
   2.604729e+02  -1.250506e+01
   1.363523e+02   1.176131e+02
  -6.256582e+01   1.778672e+02
  -1.904060e+02   2.196959e+02
  -3.169436e+02   1.166764e+02
  -2.402920e+02  -1.613485e+02
  -4.490641e+01  -4.124520e+02
   1.662255e+02  -3.789631e+02
   1.150733e+02  -7.163039e+01
   3.879995e+01   3.152886e+01
   2.857610e+01  -7.320686e+01
   1.647040e+02  -1.323163e+02
   2.235538e+02   1.214310e+01
   1.231623e+02   3.083506e+02
  -6.122549e+01   2.330305e+02
  -2.283697e+02   1.234719e+01
  -1.145422e+02  -2.190929e+02
   2.561847e+01  -2.598111e+02
   2.825056e+02  -8.265277e+01
   3.438023e+02   2.458619e+02
   1.758280e+02   3.271365e+02
  -9.767718e+01   2.588351e+02
  -2.246745e+02   8.381998e+01
  -1.181082e+02   6.741356e+00
  -7.417001e+01   5.623361e+01
  -1.584504e+02   6.211653e+01
  -3.498084e+02  -1.495226e+02
  -2.677379e+02  -3.018835e+02
   7.442113e+01  -4.010471e+02
   4.038403e+02  -3.300220e+02
   4.336220e+02  -1.283530e+02
   2.855365e+02   1.035171e+02
   4.283581e+01   2.862533e+02
  -1.652179e+02   1.990695e+02
  -1.097333e+02   1.358147e+01
   1.048994e+02  -1.029307e+02
   1.593027e+02   2.626351e-01
   3.500371e+01   2.064598e+02
  -1.493924e+02   1.575191e+02
  -1.836400e+02  -7.600090e+01
   4.099763e+01  -1.785286e+02
   1.763624e+02   2.853221e+00
   1.253898e+02   2.511627e+02
  -2.707203e+01   2.856688e+02
  -2.025611e+02   8.209456e+01
  -2.319046e+02  -1.544739e+02
  -2.285015e+02  -2.317519e+02
  -1.059072e+02  -2.573365e+02
   9.792998e+01  -1.147413e+02
   1.945463e+02  -2.627361e+01
   6.965009e+01   2.997841e+01
  -7.300669e+01  -3.609120e+01
  -2.830657e+01  -1.277775e+02
   1.061422e+02  -1.198802e+02
   1.619052e+02   2.914623e+01
   6.361917e+01   5.054440e+01
  -7.261296e+01   3.174629e+01
  -2.430025e+01  -6.225263e+01
   9.883022e+01  -6.893819e+01
   2.717250e+02   6.149101e+01
   2.294433e+02   1.362007e+02
   1.903525e+01   2.100061e+02
  -2.023345e+02   2.121265e+02
  -2.701167e+02   8.645905e+01
  -1.612508e+02  -6.251210e+01
   5.501950e+01  -1.062021e+02
   9.718555e+01   1.065651e+01
  -1.797497e+01   6.335698e+01
  -1.782650e+02   3.874883e+01
  -1.955215e+02  -1.142461e+02
  -5.797534e+01  -2.230527e+02
   1.017566e+02  -1.286614e+02
   1.167283e+02  -2.826289e+01
   4.666633e+01   5.475034e+01
  -1.557437e+01  -1.280324e+01
  -4.650442e+01  -7.577055e+01
   6.658889e+01  -9.137167e+01
   1.829057e+02  -2.605348e+01
   1.613737e+02   1.239991e+02
  -1.691916e-01   1.651633e+02
  -2.108941e+02   1.156028e+02
  -1.624001e+02  -1.903516e+01
  -4.219901e+01  -9.866484e+01
   9.284564e+01  -7.947591e+01
   5.522615e+01  -1.627917e+01
   1.866291e+01   3.136049e+01
  -4.019549e+00   4.085485e+01
   2.272022e+01  -5.771894e-02
   5.472921e+01   1.207176e+00
   6.844570e+01   7.720765e+01
  -3.307602e+00   1.267884e+02
  -7.244161e+01   9.602406e+01
  -1.992452e+02  -7.475018e+00
  -1.819289e+02  -1.492314e+02
  -1.639822e+01  -2.162488e+02
   9.903656e+01  -1.466203e+02
   8.458228e+01  -1.619179e+00
   5.797931e+01   4.473308e+01
   2.939599e+01   3.050618e+01
   5.097728e+01  -1.898483e+01
   8.177507e+01   2.222572e+00
   2.532325e+01   5.829999e+01
  -6.256676e+01   5.581872e+01
  -6.095893e+01   5.426266e+01
  -3.719527e+01  -6.961769e+00
   3.158621e+01  -9.336467e+01
   1.518846e+02  -6.795962e+01
   1.395462e+02   5.545527e+01
   1.057605e+02   1.923135e+02
  -1.148196e+02   2.000326e+02
  -2.841813e+02   4.887705e+01
  -2.273329e+02  -1.095084e+02
  -7.804553e+01  -1.421364e+02
   3.742036e+01  -1.324691e+02
   8.147339e+01  -3.397027e+01
   9.202696e+01  -5.599846e+01
   9.241479e+01  -6.356284e+01
   9.072108e+01  -8.051288e+01
   1.364766e+02   4.920626e+01
   7.979644e+01   1.450888e+02
   1.647696e+01   1.826289e+02
  -1.059295e+02   1.469870e+02
  -1.454621e+02  -6.516895e+00
  -8.284319e+01  -1.050230e+02
   2.127276e+01  -1.597459e+02
   4.706618e+01  -1.067490e+02
   4.193471e+01  -2.950872e+00
   5.278896e+00   4.652478e+01
   4.393695e+01   1.343559e+01
   1.110580e+01   1.618811e+01
   5.710504e+01   2.927392e+01
   5.311737e+00   4.609430e+01
  -6.625501e+01   3.633905e+01
  -1.491527e+02   2.505386e+01
  -9.773872e+01  -5.497977e+01
  -1.462941e+01  -7.759832e+01
   1.013161e+02  -6.314054e+01
   1.316042e+02  -1.353396e+01
   2.834751e+01   5.286484e+01
  -7.223131e+01   3.172591e+01
  -5.522170e+01  -4.197500e+01
  -2.078387e+00  -6.933414e+01
   5.249623e+01  -5.749599e+01
   2.609556e+01   2.490529e+01
   5.081411e+01   6.595321e+01
   4.754555e+01   4.469914e+01
   6.711039e+01   1.268457e+01
   4.905638e+01   3.164787e+01
   3.735373e+01   8.053859e+01
  -1.100518e+01   1.201638e+02
  -1.319917e+02   1.070582e+02
  -1.449303e+02   5.564419e+01
  -1.249899e+02  -8.140349e+01
   5.871664e+01  -1.347398e+02
   6.906715e+01  -2.588306e+01
   4.388472e+01   2.416005e+01
  -8.072229e+01   2.146121e+01
  -1.174609e+02  -6.500998e+01
  -7.008191e+01  -1.388544e+02
   7.055211e+01  -1.080425e+02
   1.714510e+02  -3.803539e+01
   1.663937e+02   6.374528e+01
   6.049773e+01   6.736864e+01
  -4.059728e+01   3.932399e+01
  -4.347091e+01   2.856898e+01
   2.344780e+01  -3.614526e+00
   8.101438e+01   1.685006e+01
   3.969200e+01   1.105687e+02
  -1.224284e+02   1.117744e+02
  -1.775106e+02   2.015036e+01
  -8.938910e+01  -1.188012e+02
  -2.535193e+01  -1.754131e+02
   1.187271e+02  -8.100964e+01
   9.196774e+01   1.768573e+01
   5.408142e+01   1.226200e+02
  -9.481569e+00   1.213794e+02
  -5.558501e+01   8.122946e+00
  -5.076099e+01  -4.945760e+01
  -2.628653e+01  -1.686312e+01
  -2.002685e+01   3.084462e+01
  -2.990538e+01  -2.223132e+01
  -3.462654e+01  -9.306565e+01
  -1.410860e+01  -7.127932e+01
   2.927719e+01  -4.533164e+01
   1.440602e+02   4.460474e+01
   8.749590e+01   1.022658e+02
  -2.968996e+00   5.089378e+01
  -7.201344e+01   1.002256e+01
  -6.717272e+01  -3.658942e+01
   3.602558e-01  -5.456701e+00
   1.938002e+01  -8.680802e+00
   3.716617e+01  -2.247416e+01
  -1.144409e+01  -8.630017e+00
   2.340020e+01   2.969849e-01
   4.646375e+01   1.379829e+01
   5.910610e+01   1.359065e+01
   9.201653e+00   6.114422e+01
  -1.130822e+02   6.565854e+01
  -1.696266e+02   4.805300e+01
  -1.184377e+02  -5.839688e+01
  -2.024844e+01  -1.284558e+02
   7.670841e+01  -1.052191e+02
   8.144550e+01  -5.282430e+01
   6.532254e+01   2.098272e+01
   3.308163e+01   4.636604e+01
   2.029308e+01   7.436178e+00
   2.193089e+01  -1.096992e+01
   4.833308e+01   1.759325e+01
   7.524658e+00   4.189468e+01
  -3.490537e+01   5.095353e+01
  -9.339973e+01  -2.775006e+00
  -4.684889e+01  -1.069324e+02
  -3.386009e+01  -8.354867e+01
   6.216986e+01  -2.233916e+01
   8.343582e+01   1.048192e+02
   2.129036e+01   1.066668e+02
  -7.293945e+01   4.772116e+01
  -6.563915e+01   1.747052e+01
  -1.573202e+01  -5.034485e+01
   2.039023e+01  -4.422119e+01
   4.150134e+01  -1.139722e+01
   1.418391e-01   7.000351e+00
  -8.644577e+01   1.302479e+01
  -4.321400e+00  -2.849729e+01
   7.298384e+01  -4.317059e+01
   1.044196e+02  -2.410801e+01
   4.059587e+01  -4.861889e+00
  -3.768265e+01   8.866501e+01
  -1.932720e+01   5.158055e+01
  -5.730030e+01  -4.180474e+00
  -1.495676e+01  -5.972343e+01
   5.180406e+01  -1.533604e+01
   5.216241e+01   2.243408e+01
   3.943289e+01   4.203198e+01
   2.589703e+01   7.044483e+00
  -4.414414e+01  -1.294443e+01
  -2.318576e+01  -4.073185e+00
  -1.431508e+01   5.943979e+00
  -7.565114e+00  -2.623426e+00
   2.052783e-01  -1.891060e+01
   1.659480e+01  -2.477227e+01
   4.196364e+01  -4.769386e+01
   1.379786e+01  -3.220231e+00
   4.985004e+01   3.928801e+01
   2.116581e+00   5.694070e+01
  -4.710697e+01   9.098317e+00
  -3.631652e+01  -4.819229e+01
  -1.631544e+01  -5.412114e+01
   3.432807e+01  -1.966779e+01
   9.542477e+01  -6.371632e+00
   4.062094e+01   4.408415e+01
  -7.857003e+01   1.282953e+01
  -7.528641e+01   7.636212e+00
  -2.866637e+01  -1.687371e+01
   2.431427e+01   1.745718e+00
   2.411069e+01   2.619264e+01
  -4.387668e+01   3.654360e+01
  -1.018696e+02   3.158185e+00
