
 $NMID
 id='ANONYMOUS ', fmtdat='(2E16.6)'
 volume=1.0
 tramp=1.0
 $END
  -4.805366e+03   7.197492e+01
  -2.540080e+03  -2.838817e+03
   9.213616e+02  -3.331235e+03
   2.590274e+03  -8.297044e+02
   1.101202e+03   7.436329e+02
  -8.321055e+02   5.396286e+02
  -8.292125e+02  -6.293234e+02
   1.372746e+02  -1.193103e+03
   1.058559e+03  -7.979771e+02
   9.585612e+02   2.425321e+02
   3.598822e+02   1.036610e+03
  -3.405971e+02   8.669377e+02
  -7.433616e+02  -3.670111e+01
  -3.581167e+02  -8.060160e+02
   3.553005e+02  -7.721844e+02
   6.681121e+02   7.599115e+01
   2.804475e+02   7.382015e+02
  -4.277858e+02   7.040461e+02
  -6.354915e+02   3.775788e+01
  -3.732023e+02  -4.041925e+02
   4.769415e+01  -4.029528e+02
   2.798261e+02  -2.779974e+02
   2.694637e+02   4.449046e+01
  -1.162979e+02   1.869440e+02
  -4.626499e+02  -1.258630e+02
  -2.147044e+02  -5.094085e+02
   6.197667e+02  -5.496631e+02
   8.998894e+02   1.775063e+02
   5.187809e+02   6.131029e+02
  -4.832113e+02   5.569387e+02
  -8.435997e+02  -8.052449e+01
  -4.243226e+02  -5.751792e+02
   3.275192e+02  -5.631485e+02
   7.147903e+02  -2.338628e+02
   4.285555e+02   3.038367e+02
   2.884140e+01   5.325739e+02
  -2.367264e+02   2.315288e+02
  -1.906847e+02  -3.063378e+02
   1.651982e+02  -5.008359e+02
   5.419690e+02   1.945446e+01
   2.577078e+02   7.341735e+02
  -4.514320e+02   7.503519e+02
  -6.583741e+02  -9.966968e+01
  -1.910694e+02  -6.605329e+02
   3.553430e+02  -3.512782e+02
   4.432031e+02   3.722569e+02
  -5.675137e+01   6.410344e+02
  -6.007997e+02   7.281424e+01
  -6.032271e+02  -4.996149e+02
  -1.339347e+02  -5.870670e+02
   4.862641e+02  -3.318325e+02
   6.579127e+02   9.369106e+01
   4.100087e+02   4.482100e+02
  -1.846744e+02   3.893358e+02
  -4.682062e+02  -5.033498e+00
  -2.544796e+02  -2.575806e+02
   1.660993e+02  -7.788716e+01
   1.602958e+02   1.519621e+02
  -2.279557e+02   1.883279e+02
  -3.562198e+02  -1.468812e+02
  -1.138144e+02  -3.228135e+02
   2.120368e+02  -2.625976e+02
   3.302227e+02  -6.513848e+01
   1.923712e+02   9.990450e+01
  -7.856394e+01   1.818783e+02
  -1.911186e+02   3.639638e+02
  -3.466853e+02   2.318701e+02
  -3.319305e+02  -1.095262e+02
  -3.838273e+01  -4.666663e+02
   1.551226e+02  -3.663815e+02
   1.154980e+02  -1.018094e+02
   4.138699e+01   1.760199e+01
  -6.782017e+00  -6.785285e+01
   2.199771e+02  -1.620923e+02
   2.975658e+02   6.506157e+01
   2.083967e+02   2.937696e+02
  -1.358527e+02   2.939711e+02
  -2.863101e+02   2.059649e+01
  -1.928593e+02  -2.282307e+02
  -1.368567e+01  -3.205813e+02
   3.151620e+02  -1.138564e+02
   3.965433e+02   2.192397e+02
   1.755479e+02   3.891912e+02
  -1.749132e+02   3.304298e+02
  -2.295321e+02   8.084312e+01
  -1.152115e+02   1.206695e+00
  -5.716288e+01   5.597458e+01
  -2.389166e+02   6.044440e+01
  -3.864569e+02  -1.841194e+01
  -3.467388e+02  -2.300885e+02
   1.712608e+01  -4.498800e+02
   3.691967e+02  -4.020007e+02
   5.196428e+02  -2.055945e+02
   3.807037e+02   9.804528e+01
   7.863718e+01   3.582535e+02
  -1.076330e+02   3.209550e+02
  -1.423832e+02   1.899354e+01
   1.399781e+02  -1.161995e+02
   2.389056e+02  -1.644815e+00
   4.888481e+01   2.446818e+02
  -1.626377e+02   2.420124e+02
  -1.954541e+02  -8.099643e+01
   3.964793e+01  -2.098304e+02
   2.446441e+02  -3.462206e+01
   1.401037e+02   2.290110e+02
  -2.958453e+01   3.865878e+02
  -1.945293e+02   2.000943e+02
  -3.293643e+02  -5.634027e+01
  -2.942272e+02  -2.609107e+02
  -8.032132e+01  -2.612998e+02
   8.698550e+01  -1.913828e+02
   1.873398e+02  -2.797190e+01
   9.250174e+01   3.866765e+01
  -5.485947e+01  -3.546306e+01
  -1.913208e+01  -1.351286e+02
   1.259671e+02  -1.059022e+02
   1.910656e+02   1.201008e+01
   6.662667e+01   4.952228e+01
  -1.038358e+02   5.534581e+01
  -1.050223e+02  -8.631151e+01
   1.287893e+02  -7.063195e+01
   2.812723e+02  -5.192775e+01
   2.375330e+02   1.461419e+02
   1.200309e+02   2.847451e+02
  -1.918098e+02   3.206255e+02
  -2.756857e+02   1.943905e+02
  -2.031540e+02  -8.317739e+01
   1.806065e+01  -1.129022e+02
   1.322165e+02   1.778383e+00
  -4.321991e+01   1.232099e+02
  -1.916752e+02   5.998239e+01
  -1.947033e+02  -1.033751e+02
  -4.155020e+01  -2.276645e+02
   1.431145e+02  -1.944232e+02
   1.475770e+02  -3.575273e+01
   7.120930e+01   3.729200e+01
  -3.921291e+01   3.728635e+01
  -3.316376e+01  -7.571034e+01
   7.097225e+01  -1.149207e+02
   1.982607e+02  -7.576358e+00
   1.750668e+02   1.447952e+02
   4.861981e+01   2.325539e+02
  -1.702421e+02   1.557172e+02
  -1.926200e+02   2.396954e+01
  -6.224446e+01  -1.312917e+02
   8.510517e+01  -1.394007e+02
   7.969166e+01  -2.144654e+01
   3.193269e+01   1.833138e+01
  -1.787106e+01   1.205283e+01
  -2.430247e+01  -2.980808e+01
   5.574617e+01   6.633321e+00
   8.218531e+01   1.078986e+02
   6.067068e+01   1.591615e+02
  -8.568147e+01   1.786542e+02
  -2.222246e+02   3.157884e+01
  -2.105795e+02  -1.428552e+02
  -2.255903e+01  -2.540916e+02
   1.225161e+02  -1.811406e+02
   1.394569e+02  -1.132171e+01
   5.799492e+01   9.444027e+01
   2.097699e+01   3.782181e+01
   3.945919e+01  -3.405677e+01
   7.257933e+01   1.081381e+01
   4.533211e+01   8.393337e+01
  -1.499201e+01   6.434903e+01
  -6.959454e+01   6.922204e+01
  -7.877940e+01  -2.413188e+01
   2.178715e+01  -9.240549e+01
   1.222669e+02  -7.065452e+01
   1.985737e+02   2.157627e+01
   1.037124e+02   2.166120e+02
  -7.941723e+01   2.084408e+02
  -2.572254e+02   9.130485e+01
  -2.700605e+02  -6.110447e+01
  -1.014963e+02  -2.172847e+02
   1.329920e+01  -1.402344e+02
   1.148966e+02  -8.614691e+01
   6.717733e+01  -4.415072e+01
   1.087434e+02  -9.310475e+01
   8.081337e+01  -6.999737e+01
   9.791256e+01   2.664853e+01
   1.308670e+02   1.774467e+02
   6.813455e+01   2.432723e+02
  -9.578846e+01   1.799026e+02
  -2.022208e+02   6.829361e+01
  -1.519198e+02  -1.413654e+02
  -3.348083e+01  -1.478600e+02
   8.079196e+01  -7.081493e+01
   6.295522e+01  -2.644027e+01
   1.296277e+01   5.060464e+01
   1.881055e+01   6.177963e+01
   4.454245e+01  -1.870890e+00
   8.273219e+01   3.780827e+01
   6.323419e+01   3.967435e+01
  -6.255356e+01   5.064108e+01
  -1.293266e+02   1.078448e-01
  -1.604500e+02  -7.347434e+01
  -3.079648e+01  -9.371394e+01
   1.477333e+02  -9.370806e+01
   1.609311e+02  -4.403469e+00
   7.397859e+01   2.968850e+01
  -5.139596e+01   2.969593e+01
  -3.835377e+01  -3.218166e+01
  -7.297747e+00  -6.165827e+01
   5.046215e+01  -6.093992e+01
   5.909925e+01   2.245139e+01
   9.951863e+00   5.791218e+01
   2.583551e+01   2.399914e+01
   8.476689e+01   3.848833e+01
   8.631485e+01   6.588294e+00
   3.297998e+01   5.455677e+01
  -9.179983e+00   1.443626e+02
  -1.250013e+02   1.553690e+02
  -1.946323e+02   2.191283e+01
  -1.642554e+02  -8.569480e+01
   1.528533e+01  -1.045050e+02
   1.201363e+02  -6.852404e+01
   8.864675e+01  -9.425857e-01
  -4.593728e+01   1.393863e+01
  -1.488148e+02  -5.410562e+01
  -7.690498e+01  -1.155091e+02
   7.407555e+01  -9.537149e+01
   1.988872e+02  -1.534510e+01
   1.949041e+02   7.143598e+00
   3.349327e+01   7.877423e+01
  -7.524599e+01   8.701909e+01
  -3.416377e+01  -1.405117e+01
   1.458174e+01  -1.348336e+01
   1.018371e+02   2.386482e+01
   6.105200e+01   1.343041e+02
  -9.611449e+01   1.451559e+02
  -1.445670e+02   6.012666e+01
  -1.132632e+02  -1.118464e+02
  -2.858210e+01  -1.886661e+02
   8.816413e+01  -1.476326e+02
   1.032729e+02  -3.707619e+01
   5.418374e+01   1.269371e+02
   1.210715e+01   1.202397e+02
  -6.842566e+01   1.236455e+01
  -3.986812e+01  -3.808313e+01
  -4.133796e+01   1.938982e+00
  -1.877842e+00   4.576796e+01
   1.284663e+01  -2.730719e+01
  -6.403318e+01  -8.628373e+01
  -6.212821e+01  -1.273063e+02
   4.663662e+01  -5.682600e+01
   1.473218e+02   2.710095e+01
   1.255565e+02   8.522314e+01
   1.097744e+01   4.582764e+01
  -8.472750e+01   3.778223e-01
  -9.972354e+01   2.735819e+01
  -4.981343e+00   7.285801e-01
   5.366891e+01  -1.577827e+01
   4.788826e+00  -2.922732e+01
  -8.622217e+00  -1.355917e+01
   2.904047e+01   1.595874e+01
   7.368955e+01   5.378883e+00
   6.922063e+01   2.645950e+01
   1.183391e+01   9.807464e+01
  -1.338653e+02   8.551546e+01
  -2.041403e+02   7.093812e+01
  -1.091294e+02  -8.942054e+01
  -5.826378e+01  -1.747562e+02
   9.719387e+01  -1.846421e+02
   1.108802e+02  -6.609377e+01
   6.553360e+01   3.125991e+01
   1.632246e+01   4.485029e+00
   1.493498e+01   8.627693e+00
  -2.310134e+01   3.468446e+01
   4.271348e+01   5.388135e+01
   4.578297e+01   9.238570e+01
  -2.431210e+01   8.076682e+01
  -9.360745e+01  -2.881133e+01
  -3.056491e+01  -9.267182e+01
   8.998443e+00  -1.073896e+02
   7.915399e+01  -4.429195e+01
   8.222456e+01   1.051583e+02
   2.419256e+01   9.299924e+01
  -8.127329e+01   7.381637e+01
  -1.105111e+02  -1.113769e+01
  -4.646788e+01  -5.266507e+01
   4.685113e+01  -3.679286e+01
   3.397788e+01  -4.273164e+01
  -2.720478e+01  -6.947946e-01
  -4.904240e+01   1.115321e+01
   1.542346e+01  -3.014615e+01
   3.760785e+01  -7.534471e+01
   9.522053e+01  -4.266755e+01
   5.469234e+01   9.471429e+00
  -1.943867e+01   5.870884e+01
  -6.567195e+01   7.356823e+01
  -1.953863e+01  -6.755132e-01
   1.286728e+01  -6.482695e+01
   2.735270e+01  -2.100685e+01
   6.544453e+01   3.758221e+01
   2.210266e+01   5.475640e+01
   3.204425e+01   3.041197e+01
  -3.300747e+00   2.333378e+01
  -2.514460e+01  -5.834617e+00
  -1.259620e+01  -3.285707e+00
  -4.389210e+00   2.857039e+01
   1.316337e+01  -8.619845e+00
   2.682336e+00  -1.532146e+01
   6.661713e+00  -1.818558e+01
   3.835022e+01  -8.504543e+00
   5.199748e+01   4.890528e+01
   2.427418e+00   4.656563e+01
  -5.370815e+01   2.716589e+01
  -2.012596e+01  -4.573440e+01
   1.628755e+01  -6.823386e+01
   5.467315e+01  -3.832346e+01
   1.041409e+02   4.014250e+01
   4.012014e+01   3.560420e+01
  -1.953424e+01   2.854468e+01
  -6.739673e+01  -1.652790e+01
  -3.264166e+01   2.010986e+01
   3.467891e+01   7.885629e+00
   3.942057e+01   6.661776e+00
  -4.346261e+01   9.859731e+00
  -9.056925e+01   3.025776e+01
