
 $NMID
 id='ANONYMOUS ', fmtdat='(2E16.6)'
 volume=1.0
 tramp=1.0
 $END
  -4.294194e+03  -2.983102e+02
  -2.650432e+03  -2.946936e+03
   8.053611e+02  -2.580142e+03
   2.277025e+03  -8.642639e+02
   1.125188e+03   6.692698e+02
  -5.438634e+02   4.953541e+02
  -8.419555e+02  -4.711011e+02
   3.654759e+01  -9.829413e+02
   1.008193e+03  -6.991868e+02
   7.920411e+02   1.950439e+02
   3.774204e+02   8.150986e+02
  -3.391502e+02   8.682202e+02
  -5.597941e+02   3.372867e+01
  -2.959313e+02  -7.170666e+02
   3.529323e+02  -7.170330e+02
   6.945160e+02   7.342923e+01
   2.774221e+02   6.847213e+02
  -3.610712e+02   7.186354e+02
  -5.698416e+02   7.973512e+01
  -3.717709e+02  -3.108869e+02
  -1.057966e+01  -3.556431e+02
   2.107234e+02  -2.155729e+02
   1.756984e+02   3.110368e+00
  -1.781366e+02   9.961796e+01
  -3.758228e+02  -1.747502e+02
  -1.939090e+02  -5.418037e+02
   5.820758e+02  -4.517096e+02
   8.858810e+02   2.167379e+02
   4.638310e+02   5.609614e+02
  -4.076263e+02   4.300105e+02
  -7.414140e+02  -1.518078e+02
  -3.004057e+02  -4.230263e+02
   3.181571e+02  -5.275005e+02
   5.536698e+02  -1.751920e+02
   4.251025e+02   2.033051e+02
   4.766292e+01   4.715753e+02
  -1.953367e+02   2.012065e+02
  -9.026227e+01  -2.652151e+02
   2.143726e+02  -4.339804e+02
   4.354848e+02   7.493731e+01
   2.698754e+02   6.136576e+02
  -3.721005e+02   7.221378e+02
  -5.568927e+02  -4.416740e+01
  -7.343301e+01  -5.042767e+02
   3.333013e+02  -3.384967e+02
   3.470798e+02   3.012490e+02
  -1.046235e+02   5.905931e+02
  -5.762830e+02   1.167593e+02
  -6.280175e+02  -4.564400e+02
  -1.453167e+02  -4.870332e+02
   4.279183e+02  -3.677569e+02
   6.348225e+02   9.711222e+01
   3.461245e+02   4.160410e+02
  -1.602936e+02   4.028622e+02
  -3.595108e+02   7.857215e+01
  -2.402904e+02  -1.536610e+02
   1.640007e+02  -8.800410e+01
   1.390370e+02   1.634651e+02
  -1.658430e+02   1.557951e+02
  -3.257536e+02  -1.330394e+02
  -1.409353e+02  -3.116213e+02
   1.773926e+02  -2.542943e+02
   3.090012e+02  -7.347659e+01
   2.666999e+02   8.897563e+01
  -3.501464e+01   2.142848e+02
  -2.964038e+02   3.161893e+02
  -3.499938e+02   2.162972e+02
  -2.824299e+02  -1.496576e+02
  -7.334823e+01  -4.835161e+02
   1.047070e+02  -3.157088e+02
   6.285327e+01  -1.019286e+02
   3.360089e+01  -3.262578e+01
   3.940582e+01  -9.230590e+01
   2.470101e+02  -7.517757e+01
   3.268336e+02   6.650052e+01
   1.726795e+02   3.030893e+02
  -8.003719e+01   2.804199e+02
  -2.551245e+02  -1.219247e+01
  -1.731492e+02  -2.943525e+02
   1.484294e+01  -2.963098e+02
   2.458187e+02  -9.656531e+01
   3.292208e+02   1.659858e+02
   1.584086e+02   3.350179e+02
  -7.221271e+01   2.940758e+02
  -2.369378e+02   1.789668e+02
  -1.712415e+02   8.258236e+00
  -1.127183e+02   8.824600e+01
  -2.319668e+02   1.395780e+01
  -3.880260e+02  -3.164869e+01
  -3.426679e+02  -2.789272e+02
   5.899617e+00  -4.073282e+02
   3.931375e+02  -4.943952e+02
   4.512737e+02  -1.894686e+02
   3.632369e+02   8.944144e+01
   7.225942e+01   2.934984e+02
  -1.510367e+02   2.589709e+02
  -7.414739e+01   1.542856e+01
   1.285472e+02  -1.079585e+02
   2.336593e+02  -1.516746e+01
   3.225923e+01   1.584295e+02
  -1.351724e+02   1.645804e+02
  -1.362367e+02  -9.791586e+01
   1.271730e+01  -2.067130e+02
   1.959950e+02  -2.954196e+01
   1.250922e+02   2.242935e+02
  -2.268535e+01   3.569753e+02
  -2.736717e+02   1.625663e+02
  -3.162199e+02  -5.695862e+01
  -2.828785e+02  -2.871662e+02
  -6.529453e+01  -2.687877e+02
   1.401878e+02  -1.709042e+02
   1.685415e+02  -1.984359e+01
   5.066504e+01   2.596003e+01
  -4.510997e+01  -3.954188e+01
  -2.429755e+01  -1.732591e+02
   1.274023e+02  -1.079034e+02
   1.810237e+02   4.021100e+01
   2.854714e+01   7.623871e+01
  -6.337643e+01   3.338833e+00
  -7.035529e+01  -9.148847e+01
   1.121670e+02  -1.136090e+02
   2.950248e+02  -4.491570e+01
   2.389799e+02   1.501528e+02
   3.156627e+01   2.914271e+02
  -2.294191e+02   3.091831e+02
  -2.609518e+02   1.848272e+02
  -1.690616e+02  -6.985097e+01
   2.150594e+01  -9.077847e+01
   1.335632e+02   1.218957e+01
  -4.475293e+01   9.938933e+01
  -2.059912e+02   3.830020e+01
  -2.293145e+02  -1.008126e+02
  -3.735904e+01  -2.059138e+02
   1.040683e+02  -1.488057e+02
   1.469401e+02  -1.202925e+01
   4.469985e+01   3.655610e+01
  -4.775652e+01  -3.224160e+01
  -4.753407e+01  -8.365155e+01
   1.074679e+02  -1.071392e+02
   1.727524e+02  -3.380700e+01
   1.447460e+02   1.692582e+02
   8.297441e+00   2.424763e+02
  -1.846146e+02   1.357300e+02
  -1.611686e+02  -2.665415e+00
  -7.642764e+01  -1.059167e+02
   8.190185e+01  -9.848197e+01
   8.572847e+01  -4.342926e+01
   2.425593e+01   1.146390e+00
   2.429320e+00   2.617695e+01
  -1.886161e+00  -2.615952e+01
   1.065666e+02   1.754584e+01
   7.643821e+01   9.117689e+01
   4.367017e+01   1.513135e+02
  -1.456799e+02   1.758845e+02
  -2.316839e+02   2.063048e+01
  -2.479724e+02  -1.301963e+02
  -3.714920e+01  -2.349598e+02
   1.048446e+02  -1.554337e+02
   1.559108e+02  -3.928473e+01
   6.118201e+01   8.551759e+01
   3.837158e+01   4.790553e+01
   7.011245e+01  -5.647747e+00
   9.202698e+01   1.482422e+00
   4.417893e+01   4.145699e+01
  -4.534614e+01   1.060879e+02
  -6.606446e+01   5.320680e+01
  -9.812138e+01  -2.684865e+01
   2.901753e+01  -1.202483e+02
   1.476721e+02  -5.801470e+01
   2.390452e+02   5.611353e+01
   1.091547e+02   1.984205e+02
  -1.222801e+02   2.702547e+02
  -2.495775e+02   7.679466e+01
  -2.775271e+02  -8.092406e+01
  -1.056729e+02  -2.054772e+02
   4.001858e+01  -1.869764e+02
   1.018810e+02  -8.213667e+01
   8.034606e+01  -5.296752e+01
   6.957389e+01  -1.047113e+02
   8.106977e+01  -7.849538e+01
   1.483280e+02  -5.238005e+00
   1.532707e+02   1.736638e+02
   5.955582e+01   2.237594e+02
  -8.101183e+01   2.024746e+02
  -1.801610e+02   4.770230e+01
  -1.272459e+02  -1.182461e+02
   5.329337e+00  -1.768506e+02
   9.106910e+01  -7.709780e+01
   5.300014e+01  -1.354013e+01
   3.855445e+00   4.631740e+01
  -2.111030e+01   5.273302e+01
  -2.857047e+00   1.685773e+01
   9.904284e+01   1.543622e+01
   6.847092e+01   7.180152e+01
  -7.164025e+01   2.912826e+01
  -1.620974e+02  -5.684025e+00
  -1.609584e+02  -7.891808e+01
   7.218267e+00  -1.154981e+02
   1.218481e+02  -9.045570e+01
   1.074360e+02   1.598690e+01
   7.816465e+01   4.298771e+01
  -1.100898e+02   1.021901e+01
  -8.480171e+01  -9.553209e+00
  -1.706315e+01  -4.186906e+01
   5.318756e+01  -8.486550e+01
   1.058940e+02  -7.823532e+00
   4.205232e+01   4.323315e+01
   5.347067e+01   1.997686e+01
   5.395563e+01   1.525036e+01
   6.813431e+01  -6.655909e+00
   1.665944e+01   5.856510e+01
  -3.174755e+01   1.725789e+02
  -1.421532e+02   1.187509e+02
  -1.970528e+02   5.591652e+01
  -1.104708e+02  -7.258137e+01
   1.432723e+01  -1.460110e+02
   9.076461e+01  -1.037396e+02
   4.584203e+01   1.660168e+01
  -7.938412e+01   1.866611e+01
  -1.101884e+02  -3.437631e+01
  -8.137694e+01  -1.313579e+02
   8.785312e+01  -1.098837e+02
   1.637173e+02  -2.642929e+01
   1.727240e+02   2.891517e+01
   3.928869e+01   8.716072e+01
  -8.660558e+01   7.727907e+01
  -4.272980e+01  -2.154448e+01
   2.390212e+01  -2.306188e+01
   9.344114e+01   2.984611e+00
   3.387514e+01   1.200137e+02
  -8.829056e+01   1.443997e+02
  -1.580476e+02   6.119481e+01
  -1.409907e+02  -8.631400e+01
  -1.874131e+01  -2.064864e+02
   1.172585e+02  -1.473441e+02
   8.307890e+01  -9.049990e+00
   7.575465e+01   1.144304e+02
   4.329553e+00   1.200522e+02
  -6.412036e+01  -8.944137e+00
  -4.978212e+01  -4.570840e+01
  -3.117390e+00  -3.572010e+01
  -2.667092e+00   7.948529e+00
  -9.704624e+00  -7.788029e+00
  -8.708312e+01  -8.540725e+01
  -1.443016e+01  -9.872096e+01
   3.650905e+01  -5.209866e+01
   1.375203e+02   6.251899e+01
   1.238310e+02   7.947807e+01
   3.456593e+01   6.278453e+01
  -9.814730e+01   1.161053e+01
  -8.733526e+01   1.049973e+01
  -1.625155e-01  -3.968133e+00
   7.082443e+01  -3.749395e+01
   6.590982e+00  -2.199331e+01
  -3.891139e+01  -2.573897e+01
   9.129754e+00   1.493893e+01
   7.201296e+01   1.197758e+01
   1.129928e+02   2.702251e+00
   6.845669e-01   7.603780e+01
  -1.155082e+02   1.017350e+02
  -1.699884e+02   7.040091e+01
  -1.753430e+02  -8.087246e+01
  -1.408294e+01  -1.828436e+02
   8.836268e+01  -1.721572e+02
   1.169053e+02  -4.093495e+01
   5.502265e+01   1.003940e+01
   5.307799e+01   3.758968e+01
   1.317072e+01   3.690172e+00
   2.811457e+01  -1.700552e+01
   4.740729e+01   4.383994e+01
  -5.638234e-01   8.171800e+01
  -2.020524e+01   8.406722e+01
  -7.142675e+01   5.026227e+00
  -7.177617e+01  -8.731633e+01
   7.106355e+00  -1.093597e+02
   7.574010e+01  -2.570213e+01
   9.714186e+01   9.279973e+01
   3.235976e+01   9.069248e+01
  -6.662875e+01   7.770665e+01
  -7.449374e+01   1.081916e+01
  -5.261346e+01  -4.892016e+01
   3.867945e+01  -2.482016e+01
   3.197809e+01  -1.931508e+01
  -1.852968e+01   1.398945e+01
  -4.770289e+01  -1.557658e+01
  -1.417010e+01  -2.624024e+01
   5.574761e+01  -7.777937e+01
   1.301729e+02  -6.792954e+01
   7.166526e+01   1.164555e+01
   8.326130e+00   7.110232e+01
  -4.292212e+01   8.159849e+01
  -5.061769e+01   5.805752e+00
  -1.869293e+01  -3.089656e+01
   1.969412e+01  -1.209537e+01
   2.315087e+01   3.003284e+01
   2.137897e+01   6.090801e+01
  -8.803685e+00   5.599689e+01
  -3.491263e+01  -3.145599e+01
  -7.242979e+01  -5.067303e+01
  -3.555117e+01  -7.086400e+00
  -8.794875e+00   8.762703e+00
   2.854758e+01  -2.996504e+01
  -5.166681e+00  -2.701946e+01
   1.338676e+01  -4.264861e+01
   5.398891e+01  -3.476426e+01
   4.273123e+01   4.641251e+01
  -9.282404e+00   4.703195e+01
  -2.399995e+01   3.181938e+01
  -4.240327e+01  -2.789684e+01
   7.205069e+00  -7.704100e+01
   4.492723e+01  -5.486044e+00
   6.162450e+01   4.471228e+00
   4.457532e+01   3.942084e+01
  -5.141071e+00   3.174430e+01
  -6.586534e+01   3.089080e+01
  -2.616308e+01   1.482140e+01
   1.254175e+01   1.162482e+01
   4.270822e+01  -3.746384e+00
  -5.704486e-01   3.028266e+01
  -7.575653e+01   4.662755e+00
