
 $NMID
 id='ANONYMOUS ', fmtdat='(2E16.6)'
 volume=1.0
 tramp=1.0
 $END
   3.782174e+03   1.996575e+02
   2.594173e+03   2.634595e+03
  -8.668737e+02   2.443003e+03
  -1.874103e+03   1.107011e+03
  -9.782514e+02  -4.145431e+02
   4.085332e+02  -5.138314e+02
   7.341223e+02   4.004657e+02
  -3.491890e+00   8.302317e+02
  -8.235244e+02   6.622627e+02
  -7.076796e+02  -1.912841e+02
  -3.846300e+02  -7.064940e+02
   2.203359e+02  -8.874188e+02
   4.997435e+02  -5.577339e+01
   1.855965e+02   6.083684e+02
  -3.364252e+02   6.629718e+02
  -6.006521e+02   9.282905e+00
  -3.575246e+02  -6.333333e+02
   3.164321e+02  -6.787216e+02
   4.729138e+02  -1.789393e+02
   4.522437e+02   2.947322e+02
   3.553585e+01   3.693703e+02
  -1.614317e+02   2.012024e+02
  -1.704560e+02   3.355817e+01
   1.649427e+02  -4.700560e+00
   3.200650e+02   1.718354e+02
   1.517667e+02   4.566208e+02
  -4.874736e+02   3.689566e+02
  -8.602406e+02  -1.058091e+02
  -3.320667e+02  -4.751324e+02
   3.828907e+02  -3.608973e+02
   6.265021e+02   1.237992e+02
   2.651096e+02   4.089960e+02
  -2.909672e+02   4.869323e+02
  -5.071308e+02   1.629474e+02
  -3.653935e+02  -1.990837e+02
  -1.885699e+01  -4.065073e+02
   1.509198e+02  -2.302586e+02
   3.807044e+01   2.250701e+02
  -2.325942e+02   3.403057e+02
  -3.390757e+02  -1.038442e+02
  -1.734803e+02  -6.127475e+02
   3.935962e+02  -6.285775e+02
   4.614084e+02   5.736233e+00
   1.071907e+02   4.290379e+02
  -2.956790e+02   3.100604e+02
  -2.785940e+02  -2.750732e+02
   5.530043e+01  -5.016444e+02
   6.051134e+02  -1.279358e+02
   6.265041e+02   3.792445e+02
   1.579340e+02   5.304915e+02
  -3.873297e+02   3.033551e+02
  -6.222788e+02  -7.030884e+01
  -3.325643e+02  -3.001516e+02
   9.305412e+01  -3.597524e+02
   3.484836e+02  -9.076063e+01
   2.261174e+02   1.246771e+02
  -1.162714e+02   8.202778e+01
  -1.119680e+02  -1.477675e+02
   1.251343e+02  -1.146841e+02
   2.422993e+02   8.655892e+01
   1.371209e+02   2.666978e+02
  -1.968049e+02   2.652258e+02
  -3.054170e+02   1.005694e+02
  -2.622539e+02  -7.507830e+01
  -1.011606e+01  -2.305602e+02
   2.814174e+02  -3.407608e+02
   3.970328e+02  -2.007898e+02
   2.740894e+02   1.552794e+02
   1.095422e+02   4.684643e+02
  -4.228794e+01   2.916214e+02
  -6.378636e+01   1.120211e+02
  -5.355119e+01   3.458219e+01
  -7.065906e+01   1.006194e+02
  -2.156860e+02   1.007398e+02
  -3.397644e+02  -6.821628e+01
  -1.205347e+02  -2.904202e+02
   1.208402e+02  -2.653600e+02
   2.202924e+02   2.289600e+01
   1.880068e+02   2.347158e+02
  -2.518289e+01   2.714968e+02
  -2.796027e+02   7.233015e+01
  -3.183882e+02  -1.680181e+02
  -1.102046e+02  -3.559368e+02
   1.041039e+02  -2.931421e+02
   1.988949e+02  -1.601784e+02
   1.789947e+02  -4.615432e+01
   1.366638e+02  -6.821647e+01
   2.614940e+02  -2.194180e+01
   3.558146e+02   7.671330e+01
   3.113674e+02   3.426663e+02
   2.161976e+01   4.139735e+02
  -4.469435e+02   4.743920e+02
  -4.429416e+02   1.284323e+02
  -3.012695e+02  -8.968955e+01
  -5.448598e+01  -2.813716e+02
   1.048418e+02  -1.736886e+02
   6.639490e+01  -4.204613e+01
  -1.347478e+02   9.152203e+01
  -1.817430e+02  -1.943427e+01
   7.081009e+00  -1.593763e+02
   1.405400e+02  -1.265207e+02
   1.168085e+02   1.015506e+02
  -2.648625e+01   1.826329e+02
  -1.491543e+02   3.435307e+01
  -1.106948e+02  -2.064945e+02
   1.180689e+00  -3.848009e+02
   2.590268e+02  -1.724188e+02
   3.015058e+02   9.404866e+01
   2.598376e+02   2.543889e+02
   5.350468e+01   2.605311e+02
  -1.582029e+02   1.632007e+02
  -1.615178e+02  -1.931749e+01
  -7.359685e+01  -2.492790e+01
   5.276544e+01   2.405688e+01
   4.909904e+00   1.424561e+02
  -1.080758e+02   1.239895e+02
  -1.766038e+02  -3.938248e+01
  -5.569238e+01  -5.112505e+01
   7.790856e+01  -1.761882e+01
   4.459007e+01   1.245908e+02
  -1.463541e+02   1.075365e+02
  -2.992420e+02  -1.385602e+01
  -2.431386e+02  -1.560248e+02
  -3.238004e+01  -2.887824e+02
   2.093793e+02  -2.951358e+02
   2.800044e+02  -1.607637e+02
   1.420262e+02   5.822443e+01
  -2.316951e+01   8.146128e+01
  -3.927779e+01   1.013981e+01
   3.897321e+01  -9.254779e+01
   2.226273e+02  -5.814255e+01
   2.359093e+02   1.158328e+02
   7.217895e+01   2.126909e+02
  -6.034548e+01   1.359477e+02
  -1.480287e+02   1.746614e+01
  -8.052703e+01  -3.387521e+01
   6.114493e+01   2.046586e+01
   3.026525e+01   6.768307e+01
  -9.182683e+01   1.229690e+02
  -1.760846e+02  -1.289082e+01
  -1.530102e+02  -1.667610e+02
  -8.551406e+00  -2.165188e+02
   1.764141e+02  -1.186537e+02
   1.824691e+02   2.183192e+01
   6.765022e+01   1.170134e+02
  -7.528013e+01   1.106100e+02
  -9.927151e+01   6.294248e+01
   4.521106e+00  -2.426717e+01
  -1.034389e+01  -3.666275e+01
  -1.204610e+01  -1.405805e+00
  -9.744407e+01  -1.263819e+01
  -8.547499e+01  -7.813864e+01
  -8.237289e+01  -1.744717e+02
   1.147446e+02  -1.719585e+02
   2.255888e+02  -1.301829e+01
   2.057038e+02   1.442187e+02
   5.327594e+01   2.523020e+02
  -1.257427e+02   1.595523e+02
  -1.124856e+02   6.158692e+01
  -5.016628e+01  -6.178505e+01
  -1.636495e+01  -2.786291e+01
  -4.596223e+01   1.697708e+01
  -1.085656e+02   1.577633e+01
  -5.758110e+01  -4.325672e+01
   5.469497e+01  -1.066645e+02
   1.058560e+02  -7.883071e+01
   9.560200e+01   1.745965e+01
  -1.580766e+01   1.134224e+02
  -1.626760e+02   5.440363e+01
  -2.400922e+02  -4.983053e+01
  -1.033189e+02  -2.087296e+02
   1.727593e+02  -2.744842e+02
   2.458494e+02  -9.473470e+01
   2.653800e+02   5.598996e+01
   1.176600e+02   1.886538e+02
  -3.452524e+01   1.639759e+02
  -1.138846e+02   1.000796e+02
  -8.949062e+01   5.984114e+01
  -7.786854e+01   8.886005e+01
  -7.828792e+01   5.750861e+01
  -1.273986e+02  -2.157386e+01
  -1.199390e+02  -1.720092e+02
  -3.661093e+01  -2.055945e+02
   8.875144e+01  -1.929072e+02
   1.454816e+02  -2.068042e+01
   1.040283e+02   1.204301e+02
   2.486557e+01   1.556610e+02
  -4.700636e+01   1.084372e+02
  -5.295891e+01   1.022031e+01
   5.727433e+00  -6.696558e+01
  -2.681376e+01  -3.967510e+01
  -2.598487e+01  -2.054654e+01
  -8.359290e+01  -2.574171e+01
  -6.319148e+01  -4.032166e+01
   6.847417e+01  -6.540205e+01
   1.769274e+02   6.242955e+00
   1.469480e+02   3.658009e+01
  -1.765394e+01   1.002127e+02
  -1.205293e+02   8.283928e+01
  -1.485523e+02  -1.452658e+01
  -4.912450e+01  -1.848451e+01
   8.002140e+01  -1.609463e+01
   8.551540e+01   2.481335e+01
  -1.533690e+00   6.897531e+01
  -6.568182e+01   5.107404e+01
  -6.114124e+01   1.908555e+01
  -5.491683e+01  -3.261188e+01
  -4.931903e+01  -7.154850e+01
  -6.454376e+01  -2.476872e+01
  -8.197475e+01  -9.138628e+00
  -1.217614e+01  -3.613053e+01
   2.411156e+01  -1.353051e+02
   1.394895e+02  -1.163005e+02
   1.667590e+02  -6.457385e+01
   1.287820e+02   1.008728e+02
  -2.042719e+01   1.114084e+02
  -1.129502e+02   1.134029e+02
  -4.091191e+01  -3.321043e+01
   6.615217e+01  -1.450777e+01
   1.296032e+02   6.520374e+01
   7.549724e+01   1.094064e+02
  -1.069154e+02   1.191669e+02
  -1.821987e+02   2.586950e+01
  -1.325327e+02  -4.389436e+01
  -6.855153e+01  -7.873825e+01
   8.580375e+01  -7.642962e+01
   5.950080e+01   2.047015e-01
  -4.477209e+01   1.050091e+01
  -1.022841e+02  -2.511979e+01
  -4.812205e+01  -1.151632e+02
   7.453432e+01  -1.386695e+02
   1.500339e+02  -9.629293e+01
   1.344472e+02   4.729898e+01
  -1.385790e+01   1.626622e+02
  -1.016987e+02   1.513629e+02
  -1.002893e+02  -1.000398e+01
  -6.573304e+01  -1.162376e+02
   5.575870e+00  -1.027704e+02
   5.350502e+01  -3.255270e+01
   4.121796e+01   3.237785e+01
   1.783634e+01  -2.103462e-01
   8.032857e+00  -4.146672e+01
   3.176967e+01   2.676880e+01
   8.112272e+01   7.474583e+01
   7.261186e+01   9.527289e+01
  -2.738161e+01   8.159267e+01
  -1.673464e+02  -5.528585e+01
  -1.249106e+02  -5.452634e+01
  -1.846758e+01  -5.844433e+01
   1.208823e+02  -3.411943e+01
   8.374324e+01  -5.121697e+00
   1.827449e+01   8.340015e+00
  -6.358079e+01   1.823898e+01
  -9.774732e-01   2.190419e+01
   2.058082e+01  -2.139359e+01
  -1.421516e+01  -1.967859e+01
  -6.868271e+01   6.275568e+00
  -1.113871e+02  -4.222591e+01
  -3.598527e+01  -8.538008e+01
   1.049100e+02  -1.147575e+02
   2.253621e+02  -6.821583e+01
   1.822155e+02   4.818151e+01
   9.130061e+00   1.691746e+02
  -7.896687e+01   1.434520e+02
  -1.477040e+02   7.953851e+01
  -6.409809e+01  -4.053910e+01
  -5.002068e+01  -3.241508e+01
  -1.101971e+01  -3.260469e+01
  -5.466781e+00   2.291264e+01
  -4.052952e+01  -5.384847e+01
  -7.839013e+00  -9.159173e+01
   4.368556e+01  -7.529328e+01
   8.343690e+01   3.246408e+01
   9.299521e+01   1.038878e+02
  -2.139709e+01   1.114543e+02
  -6.281250e+01   4.052378e+01
  -1.077284e+02  -6.461588e+01
  -2.700802e+01  -9.368081e+01
   4.818641e+01  -6.848479e+01
   9.484395e+01   4.232311e+00
   5.509463e+01   3.036784e+01
  -9.876617e-02   5.987136e+01
  -5.940602e+01   4.353145e+01
   8.707153e+00  -9.274623e+00
   6.331814e+01  -9.530053e+00
   1.184458e+01   2.572061e+01
  -7.100284e+01   5.535044e+01
  -1.071643e+02   5.064099e+01
  -7.574641e+01  -1.342969e+01
  -4.084980e+00  -7.849752e+01
   6.838034e+01  -1.123118e+02
   2.462624e+01  -7.563714e-01
   9.479861e-01   3.441221e+01
  -3.003970e+01   3.750599e+01
  -4.254961e+01  -4.354619e+01
  -1.237166e+01  -5.922426e+01
   1.538081e+01  -4.076023e+01
   2.020228e+01   1.846795e+01
   5.453335e+01   3.036001e+01
   2.294960e+01   3.360858e+01
  -1.431028e+01  -2.196167e+01
  -4.101910e+00   3.801453e+01
   3.212061e+00   1.950519e+01
   5.231576e+00   8.438643e+01
  -3.781317e+01   1.096313e+01
  -3.765759e+01  -4.722513e+01
   2.169104e+01  -6.308020e+01
   5.770818e+01  -1.953309e+01
   6.688844e+01   4.974468e+01
   2.593520e+01   5.565140e+01
  -2.101174e+01   3.640742e+01
  -6.182821e+01  -2.343755e+01
  -7.310989e+01  -4.998324e+01
   1.173997e+01  -3.836345e+01
   4.729514e+01  -4.534072e+00
   2.399652e+01  -2.411459e+01
  -7.584161e+00   1.719033e+00
  -3.432180e+01   8.139019e-01
   7.807363e+00  -3.122879e+01
   9.467021e+01  -3.160899e+01
