
 $NMID
 id='ANONYMOUS ', fmtdat='(2E16.6)'
 volume=1.0
 tramp=1.0
 $END
  -3.409685e+03  -5.617030e+02
  -1.485418e+03  -1.413361e+03
   3.531480e+02  -1.884437e+03
   8.609438e+02  -1.246010e+03
   7.303267e+02  -9.013825e+01
  -4.189455e+01   1.281258e+02
  -4.704008e+02  -1.351781e+02
   1.468962e+01  -6.240447e+02
   2.887829e+02  -6.056605e+02
   5.894752e+02   3.440112e+00
   4.043638e+02   5.966293e+02
  -3.471512e+01   5.688723e+02
  -2.910591e+02   6.628160e+01
  -4.824334e+01  -3.200666e+02
   1.456965e+02  -5.662339e+02
   3.892054e+02  -1.374919e+02
   1.875564e+02   4.860596e+02
  -1.434355e+02   5.384911e+02
  -5.753345e+02   2.175852e+02
  -4.389973e+02  -1.854832e+02
  -7.701705e+01  -3.923780e+02
   1.751549e+02  -2.669610e+02
   6.609339e+01  -7.922974e+01
  -1.948677e+02  -8.118127e+01
  -2.475401e+02  -2.254288e+02
  -3.290562e+00  -3.816400e+02
   4.084712e+02  -1.402049e+02
   6.214506e+02   1.478774e+02
   2.331148e+02   3.777179e+02
  -3.100168e+02   2.047985e+02
  -4.756936e+02  -2.090807e+02
  -1.676883e+02  -4.209496e+02
   2.718806e+02  -3.077569e+02
   5.225855e+02  -1.222592e+02
   3.185898e+02   1.612481e+02
   7.699792e+01   3.292545e+02
  -3.716039e+01   1.247348e+02
   6.664206e+01  -8.262790e+01
   1.224369e+02  -1.981984e+02
   1.714703e+02   1.589076e+02
   3.750745e+01   4.709407e+02
  -2.767906e+02   3.575734e+02
  -2.950819e+02  -5.454355e+01
  -1.288656e+01  -3.105023e+02
   1.543516e+02  -2.134495e+02
   2.322070e+02   2.267991e+02
  -8.726534e+01   3.819485e+02
  -4.432731e+02   9.941151e+00
  -4.939959e+02  -3.436934e+02
  -1.971180e+02  -5.618488e+02
   3.141635e+02  -2.775061e+02
   5.862455e+02   1.022654e+02
   3.835241e+02   2.318896e+02
  -5.928186e+01   2.429731e+02
  -2.869418e+02   3.570438e+01
  -2.139313e+02  -4.367581e+01
   3.890142e-01  -2.954773e+01
   3.481672e+01   4.156321e+01
  -1.171584e+02   5.181301e+01
  -2.300228e+02  -2.457442e+01
  -1.315214e+02  -2.130791e+02
   1.044536e+02  -2.320881e+02
   2.926287e+02  -8.942196e+01
   2.942963e+02   8.260163e+01
  -2.722876e+01   2.799312e+02
  -2.490174e+02   2.972244e+02
  -3.301598e+02   1.788437e+02
  -2.274099e+02  -1.652574e+02
  -2.178840e+01  -3.032151e+02
   5.012895e+01  -2.528131e+02
   2.944114e+01  -1.338983e+02
   1.569482e+01  -9.665229e+01
   1.136259e+02  -1.323238e+02
   2.352885e+02  -4.561311e+01
   2.257713e+02   1.095081e+02
   9.780826e+01   2.428766e+02
  -1.386963e+02   1.730848e+02
  -1.748552e+02  -5.757348e+01
  -8.022084e+01  -2.759340e+02
   3.032690e+01  -2.304156e+02
   2.472871e+02  -2.354939e+01
   2.164681e+02   2.190270e+02
   1.512264e+02   2.858739e+02
  -2.343858e+01   3.022915e+02
  -1.377437e+02   1.562085e+02
  -1.407500e+02   4.300252e+01
  -1.372420e+02   3.273452e+01
  -2.412992e+02   2.886744e+01
  -3.850312e+02  -1.315924e+02
  -2.795346e+02  -2.921381e+02
   7.334107e+01  -3.929111e+02
   3.256436e+02  -3.348937e+02
   4.162541e+02  -1.471816e+02
   2.759714e+02   1.010839e+02
   2.473755e+01   2.460421e+02
  -9.436710e+01   2.042189e+02
  -1.237072e+01   3.768096e+01
   1.057428e+02  -6.987522e+01
   1.305176e+02   3.202787e+01
   1.658914e+01   1.960749e+02
  -1.409960e+02   1.553805e+02
  -1.023194e+02  -4.836752e+01
   1.661163e+01  -1.745066e+02
   1.395820e+02   1.215615e+01
   8.282699e+01   2.445563e+02
  -1.096932e+01   3.091919e+02
  -2.058216e+02   1.475315e+02
  -2.977906e+02  -6.529794e+01
  -2.221626e+02  -2.051336e+02
  -6.261354e+01  -3.153367e+02
   1.276588e+02  -1.295008e+02
   1.661054e+02  -3.677502e+01
   5.036362e+01  -1.810348e+01
  -6.120210e+01  -5.242386e+01
  -1.783401e+01  -1.004310e+02
   1.437909e+02  -4.472895e+01
   1.379807e+02   8.046070e+00
   4.926254e+01   4.187638e+01
  -6.476756e+01   6.913620e+00
  -3.397761e+01  -7.004828e+01
   1.093640e+02  -6.686420e+01
   2.892635e+02   2.626982e+01
   2.742038e+02   1.819278e+02
   4.432362e+01   2.612715e+02
  -1.864884e+02   2.167116e+02
  -2.336681e+02   9.391515e+01
  -1.493018e+02  -4.284755e+01
   6.243132e+01  -7.373019e+01
   5.497256e+01  -1.132903e+01
  -5.121651e+01   6.832986e+01
  -1.683007e+02   3.422735e+01
  -1.490475e+02  -9.799052e+01
  -8.003758e+01  -1.605551e+02
   8.635559e+01  -1.075274e+02
   1.044935e+02  -3.370160e+01
   4.917603e+01   4.620386e+01
  -3.402502e+01  -2.066541e+01
  -4.628141e+01  -9.417665e+01
   8.233488e+01  -1.053646e+02
   1.806927e+02   1.854112e+01
   1.826179e+02   1.436623e+02
   2.280708e+00   1.777267e+02
  -1.265600e+02   1.304321e+02
  -1.632986e+02  -7.831329e+00
  -6.729835e+01  -5.813009e+01
   3.333891e+01  -4.599144e+01
   8.440430e+01  -4.472387e+01
  -3.082110e+01   3.749755e+01
  -5.176017e+01  -3.583853e+00
   3.310973e+01  -2.088466e+01
   8.873487e+01  -2.684008e+01
   8.282109e+01   6.861063e+01
  -6.217858e+00   1.526946e+02
  -1.334799e+02   1.393523e+02
  -2.437142e+02  -2.809772e+01
  -1.840573e+02  -1.432242e+02
   6.892368e+00  -1.713430e+02
   1.142077e+02  -1.961756e+02
   1.261295e+02  -1.821194e+01
   7.108202e+01  -1.370184e-01
   1.430141e+01   1.205986e+01
   6.055566e+01  -2.678221e+00
   9.194364e+01  -1.421760e+01
   5.569666e+01   4.948913e+01
  -5.996376e+01   1.216155e+02
  -1.301926e+02   6.579336e+01
  -9.236280e+01  -2.900088e+01
  -6.818817e+00  -9.980179e+01
   1.625193e+02  -7.558856e+01
   2.073472e+02   7.183479e+01
   7.833001e+01   1.707766e+02
  -1.650709e+02   1.618871e+02
  -2.765875e+02   6.533935e+01
  -2.596671e+02  -7.171201e+01
  -8.489542e+01  -1.797353e+02
   2.051110e+01  -1.102182e+02
   9.210518e+01  -8.579006e+01
   6.720394e+01  -7.856445e+01
   6.496864e+01  -1.081951e+02
   7.872533e+01  -9.828076e+01
   1.163216e+02   4.792612e+01
   1.425204e+02   1.523484e+02
   2.486709e+01   2.058248e+02
  -9.760684e+01   1.461942e+02
  -1.445287e+02   2.834094e+01
  -1.100669e+02  -1.382480e+02
   1.961589e+01  -1.232001e+02
   5.764508e+01  -7.597673e+01
   5.958684e+01   2.798283e+01
  -3.791261e+00   2.332571e+01
  -1.554173e+01   3.235709e+01
   1.016150e+01   2.978893e+01
   7.696180e+01   1.786854e+01
   5.199951e+01   1.393999e+01
  -8.877761e+01   4.328227e+01
  -1.617889e+02   1.188483e+01
  -1.229390e+02  -6.175956e+01
  -2.512268e+01  -8.039966e+01
   1.464945e+02  -5.601986e+01
   1.294783e+02   8.698093e+00
   4.056602e+01   3.052638e+01
  -5.663916e+01   2.251779e+01
  -8.328517e+01  -3.057054e+01
  -2.231894e+01  -5.544677e+01
   2.327242e+01  -5.363895e+01
   6.593003e+01   3.131900e+00
   4.437884e+01   5.012565e+01
   3.629251e+01   2.718504e+01
   5.885447e+01  -2.744092e+00
   3.538683e+01  -1.110156e+00
   4.562431e+01   8.165714e+01
  -3.314900e+01   1.577508e+02
  -1.129774e+02   1.119594e+02
  -1.640681e+02   4.269000e+01
  -1.331932e+02  -9.846578e+01
  -1.278143e+01  -1.039007e+02
   8.134481e+01  -6.701013e+01
   7.282162e+01   2.884089e+01
  -8.098051e+01   8.464095e+00
  -1.358714e+02  -4.008736e+01
  -5.768085e+01  -6.146165e+01
   1.052096e+02  -8.180495e+01
   1.866561e+02  -3.294721e+01
   1.336390e+02   4.286568e+01
   2.539561e+01   8.325040e+01
  -4.640086e+01   5.512289e+01
  -3.266036e+01   2.313864e+00
   4.044183e+01  -4.192812e+01
   7.896936e+01   3.212810e+01
   2.753046e+01   1.099609e+02
  -7.351337e+01   1.481893e+02
  -1.587626e+02   4.556850e+01
  -1.505722e+02  -9.702688e+01
  -1.199074e+01  -1.723077e+02
   8.480923e+01  -1.254553e+02
   9.883807e+01   2.176200e+01
   6.992199e+01   1.255788e+02
  -1.154970e+01   7.456872e+01
  -6.186730e+01  -3.471140e-01
  -5.788010e+01  -2.843351e+01
  -8.866066e+00  -2.256694e+01
  -3.087658e+00   1.714452e+01
  -3.949007e+01  -1.659561e+01
  -2.405245e+01  -6.271395e+01
  -2.945238e+01  -1.183128e+02
   7.528929e+01   1.261732e+01
   1.495203e+02   1.826952e+01
   8.798774e+01   6.766275e+01
   2.832278e+01   3.175277e+01
  -6.954880e+01   4.685725e+01
  -8.125078e+01   1.074828e+01
  -2.155883e+01  -4.411686e+01
   4.766695e+01  -1.218876e+01
   2.136599e+01  -5.065678e+00
  -2.151404e+01  -2.732717e+01
  -4.316614e-01   5.799011e+00
   6.524327e+01  -8.943630e+00
   8.769604e+01   2.125896e+01
   6.525908e+00   6.896733e+01
  -9.183044e+01   1.083213e+02
  -2.060686e+02   5.616346e+01
  -1.345374e+02  -5.161528e+01
  -3.811279e+00  -1.698712e+02
   7.030316e+01  -1.697294e+02
   8.477329e+01  -5.681107e+01
   8.095181e+01   3.973041e+01
   4.118869e+01   2.425455e+01
   2.061449e+01   4.762896e+01
   1.989412e+01  -1.885110e+01
   3.553088e+01   5.299088e+01
  -1.132940e+00   1.114528e+02
  -4.018698e+01   9.767261e+01
  -9.482300e+01  -2.065415e+01
  -8.317520e+01  -7.909879e+01
  -2.126741e+01  -1.087978e+02
   7.087377e+01  -3.176813e+01
   8.163608e+01   7.976890e+01
   2.306782e+01   8.928377e+01
  -5.845841e+01   3.955417e+01
  -6.789113e+01  -1.204530e+01
  -2.233704e+01  -4.828104e+01
   2.517578e+01  -2.864697e+01
   3.774944e+01  -3.396413e+01
  -1.712783e+01   5.656803e+00
  -9.126499e+01  -1.471294e+01
  -1.182722e+01  -2.922906e+01
   9.121688e+01  -6.426110e+01
   1.236007e+02  -2.521445e+01
   9.308845e+01   3.850857e+01
  -7.229231e+00   6.929644e+01
  -6.338361e+01   7.135035e+01
  -5.235569e+01   1.891617e+01
  -2.134279e+01  -3.368429e+01
   5.519521e+01  -5.737754e+01
   2.291722e+01   9.611998e-02
   3.136514e+01   4.566113e+01
  -3.397270e+01   2.077891e+00
  -3.501592e+01  -2.085750e+01
  -5.561455e+01  -2.782592e+01
  -9.495271e-01  -1.924938e+01
   5.164940e+00   1.264187e+01
   9.007178e+00   7.820880e+00
  -2.507373e+01  -4.069042e+01
   4.511471e+00  -1.969725e+01
   1.372642e+01  -4.071990e+01
   1.465925e+01  -1.937652e+00
   1.197004e+01   6.374150e+01
  -3.579689e+01  -4.111396e+00
  -6.350368e+01  -7.962808e+00
   2.309692e+00  -5.822879e+01
   6.538224e+01  -1.666123e+01
   1.066076e+02   2.317535e+01
   8.775766e+01   5.019798e+01
  -3.608645e+01   5.013236e+01
  -5.380100e+01   3.968981e+01
  -2.586691e+01   1.566721e+01
  -1.247074e+00   4.139841e+00
   5.529633e+01   3.316336e+01
  -3.358707e+01   3.639758e+01
  -7.397112e+01   3.486038e+01
