
 $NMID
 id='ANONYMOUS ', fmtdat='(2E16.6)'
 volume=1.0
 tramp=1.0
 $END
   3.360039e+03   3.742945e+02
   1.810863e+03   1.477798e+03
  -1.554773e+02   2.131207e+03
  -1.263083e+03   1.038479e+03
  -7.381413e+02  -6.847173e+01
   1.648721e+02  -3.473814e+02
   5.120073e+02   1.846525e+02
   1.013700e+01   5.644827e+02
  -3.624362e+02   6.515655e+02
  -6.746087e+02   3.423652e+01
  -4.540789e+02  -5.320709e+02
   5.904882e+01  -6.124781e+02
   3.082560e+02  -8.297450e+01
   1.294506e+02   4.037872e+02
  -1.097469e+02   5.597629e+02
  -3.697185e+02   1.556989e+02
  -2.573944e+02  -4.918698e+02
   1.106513e+02  -5.941604e+02
   5.184910e+02  -2.442019e+02
   4.513643e+02   2.669997e+02
   4.003526e+01   3.526575e+02
  -1.845765e+02   2.595525e+02
  -7.899984e+01   8.697861e+01
   1.654728e+02   3.522175e+01
   2.421482e+02   2.455080e+02
   3.436960e+01   3.527091e+02
  -3.886782e+02   1.611189e+02
  -6.039260e+02  -1.232941e+02
  -3.366013e+02  -3.817341e+02
   3.242252e+02  -2.215982e+02
   4.870221e+02   1.667743e+02
   2.285523e+02   3.638616e+02
  -2.410814e+02   3.046304e+02
  -4.598962e+02   1.582926e+02
  -3.458500e+02  -1.642057e+02
  -4.239991e+01  -3.138403e+02
   9.209141e+01  -1.510520e+02
  -1.435335e+01   1.182118e+02
  -1.077090e+02   2.470623e+02
  -2.266302e+02  -1.361268e+02
  -8.567411e+00  -5.522537e+02
   1.778082e+02  -4.406801e+02
   3.105746e+02   4.823865e+01
   4.984853e+01   2.576518e+02
  -1.427974e+02   1.653765e+02
  -2.769519e+02  -2.237548e+02
   9.048715e+01  -4.343557e+02
   4.268395e+02  -3.578878e+01
   4.749250e+02   3.197990e+02
   1.462655e+02   5.077652e+02
  -2.983612e+02   2.754879e+02
  -5.811890e+02  -1.972924e+01
  -4.009010e+02  -2.845353e+02
   4.589185e+01  -2.024907e+02
   3.055197e+02   2.789069e+01
   2.444572e+02   8.188593e+01
   3.371225e+01   3.377934e+01
  -9.524762e+01  -4.034193e+01
   1.246822e+02  -8.602256e+01
   2.121345e+02   2.855309e+01
   1.133197e+02   1.946667e+02
  -1.193467e+02   2.547112e+02
  -3.054911e+02   1.039490e+02
  -2.501988e+02  -9.085908e+01
   2.307424e+01  -2.317187e+02
   1.975907e+02  -2.935392e+02
   3.261936e+02  -1.893642e+02
   2.524587e+02   1.448821e+02
   2.844855e+01   2.797861e+02
  -5.299468e+01   2.577062e+02
  -3.563793e+01   1.390133e+02
  -4.374129e+01   9.688163e+01
  -1.049866e+02   1.033624e+02
  -2.563761e+02   1.830767e+01
  -2.296248e+02  -7.472158e+01
  -1.358938e+02  -1.789235e+02
   9.672272e+01  -1.929619e+02
   1.677557e+02   4.597682e+01
   1.062106e+02   2.316284e+02
  -3.599257e+01   2.464974e+02
  -2.172866e+02   2.691489e+00
  -2.761251e+02  -1.859739e+02
  -1.503389e+02  -2.581302e+02
   6.843793e+01  -3.072764e+02
   1.390893e+02  -1.272008e+02
   1.535946e+02  -5.371926e+01
   1.394953e+02  -3.555792e+01
   2.394328e+02  -4.168106e+01
   3.937730e+02   1.106690e+02
   2.523790e+02   2.766790e+02
  -7.627313e+01   3.586654e+02
  -3.252851e+02   3.775687e+02
  -4.315543e+02   1.732047e+02
  -2.636589e+02  -8.455955e+01
  -2.388039e+01  -2.417669e+02
   4.914693e+01  -2.013942e+02
   1.367426e+01  -4.486804e+01
  -1.108283e+02   4.752505e+01
  -1.611201e+02   1.376780e+01
  -1.505908e+01  -2.093419e+02
   9.478842e+01  -1.424530e+02
   1.124804e+02   5.305615e+01
  -2.853057e+01   1.362591e+02
  -1.568188e+02   3.060155e+00
  -5.437321e+01  -2.074902e+02
  -2.875602e+01  -3.108627e+02
   1.881048e+02  -1.622209e+02
   2.891774e+02   6.844996e+01
   2.730078e+02   2.160011e+02
   2.865984e+01   2.677859e+02
  -1.215621e+02   1.330367e+02
  -1.595067e+02   2.226791e+01
  -5.200602e+01  -3.947113e+01
   5.604146e+01   6.358396e+01
   1.734198e+01   1.123733e+02
  -9.770696e+01   7.800785e+01
  -1.320351e+02   1.435308e+01
  -6.402168e+01  -3.495316e+01
   8.838800e+01   4.090484e+00
   5.320425e+01   6.303658e+01
  -1.367158e+02   9.063166e+01
  -2.700210e+02  -1.187956e+01
  -2.675672e+02  -1.991554e+02
  -5.317193e+01  -2.413493e+02
   1.667913e+02  -2.055984e+02
   1.998581e+02  -1.104572e+02
   1.526249e+02   4.436068e+01
  -4.413805e+01   9.521311e+01
  -6.283984e+01   9.559294e+00
   4.990009e+01  -9.018899e+01
   2.006229e+02  -6.944202e+01
   1.563674e+02   1.212014e+02
   7.715366e+01   1.968424e+02
  -7.122408e+01   1.323541e+02
  -1.159499e+02   2.342469e+01
  -5.073536e+01  -5.675285e+01
   2.428788e+01   1.650726e+01
   1.742824e+01   1.228549e+02
  -8.385290e+01   9.720871e+01
  -2.044056e+02   1.318619e+01
  -1.394422e+02  -1.113201e+02
  -3.035564e+01  -2.094261e+02
   1.209031e+02  -1.150062e+02
   1.816480e+02  -2.487089e+00
   5.496112e+01   1.044308e+02
  -4.228058e+01   9.717144e+01
  -6.688684e+01   4.147019e+01
  -9.968566e-01  -4.056126e+01
   2.742816e+01  -8.840443e+00
  -9.707796e-01  -5.134250e+00
  -9.204282e+01   2.138670e+01
  -8.466209e+01  -1.284845e+02
   1.371262e+01  -1.606886e+02
   1.156092e+02  -1.350048e+02
   2.257606e+02   2.223340e+01
   2.068451e+02   1.361509e+02
   2.467721e+01   1.936414e+02
  -1.235827e+02   1.710519e+02
  -1.022487e+02   1.053885e+01
  -6.428875e+01  -3.102054e+01
  -2.588437e+01  -6.713405e+00
  -3.209884e+01   1.704514e+01
  -6.990343e+01  -9.469372e+00
  -5.346978e+01  -3.342524e+01
   5.896444e+01  -8.696907e+01
   1.043419e+02  -7.902500e+01
   7.460255e+01   4.234312e+01
   5.881142e+00   8.108970e+01
  -1.475938e+02   5.291036e+01
  -2.074474e+02  -2.948299e+01
  -7.836721e+01  -2.046159e+02
   1.338478e+02  -1.663938e+02
   2.912434e+02  -9.491430e+01
   2.517539e+02   6.601530e+01
   9.600533e+01   1.450580e+02
  -2.765007e+01   1.463891e+02
  -9.812871e+01   8.426490e+01
  -6.213867e+01   6.145303e+01
  -4.930751e+01   9.372008e+01
  -3.797816e+01   8.658864e+01
  -1.493572e+02  -2.493097e+01
  -1.162858e+02  -1.454293e+02
  -2.819102e+00  -2.028026e+02
   1.160386e+02  -1.392703e+02
   1.707931e+02  -2.275541e+01
   1.162823e+02   1.269601e+02
   6.444815e+00   1.204729e+02
  -7.387080e+01   8.938200e+01
  -2.697077e+01  -2.265090e+01
  -4.155457e+00  -6.283721e+01
   1.302126e+01  -3.501362e+01
  -2.602922e+01  -5.063871e+01
  -5.831840e+01  -1.721337e+01
  -6.667591e+01  -5.091265e+01
   6.392766e+01  -2.750278e+01
   1.872808e+02  -1.275940e+01
   1.401373e+02   5.585886e+01
   4.962675e+00   6.493921e+01
  -1.123842e+02   4.127180e+01
  -1.266897e+02   1.993207e+01
  -3.463998e+01  -5.782927e+01
   7.965542e+01  -5.493241e+01
   4.779097e+01   3.719965e+00
   1.034261e+01   6.575613e+01
  -4.606213e+01   7.295384e+01
  -4.873587e+01  -6.484615e+00
  -5.155865e+01  -2.682778e+01
  -3.173149e+01  -4.315988e+01
  -5.854404e+01  -2.067138e+00
  -6.604868e+01  -4.133696e+00
  -4.871799e+01  -5.028501e+01
   2.993676e+01  -1.950263e+02
   1.106029e+02  -1.231373e+02
   1.633351e+02  -5.464277e+01
   1.018119e+02   3.779720e+01
   3.204020e+01   1.106452e+02
  -7.527452e+01   5.817987e+01
  -9.304680e+01  -1.800619e+01
   5.864840e+01  -5.642584e+01
   1.361823e+02   2.624469e+01
   5.364443e+01   1.091245e+02
  -1.188390e+02   1.029641e+02
  -1.740226e+02   1.991281e+01
  -1.541934e+02  -4.409616e+01
  -1.318753e+01  -5.952846e+01
   6.865489e+01  -5.661649e+01
   6.132412e+01  -1.090859e+01
  -4.368706e+01   2.772557e+01
  -7.671421e+01  -4.744484e+01
  -9.972902e+00  -8.161051e+01
   8.356253e+01  -1.153429e+02
   1.256124e+02  -5.646003e+01
   9.249214e+01   9.321899e+01
  -2.760807e+00   1.880105e+02
  -5.916812e+01   1.268898e+02
  -1.193726e+02  -1.147300e+01
  -7.631416e+01  -1.184897e+02
  -1.550371e+01  -9.397286e+01
   4.465838e+01  -2.191870e+01
   4.201346e+01   1.846003e+01
   1.232162e+01   1.384540e+01
  -1.578884e+01   9.616706e+00
   2.967397e+01   4.991351e+01
   4.122657e+01   6.638159e+01
   4.532084e+01   7.604571e+01
  -8.625020e+01   2.867375e+01
  -1.166358e+02  -2.639508e+01
  -9.689528e+01  -6.621644e+01
  -1.190464e+01  -5.601328e+01
   5.226330e+01  -1.952165e+01
   8.039248e+01   7.754094e-01
   2.890142e+00   4.004376e+01
  -6.850089e+01   4.421848e+00
  -1.485099e+00   2.150196e+01
   6.862126e+00   2.896768e+01
  -1.861924e+00  -8.737499e+00
  -4.921134e+01  -1.801387e+01
  -5.818141e+01  -3.110508e+01
  -4.241230e+01  -8.940119e+01
   1.120254e+02  -7.218764e+01
   1.812512e+02  -6.187917e+01
   1.195161e+02   7.362953e+01
   4.042923e+01   1.812891e+02
  -6.136438e+01   1.246324e+02
  -9.019609e+01   5.862479e+01
  -9.517588e+01  -2.952122e+01
  -3.322742e+01  -1.810128e+01
   6.708232e+00  -3.096429e+01
  -1.026793e+01   1.955592e+01
  -3.188485e+01  -2.358920e+01
  -5.514214e+01  -6.930721e+01
  -6.501078e+00  -1.049477e+02
   9.948608e+01   2.880398e+01
   8.135278e+01   8.342561e+01
  -4.700288e+00   1.349145e+02
  -4.480101e+01   2.864435e+01
  -9.285547e+01  -7.043628e+01
  -3.235558e+01  -8.821758e+01
   6.646247e+01  -5.183168e+01
   8.384356e+01  -3.120210e+00
   6.602826e+01   7.466811e+01
  -2.796363e+01   5.468969e+01
  -5.820476e+01   1.818885e+01
   1.638104e+01  -8.453175e+00
   6.933136e+01  -2.991412e+00
   1.090165e+01   1.265330e+01
  -8.359709e+01   6.853298e+01
  -1.241622e+02   2.079560e+01
  -4.788004e+01  -3.181597e+00
   1.681205e+01  -4.894330e+01
   6.922588e+01  -6.283003e+01
   5.943490e+01  -1.775736e+01
   1.113734e+01   1.471643e+01
  -2.003353e+01   5.933079e+01
  -3.138570e+01  -1.452953e+01
  -2.831831e+01  -6.858303e+01
   1.328126e+01  -3.600537e+01
  -8.764068e+00   1.921148e+01
   3.508583e+01   1.302310e+01
   2.305419e+01   2.613015e+01
  -3.693753e-01  -3.182017e+01
   1.205336e+01  -9.994890e+00
   4.805114e+01   8.669836e+00
  -1.385475e+01   3.808057e+01
  -4.069486e+01   3.441068e+01
  -7.148247e+00  -3.209806e+00
  -3.335665e+01  -5.108712e+01
   6.069241e+01  -3.448991e+01
   8.586483e+01  -5.353820e-01
   2.530142e+01   7.307382e+01
  -3.487333e+01   6.788702e+01
  -1.021951e+02   1.661859e+01
  -6.631669e+01  -4.170610e+01
   2.350546e+01  -6.979637e+01
   7.406986e+01  -1.291305e+01
   2.936594e+01  -2.005047e+01
  -5.357302e+00  -5.928177e+00
  -3.175113e+01  -1.529615e+01
   3.726001e+01  -9.205454e+00
   6.645097e+01  -3.767229e+01
