
 $NMID
 id='ANONYMOUS ', fmtdat='(2E16.6)'
 volume=1.0
 tramp=1.0
 $END
   2.796158e+03   3.325296e+02
   1.796908e+03   1.424403e+03
  -4.623580e+01   1.698203e+03
  -1.475684e+03   5.573923e+02
  -6.904200e+02  -1.659887e+02
   2.512537e+02  -3.769373e+02
   5.828119e+02   1.425645e+01
  -3.758541e+01   6.905651e+02
  -5.279744e+02   5.341290e+02
  -5.452542e+02  -1.281809e+01
  -3.286872e+02  -5.519417e+02
   6.000749e+01  -6.000577e+02
   3.142898e+02  -1.126523e+02
   2.932105e+02   3.529702e+02
   1.013354e+01   5.031870e+02
  -4.147731e+02   1.013191e+02
  -2.265494e+02  -4.323117e+02
   1.860168e+02  -4.745561e+02
   3.391596e+02  -7.207344e+01
   2.868928e+02   1.950561e+02
   6.230904e+01   2.448335e+02
  -1.317349e+02   1.997901e+02
  -1.337945e+02   7.498874e+01
   8.014195e+01   5.135275e+01
   2.417702e+02   2.015441e+02
   1.378708e+01   3.392084e+02
  -2.878032e+02   1.798930e+02
  -5.085596e+02  -1.195794e+02
  -2.845260e+02  -4.206716e+02
   1.787119e+02  -2.613798e+02
   4.394340e+02   8.541099e+01
   1.885653e+02   2.910741e+02
  -1.614353e+02   2.988153e+02
  -4.444742e+02   1.189320e+02
  -2.397193e+02  -1.601144e+02
  -4.342226e+01  -3.119916e+02
   8.238584e+01  -1.955427e+02
   3.928447e+01   1.160222e+02
  -3.530323e+01   2.604923e+02
  -2.412307e+02  -3.733926e+01
  -7.385962e+01  -4.717989e+02
   1.986262e+02  -3.689232e+02
   2.879671e+02   2.325345e+01
   8.465294e+01   2.867970e+02
  -1.738248e+02   2.014324e+02
  -2.524652e+02  -2.314461e+02
   8.141938e+01  -4.292550e+02
   3.566797e+02  -1.261450e+02
   3.391349e+02   2.917849e+02
   5.541639e+01   4.053754e+02
  -2.132385e+02   2.339745e+02
  -4.077687e+02  -4.041567e+01
  -2.662112e+02  -2.889529e+02
   3.298416e+01  -1.782547e+02
   2.193605e+02   1.528027e+01
   1.359703e+02   9.505530e+01
  -4.073277e+01   4.116840e+01
  -6.629603e+01  -6.083576e+01
   6.041547e+01  -1.029213e+02
   1.991737e+02   6.672183e+01
   5.689262e+01   2.374365e+02
  -1.328710e+02   1.505395e+02
  -2.481815e+02   5.062389e+01
  -1.990700e+02  -6.883273e+01
   7.864395e+01  -1.780393e+02
   1.767402e+02  -2.662011e+02
   2.605607e+02  -1.374013e+02
   1.576178e+02   1.753449e+02
   4.768814e+01   2.377293e+02
  -7.841208e+01   2.067287e+02
  -6.926427e+01   7.986365e+01
  -4.357459e+01   5.042920e+01
  -8.562810e+01   1.525990e+01
  -1.834933e+02   6.841112e+01
  -1.639047e+02  -7.067277e+01
  -1.035898e+02  -1.481133e+02
   8.310142e+01  -1.730634e+02
   1.792278e+02  -6.285348e-01
   8.557544e+01   1.643837e+02
  -1.513573e+01   1.875758e+02
  -1.643736e+02   7.822247e+01
  -2.407926e+02  -1.239805e+02
  -1.497671e+02  -2.487535e+02
   8.311551e+01  -1.965635e+02
   1.264479e+02  -1.088996e+02
   1.108968e+02  -2.803519e+01
   1.107220e+02  -6.846482e-01
   1.744447e+02  -3.955561e+01
   2.778736e+02   1.092471e+02
   2.588148e+02   2.772269e+02
   8.599022e+00   2.656293e+02
  -3.292932e+02   2.502935e+02
  -3.414004e+02   1.115322e+02
  -2.506716e+02  -5.308452e+01
  -3.180784e+01  -1.938173e+02
   4.389182e+01  -1.846662e+02
   5.527981e+01  -3.233104e+01
  -6.268117e+01   4.074521e+01
  -1.053930e+02   1.203901e+01
  -5.506562e+01  -1.081343e+02
   8.533425e+01  -8.437693e+01
   8.796135e+01   3.272845e+01
  -2.973520e+01   1.337772e+02
  -1.092075e+02   5.120830e+00
  -8.288303e+01  -1.167186e+02
   7.017158e+01  -2.356081e+02
   2.032005e+02  -1.181037e+02
   2.618627e+02   4.782858e+01
   2.081744e+02   1.854151e+02
   5.418082e+01   2.164175e+02
  -1.258355e+02   1.283037e+02
  -1.751266e+02   2.179731e+01
  -5.230228e+01  -3.155932e+01
   3.210881e+01   7.548934e+01
   1.022515e+01   8.021297e+01
  -8.646669e+01   6.183741e+01
  -1.295454e+02  -2.941044e+01
  -1.544787e+01  -4.367618e+01
   6.770479e+01   5.851547e+00
   3.087346e+01   7.562125e+01
  -1.313248e+02   6.763249e+01
  -2.425751e+02   2.487735e+00
  -1.733844e+02  -1.642521e+02
  -4.094013e+01  -1.871230e+02
   1.205438e+02  -1.795490e+02
   2.139007e+02  -1.369884e+02
   1.186742e+02   2.975094e+01
  -2.405992e+01   8.349144e+01
  -4.273261e+01   3.096583e+01
   3.546633e+01  -6.726102e+01
   1.625856e+02  -3.220556e+01
   1.237489e+02   5.985292e+01
   4.643205e+01   1.331489e+02
  -6.567554e+01   9.440839e+01
  -1.093544e+02  -3.906154e+00
  -3.102362e+01  -3.333840e+01
   2.430005e+01   2.216193e+01
   1.094725e+01   9.997485e+01
  -7.150370e+01   9.442607e+01
  -1.556307e+02   3.392540e+01
  -1.053440e+02  -1.360065e+02
  -1.048493e+01  -1.496387e+02
   1.103784e+02  -1.008245e+02
   1.558663e+02   8.568584e+00
   4.308676e+01   9.329905e+01
  -5.781480e+01   4.124292e+01
  -6.304357e+01   2.027605e+01
   5.619921e+00  -2.159674e+00
   2.816306e+01  -7.601839e+00
   1.734114e+01  -1.521998e+01
  -6.528291e+01  -3.950188e+00
  -7.165811e+01  -9.814819e+01
   1.510780e+01  -1.324620e+02
   1.446809e+02  -1.426838e+02
   1.795554e+02   3.105857e+01
   1.407215e+02   1.123651e+02
   1.119625e+01   1.393996e+02
  -5.785804e+01   1.136121e+02
  -1.033357e+02   3.418726e+01
  -3.358314e+01  -4.497504e+01
  -1.249768e+01  -4.467297e+01
  -5.464204e+01  -1.109778e+01
  -2.979151e+01   1.477148e+00
  -4.015274e+01  -2.708067e+01
   2.751409e+01  -7.853561e+01
   6.578795e+01  -4.491496e+01
   7.249564e+01   4.923288e+01
  -4.032914e+00   7.478903e+01
  -9.337130e+01   6.958337e+01
  -1.087884e+02  -4.865814e+01
  -8.455702e+01  -1.532239e+02
   9.571002e+01  -1.620324e+02
   1.971375e+02  -2.406884e+01
   2.042177e+02   9.548224e+01
   8.527740e+01   9.464594e+01
  -7.658486e+01   8.572800e+01
  -7.367881e+01   5.528648e+01
  -5.007254e+01   2.819851e+01
  -6.825306e+01   7.619733e+01
  -6.703594e+01   6.949707e+01
  -8.240057e+01   2.040942e+01
  -6.012944e+01  -1.016047e+02
   1.014137e+01  -2.035089e+02
   9.240021e+01  -1.342320e+02
   1.309085e+02  -1.233556e+01
   6.683536e+01   1.105428e+02
  -3.115756e+01   1.153215e+02
  -7.599219e+01   8.477001e+01
  -4.556107e+01   1.032511e+01
  -5.389884e+00  -2.347781e+01
   1.503282e+01  -3.640672e+01
  -1.675559e+01  -2.305196e+01
  -7.143127e+01   1.071965e+01
  -3.454984e+01  -1.532170e+01
   4.199061e+01  -1.698554e+01
   1.409014e+02   2.623225e+01
   1.006701e+02   4.340963e+01
   2.214336e+00   7.696588e+01
  -1.063045e+02   5.189307e+01
  -9.203781e+01   1.387669e+01
  -3.684539e+01  -3.724539e+01
   4.270370e+01   5.121633e+00
   2.720026e+01  -8.766863e+00
   1.410224e+01   5.758982e+01
  -4.517138e+01   5.634744e+01
  -6.396502e+01   2.932770e+00
  -3.338126e+01  -8.641277e+00
  -1.016271e+01  -4.521665e+01
  -3.986463e+01  -6.155311e+00
  -6.290848e+01   3.070571e+01
   2.240999e+01  -3.986087e+01
   5.916274e+01  -1.296522e+02
   9.183595e+01  -7.986138e+01
   1.219739e+02   2.515274e+01
   4.922907e+01   3.696866e+01
  -1.397309e+01   1.018237e+02
  -4.194406e+01   4.950187e+01
  -3.886430e+01  -1.137383e+01
   4.429384e+01  -3.676086e+00
   8.752544e+01   3.947839e+01
   1.835440e+01   7.214815e+01
  -8.114082e+01   7.656209e+01
  -1.526415e+02   3.023508e+01
  -1.137891e+02  -2.708074e+01
  -2.731994e+01  -7.276337e+01
   4.985013e+01  -6.034758e+01
   4.964429e+01  -2.099852e+01
  -1.584579e+01   2.341235e+01
  -6.510360e+01  -1.826353e+01
  -1.574270e+01  -1.013016e+02
   8.366765e+01  -9.163021e+01
   1.142552e+02  -4.390858e+01
   1.029821e+02   4.244518e+01
   1.367523e+01   1.698707e+02
  -5.064837e+01   7.897826e+01
  -6.893238e+01   1.484119e+01
  -1.890950e+01  -1.108320e+02
   1.691122e+01  -1.055773e+02
   3.046866e+00  -1.719821e+01
   4.169855e+01   2.754900e+01
   1.422307e+01   1.052334e+01
  -9.702259e+00   7.249288e+00
   2.045702e+01   1.498375e+01
   2.514897e+01   3.930417e+01
   2.923211e+01   9.259306e+01
  -4.300311e+01   3.222027e+01
  -8.211483e+01  -4.681141e+01
  -9.571934e+01  -4.340640e+01
  -1.542946e+01  -1.499860e+01
   3.819483e+01  -3.477817e+00
   6.910685e+01  -1.916835e+00
   1.318839e+01   2.053123e+01
  -2.740724e+01   3.182671e+01
  -1.356450e+01  -9.123426e+00
   2.346311e+00   9.139794e+00
  -3.153381e+01   9.169935e+00
  -4.950038e+01  -1.281003e+01
  -6.761744e+01  -4.157202e+01
  -2.481986e+01  -6.826221e+01
   8.991502e+01  -6.103534e+01
   1.541462e+02  -7.465880e+01
   1.015994e+02   5.971979e+01
   2.556261e+01   1.412080e+02
  -5.477055e+01   9.320604e+01
  -8.706148e+01   2.550939e+01
  -7.291679e+01  -4.850922e+01
   1.948148e+00  -4.941405e+00
  -3.274377e+01  -1.229748e+01
   1.843362e+00   4.829249e+00
  -3.011789e+01  -4.599407e+01
  -5.282694e+01  -5.244205e+01
   1.821572e+01  -7.185137e+01
   7.941865e+01   2.516872e+01
   7.821657e+01   7.150209e+01
   1.915995e+01   1.191539e+02
  -3.122089e+01   1.215764e+01
  -7.852256e+01  -5.949877e+01
  -6.072556e+01  -7.118110e+01
   4.867270e+01  -3.451858e+01
   6.523549e+01  -6.212266e+00
   3.675696e+01   1.284729e+01
  -1.337482e+01   3.134621e+01
  -1.351814e+01   1.709871e+01
   4.203527e+01   1.766983e+01
   2.485811e+01  -1.346963e+01
  -6.893914e+00   9.044069e+00
  -4.401339e+01   4.822935e+01
  -1.110560e+02   2.289878e+01
  -5.623161e+01  -2.088255e+01
   2.995737e+01  -5.175975e+01
   7.079535e+01  -4.246689e+01
   1.184167e+01   1.567017e+01
  -9.728275e-01   4.198702e+01
  -2.289315e+01   6.877474e+01
  -3.965410e+01   1.682762e+01
  -2.353511e+01  -2.849035e+01
   7.842281e+00  -1.110233e+01
   2.430613e+01   3.709627e+00
   2.791032e+01   2.729755e+01
   1.324376e+01   6.279580e+00
   1.633283e+01  -3.427844e+01
  -3.202891e+00  -1.919561e+00
   8.444810e+00   4.022131e+01
  -1.525792e+01   2.801508e+01
  -4.567277e+01   2.235629e+01
  -5.728962e+01  -4.726873e+01
  -1.570430e+01  -8.195808e+01
   3.455313e+01  -1.595880e+01
   1.503980e+01   6.370248e+00
   2.554109e+01   7.210004e+01
  -4.815213e+01   3.352065e+01
  -5.608237e+01   1.144994e+01
  -3.119060e+01  -3.875351e+01
   1.378075e+01  -3.940080e+01
   5.842770e+01  -1.852624e+00
   2.236104e+01  -1.730046e+00
  -2.474504e+01   2.393749e+01
  -7.758590e+00  -1.343898e+01
   1.568027e+01  -3.113275e+01
   9.496655e+01  -2.251098e+01
