
 $NMID
 id='ANONYMOUS ', fmtdat='(2E16.6)'
 volume=1.0
 tramp=1.0
 $END
  -3.413360e+03  -4.930685e+02
  -2.009977e+03  -2.050482e+03
   7.191809e+02  -2.056062e+03
   1.723721e+03  -5.306484e+02
   6.183212e+02   5.258435e+02
  -6.931258e+02   5.508685e+02
  -6.667209e+02  -3.706261e+02
   7.290365e+01  -9.070420e+02
   6.785948e+02  -5.392921e+02
   6.188392e+02   1.554348e+02
   3.185373e+02   6.999547e+02
  -2.025687e+02   6.492085e+02
  -5.047027e+02   1.803466e+01
  -2.236740e+02  -6.094473e+02
   2.493651e+02  -5.528523e+02
   4.612916e+02   3.269062e+01
   2.541564e+02   5.721328e+02
  -2.897286e+02   4.241736e+02
  -4.230559e+02   6.883149e+01
  -3.226095e+02  -2.852691e+02
  -8.170887e+00  -3.454887e+02
   1.974752e+02  -1.979631e+02
   1.415576e+02   1.715247e+00
  -9.526213e+01   5.368222e+01
  -2.852686e+02  -8.496751e+01
  -1.181778e+02  -3.283169e+02
   3.727115e+02  -2.756889e+02
   6.192080e+02   1.140278e+02
   2.857827e+02   3.816014e+02
  -3.050899e+02   4.111429e+02
  -6.083249e+02  -7.142111e+01
  -3.233160e+02  -3.632650e+02
   2.616709e+02  -4.525422e+02
   4.649380e+02  -1.115424e+02
   2.757189e+02   2.137700e+02
   7.418364e-02   3.316400e+02
  -2.217599e+02   1.902243e+02
  -1.058982e+02  -1.971081e+02
   1.189592e+02  -3.687820e+02
   3.707228e+02  -3.381060e+01
   1.386471e+02   5.412509e+02
  -2.373309e+02   5.434973e+02
  -4.769783e+02  -2.179903e+01
  -1.209471e+02  -4.149777e+02
   2.769812e+02  -2.552592e+02
   3.296387e+02   2.846933e+02
  -6.005892e+01   3.669304e+02
  -4.276470e+02   1.234524e+02
  -4.702086e+02  -2.957806e+02
  -1.024748e+02  -4.623597e+02
   3.449922e+02  -2.383932e+02
   4.773738e+02   6.030273e+01
   2.242451e+02   2.581647e+02
  -1.586762e+02   2.714569e+02
  -3.050122e+02  -4.144697e+01
  -1.245694e+02  -1.557905e+02
   1.160086e+02  -5.884349e+01
   1.375317e+02   1.236383e+02
  -1.191026e+02   1.319927e+02
  -2.321405e+02  -8.433028e+01
  -5.274305e+01  -2.340703e+02
   1.744692e+02  -2.120953e+02
   2.260496e+02  -4.602628e+01
   1.379071e+02   8.705831e+01
  -6.175047e+01   1.087421e+02
  -1.887563e+02   2.364524e+02
  -2.805174e+02   1.047633e+02
  -1.644484e+02  -1.012908e+02
  -7.685999e+01  -3.575379e+02
   9.733092e+01  -2.619022e+02
   1.005908e+02  -6.564230e+01
   1.682238e+00   3.776685e+01
   1.461890e+01  -4.500333e+01
   1.630790e+02  -7.930944e+01
   2.343380e+02   5.952147e+01
   1.300859e+02   2.031266e+02
  -8.546777e+01   1.755314e+02
  -1.572489e+02  -4.136192e+01
  -1.088002e+02  -1.787581e+02
  -1.767313e+01  -2.112690e+02
   2.115629e+02  -4.766999e+01
   2.275932e+02   1.359735e+02
   1.513191e+02   2.825994e+02
  -7.157087e+01   2.100808e+02
  -1.701138e+02   8.202504e+01
  -1.053707e+02   1.887036e+01
  -5.625068e+01   1.904495e+01
  -1.370729e+02   1.869612e+01
  -2.741490e+02  -7.796038e+01
  -2.383647e+02  -2.270690e+02
   3.281582e+01  -3.890696e+02
   2.948309e+02  -2.852685e+02
   3.304129e+02  -1.117928e+02
   2.299398e+02   4.895108e+01
   3.359556e+01   1.962689e+02
  -9.459589e+01   1.904548e+02
  -7.333443e+01   1.240611e+01
   1.002597e+02  -8.636033e+01
   1.512342e+02  -2.044270e-01
   1.834868e+01   1.528798e+02
  -1.481987e+02   1.113713e+02
  -1.197662e+02  -4.877071e+01
   1.979812e+01  -1.307662e+02
   1.474515e+02   4.650752e+00
   1.033829e+02   1.812624e+02
  -1.314664e+01   2.558838e+02
  -1.802313e+02   1.083671e+02
  -2.221730e+02  -1.008509e+02
  -1.318247e+02  -1.974030e+02
  -7.626637e+01  -2.116460e+02
   9.541271e+01  -1.103567e+02
   1.213884e+02  -2.573882e+01
   4.712389e+01   3.058754e+01
  -6.217435e+01  -3.086796e+01
  -1.906907e+01  -8.566362e+01
   1.017743e+02  -9.756873e+01
   1.364206e+02   2.662352e+01
   5.918397e+01   5.757127e+01
  -5.548103e+01   2.279083e+01
  -7.461153e+01  -8.570486e+01
   7.826688e+01  -7.266213e+01
   2.263278e+02   9.830666e-01
   1.834162e+02   9.708982e+01
   2.992799e+01   2.023239e+02
  -1.860890e+02   1.447659e+02
  -2.339940e+02   9.867881e+01
  -1.235919e+02  -4.615689e+01
   2.996497e+00  -6.435946e+01
   7.922574e+01   2.138397e+00
  -2.956788e+01   7.599268e+01
  -1.129435e+02   4.994943e+01
  -1.535153e+02  -8.763621e+01
  -6.780591e+01  -1.632194e+02
   6.199206e+01  -1.098760e+02
   9.903439e+01  -2.808351e+00
  -2.128901e+00   1.273550e+01
  -1.282126e+01  -3.480490e+00
  -2.876439e+01  -6.582304e+01
   4.882143e+01  -6.979099e+01
   1.174770e+02  -8.579515e+00
   1.165485e+02   1.067707e+02
  -1.644943e+01   1.687540e+02
  -1.576934e+02   9.433408e+01
  -1.691852e+02   1.195676e+01
  -4.923852e+01  -6.425412e+01
   4.237431e+01  -5.471808e+01
   4.311296e+01  -2.930470e+01
   1.534834e+00   1.752633e+01
  -2.473555e+01  -4.283351e-01
  -3.075825e+00  -8.329264e-01
   4.076170e+01  -7.472586e+00
   3.615997e+01   4.581638e+01
   3.363375e+00   1.294478e+02
  -1.166030e+02   1.302197e+02
  -1.473059e+02  -2.869043e+01
  -1.650727e+02  -9.349476e+01
  -2.327703e+01  -1.695915e+02
   1.037920e+02  -9.282046e+01
   8.816347e+01  -2.217546e+01
   3.276320e+01   6.434242e+01
   2.108784e+01   1.704457e+01
   8.158224e+01  -3.653276e+01
   5.163794e+01  -1.985775e+01
   1.383567e+01   2.898499e+01
  -2.507998e+01   7.233370e+01
  -6.538823e+01   2.124920e+01
  -7.690659e+01  -2.028793e+01
   1.378401e+01  -6.805804e+01
   1.025016e+02  -5.116874e+01
   1.320566e+02   2.749350e+01
   1.049379e+02   1.774577e+02
  -6.514701e+01   1.396584e+02
  -1.557547e+02   8.921152e+01
  -1.873916e+02  -7.885417e+01
  -7.114235e+01  -1.050206e+02
   2.458351e+01  -1.300386e+02
   7.090134e+01  -5.015746e+01
   6.592230e+01  -5.462129e+01
   3.699445e+01  -5.665784e+01
   7.893742e+01  -5.354034e+01
   9.203285e+01   6.262710e+01
   6.718733e+01   1.395076e+02
   7.284349e+00   1.637207e+02
  -5.264854e+01   1.163855e+02
  -1.622629e+02   1.315299e+01
  -4.485479e+01  -1.082693e+02
   1.112659e+01  -8.959843e+01
   6.443030e+01  -9.057534e+01
   6.128546e+01  -4.290586e+00
  -1.228302e+01   3.004446e+01
   9.596190e+00   5.131589e+01
   4.219105e+01   1.381171e+01
   5.176917e+01   3.186153e+01
   3.401850e+01   3.839826e+01
  -5.885350e+01   3.247693e+01
  -1.358406e+02   2.710748e+01
  -8.087302e+01  -6.136129e+01
  -7.261542e+00  -8.023638e+01
   9.482465e+01  -5.115801e+01
   7.231227e+01   6.779220e+00
   3.578601e+01   4.175669e+01
  -4.204458e+01   5.517398e+01
  -5.305461e+01  -8.672331e-01
  -5.828804e+00  -5.905694e+01
   6.584852e+01  -4.614276e+01
   5.303406e+01  -2.081284e+01
   3.087801e+01   3.489304e+01
   1.219404e+01   3.889404e+01
   3.940152e+01  -7.659683e+00
   2.763585e+01   1.909888e+01
   1.683514e+01   3.588793e+01
  -2.792192e+01   6.577889e+01
  -4.326757e+01   1.025337e+02
  -1.094487e+02   2.137748e+01
  -1.051037e+02  -7.303702e+01
   1.783992e+01  -6.254726e+01
   5.995009e+01  -3.186554e+01
   4.390440e+01   3.397779e+00
  -4.841930e+01   4.362052e+01
  -6.436344e+01  -3.599028e+01
  -3.592745e+01  -1.058765e+02
   2.543707e+01  -1.010832e+02
   1.184353e+02  -2.119314e+01
   1.385544e+02   1.686365e+01
   2.388432e+00   7.235210e+01
  -4.248608e+01   5.877064e+01
  -4.361041e+01   7.744844e+00
   4.265698e+01  -3.703519e+00
   5.388174e+01   1.725048e+01
   2.249829e+01   9.398742e+01
  -9.566862e+01   9.344453e+01
  -1.663397e+02   2.244575e+01
  -1.209862e+02  -6.079911e+01
   1.508229e+01  -1.396276e+02
   5.703503e+01  -7.376429e+01
   5.271354e+01   1.688997e+01
   1.844655e+01   7.728943e+01
  -1.896646e+01   8.807685e+01
   7.512833e+00   1.850512e+01
  -3.894390e+01  -4.611103e+01
   1.822480e+00  -1.685105e+00
  -1.527111e+01   1.418924e+01
  -4.872396e+01  -4.291736e+01
  -5.286213e+01  -9.202405e+01
  -6.017400e+01  -1.014544e+02
   4.747025e+01  -4.763227e+01
   9.787184e+01   1.966497e+01
   7.228508e+01   6.696195e+01
   1.646876e+01   1.387559e+01
  -4.331877e+01   1.534937e+01
  -5.751379e+01   1.141026e+01
  -1.087556e+01   1.324383e+00
   2.359977e+01  -1.168701e+01
   4.534685e+01   7.448108e+00
  -1.206263e+01   2.063297e+01
   2.580669e+01   1.800990e+01
   4.339603e+01   1.196883e+01
   8.551326e+01   1.648606e+01
   2.380691e+01   8.063234e+01
  -1.120928e+02   6.230960e+01
  -1.536632e+02   5.228366e+01
  -1.009991e+02  -3.128087e+01
  -1.044722e+01  -1.354400e+02
   5.118597e+01  -1.240992e+02
   5.626759e+01  -2.377916e+01
   4.814905e+01   1.270803e+01
   4.106718e+01   2.374901e+01
  -9.349298e+00  -5.558535e+00
  -1.194803e+01   1.873543e+01
   3.122204e+01   3.726012e+01
   1.184067e+01   6.406753e+01
  -4.647567e+01   5.732140e+01
  -2.697595e+01  -1.995794e+01
  -8.347237e+01  -4.937380e+01
   2.059424e+00  -8.295088e+01
   5.327866e+01   4.004941e-01
   6.286169e+01   5.409394e+01
   2.247329e+01   7.531133e+01
  -5.432559e+01   3.082835e+01
  -7.636083e+01   1.687415e+01
  -2.550366e+00  -4.231254e+01
   2.998830e+01  -4.462379e+01
   1.785250e+01  -2.893889e+01
  -1.092937e+01  -2.397636e+01
  -4.520083e+01   3.348593e+00
  -8.865407e+00  -3.770030e+01
   5.954385e+01  -3.506393e+01
   9.204862e+01  -2.257500e+01
   5.057343e+01   1.070740e+01
  -4.438865e+01   5.307496e+01
  -4.257011e+01   4.617297e+01
  -2.997819e+00  -2.312689e+00
   2.127651e+00  -6.139393e+01
   3.063320e+01  -2.421876e+01
   4.176689e+01   9.155046e+00
   2.933230e+01   1.310960e+01
   6.416474e-01   4.457736e+01
  -1.761737e+01  -2.608790e+00
  -1.771545e+01  -2.475210e+01
  -1.060206e+00  -2.718981e+01
  -1.372310e+01  -2.576882e+01
  -1.657219e+01  -4.712162e+00
   5.591409e+00  -5.241812e-01
   2.970059e+00  -6.195525e+01
   2.025732e+01   3.119799e+01
   7.705641e+00   2.651152e+01
   7.473570e+00   2.579105e+01
  -4.006112e+01  -5.701301e+00
  -3.434180e+01  -5.990328e+01
  -1.034425e+01  -4.859109e+01
   3.713416e+01  -2.719921e+01
   5.565275e+01   7.293493e+00
   6.397075e+01   3.825527e+01
  -3.032546e+01   6.679876e+01
  -4.897198e+01   1.749360e+01
  -1.979380e+01   1.589633e+01
   2.746338e+01   1.021861e+01
   1.901485e+01   9.768487e+00
  -1.233388e+01   2.683128e+01
  -6.644463e+01   1.780410e+01
