
 $NMID
 id='ANONYMOUS ', fmtdat='(2E16.6)'
 volume=1.0
 tramp=1.0
 $END
  -2.844792e+03  -3.466839e+02
  -2.018340e+03  -1.673766e+03
  -1.145216e+01  -1.828726e+03
   1.161801e+03  -1.124003e+03
   9.256498e+02  -6.757971e+01
  -9.874406e-01   1.805856e+02
  -3.802982e+02  -2.075868e+02
   2.484111e+01  -5.438931e+02
   5.120687e+02  -6.867902e+02
   5.834462e+02  -2.384521e+02
   4.313308e+02   4.238722e+02
  -1.258173e+02   5.994776e+02
  -2.349950e+02   2.614155e+02
  -1.151062e+02  -3.472079e+02
   6.081295e+01  -5.478814e+02
   4.198726e+02  -3.798509e+01
   2.400688e+02   4.738731e+02
  -1.005640e+02   5.316120e+02
  -4.924122e+02   1.705300e+02
  -4.162224e+02  -2.530229e+02
  -1.338440e+02  -3.203771e+02
   1.641427e+02  -2.590633e+02
   7.347659e+01  -3.773060e+01
  -1.651455e+02  -3.634607e+01
  -2.592017e+02  -2.520058e+02
   1.893865e+01  -3.928448e+02
   5.351778e+02  -1.662023e+02
   6.785942e+02   2.743014e+02
   2.099603e+02   3.526589e+02
  -3.217426e+02   2.799570e+02
  -4.324162e+02  -1.148895e+02
  -2.098124e+02  -3.808527e+02
   2.401653e+02  -3.576724e+02
   4.308769e+02  -1.587106e+02
   2.977308e+02   1.826084e+02
   7.670177e+01   2.765463e+02
  -2.497100e+01   2.357503e+02
   5.272984e+01  -7.807858e+01
   7.072480e+01  -1.829935e+02
   2.154454e+02   7.178506e+01
  -1.956389e+01   4.740491e+02
  -2.914239e+02   4.543516e+02
  -2.770288e+02  -3.828949e+01
  -1.454316e+02  -2.572351e+02
   2.140083e+02  -1.587803e+02
   1.051553e+02   2.824817e+02
  -1.420723e+02   3.766689e+02
  -4.259642e+02   4.392363e+01
  -5.191837e+02  -3.178187e+02
  -1.364726e+02  -4.782046e+02
   3.765533e+02  -2.223978e+02
   5.348872e+02   1.413992e+02
   3.268755e+02   2.648155e+02
  -1.641963e+02   2.748560e+02
  -2.256035e+02   6.911446e+01
  -2.263213e+02  -6.759700e+01
   1.371807e+01  -2.644533e+01
   4.199316e+01   8.770074e+01
  -9.814703e+01   5.356159e+01
  -2.059357e+02  -1.067806e+01
  -1.138096e+02  -2.148594e+02
   1.485456e+02  -2.732306e+02
   3.306959e+02  -1.433555e+02
   2.854499e+02   1.036896e+02
   6.834374e+00   2.874944e+02
  -3.370537e+02   3.790117e+02
  -3.485476e+02   1.584987e+02
  -2.383746e+02  -1.820975e+02
  -1.343297e+01  -3.137463e+02
   4.921087e+01  -2.631803e+02
   2.909282e+01  -1.474878e+02
   1.404946e+01  -1.073978e+02
   1.016916e+02  -9.485497e+01
   2.147703e+02  -9.923659e+01
   2.404023e+02   1.519831e+02
   1.094492e+02   2.572776e+02
  -1.135321e+02   1.867054e+02
  -1.656977e+02  -2.282312e+01
  -1.520938e+02  -1.841487e+02
   4.699132e+01  -2.604567e+02
   1.899820e+02  -1.735056e+01
   2.280821e+02   1.780131e+02
   1.819078e+02   2.607174e+02
  -4.563664e+01   2.765147e+02
  -1.871346e+02   1.249669e+02
  -1.648643e+02   4.055746e+01
  -1.564946e+02   5.253649e+01
  -2.553221e+02   2.426437e+01
  -3.777759e+02  -9.029241e+01
  -2.862562e+02  -3.121114e+02
   7.548631e+01  -3.764082e+02
   4.345968e+02  -3.202584e+02
   3.480721e+02  -1.176051e+02
   2.219265e+02   1.418678e+02
   3.313890e+01   2.579799e+02
  -8.267064e+01   1.621259e+02
   1.411908e+00   3.938773e+01
   1.186029e+02  -6.172419e+01
   1.364921e+02   5.752000e+01
  -7.020924e+00   1.335202e+02
  -1.178286e+02   1.104055e+02
  -7.690619e+01  -7.989784e+01
   5.318374e+01  -1.427928e+02
   1.563851e+02   6.841300e+00
   1.248255e+02   1.988446e+02
  -2.984592e+01   2.958446e+02
  -2.029857e+02   1.999101e+02
  -3.093519e+02  -4.411785e+01
  -2.498815e+02  -1.965720e+02
  -1.008784e+02  -2.635819e+02
   1.231130e+02  -1.546650e+02
   1.465915e+02   7.233244e+00
   4.236978e+01   2.266639e+01
  -3.675840e+01  -5.974197e+01
   4.914705e+00  -1.273402e+02
   1.422990e+02  -8.049241e+01
   1.428427e+02   1.581307e+01
   4.432479e+01   1.322282e+01
  -7.599750e+01   1.700661e+01
  -2.608644e+01  -9.820344e+01
   1.649719e+02  -5.397836e+01
   2.526339e+02   6.238332e+01
   2.361561e+02   1.387645e+02
   2.604740e+01   2.605215e+02
  -2.218471e+02   2.438058e+02
  -2.717105e+02   8.552880e+01
  -1.386581e+02  -3.981939e+01
   4.011990e+01  -6.173983e+01
   8.625254e+01  -1.051310e+01
  -5.091570e+01   8.889305e+01
  -2.159025e+02   4.669433e+01
  -1.983362e+02  -1.479171e+02
  -5.553081e+01  -1.589210e+02
   8.811824e+01  -1.281649e+02
   1.254375e+02  -2.018566e+01
   3.434384e+01   4.107969e+01
  -4.340241e+01  -2.980387e+01
  -2.755353e+01  -8.454727e+01
   1.086877e+02  -1.077204e+02
   1.735337e+02  -5.140629e+00
   1.770118e+02   1.024972e+02
   2.826455e+01   2.009903e+02
  -1.217537e+02   1.694980e+02
  -1.951717e+02   3.509373e+00
  -6.326598e+01  -7.943147e+01
   9.755132e+01  -7.958298e+01
   7.914369e+01  -6.675674e+01
  -1.891008e+01   1.684205e+01
  -5.293370e+01   2.088632e+01
   4.115368e+00  -8.052156e+00
   1.015034e+02  -1.028660e+01
   9.012744e+01   7.221689e+01
  -2.417913e+01   1.519989e+02
  -1.473390e+02   1.209819e+02
  -2.065200e+02   1.555201e+01
  -1.498290e+02  -1.789492e+02
  -2.777130e+01  -1.788696e+02
   1.108559e+02  -1.762626e+02
   1.144694e+02  -5.617209e+00
   5.115323e+01   4.932990e+01
   2.613085e+01   1.526271e+01
   2.734027e+01  -3.925524e+01
   7.790046e+01  -8.561885e+00
   6.220765e+01   5.124902e+01
  -4.138777e+01   1.012162e+02
  -1.152080e+02   6.606961e+01
  -1.125155e+02  -2.893770e+01
   2.743237e+01  -1.302887e+02
   1.598665e+02  -8.361385e+01
   2.185830e+02   6.172225e+01
   1.193497e+02   2.015384e+02
  -1.281356e+02   1.857186e+02
  -2.280245e+02   4.027508e+01
  -2.275058e+02  -1.164666e+02
  -6.694016e+01  -1.282466e+02
   5.194191e+01  -1.413613e+02
   1.149983e+02  -9.491542e+01
   7.830102e+01  -7.191491e+01
   7.384449e+01  -7.975912e+01
   9.113221e+01  -6.810919e+01
   1.422236e+02   2.480180e+01
   1.062968e+02   1.675894e+02
  -2.748366e+01   2.046182e+02
  -9.645373e+01   1.657648e+02
  -1.735527e+02   1.268357e+01
  -1.025289e+02  -8.613377e+01
   1.336222e+01  -1.527775e+02
   9.418022e+01  -9.108435e+01
   6.171655e+01   2.569952e+00
  -9.160588e+00   4.083148e+01
  -2.077322e+01   3.520951e+01
   2.113690e+01   1.495833e+01
   9.050041e+01  -4.040379e+00
   4.644658e+01   6.419267e+01
  -1.050964e+02   2.794745e+01
  -1.773681e+02   3.660305e+01
  -1.144601e+02  -4.689556e+01
   3.249248e+00  -7.507791e+01
   1.014874e+02  -2.705421e+01
   1.384249e+02  -6.804517e+00
   1.081857e+01   5.697525e+01
  -7.910989e+01   2.595224e+01
  -8.047468e+01   4.456101e+00
  -1.671246e+01  -5.433635e+01
   4.040565e+01  -4.152767e+01
   5.238467e+01  -2.006212e+01
   5.528240e+01   2.648103e+01
   4.757671e+01   6.551625e+01
   4.012406e+01  -7.618492e+00
   8.141148e+01   1.085649e+01
   3.962998e+01   2.419102e+01
  -3.090470e+01   1.582199e+02
  -1.344989e+02   1.432368e+02
  -1.765642e+02   7.502808e+01
  -1.288775e+02  -7.588021e+01
  -2.771929e+01  -1.019144e+02
   8.162969e+01  -7.551412e+01
   4.194173e+01  -2.911738e-01
  -2.162803e+01   1.168639e+01
  -1.459138e+02  -6.294061e+01
  -3.922408e+01  -8.572832e+01
   1.070363e+02  -7.389425e+01
   1.728213e+02  -4.980847e+01
   1.462811e+02   4.081746e+01
   5.309907e+01   9.084146e+01
  -6.946147e+01   8.492736e+01
  -3.278267e+01  -2.471663e+00
   5.942228e+01  -1.781458e+01
   9.120711e+01   1.621564e+01
   3.367020e+01   8.263105e+01
  -6.974462e+01   1.249644e+02
  -1.381964e+02   3.816625e+01
  -1.021791e+02  -9.140367e+01
   9.391208e+00  -2.135974e+02
   9.474099e+01  -1.398827e+02
   7.276200e+01   4.268448e+01
   5.995918e+01   1.203710e+02
  -1.978292e+01   1.129417e+02
  -3.443072e+01   1.326331e+01
  -3.604505e+01  -4.904550e+01
  -6.808446e+00  -4.403734e+00
  -2.349276e+01   3.760335e+01
  -2.682117e+01  -2.855929e+01
  -8.339856e+01  -9.452343e+01
  -2.391117e+01  -1.062680e+02
   7.743139e+01  -2.055700e+01
   1.332994e+02   2.837143e+01
   8.479697e+01   9.780380e+01
   8.992823e+00   5.664498e+01
  -8.154409e+01   8.191073e+00
  -4.326015e+01  -7.909459e+00
  -2.113108e+01  -1.368038e+01
   1.965168e+01  -2.033849e+01
   1.143350e+01  -3.781863e+01
  -1.898422e+01   1.769561e+01
   2.381539e+01   7.618091e+00
   7.098787e+01  -3.333575e+00
   1.058279e+02   2.734960e+01
   7.712209e+00   1.044050e+02
  -6.825565e+01   8.057391e+01
  -1.842397e+02   5.751949e+01
  -1.171437e+02  -5.908463e+01
  -3.229964e+01  -1.420469e+02
   8.598383e+01  -1.410694e+02
   1.036936e+02  -4.296234e+01
   7.301484e+01   1.785467e+01
   1.371453e+01   3.191285e+01
  -6.012619e+00   2.639194e+01
  -1.862834e+01   3.610875e+01
   2.062803e+01   3.150222e+01
   2.611014e+01   8.573634e+01
  -2.211615e+01   5.297380e+01
  -1.062596e+02  -1.190008e+01
  -1.312716e+02  -7.869739e+01
   1.569557e+01  -8.469121e+01
   3.361128e+01   1.143665e+01
   8.443309e+01   7.207704e+01
   3.543022e+01   5.655502e+01
  -6.750890e+01   5.370056e+01
  -5.109060e+01   3.843487e+01
  -5.565970e+01  -3.760657e+01
   2.853986e+01  -6.660801e+01
   4.621443e+01  -3.227275e+01
  -1.671792e+01   1.370731e+01
  -5.326167e+01   1.141375e+01
  -1.369128e+00  -1.765299e+01
   8.195168e+01  -6.490801e+01
   8.866333e+01  -4.916511e+01
   8.093136e+01   1.007024e+01
  -1.050992e+01   7.299711e+01
  -5.990048e+01   1.034549e+02
  -4.926102e+01  -1.272828e+01
  -1.426061e+01  -1.491433e+01
   5.416628e+01  -2.470601e+01
   2.800652e+01  -8.871786e+00
   4.118613e+01   6.156804e+01
  -1.359187e+01   3.718180e+01
  -1.139809e+01  -2.136943e+01
  -2.125767e+01   1.123460e+01
  -2.468369e+01  -1.282797e+01
  -1.031355e+01   1.114232e+01
   1.541362e+01  -3.452716e-02
  -1.544840e+01  -3.909323e+01
  -1.720728e+00  -5.775259e+01
   4.496631e+01  -3.489929e+01
   1.623251e+01   2.616988e+01
   9.436535e+00   2.605833e+01
  -4.090007e+01   3.710637e+00
  -5.306984e+01  -4.046761e+01
  -1.326024e+01  -7.778499e+01
   5.652877e+01  -5.077002e+00
   1.147025e+02   1.017940e+01
   5.081300e+01   4.465300e+01
  -2.449740e+01   4.800354e+01
  -6.586344e+01   3.035842e+01
  -4.744517e+01  -1.382321e+00
   3.316355e+01   8.502745e+00
   3.768641e+01  -7.674908e+00
  -1.913958e+01   1.396175e+01
  -8.212219e+01   1.554792e+01
