
 $NMID
 id='ANONYMOUS ', fmtdat='(2E16.6)'
 volume=1.0
 tramp=1.0
 $END
   5.101766e+03  -9.438273e+00
   2.351650e+03   3.156634e+03
  -1.165033e+03   3.022254e+03
  -2.399468e+03   9.704400e+02
  -9.556328e+02  -9.094409e+02
   9.016150e+02  -5.475139e+02
   9.970576e+02   5.246617e+02
  -1.397970e+02   1.202722e+03
  -1.128886e+03   7.061996e+02
  -9.365213e+02  -1.045246e+02
  -4.778492e+02  -9.972240e+02
   3.422853e+02  -8.636090e+02
   6.227783e+02  -2.383414e+01
   3.916413e+02   7.767737e+02
  -4.285377e+02   6.680817e+02
  -6.351024e+02  -1.197192e+02
  -2.681043e+02  -7.895067e+02
   3.652398e+02  -6.109300e+02
   5.848319e+02  -4.972315e+01
   3.607531e+02   4.115963e+02
  -3.077686e+01   3.815822e+02
  -2.961320e+02   2.328156e+02
  -2.545565e+02  -2.034494e+01
   1.449955e+02  -1.739907e+02
   4.717735e+02   1.029652e+02
   2.170790e+02   5.336257e+02
  -5.445741e+02   4.071973e+02
  -8.694467e+02  -1.700603e+02
  -5.331377e+02  -7.740244e+02
   4.648396e+02  -5.369769e+02
   7.901050e+02  -1.081751e+01
   3.164593e+02   6.054598e+02
  -3.098238e+02   6.140911e+02
  -7.308693e+02   1.996336e+02
  -4.601938e+02  -3.100093e+02
  -4.066159e+01  -4.699404e+02
   1.902661e+02  -2.637276e+02
   2.316067e+02   3.136040e+02
  -2.200424e+02   4.276096e+02
  -5.418689e+02  -1.198297e+00
  -3.194344e+02  -8.424987e+02
   3.730962e+02  -7.239312e+02
   6.116663e+02   1.912637e+01
   2.538553e+02   5.923971e+02
  -3.748186e+02   3.530079e+02
  -4.511776e+02  -4.454551e+02
   1.396464e+02  -6.546866e+02
   6.011792e+02  -1.355226e+02
   6.297681e+02   4.454655e+02
   1.431487e+02   6.442728e+02
  -4.360548e+02   3.550884e+02
  -6.780431e+02  -9.417024e+01
  -4.236889e+02  -5.134036e+02
   1.332794e+02  -3.571897e+02
   4.379685e+02  -6.419072e+01
   2.429459e+02   2.641271e+02
  -1.598702e+02   1.286514e+02
  -1.315598e+02  -2.015063e+02
   1.704104e+02  -1.976222e+02
   3.799557e+02   8.088216e+01
   1.316790e+02   3.538826e+02
  -1.800432e+02   2.222575e+02
  -3.274864e+02   8.082830e+01
  -1.552890e+02  -9.368268e+01
   3.105289e+01  -2.077542e+02
   1.689233e+02  -2.991956e+02
   3.056005e+02  -1.979348e+02
   3.001494e+02   1.381818e+02
   1.103621e+02   4.704998e+02
  -1.277030e+02   3.384317e+02
  -1.203213e+02   1.095574e+02
  -1.057115e+01  -6.623154e+01
  -7.797351e+00   1.050790e+02
  -1.680156e+02   1.826402e+02
  -2.749130e+02  -3.224409e+01
  -1.617987e+02  -2.844930e+02
   1.075207e+02  -3.022595e+02
   2.809824e+02  -1.066438e+01
   1.907117e+02   2.003620e+02
  -8.342324e+00   3.249894e+02
  -2.709331e+02   1.082245e+02
  -3.773776e+02  -1.683600e+02
  -1.620225e+02  -4.121312e+02
   1.426153e+02  -3.067235e+02
   2.099906e+02  -1.348431e+02
   1.374420e+02   1.846459e+01
   9.012461e+01  -3.486498e+01
   2.455587e+02  -7.084662e+01
   3.884927e+02   2.159024e+01
   3.754828e+02   2.882026e+02
  -2.087104e+01   4.406111e+02
  -3.607191e+02   4.304507e+02
  -4.999675e+02   2.136062e+02
  -3.692366e+02  -9.399132e+01
  -6.285778e+01  -3.099548e+02
   2.067233e+02  -3.072004e+02
   9.473317e+01  -2.354807e+01
  -1.133018e+02   1.119716e+02
  -2.550923e+02  -2.281124e+01
  -7.181332e+01  -2.422081e+02
   2.123287e+02  -2.063292e+02
   1.698897e+02   6.561618e+01
  -4.040062e+01   2.242593e+02
  -2.353715e+02   4.947977e+01
  -1.732456e+02  -2.410275e+02
   7.986643e+00  -3.658541e+02
   2.168447e+02  -1.909198e+02
   3.269380e+02   5.496055e+01
   2.748366e+02   2.502430e+02
   1.395713e+02   2.503068e+02
  -1.132969e+02   1.916434e+02
  -2.086718e+02   2.297974e+01
  -6.964707e+01  -6.191698e+01
   5.624447e+01   4.531154e+01
   3.092875e+01   1.383747e+02
  -1.259439e+02   1.494137e+02
  -1.958810e+02  -3.475814e+01
  -6.393345e+01  -8.378856e+01
   7.627115e+01  -6.643966e+00
   5.028719e+01   9.506259e+01
  -8.306124e+01   1.066612e+02
  -2.911332e+02  -2.344718e+01
  -2.765444e+02  -1.128583e+02
  -5.099896e+01  -2.678898e+02
   2.078130e+02  -2.910743e+02
   3.120183e+02  -1.370954e+02
   1.798642e+02   9.465291e+01
  -2.099295e+00   1.120108e+02
  -1.160541e+02   5.220063e+00
  -1.389573e+01  -1.068274e+02
   1.963826e+02  -4.394598e+01
   2.311830e+02   8.392988e+01
   1.176686e+02   2.053021e+02
  -1.225652e+02   1.770410e+02
  -1.312937e+02   2.288496e+01
  -5.871733e+01  -4.145684e+01
   3.803040e+01   9.947663e+00
   4.496619e+01   8.759401e+01
  -7.623910e+01   1.041816e+02
  -1.726013e+02   1.132674e+01
  -1.902410e+02  -9.580391e+01
  -3.755071e+00  -2.336182e+02
   1.811395e+02  -1.480499e+02
   1.953147e+02   1.172288e+01
   6.583017e+01   1.264399e+02
  -5.627677e+01   1.350495e+02
  -8.096086e+01   2.640031e+01
  -9.501666e+00  -2.231318e+01
   5.394174e+00  -2.420267e+01
   2.002710e+00   8.863588e+00
  -7.222734e+01  -3.129987e+01
  -9.622351e+01  -7.752948e+01
  -4.044640e+01  -1.281152e+02
   8.760352e+01  -1.795337e+02
   2.436426e+02  -8.962820e+01
   1.917495e+02   1.773963e+02
   4.298302e+01   2.136278e+02
  -1.150375e+02   2.040694e+02
  -1.697317e+02   1.588093e+01
  -6.145300e+01  -7.507087e+01
  -3.807429e+01  -1.870630e+01
  -5.493928e+01   1.587154e+01
  -9.166553e+01  -2.339353e+01
  -5.337721e+01  -4.096770e+01
   1.307092e+01  -6.643841e+01
   7.015350e+01  -3.805973e+01
   7.145781e+01   5.168082e+01
  -2.322821e+01   9.535393e+01
  -1.487569e+02   7.756999e+01
  -2.002043e+02  -6.122530e+01
  -1.154839e+02  -2.273442e+02
   9.265877e+01  -2.482794e+02
   2.780239e+02  -1.429605e+02
   2.935180e+02   9.167097e+01
   1.405489e+02   2.019110e+02
  -5.326055e+01   1.509662e+02
  -1.076412e+02   1.010709e+02
  -6.082575e+01   8.125929e+01
  -6.644190e+01   9.630159e+01
  -1.490199e+02   8.145688e+01
  -1.079241e+02  -2.909229e+01
  -1.286215e+02  -1.417708e+02
  -5.557524e+01  -2.281208e+02
   9.018145e+01  -1.825102e+02
   1.729661e+02  -1.689744e+01
   1.457562e+02   1.180951e+02
   5.365785e+01   1.966335e+02
  -4.617537e+01   1.052125e+02
  -6.297664e+01  -2.418287e+01
  -1.344472e+01  -3.916165e+01
   4.062708e+00  -3.545617e+01
  -3.708908e+01  -7.133055e+00
  -8.765715e+01  -3.562287e+01
  -4.258990e+01  -3.290778e+01
   3.704803e+01  -6.268209e+01
   1.649434e+02   2.796390e+00
   1.751659e+02   8.047523e+01
   1.576176e+00   9.825015e+01
  -1.298593e+02   8.974790e+01
  -1.177181e+02   2.642043e+01
  -3.027805e+01  -4.459352e+01
   6.100267e+01  -3.400289e+01
   5.699658e+01   2.094909e+01
   1.629930e+01   6.848892e+01
  -4.417256e+01   7.567316e+01
  -7.506568e+01   5.444295e-01
  -1.369767e+01  -3.913121e+01
  -4.236621e+01  -3.595415e+01
  -7.690889e+01  -1.928862e+01
  -9.325731e+01  -1.014739e+01
  -3.892145e+01  -7.746769e+01
   5.074584e+01  -1.451738e+02
   1.476791e+02  -1.388216e+02
   1.732266e+02  -3.422273e+01
   1.332600e+02   8.312152e+01
   4.395740e+00   1.371959e+02
  -1.144730e+02   8.198062e+01
  -7.530057e+01   1.466245e+00
   3.254799e+01  -3.857161e+01
   1.476121e+02   3.547893e+01
   8.278754e+01   1.187602e+02
  -8.875877e+01   9.581564e+01
  -2.194386e+02   2.416956e+01
  -1.776050e+02   5.963269e+00
  -2.903789e+01  -7.470432e+01
   5.023634e+01  -7.555580e+01
   3.405384e+01  -3.595680e+01
  -5.068504e+01   4.163021e+01
  -1.003812e+02   1.463037e+01
  -3.622303e+01  -1.522904e+02
   1.029976e+02  -1.861036e+02
   1.574061e+02  -7.305033e+01
   1.036353e+02   9.460489e+01
  -2.182666e+01   1.951141e+02
  -1.176333e+02   1.631169e+02
  -1.208213e+02  -1.780490e+01
  -5.220007e+01  -1.094529e+02
  -3.714862e+01  -1.249442e+02
   8.846902e+01   2.593558e+00
   5.496432e+01   2.125794e+01
   3.534683e+01   2.743095e+01
  -1.539258e+01  -4.621640e+01
  -3.396952e+00   1.843910e+01
   6.197948e+01   7.831046e+01
   1.595322e+01   1.085402e+02
  -4.557295e+01   7.466441e+01
  -1.632158e+02  -3.653282e+01
  -1.379457e+02  -1.011408e+02
  -1.649386e+01  -4.894854e+01
   8.198435e+01   1.303375e+01
   9.671519e+01  -3.230352e+00
   8.367299e+00   1.284684e+00
  -6.606717e+01   4.284845e+01
  -1.922737e+01   1.916128e+01
   3.161786e+01   2.684734e+00
   3.272246e+00  -1.765040e+01
  -7.768888e+01   6.038265e+00
  -6.436735e+01  -1.080874e+01
   8.178901e+00  -8.228530e+01
   9.741164e+01  -1.099875e+02
   1.833109e+02  -7.579542e+01
   1.189106e+02   6.160694e+01
   2.507532e+01   1.594460e+02
  -6.422559e+01   1.382670e+02
  -9.501452e+01   3.687843e+01
  -7.956718e+01  -5.295162e+01
  -1.033356e+01  -2.601046e+01
  -3.316311e+00   7.650808e-01
  -1.068781e+01   7.246321e+00
  -3.601536e+01  -3.582933e+01
  -1.051704e+00  -8.981394e+01
   7.196377e+01  -1.026363e+02
   8.260259e+01  -6.929055e+00
   8.907429e+01   1.009607e+02
   1.468527e+01   1.215300e+02
  -1.113148e+02   3.537287e+01
  -1.314971e+02  -8.027468e+01
  -2.263821e+01  -1.000321e+02
   8.223282e+01  -4.851755e+01
   9.536707e+01   2.351242e+01
   3.991072e+01   5.525319e+01
  -5.446394e+01   6.115703e+01
  -2.059667e+01   1.145085e+01
   3.571360e+01  -1.288967e+01
   5.255802e+01   1.677806e+01
   1.734238e+01   5.842773e+01
  -8.546576e+01   6.697494e+01
  -8.827484e+01   6.588748e+01
  -7.873413e+01  -2.094154e+01
  -6.641995e-01  -7.551501e+01
   2.565237e+01  -7.438993e+01
   1.039975e+01   1.748307e+00
  -1.941601e+01   3.233966e+01
  -2.079056e+01   3.545831e+01
  -3.858621e+01  -3.445038e+01
  -4.736596e+00  -5.317281e+01
  -5.224733e+00  -3.687093e+01
   4.448500e+01   2.558454e+01
   5.559691e+01   3.126096e+01
   6.086304e+01   4.800405e+00
  -1.071581e+01  -1.818128e+01
  -6.618404e+00   2.293369e+01
  -3.291973e+01   4.225278e+01
  -1.182125e+01   3.623996e+01
  -1.569597e+01   6.566051e+00
  -1.619359e+01  -6.966897e+01
   8.121896e+00  -3.742621e+01
   4.354541e+01  -3.037473e+01
   1.811429e+01   7.069710e+01
   9.731851e+00   7.778696e+01
  -6.080214e+01   2.708403e+01
  -8.495750e+01  -2.112765e+01
  -5.352550e+01  -5.534949e+01
   4.044465e+01  -4.217172e+01
   3.855066e+01  -5.055378e+01
   3.581599e+00  -1.819048e+01
  -4.194210e+01   1.209575e+01
  -5.182371e+01  -2.245600e+01
   2.103551e+01  -4.413242e+01
   8.881158e+01  -1.730793e+01
