
 $NMID
 id='ANONYMOUS ', fmtdat='(2E16.6)'
 volume=1.0
 tramp=1.0
 $END
   2.623001e+03   4.228979e+02
   1.559214e+03   1.538932e+03
   1.220766e+02   1.763836e+03
  -1.134775e+03   9.888818e+02
  -9.092548e+02   1.699503e+02
  -1.395648e+02  -2.036609e+02
   3.760062e+02  -4.466163e+01
  -4.621958e+01   5.076457e+02
  -4.549194e+02   6.850644e+02
  -5.812175e+02   1.867507e+02
  -5.104353e+02  -4.175036e+02
   5.473242e+00  -5.721123e+02
   1.663399e+02  -2.787741e+02
   1.493305e+02   2.349521e+02
  -7.721542e+01   4.678570e+02
  -4.260793e+02   6.096585e+01
  -2.291141e+02  -4.644218e+02
   1.248424e+02  -5.812916e+02
   4.742471e+02  -2.121172e+02
   3.898889e+02   1.826752e+02
   1.008846e+02   2.640012e+02
  -1.338557e+02   2.543583e+02
  -6.447803e+01   5.934101e+01
   1.777012e+02   7.130152e+01
   2.399829e+02   2.774026e+02
  -3.511081e+01   3.669793e+02
  -5.224703e+02   1.326085e+02
  -6.586025e+02  -2.241835e+02
  -2.237270e+02  -3.579181e+02
   2.673313e+02  -1.901346e+02
   3.892841e+02   1.332674e+02
   1.358561e+02   3.626505e+02
  -2.794013e+02   3.034439e+02
  -4.208806e+02   1.332639e+02
  -2.942207e+02  -2.107527e+02
  -6.008826e+01  -3.189579e+02
  -2.469779e+01  -1.852367e+02
  -7.174233e+01   9.743451e+01
  -1.003903e+02   1.451820e+02
  -2.171551e+02  -1.396788e+02
   9.197955e+01  -3.897630e+02
   2.189224e+02  -4.202679e+02
   2.030636e+02   4.012035e+01
   6.707812e+01   2.556978e+02
  -1.646382e+02   1.353025e+02
  -1.373612e+02  -2.394157e+02
   1.069239e+02  -3.950494e+02
   4.203179e+02  -9.199511e+01
   4.428979e+02   3.482950e+02
   1.346933e+02   4.672469e+02
  -2.955821e+02   2.269299e+02
  -5.138555e+02  -1.225879e+02
  -3.645329e+02  -2.350968e+02
   1.007456e+02  -2.357748e+02
   2.327238e+02  -5.695336e+01
   2.148777e+02   7.270296e+01
  -4.292201e+01   7.373797e+00
  -3.989358e+01  -3.600382e+01
   1.071995e+02  -4.516235e+01
   1.859412e+02   3.721174e+01
   1.095823e+02   2.016484e+02
  -1.187546e+02   2.411233e+02
  -3.559285e+02   1.035076e+02
  -2.880776e+02  -9.837089e+01
  -7.760530e+00  -2.961477e+02
   2.717026e+02  -3.220731e+02
   3.692290e+02  -1.308208e+02
   1.911789e+02   1.717792e+02
   6.598890e+01   3.311651e+02
  -1.780137e+01   2.600403e+02
  -2.264034e+01   1.307814e+02
  -1.684709e+01   9.517065e+01
  -1.343190e+02   1.033468e+02
  -2.383765e+02   2.816627e+01
  -1.971390e+02  -1.325680e+02
  -1.188164e+02  -2.272073e+02
   1.465461e+02  -2.066741e+02
   1.959477e+02   4.331202e+01
   1.120079e+02   1.990060e+02
  -3.436652e+01   2.503757e+02
  -2.003260e+02   3.142673e+01
  -2.308091e+02  -1.795862e+02
  -1.516046e+02  -2.684489e+02
   5.147083e+01  -2.569639e+02
   2.127764e+02  -1.206009e+02
   1.508396e+02  -5.581399e+01
   1.426452e+02  -2.945698e+01
   2.401873e+02  -1.783175e+01
   3.499205e+02   1.686754e+02
   2.801666e+02   2.990337e+02
  -4.003960e+01   3.534632e+02
  -4.096451e+02   3.139602e+02
  -3.235820e+02   1.899894e+02
  -2.590908e+02  -9.540746e+01
  -4.020896e+01  -2.460657e+02
   8.966633e+01  -1.490714e+02
  -5.106552e+00  -4.175696e+01
  -1.287144e+02   3.345468e+01
  -1.312094e+02  -4.070025e+01
   6.493337e-01  -9.577245e+01
   8.464347e+01  -7.389096e+01
   7.619341e+01   5.416940e+01
  -6.883043e+01   1.348735e+02
  -1.387008e+02  -9.147597e+00
  -7.484205e+01  -1.830097e+02
   3.542923e+01  -2.992956e+02
   2.064096e+02  -1.923237e+02
   3.242694e+02   5.073362e+01
   2.959298e+02   2.085803e+02
   3.179199e+01   2.502054e+02
  -1.241041e+02   1.198988e+02
  -1.540481e+02   1.064745e+01
  -2.163506e+01  -3.730250e+01
   5.570631e+01   5.302881e+01
  -2.099557e+01   1.169316e+02
  -1.177126e+02   5.385594e+01
  -1.276457e+02  -1.719120e+01
  -5.566734e+01  -3.878660e+01
   9.803229e+01   5.689978e+00
   5.629208e+00   8.467834e+01
  -1.605229e+02   6.796250e+01
  -2.596168e+02  -7.554174e+01
  -2.395311e+02  -1.534927e+02
  -3.165743e+01  -2.452934e+02
   2.095216e+02  -1.992241e+02
   2.801332e+02  -4.748304e+01
   1.534689e+02   3.599694e+01
  -5.716520e+01   6.865909e+01
  -7.342647e+01   5.194731e+00
   7.772729e+01  -7.145374e+01
   1.792677e+02  -3.157748e+01
   1.934042e+02   1.049283e+02
   4.185633e+01   1.678038e+02
  -5.924501e+01   1.256891e+02
  -1.276500e+02   4.734005e+01
  -9.691651e+00  -4.774257e+01
   4.835824e+01   4.304731e+01
   3.841329e+01   1.023546e+02
  -9.355374e+01   1.137840e+02
  -2.188558e+02   2.531181e+01
  -1.667878e+02  -7.340027e+01
  -3.699711e+01  -2.281405e+02
   9.977500e+01  -1.341075e+02
   1.581018e+02   1.387411e+01
   7.127508e+01   9.541300e+01
  -6.249831e+01   6.576035e+01
  -5.785611e+01   5.844190e+01
   2.447304e+01  -4.513437e+01
   5.655106e+01  -6.206380e+00
  -1.811840e+01   3.127555e+01
  -1.077766e+02  -2.648268e+00
  -1.067185e+02  -9.130284e+01
   3.459304e+01  -1.413373e+02
   1.390450e+02  -1.408943e+02
   1.964074e+02  -3.007452e+00
   1.897019e+02   1.924971e+02
   1.482167e+01   1.739206e+02
  -9.592575e+01   1.173552e+02
  -9.758572e+01   3.308865e+00
  -7.676267e+01  -3.854917e+01
  -5.255320e+01  -5.416023e+01
  -4.865512e+01   1.955254e+01
  -8.528813e+01   1.767152e+01
  -3.723534e+01  -7.761464e+01
   5.788128e+01  -8.475940e+01
   1.241859e+02  -1.026437e+02
   1.113972e+02   3.048251e+01
  -1.155716e+01   1.110673e+02
  -1.173798e+02   7.698676e+01
  -2.189041e+02  -8.030008e+01
  -8.668401e+01  -1.980728e+02
   1.234825e+02  -1.591022e+02
   2.314749e+02  -5.321334e+01
   2.078378e+02   1.173608e+02
   1.121324e+02   1.331176e+02
  -3.151179e+01   1.173643e+02
  -8.783553e+01   8.650434e+01
  -8.956464e+01   4.239114e+01
  -6.427675e+01   1.020317e+02
  -8.886150e+01   7.936623e+01
  -1.404787e+02  -1.101164e+01
  -1.203920e+02  -1.833741e+02
   5.265816e+00  -1.986258e+02
   1.137555e+02  -1.291603e+02
   1.484953e+02   1.434250e+01
   9.098319e+01   1.183670e+02
  -1.076794e+01   1.347265e+02
  -6.300210e+01   7.903705e+01
  -5.420421e+01  -1.737337e+01
   1.440699e+01  -2.799425e+01
   2.083991e+01  -6.528631e+00
  -1.804318e+01  -4.149831e-02
  -6.593312e+01  -3.689597e+01
  -5.286124e+01  -7.474292e+01
   7.738438e+01  -1.734701e+01
   1.513018e+02  -9.998221e+00
   1.280756e+02   5.538007e+01
   1.148420e+01   7.944125e+01
  -1.270676e+02   6.146883e+01
  -1.274006e+02   2.414162e+01
  -5.607488e+01  -5.971176e+01
   9.065006e+01  -3.834822e+01
   8.405330e+01   2.639617e+01
   3.198372e+01   4.573353e+01
  -1.727508e+01   7.861632e+01
  -6.021289e+01   4.509130e+00
  -5.423551e+01  -2.627177e+01
  -4.951246e+01  -3.527618e+01
  -6.433206e+01   2.224883e+01
  -6.297838e+01  -3.716485e+00
  -5.115752e+01  -6.728665e+01
   2.707102e+01  -1.382429e+02
   1.402029e+02  -1.193151e+02
   1.578945e+02  -4.879340e+01
   1.334940e+02   7.889626e+01
   3.440241e+01   1.027582e+02
  -7.217678e+01   5.320890e+01
  -4.383932e+01  -2.508507e+01
   3.322897e+01  -3.437310e+01
   1.243485e+02   3.550003e+01
   6.967682e+01   8.570703e+01
  -9.655282e+01   7.613089e+01
  -1.546632e+02   4.752597e+01
  -1.233649e+02  -3.507470e+01
  -2.181034e+01  -8.148775e+01
   6.382067e+01  -6.980078e+01
   4.557142e+01  -4.773286e+00
  -4.112470e+01   2.125881e+01
  -8.300255e+01  -5.563781e+01
  -2.106144e+01  -1.001535e+02
   3.761493e+01  -1.302343e+02
   1.335173e+02  -1.282382e+01
   1.364665e+02   7.577802e+01
   2.734130e+01   2.137313e+02
  -8.391923e+01   1.257983e+02
  -8.444666e+01  -3.538905e+01
  -4.681383e+01  -1.142161e+02
   5.749087e+00  -7.878427e+01
   2.040628e+01  -1.473002e+01
   2.279291e+01   2.538929e+01
   2.909355e+01   1.549712e+01
  -6.331095e+00  -3.758518e+01
   6.064533e+01   1.730751e+01
   6.708156e+01   7.878503e+01
   3.902167e+01   1.201496e+02
  -8.086176e+01   2.419157e+01
  -1.519566e+02  -6.754604e+01
  -1.082837e+02  -8.996738e+01
  -1.330909e+01  -2.687721e+01
   7.469252e+01  -1.906701e+01
   5.421623e+01   6.642759e+00
   4.667265e+00   2.951331e+01
  -1.341573e+01   1.068352e+00
  -2.268671e+01  -8.384349e+00
   3.327662e+00   5.948813e+00
  -6.542057e-01  -2.788608e+00
  -4.297889e+01  -3.180328e+00
  -8.515093e+01  -3.932599e+01
  -1.269724e+01  -7.713754e+01
   1.052759e+02  -1.029860e+02
   1.675957e+02  -7.575843e+01
   1.474396e+02   7.414514e+01
   4.009179e+01   1.506067e+02
  -9.243990e+01   1.455450e+02
  -1.109826e+02   7.719351e+01
  -8.306458e+01  -2.646891e+01
   6.775843e+00  -4.469424e+01
   1.711245e-01  -2.038240e+01
  -3.935773e+01  -3.742390e+01
  -2.738620e+01  -6.583111e+01
  -3.428024e+01  -7.719886e+01
   4.765508e+01  -5.599981e+01
   1.094014e+02   8.638303e+00
   6.037769e+01   7.129607e+01
  -6.637277e+00   1.013754e+02
  -4.432712e+01   2.120966e+00
  -9.619156e+01  -7.528370e+01
  -5.422902e+01  -1.108730e+02
   6.151246e+01  -8.045374e+01
   8.155329e+01  -1.150449e+01
   4.904234e+01   4.689155e+01
  -3.536595e+01   8.408748e+01
  -6.162308e+01   1.288299e+01
   2.292309e+01   7.303584e+00
   7.392618e+01  -1.004402e+01
   1.873667e+01   1.560342e+01
  -9.909637e+01   6.638359e+01
  -1.192991e+02   3.976274e+01
  -6.538785e+01   1.645236e+01
   2.516223e+01  -1.014181e+02
   3.794270e+01  -6.744000e+01
   4.319492e+01  -1.102455e+01
  -1.457213e-01   4.293113e+01
  -4.374598e+01   2.795824e+01
  -3.289545e+01  -4.549606e+00
   9.242005e+00  -2.912687e+01
   4.968440e+00  -3.032537e+01
   1.542358e+01  -2.060401e+00
   4.686622e+01   2.935563e+01
   4.051407e+01  -9.740449e+00
  -2.062973e+01  -2.825417e+01
   1.555729e+01  -9.934802e+00
   2.508866e+01   3.375512e+01
  -1.067151e+01   5.524017e+01
  -3.868334e+01   3.572471e+01
  -3.376623e+01  -2.979840e+01
   7.719261e-01  -3.551714e+01
   4.406576e+01  -1.983378e+01
   7.470110e+01   1.616382e+01
   3.749781e+01   8.089687e+01
  -4.410153e+01   3.610358e+01
  -1.171916e+02  -1.853176e+01
  -6.647619e+01  -3.580882e+01
   3.286969e+01  -4.056035e+01
   6.688398e+01  -2.474124e+01
   1.008079e+01  -8.913105e+00
  -2.879904e+01   9.758384e+00
  -5.020637e+01  -7.552204e+00
   5.200154e+01  -4.611141e+01
   9.175168e+01  -3.097803e+01
