
 $NMID
 id='ANONYMOUS ', fmtdat='(2E16.6)'
 volume=1.0
 tramp=1.0
 $END
  -2.753193e+03  -1.125904e+02
  -1.588655e+03  -1.488630e+03
  -1.421795e+02  -1.845455e+03
   1.303428e+03  -1.061266e+03
   9.286326e+02  -8.859720e+01
   8.180840e+01   1.282467e+02
  -3.712670e+02   6.251025e+01
  -5.979899e+01  -4.078617e+02
   4.364443e+02  -6.370024e+02
   5.695832e+02  -1.550456e+02
   4.469733e+02   3.659156e+02
  -1.301546e+01   5.152702e+02
  -2.061612e+02   2.696850e+02
  -2.154998e+02  -3.031859e+02
   9.991988e+01  -5.240685e+02
   4.449639e+02  -1.358541e+02
   2.309609e+02   4.625226e+02
  -1.544647e+02   6.480244e+02
  -4.345497e+02   2.574034e+02
  -4.003500e+02  -1.640537e+02
  -1.184472e+02  -2.946559e+02
   1.096236e+02  -2.464076e+02
   7.413082e+01  -1.220308e+02
  -1.530121e+02  -1.299851e+02
  -2.366541e+02  -2.852109e+02
  -8.319742e+00  -3.018623e+02
   3.864454e+02  -9.814535e+01
   5.818219e+02   1.489396e+02
   2.150047e+02   3.616735e+02
  -2.873850e+02   1.739792e+02
  -3.471644e+02  -1.487085e+02
  -1.689044e+02  -3.521632e+02
   1.962213e+02  -2.578292e+02
   4.174512e+02  -9.754858e+01
   3.034416e+02   1.832536e+02
   2.714790e+01   2.758066e+02
   3.197485e+01   1.423698e+02
   7.958609e+01  -1.226768e+02
   1.304797e+02  -1.412278e+02
   2.011771e+02   8.310572e+01
  -1.124005e+01   4.191299e+02
  -1.495386e+02   4.445166e+02
  -2.296063e+02  -4.271967e+00
  -9.566904e+01  -2.644320e+02
   1.618380e+02  -1.203446e+02
   1.376025e+02   2.375475e+02
  -1.071735e+02   3.526655e+02
  -4.136179e+02   1.178314e+02
  -4.339173e+02  -2.974443e+02
  -1.272544e+02  -4.201950e+02
   2.311453e+02  -2.568777e+02
   4.786022e+02   3.926973e+01
   3.779035e+02   2.611876e+02
  -6.274032e+01   2.277973e+02
  -2.534678e+02   4.594902e+01
  -2.104074e+02  -3.959890e+00
  -1.690020e+01  -2.549683e+01
   3.960106e+01   5.928825e+01
  -9.209050e+01   1.013598e+01
  -1.498710e+02  -4.290089e+00
  -1.019398e+02  -1.637784e+02
   1.243929e+02  -1.927361e+02
   3.394605e+02  -1.201755e+02
   2.384856e+02   1.173638e+02
  -5.575403e+00   2.745424e+02
  -2.488384e+02   2.964038e+02
  -3.266756e+02   1.216286e+02
  -1.572144e+02  -1.749701e+02
  -1.091480e+02  -2.845706e+02
   2.319342e+01  -2.203285e+02
   1.863973e+01  -1.603168e+02
   3.129128e+01  -1.223704e+02
   1.214267e+02  -1.200282e+02
   2.099076e+02  -5.695431e+01
   2.082426e+02   7.243283e+01
   1.232942e+02   2.172948e+02
  -9.016870e+01   2.086264e+02
  -1.796970e+02  -3.749504e+01
  -4.714473e+01  -2.054830e+02
   2.129282e+01  -2.295145e+02
   1.535608e+02  -6.313041e+01
   2.493845e+02   1.791784e+02
   1.494260e+02   2.469621e+02
  -4.666737e+01   2.318764e+02
  -1.476110e+02   1.205998e+02
  -1.342093e+02   6.101678e+01
  -1.411120e+02   3.276968e+01
  -2.485013e+02   1.896001e+01
  -2.939743e+02  -1.194724e+02
  -3.075585e+02  -2.590096e+02
   5.787436e+01  -3.269029e+02
   3.328692e+02  -3.605259e+02
   3.909361e+02  -2.031309e+02
   2.535158e+02   7.507201e+01
   1.706605e+01   2.455438e+02
  -1.049242e+02   1.816394e+02
   6.539218e+00   3.455657e+01
   9.833213e+01  -3.821135e+01
   1.358963e+02   4.867952e+01
   1.575895e+01   1.205878e+02
  -1.021147e+02   1.025212e+02
  -7.695914e+01  -1.369819e+01
   2.429509e+01  -1.359011e+02
   1.555159e+02  -2.469556e+01
   1.196293e+02   1.639044e+02
  -4.537389e+01   3.306048e+02
  -1.936436e+02   1.830539e+02
  -2.852388e+02  -2.920967e+01
  -2.862009e+02  -2.408804e+02
   3.780167e+00  -2.097760e+02
   1.395152e+02  -1.131382e+02
   1.481514e+02  -1.913401e+01
   5.218921e+01   1.211941e+01
  -1.059123e+01  -4.792409e+01
   2.044956e+01  -9.146726e+01
   9.033387e+01  -6.253999e+01
   1.386289e+02   5.206168e+01
   6.014393e+01   4.031190e+01
  -8.703910e+01  -5.816593e+00
  -1.102986e+01  -7.143457e+01
   1.608611e+02  -4.764095e+01
   2.498466e+02   6.849903e+01
   2.914229e+02   1.508851e+02
   3.610269e+01   2.591520e+02
  -2.179548e+02   2.649434e+02
  -2.008159e+02   4.729315e+01
  -1.229580e+02  -5.425739e+01
   5.234447e+01  -7.754991e+01
   8.649674e+01  -3.574177e+00
  -6.389686e+01   9.949743e+01
  -1.755358e+02   1.256599e+01
  -1.681371e+02  -9.085968e+01
  -3.442863e+01  -2.081411e+02
   1.018244e+02  -1.134233e+02
   9.227536e+01  -3.345231e+01
   5.047702e+01   2.474277e+01
  -3.669422e+01  -1.345730e+01
  -3.334460e+01  -1.099259e+02
   3.794606e+01  -1.304659e+02
   1.995327e+02   2.508553e-02
   1.492969e+02   9.778765e+01
   5.939502e-01   2.062186e+02
  -9.203674e+01   1.709983e+02
  -1.711452e+02   1.012651e+01
  -7.911615e+01  -9.157675e+01
   2.830214e+01  -8.271087e+01
   4.464132e+01  -8.481740e+00
   8.154624e+00   3.322986e+01
  -4.878896e+01   1.885123e+01
   1.623959e+01  -3.930573e+01
   8.599173e+01  -1.805762e+01
   1.065671e+02   1.028116e+02
  -2.825441e+00   1.614847e+02
  -1.830352e+02   1.192465e+02
  -1.963270e+02  -6.168932e-01
  -1.806392e+02  -1.790562e+02
  -4.569416e+00  -1.975833e+02
   8.882451e+01  -1.311922e+02
   1.128459e+02  -3.264849e+01
   4.868619e+01   3.451312e+01
   1.320088e+01   4.753896e+01
   6.254791e+01  -2.083316e+01
   7.079313e+01  -7.133898e+00
   3.948244e+01   6.670638e+01
  -4.812758e+01   5.779985e+01
  -1.102070e+02   8.410612e+01
  -1.199850e+02  -4.299105e+01
   1.365123e+01  -1.197566e+02
   1.286791e+02  -9.803041e+01
   1.722192e+02   7.549955e+01
   7.739374e+01   2.064209e+02
  -1.216439e+02   1.608287e+02
  -2.437205e+02   6.510912e+01
  -2.155710e+02  -1.055849e+02
  -1.044944e+02  -1.458989e+02
   2.948020e+01  -1.477248e+02
   8.847055e+01  -5.576810e+01
   6.040888e+01  -7.621880e+01
   4.653894e+01  -9.708904e+01
   1.085944e+02  -7.660154e+01
   1.218928e+02   2.611463e+01
   9.972850e+01   1.792086e+02
  -3.069826e+01   1.673367e+02
  -1.039407e+02   1.167390e+02
  -1.679719e+02  -3.810031e+01
  -1.055296e+02  -1.337341e+02
   1.876672e+01  -1.535283e+02
   5.417885e+01  -5.178325e+01
   5.991763e+01   2.341099e+01
   7.543679e+00   4.548921e+01
  -2.807868e+01   3.346969e+01
   1.891631e+01  -5.116083e+00
   2.908567e+01   5.281331e+01
   3.894216e+01   6.952570e+01
  -9.435588e+01   5.047043e+01
  -1.190978e+02  -7.313872e+00
  -9.916461e+01  -7.414390e+01
   3.106654e+01  -6.007679e+01
   9.272006e+01  -3.154569e+01
   1.159095e+02  -3.563398e+01
   2.396645e+01   7.544906e+01
  -4.975751e+01   3.307494e+01
  -7.652110e+01  -2.417134e+01
  -2.279921e+01  -3.586877e+01
   1.643676e+01  -7.085276e+01
   7.217948e+01  -2.385121e+01
   1.756849e+01   3.495448e+01
   4.625994e+01   4.591461e+01
   7.837675e+01  -1.710989e+01
   5.755400e+01   1.411975e+00
   3.625493e+01   9.152011e+01
  -5.314720e+01   1.355098e+02
  -1.206956e+02   1.308464e+02
  -1.926872e+02   2.072738e+01
  -1.244381e+02  -7.609125e+01
  -1.418195e+01  -1.433376e+02
   1.054716e+02  -4.309378e+01
   5.764590e+01   1.777572e+01
  -7.043886e+01   2.747092e+01
  -1.254381e+02   7.684176e+00
  -5.219841e+01  -9.749378e+01
   1.010686e+02  -9.794222e+01
   1.585336e+02  -6.381816e+01
   1.382697e+02  -1.331385e+00
   1.297284e+01   1.039157e+02
  -9.165774e+01   9.069810e+01
  -2.720607e+01   1.132927e+01
   3.132427e+01  -2.775190e+01
   7.388093e+01   3.684614e+01
   2.566600e+01   1.082990e+02
  -8.993976e+01   1.206861e+02
  -1.211511e+02   6.375071e+01
  -1.207394e+02  -7.344902e+01
  -5.301003e+00  -1.826484e+02
   6.577728e+01  -1.401677e+02
   1.218681e+02   1.085617e+01
   2.486802e+01   1.198930e+02
  -1.661682e+01   7.739601e+01
  -5.566896e+01   3.350959e+01
  -3.852491e+01  -2.560953e+01
  -1.393601e+01  -9.653396e+00
  -9.379560e+00   1.405731e+01
  -2.769756e+01  -3.821783e+01
  -2.583760e+01  -7.772855e+01
  -3.866646e+01  -9.513566e+01
   7.085977e+01  -2.170385e+01
   1.289924e+02   3.806185e+01
   1.101281e+02   7.552580e+01
   3.633226e+01   4.284855e+01
  -6.652932e+01   1.726924e+01
  -4.619180e+01   1.583324e+01
  -1.833002e+01  -5.342174e+00
   6.931830e+01  -2.325137e+01
   1.397798e+01   6.551203e+00
   5.386249e+00  -5.469387e+00
  -7.400538e+00   1.009336e+01
   4.767281e+01  -2.631056e+00
   8.790275e+01   2.750178e+01
   1.371723e+01   6.155735e+01
  -8.688272e+01   9.571086e+01
  -2.029054e+02   5.309925e+01
  -1.011463e+02  -4.510009e+01
  -5.225557e+01  -1.314133e+02
   8.998268e+01  -1.359864e+02
   9.077970e+01  -1.113283e+02
   6.739819e+01   7.743914e+00
   3.051256e+01   1.795963e+01
  -1.707565e+00   4.938955e+00
   2.004931e+00   1.589283e+01
   5.082583e+01   3.898285e+01
   2.280070e+01   7.104832e+01
  -4.391218e+01   7.353929e+01
  -8.013257e+01  -1.235847e+01
  -6.894370e+01  -8.778796e+01
  -4.394448e+00  -1.132883e+02
   6.691603e+01  -1.122163e+01
   7.489783e+01   8.212992e+01
   1.995877e+01   5.642330e+01
  -6.781768e+01   9.220386e+01
  -8.247465e+01   2.573084e+01
  -5.679514e+01  -6.669200e+01
   3.936573e+01  -5.035320e+01
   3.078692e+01  -1.411992e+01
  -2.558750e+01  -1.643135e-01
  -6.938567e+01  -1.984738e-01
  -1.104261e+01  -5.770677e+01
   9.129711e+01  -5.096057e+01
   1.239681e+02  -4.121167e+01
   5.202463e+01   1.025980e+01
  -4.608327e+01   5.616665e+01
  -4.603559e+01   6.346239e+01
  -5.266788e+01   2.520393e+01
  -1.250178e+01  -5.535052e+01
   4.148242e+01  -7.053656e+01
   3.396551e+01   4.473494e+00
   2.581398e+01   4.883427e+01
   1.395068e+01   2.731420e+01
  -2.118174e+01   5.147657e+00
  -3.283308e+01  -5.537842e+01
  -2.699498e+01  -2.642779e+01
   1.432516e+01   2.009980e+01
  -1.410524e+01   1.711389e+01
   1.272926e+01  -3.048298e+01
   1.336664e+01  -4.703698e+01
   3.244633e+01  -1.975085e+01
   2.650403e+01   3.762429e+01
   3.404911e+01   6.298431e+01
  -3.489618e+01   2.132822e+01
  -6.535813e+01  -2.078767e+01
  -3.156247e+01  -6.482915e+01
   5.849705e+01  -2.315635e+01
   1.005714e+02   9.589426e+00
   3.166745e+01   4.836470e+01
  -7.228829e+01   3.629675e+01
  -4.742156e+01   2.378103e+01
  -2.335923e+01   2.986299e+01
   3.028599e+01  -1.689991e+01
   5.759014e+01  -1.942993e+01
  -1.721118e+01   6.169670e+00
  -7.758094e+01   1.366344e+01
