
 $NMID
 id='ANONYMOUS ', fmtdat='(2E16.6)'
 volume=1.0
 tramp=1.0
 $END
  -3.138927e+03   2.153515e+02
  -2.056815e+03  -1.727807e+03
   2.921092e+02  -1.922479e+03
   1.413961e+03  -8.488831e+02
   8.136317e+02   2.184209e+02
  -1.407230e+02   2.246154e+02
  -5.377920e+02  -2.400705e+02
  -1.030446e+02  -6.893228e+02
   5.951139e+02  -5.131331e+02
   6.006456e+02  -3.438939e+01
   4.035795e+02   6.411698e+02
  -1.438704e+01   7.097071e+02
  -3.254860e+02   1.536567e+02
  -2.955809e+02  -4.770239e+02
   1.483608e+02  -6.029845e+02
   4.823064e+02  -7.654963e+01
   2.923084e+02   5.849498e+02
  -2.440231e+02   5.719669e+02
  -4.514420e+02   1.826120e+02
  -3.315472e+02  -2.051302e+02
  -7.885268e+01  -3.186650e+02
   1.337353e+02  -2.221800e+02
   1.163786e+02  -8.925267e+01
  -1.335201e+02  -5.043317e+00
  -2.777358e+02  -2.150481e+02
  -8.341487e+01  -3.041300e+02
   3.280442e+02  -2.502778e+02
   5.504205e+02   1.468887e+02
   2.444239e+02   3.742193e+02
  -2.930747e+02   2.719712e+02
  -5.057006e+02  -1.041113e+01
  -1.806243e+02  -4.026134e+02
   1.600964e+02  -4.329360e+02
   4.243509e+02  -9.595742e+01
   3.017540e+02   1.659373e+02
   2.787982e+01   3.609109e+02
  -1.458609e+01   1.840492e+02
  -1.876198e+01  -9.440005e+01
   1.179971e+02  -2.652207e+02
   2.536177e+02   1.343144e+02
   1.391407e+02   5.235589e+02
  -2.007416e+02   5.982212e+02
  -3.485579e+02   2.115894e+01
  -1.280708e+02  -2.791843e+02
   2.045450e+02  -1.571047e+02
   2.332640e+02   2.887983e+02
  -1.288916e+02   3.404104e+02
  -4.592590e+02   1.285935e+02
  -5.299353e+02  -3.859483e+02
  -1.105797e+02  -4.398470e+02
   3.201574e+02  -2.760112e+02
   5.029435e+02   2.726353e+01
   2.691168e+02   3.080457e+02
  -7.032837e+01   2.591887e+02
  -2.843519e+02   6.927454e+01
  -1.526181e+02  -7.940497e+01
  -5.125615e-02  -3.877995e+01
   1.219029e+02   8.301586e+01
  -7.313463e+01   8.408081e+01
  -2.516660e+02  -3.783240e+01
  -8.711430e+01  -1.933243e+02
   1.523126e+02  -1.779168e+02
   2.898806e+02  -9.008645e+01
   2.319979e+02   7.147466e+01
  -3.085137e+01   2.226371e+02
  -2.386409e+02   3.452263e+02
  -3.285512e+02   1.418401e+02
  -1.559592e+02  -1.501379e+02
  -1.002494e+02  -3.659459e+02
   6.386198e+01  -2.443696e+02
   2.534924e+01  -1.231414e+02
   3.723046e+01  -3.747469e+01
   7.390574e+01  -3.437122e+01
   1.910842e+02  -8.897905e+01
   1.856641e+02   7.215090e+01
   1.271354e+02   2.614407e+02
  -8.482957e+01   2.107981e+02
  -1.703814e+02  -1.653139e+01
  -9.767884e+01  -1.887523e+02
   5.705809e+01  -2.409661e+02
   2.082746e+02  -3.814456e+01
   2.914146e+02   1.577731e+02
   1.599175e+02   2.747908e+02
  -4.514642e+01   2.778223e+02
  -1.594259e+02   1.446470e+02
  -1.089347e+02   6.083338e+01
  -1.131500e+02   2.019459e+01
  -2.381986e+02   2.917222e+01
  -2.567531e+02  -3.431202e+01
  -2.267170e+02  -2.752900e+02
  -5.340996e+00  -3.505671e+02
   3.225155e+02  -3.372372e+02
   3.879683e+02  -1.104978e+02
   2.757518e+02   1.063298e+02
   1.888301e+00   2.273094e+02
  -1.118616e+02   1.947582e+02
  -3.456957e+01   2.521520e+00
   9.271842e+01  -5.424042e+01
   1.026050e+02   1.204179e+00
   3.250999e+01   1.558239e+02
  -1.615773e+02   1.199774e+02
  -9.441775e+01  -3.077184e+01
   2.735320e+01  -1.255925e+02
   1.691567e+02  -2.279265e+01
   1.518636e+02   1.722059e+02
  -3.587864e+01   2.728533e+02
  -2.064645e+02   1.561336e+02
  -2.841027e+02  -1.884810e+01
  -2.686215e+02  -2.098084e+02
  -5.240447e+01  -2.351927e+02
   9.536009e+01  -1.475575e+02
   1.331201e+02   1.365430e+00
   3.853723e+01   4.298726e+01
  -4.543129e+01  -3.425893e+01
   1.894561e+01  -7.947294e+01
   1.184425e+02  -4.055062e+01
   1.524527e+02   4.862469e+01
   5.256244e+01   2.277766e+01
  -7.813972e+01   4.350657e+00
  -5.552708e+01  -9.209260e+01
   1.328639e+02  -8.921123e+01
   2.315245e+02   3.584151e+01
   2.023311e+02   1.328380e+02
   3.059833e+01   2.315282e+02
  -1.851133e+02   2.318288e+02
  -2.642909e+02   6.952035e+01
  -1.097380e+02  -1.015645e+01
   3.253421e+01  -6.840935e+01
   7.085989e+01  -2.303007e+01
  -4.537339e+01   7.006195e+01
  -1.905597e+02   5.199389e+01
  -1.802468e+02  -7.540290e+01
  -3.480693e+01  -1.731972e+02
   9.167687e+01  -1.366514e+02
   9.106674e+01  -5.841984e+00
   1.842054e+01   3.542215e+01
  -4.434952e+01  -2.301902e+01
  -1.359615e+01  -1.020944e+02
   8.320502e+01  -1.163276e+02
   2.000519e+02  -1.436668e+01
   1.523975e+02   1.141455e+02
  -3.952409e+01   1.805119e+02
  -1.361969e+02   9.316268e+01
  -1.886416e+02   2.657121e+01
  -3.305402e+01  -6.373314e+01
   7.207160e+01  -9.122395e+01
   7.031703e+01  -1.722898e+01
  -4.253679e+00   2.339722e+01
  -3.561124e+01  -3.954437e+00
   2.072820e+01  -1.498457e+01
   7.055481e+01   2.113711e+01
   6.968216e+01   1.063115e+02
   4.131181e+00   1.517058e+02
  -1.135605e+02   1.170373e+02
  -1.779817e+02   1.348840e+01
  -1.575584e+02  -1.482866e+02
  -3.915963e+01  -1.943906e+02
   7.655539e+01  -1.154770e+02
   1.287816e+02  -9.761646e+00
   4.351731e+01   3.693372e+01
   3.664546e+01   2.558266e+01
   5.043941e+01   1.457023e+01
   6.163489e+01   3.153972e-01
   2.680799e+01   5.538517e+01
  -4.747236e+01   8.455094e+01
  -8.144789e+01   3.771210e+01
  -9.095306e+01  -3.252774e+01
   1.386609e+01  -1.081318e+02
   9.102433e+01  -6.826714e+01
   1.556931e+02   7.254725e+01
   7.627466e+01   1.971772e+02
  -4.917279e+01   1.626127e+02
  -2.123835e+02   4.086641e+01
  -2.028650e+02  -9.834016e+01
  -1.080568e+02  -1.626628e+02
   3.940618e+01  -1.181316e+02
   6.953989e+01  -9.252521e+01
   7.599020e+01  -5.560452e+01
   3.946346e+01  -1.204701e+02
   9.891721e+01  -7.821402e+01
   1.286027e+02   2.440962e+01
   5.717381e+01   1.393066e+02
   9.222063e+00   2.300372e+02
  -1.022980e+02   1.290470e+02
  -1.571522e+02   1.571236e+01
  -1.053399e+02  -1.025633e+02
   3.557612e+00  -1.233191e+02
   8.550320e+01  -7.415257e+01
   4.171173e+01  -1.272874e+01
  -8.599791e-01   2.014408e+01
  -2.478951e+01   4.703880e+01
   2.239097e+01   1.198006e+01
   9.210230e+01   1.711213e+01
   2.240812e+01   5.363648e+01
  -5.188708e+01   1.290009e+01
  -1.760969e+02   2.434982e+01
  -1.324895e+02  -4.518862e+01
   1.841506e+00  -8.467986e+01
   1.268054e+02  -6.556643e+01
   9.397967e+01   1.568968e+00
   5.544533e+00   7.008962e+01
  -8.127500e+01   4.354076e+01
  -3.266907e+01  -2.518753e+00
  -2.260459e+01  -6.700509e+01
   3.323325e+01  -7.536716e+01
   6.192002e+01   2.478205e+01
   6.328482e+01   5.437136e+01
   3.791420e+01   5.327141e+01
   6.721784e+01  -1.049636e+01
   5.699084e+01   1.307389e+01
   1.022546e+01   4.263473e+01
  -5.941613e+01   1.586900e+02
  -1.049396e+02   1.123485e+02
  -1.728007e+02   2.745495e+01
  -1.122641e+02  -6.068264e+01
  -1.950753e+01  -9.230668e+01
   7.633589e+01  -5.431118e+01
   4.823279e+01  -5.195791e+00
  -4.370725e+01   4.535041e+00
  -1.174900e+02  -3.013707e+01
  -6.500876e+01  -1.070514e+02
   9.989544e+01  -9.224060e+01
   1.627553e+02  -5.359832e+01
   1.249833e+02   1.717912e+01
   4.431374e+01   8.485294e+01
  -5.642059e+01   3.963634e+01
  -3.185889e+01  -2.708608e+00
   3.324277e+01  -3.804196e+01
   7.348358e+01  -6.537854e+00
   1.802466e+01   1.212459e+02
  -9.495402e+01   1.455884e+02
  -1.494333e+02   8.575697e+01
  -1.055929e+02  -7.865229e+01
   1.230304e+01  -1.839579e+02
   8.677064e+01  -1.281247e+02
   9.567758e+01   1.091190e+01
   5.026745e+01   1.178468e+02
   9.608879e+00   7.436547e+01
  -5.186171e+01  -8.020579e+00
  -1.597558e+01  -2.754552e+01
  -8.733264e+00  -2.221469e+01
   1.470724e+01   2.625955e+01
   2.502501e+01  -3.781138e+01
  -2.635660e+01  -7.418298e+01
  -2.854252e+01  -9.524676e+01
   7.065675e+01  -1.739191e+01
   1.049453e+02   1.985272e+01
   7.698569e+01   5.773529e+01
   3.369425e+01   4.650313e+01
  -6.362856e+01   1.974363e+00
  -5.545479e+01  -3.280376e+01
  -1.373504e+01   2.920515e+00
   2.203819e+01  -1.918479e+01
  -7.497057e+00  -3.831638e-01
  -1.381727e+01  -1.193111e+00
   1.313159e+01  -9.123712e+00
   7.333919e+01  -2.326071e+01
   9.582976e+01   4.142027e+01
  -1.307277e+01   8.772582e+01
  -9.790664e+01   9.010733e+01
  -1.926065e+02   6.532152e+01
  -1.373876e+02  -6.991737e+01
  -3.344561e+01  -1.569356e+02
   8.937020e+01  -1.318464e+02
   9.885355e+01  -4.368182e+01
   6.949286e+01   1.900673e+01
   3.106431e+01   3.260031e+01
  -1.082250e+01   2.040788e+01
   1.494282e+01  -3.050223e+00
   2.050496e+01   2.590405e+01
  -7.556528e+00   4.635652e+01
  -3.399187e+01   6.700604e+01
  -7.411329e+01   2.763578e-01
  -1.001412e+02  -7.108521e+01
  -1.346942e+01  -7.179224e+01
   6.261422e+01  -1.031051e+00
   8.566288e+01   4.896721e+01
   2.870316e+01   6.899397e+01
  -2.914147e+01   5.821996e+01
  -1.042965e+02   2.024742e+01
  -3.347038e+01  -6.215657e+01
   3.422723e+01  -6.724940e+01
   2.126356e+01  -3.833738e+00
  -3.339382e+01  -7.969436e+00
  -7.308505e+01   1.566337e+00
  -3.360516e+01  -1.820163e+01
   9.210890e+01  -5.547035e+01
   1.030859e+02  -5.003566e+01
   5.376973e+01  -4.929027e+00
  -8.981997e+00   4.411404e+01
  -3.381517e+01   3.434169e+01
  -4.737850e+01   1.438952e+01
  -9.985376e+00  -4.288812e+01
   4.099247e+01  -6.708343e+01
   2.591559e+01  -1.105219e+01
   9.177859e+00   3.950808e+01
  -4.974836e+00   1.889312e+01
  -2.174470e+01  -8.659317e+00
  -1.519945e+01  -5.392170e+01
  -1.976862e+01  -2.029627e+01
   1.362447e+01   3.224837e+01
  -2.145149e+00  -1.483991e+01
   4.458345e+00  -1.323888e+01
   2.534129e+01  -4.118878e+01
   2.993038e+01  -2.575963e+01
   2.835095e+01   4.395477e+01
   1.580399e+01   6.174922e+01
  -2.839132e+01   1.867270e+01
  -3.427676e+01  -3.450829e+01
  -2.052580e+01  -7.386544e+01
   8.156164e+01  -3.998213e+01
   4.559630e+01   2.751918e+00
   3.242770e+01   1.958080e+01
  -1.480666e+01   5.665316e+01
  -3.703494e+01   2.898149e+01
  -2.784019e+01   1.176658e+01
   1.687538e+01  -9.752011e-01
  -4.379562e+00   6.978138e+00
  -5.238459e+01   1.628357e+01
  -9.399661e+01   2.003533e+01
