
 $NMID
 id='ANONYMOUS ', fmtdat='(2E16.6)'
 volume=1.0
 tramp=1.0
 $END
   4.520328e+03   4.051240e+02
   2.516764e+03   2.269518e+03
  -2.786746e+02   2.760380e+03
  -1.966939e+03   7.808934e+02
  -9.789276e+02  -4.975389e+02
   4.581923e+02  -6.648734e+02
   7.442277e+02   4.889500e+02
   6.825696e+00   9.782294e+02
  -5.333290e+02   7.292583e+02
  -8.910090e+02   8.354253e+00
  -4.740328e+02  -8.381236e+02
   1.636981e+02  -8.121032e+02
   5.312925e+02  -2.464443e+02
   4.951334e+02   6.353445e+02
  -2.518436e+02   7.369841e+02
  -5.246899e+02   4.222595e+01
  -2.272405e+02  -6.909597e+02
   3.266556e+02  -5.889366e+02
   5.505768e+02  -1.152874e+02
   3.789737e+02   3.059023e+02
   9.189656e+01   3.824585e+02
  -1.578584e+02   2.895908e+02
  -2.066492e+02   4.101453e+01
   1.473784e+02  -7.668677e+00
   3.873714e+02   1.107659e+02
   1.312551e+02   4.413601e+02
  -4.885866e+02   3.313657e+02
  -7.678056e+02  -1.969609e+02
  -4.237934e+02  -5.166484e+02
   4.067472e+02  -4.506345e+02
   7.079524e+02  -8.299582e+01
   3.898739e+02   4.445470e+02
  -3.334203e+02   5.475309e+02
  -5.429198e+02   2.598756e+02
  -3.951710e+02  -2.357239e+02
  -3.478446e+00  -4.629329e+02
   1.360883e+02  -3.159158e+02
   1.355093e+02   1.770074e+02
  -1.306142e+02   4.055268e+02
  -4.146106e+02  -3.952363e+01
  -1.867393e+02  -6.952471e+02
   3.364707e+02  -5.870731e+02
   5.434981e+02  -1.110938e+00
   2.984733e+02   4.469897e+02
  -2.056285e+02   2.664616e+02
  -4.637085e+02  -2.946613e+02
   6.319549e+01  -5.683651e+02
   5.641009e+02  -9.227882e+01
   5.158167e+02   4.777550e+02
   1.464092e+02   6.013159e+02
  -3.969745e+02   3.203762e+02
  -6.328038e+02  -1.171512e+02
  -3.710533e+02  -3.522708e+02
   1.603495e+02  -3.210999e+02
   4.728820e+02  -8.921475e+01
   2.417837e+02   1.557419e+02
  -9.751134e+01   8.189148e+01
  -1.036433e+02  -1.430753e+02
   1.555447e+02  -1.934772e+02
   3.287997e+02   4.711453e+01
   1.172425e+02   3.191688e+02
  -2.251251e+02   2.485306e+02
  -2.723966e+02   8.938558e+01
  -2.248380e+02  -8.630630e+01
  -2.711390e+00  -2.494898e+02
   1.960623e+02  -3.301334e+02
   3.340679e+02  -1.655194e+02
   2.840106e+02   7.823496e+01
   6.930331e+01   4.642027e+02
  -5.170406e+01   3.924104e+02
  -1.017405e+02   1.322770e+02
  -5.338162e+01  -3.346144e+00
  -5.998347e+01   1.028921e+02
  -2.507361e+02   7.592313e+01
  -2.599426e+02  -7.747491e+01
  -1.238908e+02  -2.824288e+02
   7.049464e+01  -2.369499e+02
   2.413564e+02  -1.683549e+01
   2.273707e+02   1.894260e+02
   1.669163e+01   2.933107e+02
  -3.243435e+02   1.231821e+02
  -3.686488e+02  -1.739741e+02
  -2.390140e+02  -2.946691e+02
   1.182700e+02  -2.962974e+02
   2.216189e+02  -1.269060e+02
   1.575967e+02   5.506359e+00
   1.433504e+02  -3.783880e+01
   2.177662e+02  -6.923662e+01
   3.954168e+02  -2.601642e+00
   3.303962e+02   3.103792e+02
   2.941096e+01   4.308269e+02
  -3.682821e+02   3.668269e+02
  -5.059289e+02   2.849275e+02
  -3.239454e+02  -4.499640e+01
  -7.113158e+01  -2.783265e+02
   9.388030e+01  -2.934796e+02
   6.924705e+01  -2.831677e+01
  -9.769065e+01   6.394216e+01
  -1.711767e+02  -9.121332e+00
  -5.477183e+01  -1.796739e+02
   1.747759e+02  -1.781982e+02
   1.901657e+02   5.186673e+01
  -3.674626e+01   1.542664e+02
  -1.673878e+02   2.205525e+01
  -2.046182e+02  -2.402128e+02
   3.767025e+01  -3.759032e+02
   2.407629e+02  -2.238708e+02
   3.572274e+02   2.713363e+00
   3.150363e+02   2.717331e+02
   1.191966e+02   2.726405e+02
  -1.241079e+02   1.739751e+02
  -1.646701e+02   3.153927e+01
  -5.770630e+01  -1.775747e+01
   8.319001e+01   1.461845e+01
   2.926335e+01   1.358598e+02
  -1.324264e+02   9.104669e+01
  -1.638618e+02  -1.749712e+01
  -9.178601e+01  -9.897667e+01
   6.321493e+01  -3.597136e+00
   3.517021e+01   5.084420e+01
  -1.294486e+02   1.174162e+02
  -2.798951e+02   3.988005e+00
  -2.535083e+02  -1.400484e+02
  -5.010071e+01  -2.505641e+02
   2.001008e+02  -2.293305e+02
   2.719979e+02  -1.671994e+02
   1.821787e+02   5.160415e+01
  -7.880348e+00   1.054483e+02
  -8.607013e+01   3.748048e+01
   1.543348e+01  -9.885513e+01
   1.915621e+02  -4.556646e+01
   2.037209e+02   1.188875e+02
   7.612174e+01   2.255906e+02
  -1.081841e+02   1.101190e+02
  -1.544372e+02   2.688097e+01
  -7.858195e+01  -2.197399e+01
   1.579434e+01   6.035998e-01
   4.654314e+00   8.542471e+01
  -8.416344e+01   1.003435e+02
  -1.625185e+02   7.830672e+01
  -1.777523e+02  -1.256213e+02
  -3.412340e+01  -2.205630e+02
   1.404560e+02  -1.880634e+02
   1.846609e+02  -3.763957e+01
   7.713229e+01   1.179175e+02
  -1.472856e+01   1.059979e+02
  -9.088616e+01   5.772883e+01
  -1.327533e+00  -1.835598e+01
   2.264343e+01  -2.693076e+01
  -1.803373e+01  -1.282940e+01
  -9.865698e+01   1.209052e+01
  -1.020814e+02  -1.013530e+02
  -2.179692e+01  -1.296442e+02
   1.323307e+02  -1.334493e+02
   2.345019e+02  -1.489567e+01
   1.837869e+02   1.339649e+02
   6.875671e+01   2.287882e+02
  -1.209770e+02   1.878030e+02
  -1.057210e+02   5.415073e+00
  -9.269206e+01  -7.795977e+01
  -3.504972e+01  -3.957975e+01
  -4.045986e+01   1.755730e+01
  -8.613991e+01  -7.592740e+00
  -3.247600e+01  -8.220796e+01
   5.420882e+01  -9.346477e+01
   1.052304e+02  -7.378035e+01
   1.072578e+02   2.672290e+01
   2.943130e+01   1.251189e+02
  -1.442181e+02   9.187332e+01
  -1.681037e+02  -6.317319e+01
  -7.044260e+01  -2.225172e+02
   1.308194e+02  -2.434117e+02
   2.459601e+02  -1.311381e+02
   2.691584e+02   7.636907e+01
   1.233410e+02   1.678006e+02
  -3.734464e+01   1.798310e+02
  -9.020753e+01   6.031532e+01
  -9.090888e+01   8.367641e+01
  -8.355113e+01   1.014561e+02
  -7.785705e+01   3.993897e+01
  -1.117538e+02  -1.218157e+01
  -1.191910e+02  -1.270018e+02
  -6.587027e-01  -2.254871e+02
   1.530278e+02  -1.445526e+02
   1.588732e+02  -1.034150e+01
   1.637819e+02   1.072294e+02
   1.338286e+01   1.336467e+02
  -8.105068e+01   1.000593e+02
  -8.431812e+01  -1.945378e+01
  -1.499433e+01  -2.163485e+01
  -1.567988e+00  -2.806734e+01
  -2.264526e+01  -4.133780e+01
  -6.272068e+01  -1.006365e+01
  -5.754013e+01  -4.867989e+01
   6.417229e+01  -4.721243e+01
   1.265071e+02   1.853775e+00
   1.364007e+02   5.301551e+01
   1.015757e+01   7.275705e+01
  -1.291232e+02   7.277656e+01
  -1.594293e+02   3.569366e+01
  -3.653084e+01  -4.166465e+01
   6.085263e+01  -2.123348e+01
   8.462168e+01   1.409409e+01
   3.113927e+01   8.326575e+01
  -3.923873e+01   6.427841e+01
  -6.422666e+01   6.391047e-01
  -4.689442e+01  -4.366369e+01
  -4.724024e+01  -7.719234e+01
  -7.415432e+01  -1.045272e+01
  -6.923624e+01  -1.963064e+01
  -3.807402e+01  -7.205105e+01
   4.057235e+01  -1.648401e+02
   1.278016e+02  -1.472961e+02
   2.144674e+02  -2.311311e+01
   1.096753e+02   8.605341e+01
  -1.354920e+01   1.387970e+02
  -9.172299e+01   5.842107e+01
  -8.669942e+01  -1.903509e+01
   8.114109e+01  -7.222428e+00
   1.122556e+02   1.958310e+01
   6.345384e+01   5.669293e+01
  -8.730247e+01   9.169225e+01
  -1.309130e+02   6.529915e+01
  -1.666769e+02  -2.892301e+01
  -3.748511e+01  -8.549361e+01
   2.303357e+01  -8.127027e+01
   5.474768e+01  -2.176909e+01
  -2.412798e+01   3.245873e+01
  -1.097377e+02  -1.860263e+01
  -2.874515e+01  -9.119170e+01
   5.899026e+01  -1.821153e+02
   1.441239e+02  -4.780977e+01
   1.454028e+02   8.130214e+01
   1.022791e+01   2.077306e+02
  -7.030837e+01   1.172261e+02
  -9.856155e+01   3.176742e+00
  -4.007918e+01  -1.220268e+02
  -1.095121e+01  -1.260523e+02
   6.576731e+01  -3.877201e+01
   5.188474e+01   3.519980e+01
   2.293251e+01   1.089295e+01
  -1.381163e+00   3.861107e+00
   2.148583e+01   2.896288e+01
   6.409633e+01   4.226628e+01
   5.532014e+01   9.531782e+01
  -4.183246e+01   4.968355e+01
  -1.446859e+02  -4.765961e+01
  -1.457554e+02  -8.766987e+01
  -2.433071e+01  -5.633050e+01
   1.340853e+02  -6.852712e+01
   9.562599e+01  -1.540706e+01
  -8.876120e+00   1.221905e+01
  -7.719449e+01   2.890112e+01
  -2.523859e+01   2.857879e+01
   2.796370e+01  -2.275049e-01
   1.947269e+01   3.959371e+00
  -8.797714e+01   1.673874e+01
  -9.818654e+01   1.280951e+01
  -1.604883e+00  -9.950879e+01
   1.086397e+02  -1.102592e+02
   1.860080e+02  -8.780723e+01
   1.899760e+02   7.824869e+01
   6.125391e+01   2.011828e+02
  -9.789591e+01   1.224477e+02
  -1.074076e+02   7.079793e+01
  -8.844901e+01  -1.912533e+01
  -1.764330e-01  -4.081062e+01
  -2.657010e+01   1.250738e+01
  -2.154419e+00  -2.902960e+01
  -3.933912e+01  -4.768436e+01
  -3.097348e+01  -7.189460e+01
   5.109850e+01  -5.962708e+01
   8.955011e+01  -4.483486e+00
   5.367784e+01   1.074102e+02
   8.877210e+00   6.684728e+01
  -6.251085e+01   2.280607e+01
  -8.838420e+01  -8.965271e+01
  -4.062213e+01  -1.097736e+02
   5.531599e+01  -8.329302e+01
   9.139119e+01   2.165749e+00
   4.256809e+01   2.180666e+01
  -1.598597e+01   4.154819e+01
  -3.725469e+01   4.506614e+01
   3.321355e+01  -2.092107e+01
   6.139869e+01  -2.070346e+01
   9.791225e+00   4.241470e+01
  -7.295008e+01   8.229794e+01
  -1.335355e+02   4.334887e+01
  -8.415221e+01  -9.367364e+00
   2.324179e+01  -5.706821e+01
   5.233991e+01  -8.496489e+01
   5.592232e+01  -6.902484e+00
  -1.183065e+01   2.681393e+01
  -1.384825e+00   2.630078e+01
  -9.468329e+00  -3.306696e+01
  -2.010453e+01  -3.350767e+01
   1.860021e+01  -2.505488e+01
   5.036613e+01   1.531879e+01
   4.526211e+01   3.328228e+01
   4.330960e+01  -1.893264e+01
   9.156414e+00   1.071431e+01
  -1.036494e+01   2.921651e+01
   1.178991e+01   2.723590e+01
  -1.230266e+01   5.961613e+01
  -1.767363e+01   6.312454e-01
  -3.107334e+01  -2.598938e+01
  -1.237164e+00  -6.251634e+01
   2.846890e+01  -2.033243e+01
   5.468716e+01   5.763713e+01
   4.876034e+01   4.566939e+01
  -3.127578e+01   3.972616e+01
  -8.228498e+01   2.288129e+01
  -5.508984e+01  -6.235333e+01
   6.333574e+01  -3.634899e+01
   6.141883e+01  -2.620367e+01
   2.104691e+01   7.518152e+00
  -3.527179e+01   1.849948e+01
  -3.835907e+01  -4.279219e+00
   3.914803e+01  -5.113838e+01
   9.855471e+01  -1.144513e+01
