
 $NMID
 id='ANONYMOUS ', fmtdat='(2E16.6)'
 volume=1.0
 tramp=1.0
 $END
  -2.496966e+03   3.368529e+02
  -1.799922e+03  -1.120546e+03
   3.609618e+00  -1.692681e+03
   8.647823e+02  -1.382180e+03
   7.087190e+02  -2.720475e+02
   1.278503e+02   6.428844e+01
  -3.108440e+02  -1.471200e+02
  -1.682045e+02  -2.597820e+02
   4.180483e+02  -4.627598e+02
   5.489303e+02  -1.426961e+02
   3.974657e+02   2.988529e+02
   1.018290e+02   5.903741e+02
  -1.729113e+02   2.592327e+02
  -2.598958e+02  -2.857776e+02
   1.771214e+02  -4.488051e+02
   3.553560e+02  -7.538611e+01
   2.941911e+02   4.369920e+02
  -9.546962e+01   5.267816e+02
  -4.274799e+02   2.654373e+02
  -3.816944e+02  -8.466885e+01
  -1.695879e+02  -2.847438e+02
   1.295035e+02  -1.908926e+02
   5.700494e+01  -1.073547e+02
  -1.912163e+02  -1.025150e+02
  -2.324382e+02  -2.239515e+02
   5.045408e+01  -2.506584e+02
   4.166687e+02  -1.441184e+02
   4.210685e+02   2.083300e+02
   1.225926e+02   2.594361e+02
  -2.538913e+02   1.060205e+02
  -4.002032e+02  -2.021850e+01
  -1.269299e+02  -3.140520e+02
   1.809661e+02  -3.129206e+02
   3.312411e+02  -1.258656e+02
   2.376800e+02   1.290159e+02
   6.802090e+01   2.387420e+02
   4.928702e+00   1.578560e+02
   3.100739e+01  -6.653852e+01
   2.382719e+02  -9.858078e+01
   1.811605e+02   1.015086e+02
  -6.565866e+00   3.351647e+02
  -2.326335e+02   3.906567e+02
  -2.380055e+02   7.057816e+01
  -1.727851e+02  -1.815899e+02
   1.078211e+02  -4.124048e+01
   1.538835e+02   1.825588e+02
  -9.660149e+01   2.805313e+02
  -3.802292e+02   2.437057e+01
  -4.089299e+02  -3.138378e+02
  -1.026276e+02  -3.621139e+02
   2.686456e+02  -2.429879e+02
   3.821157e+02   4.753049e+01
   2.577174e+02   2.284465e+02
  -5.176455e+01   2.260666e+02
  -2.065702e+02   1.154234e+02
  -1.398567e+02   3.322111e+01
  -5.961294e+01  -1.780455e+01
   1.141627e+01   2.003768e+01
  -6.493796e+01   3.669603e+01
  -1.874967e+02   1.751087e+01
  -1.248675e+02  -1.429517e+02
   1.131307e+02  -2.357854e+02
   3.357548e+02  -8.034890e+01
   2.303959e+02   7.271865e+01
   7.322597e+00   2.930350e+02
  -2.897831e+02   3.148457e+02
  -3.533487e+02   8.648761e+01
  -1.867893e+02  -1.285629e+02
  -5.256797e+01  -3.532612e+02
  -2.538124e+01  -2.851414e+02
   2.428012e+01  -1.634954e+02
   2.785106e+01  -1.026994e+02
   1.187808e+02  -9.969898e+01
   2.706249e+02  -1.711116e+01
   2.087017e+02   6.651130e+01
   9.693917e+01   2.293372e+02
  -1.433861e+02   1.611640e+02
  -1.584904e+02  -5.783524e+01
  -1.363456e+02  -1.836249e+02
   4.265735e+01  -1.738699e+02
   2.395652e+02  -1.721493e+01
   2.723511e+02   1.192022e+02
   1.164107e+02   2.970072e+02
  -5.643586e+01   2.743404e+02
  -1.431494e+02   1.660946e+02
  -1.103422e+02   7.813208e+01
  -1.259160e+02   4.432848e+01
  -2.483803e+02  -1.251559e+01
  -3.165363e+02  -5.645874e+01
  -2.386395e+02  -2.442504e+02
  -3.928801e+01  -3.993869e+02
   2.867571e+02  -3.496543e+02
   3.955262e+02  -2.141041e+02
   2.480629e+02   9.309911e+01
  -3.259071e+01   2.196574e+02
  -1.207148e+02   1.495172e+02
  -1.091412e+00   1.280813e+01
   1.008146e+02  -3.323213e+01
   1.426677e+02   2.959994e+01
   1.502452e+01   1.089082e+02
  -1.010214e+02   8.474378e+01
  -6.900945e+01  -8.052385e+00
   1.121451e+01  -1.042806e+02
   1.566255e+02   1.925125e+01
   1.464091e+02   2.271184e+02
  -2.219560e+01   3.008575e+02
  -2.003998e+02   1.526914e+02
  -2.969021e+02  -2.816327e+01
  -2.392316e+02  -2.284094e+02
  -1.143449e+02  -2.160568e+02
   1.140000e+02  -1.333045e+02
   9.225640e+01  -1.261067e+01
   1.668234e+01   3.230752e+01
  -3.722988e+01  -4.960762e+01
  -6.550796e+00  -6.672085e+01
   9.109953e+01  -6.641161e+00
   8.673892e+01   2.298386e+01
   2.097373e+01  -9.709760e+00
  -7.260364e+01  -4.618020e+00
  -2.394754e+01  -7.063439e+01
   1.462579e+02  -1.071845e+02
   2.622041e+02  -2.872732e+01
   2.254762e+02   1.488731e+02
   9.701980e+00   2.297297e+02
  -2.097647e+02   2.052282e+02
  -2.480871e+02   9.247051e+01
  -1.448926e+02  -4.996895e+01
   1.057474e+01  -8.205845e+01
   5.076471e+01   2.943191e+01
  -8.006009e+01   8.351985e+01
  -1.494847e+02  -2.043164e+01
  -1.786575e+02  -1.124436e+02
  -7.070443e+01  -1.764529e+02
   8.532600e+01  -1.346985e+02
   1.138866e+02  -9.317821e+00
   4.192516e+01   1.797241e+01
  -3.860824e+01  -2.702840e+01
  -2.594057e+01  -1.046306e+02
   9.776588e+01  -1.191649e+02
   2.074111e+02  -2.255091e+01
   1.711021e+02   1.319205e+02
  -1.140386e+01   1.792072e+02
  -1.268572e+02   1.365410e+02
  -1.401824e+02   1.027483e+01
  -4.848426e+01  -1.073655e+02
   3.128579e+01  -1.011396e+02
   6.801493e+01  -3.785423e+01
   5.805026e+00   1.439411e+01
  -3.924540e+01   2.494165e+01
   1.399760e+00  -2.216992e+01
   6.879575e+01  -3.412402e+00
   1.224544e+02   5.926352e+01
   5.367317e+00   1.478193e+02
  -1.349576e+02   1.541678e+02
  -2.021815e+02   5.320691e+01
  -1.440374e+02  -1.612689e+02
  -4.477375e+01  -1.993405e+02
   1.162537e+02  -1.127305e+02
   1.097832e+02  -7.427557e+00
   4.832369e+01   2.138212e+01
   7.437052e-01   1.892576e+00
   3.659443e+01  -4.702100e+01
   7.970141e+01   1.413159e+01
   1.364172e+01   2.841204e+01
  -1.628678e+01   7.561041e+01
  -1.231818e+02   5.779463e+01
  -6.083926e+01  -5.719618e+01
   3.013323e+01  -9.813174e+01
   1.409367e+02  -7.137185e+01
   1.737640e+02   6.288534e+01
   1.102779e+02   2.018719e+02
  -6.330686e+01   1.523087e+02
  -2.203995e+02   8.649448e+01
  -1.632523e+02  -5.727973e+01
  -6.596752e+01  -1.612220e+02
   9.115660e+00  -9.781824e+01
   7.013294e+01  -6.209090e+01
   4.687729e+01  -7.994726e+01
   2.906838e+01  -1.036940e+02
   6.797199e+01  -6.182381e+01
   1.277921e+02   2.391346e+01
   1.125836e+02   1.398520e+02
   4.536833e+01   1.829532e+02
  -7.887890e+01   1.377369e+02
  -1.758346e+02   2.300854e+01
  -1.310177e+02  -1.078116e+02
  -4.276379e+01  -1.517741e+02
   7.165973e+01  -6.178716e+01
   6.242710e+01   4.366670e+01
  -2.550273e+01   3.537996e+01
  -3.236758e+01   3.869970e+01
   3.863405e+01   2.676192e+01
   8.153065e+01   1.946730e+00
   3.543491e+01   4.253477e+01
  -6.258872e+01   2.329005e+01
  -1.641378e+02  -3.101609e+00
  -1.181188e+02  -6.595369e+01
   2.730200e+00  -8.540023e+01
   1.156301e+02  -7.614154e+01
   1.407506e+02   3.151732e+00
   2.013324e+01   6.052440e+01
  -5.741276e+01   7.110796e+01
  -6.244172e+01   1.174270e+01
  -2.850955e+01  -3.485385e+01
   5.125085e+01  -3.008041e+01
   7.423283e+01  -2.519158e+01
   2.813136e+01   4.273127e+01
   2.221077e+01   2.047899e+01
   3.318634e+01  -1.189195e+01
   5.784555e+01   2.931414e+01
   3.954826e+01   7.793017e+01
  -1.536277e+01   1.354718e+02
  -1.324687e+02   1.341158e+02
  -1.722249e+02   3.267170e+01
  -1.335909e+02  -6.912765e+01
  -7.424417e+00  -1.709033e+02
   5.796751e+01  -3.973497e+01
   7.206710e+01   4.176519e+01
  -7.470449e+01  -3.820512e-01
  -1.070657e+02  -1.865143e+01
  -6.321888e+01  -1.153568e+02
   5.985164e+01  -1.073247e+02
   1.420377e+02  -4.270103e+01
   1.146340e+02   2.405817e+01
   4.219069e+01   6.337730e+01
  -5.115543e+01   4.619306e+01
  -2.428125e+01   8.998547e+00
   4.702738e+01  -3.551244e+01
   7.973766e+01   4.696658e+00
   6.899486e+00   1.013531e+02
  -5.006612e+01   1.090021e+02
  -1.342340e+02   7.325195e+01
  -1.187428e+02  -1.108530e+02
  -1.947499e+01  -1.022059e+02
   1.036496e+02  -1.000200e+02
   1.080278e+02   9.946273e+00
   7.999960e+01   9.147433e+01
   3.315256e+01   6.280039e+01
  -3.943612e+01  -5.636248e+00
  -2.375377e+01  -1.701820e+01
  -1.017678e+01  -9.641327e-01
  -1.995979e+01  -9.712904e+00
  -2.896757e+01  -3.060565e+01
  -5.427619e+01  -8.490292e+01
  -1.680930e+01  -8.618923e+01
   6.687120e+01  -1.531924e+01
   9.691621e+01   1.741888e+01
   7.367955e+01   5.523504e+01
   3.282049e+01   3.875021e+01
  -5.814898e+01   4.062067e+01
  -4.302248e+01   1.768593e+01
  -4.454021e+00  -1.086169e+01
   3.389118e+01  -5.757877e+00
   4.969117e+00   1.611828e+01
  -1.789805e+01  -1.181885e+01
   1.106311e+00  -9.166199e+00
   4.404890e+01  -4.527103e+01
   9.507997e+01   3.075273e+01
   4.932879e+01   5.737020e+01
  -9.409592e+01   1.123703e+02
  -1.836036e+02   4.467283e+01
  -1.442194e+02  -6.095967e+01
  -3.568427e+01  -1.235676e+02
   8.299165e+01  -1.769725e+02
   1.035143e+02  -7.869058e+01
   7.748876e+01   1.498079e+01
   1.715572e+01   1.493024e-01
   1.852173e+01  -6.368145e+00
  -1.600919e+01  -1.239380e+01
   2.706913e+01   3.246440e+01
  -2.648871e+00   6.663208e+01
  -1.681332e+01   5.683191e+01
  -1.011706e+02  -1.492397e+01
  -7.617533e+01  -8.658300e+01
  -1.929578e+01  -9.490040e+01
   7.181273e+01  -4.706532e+01
   8.849952e+01   5.285222e+01
   4.570859e+01   7.689465e+01
  -5.060749e+01   8.962794e+01
  -8.411896e+01   1.842127e+01
  -7.287639e+01  -6.485938e+01
   4.654694e+01  -5.747807e+01
   4.041927e+01   5.488859e+00
  -7.423291e+00   6.517192e+00
  -8.621433e+01   2.147119e+01
  -5.880798e+00  -1.036074e+01
   5.089388e+01  -4.787128e+01
   8.926687e+01  -5.944749e+01
   5.502132e+01  -1.062571e+01
  -9.510763e+00   6.921895e+01
  -7.315944e+01   6.253232e+01
  -4.765896e+01   4.142048e+01
  -1.851634e+01  -3.207677e+01
   3.075159e+01  -5.208427e+01
   4.687276e+01   4.775807e+01
   2.377828e+01   1.579580e+01
  -6.289546e-01   4.578537e+01
  -2.346931e+00  -2.967382e+01
  -2.746875e+01   1.428678e+01
  -4.264485e+01  -1.107332e+01
   3.865140e+01  -7.671642e-01
   8.340949e+00  -1.920467e+01
  -2.063775e+01  -2.176456e+01
  -1.133977e+01  -6.575783e+01
   1.238186e+01  -2.686924e+01
   5.926527e+01   6.927244e-01
   4.134878e+00   3.960697e+01
  -4.768934e+01   4.073868e+00
  -7.836345e+01  -3.462865e+01
  -3.562632e+01  -5.954962e+01
   6.294488e+01  -3.268013e+01
   9.374248e+01   6.988919e+00
   7.025446e+01   3.602024e+01
  -1.927863e+01   5.962576e+01
  -3.472029e+01   3.122387e+01
  -2.268480e+01   1.171732e+01
   2.492933e+01  -9.919731e+00
   6.993961e+01   1.132210e+01
  -3.302248e+01   1.948799e+01
  -8.982213e+01   1.258444e+01
