
 $NMID
 id='ANONYMOUS ', fmtdat='(2E16.6)'
 volume=1.0
 tramp=1.0
 $END
   2.921496e+03  -4.919454e+00
   1.537779e+03   1.603803e+03
  -3.747432e+02   1.816457e+03
  -1.174358e+03   7.616801e+02
  -7.280524e+02   1.852040e+02
   1.752657e+02  -2.306831e+02
   5.738789e+02   1.185727e+02
  -7.007604e+01   5.700153e+02
  -3.978984e+02   4.653391e+02
  -7.319594e+02   6.362139e+00
  -2.484792e+02  -5.731429e+02
   6.480831e+01  -6.473871e+02
   3.132593e+02  -1.315834e+02
   3.943096e+02   4.583125e+02
  -9.470814e+01   5.679458e+02
  -4.079661e+02  -1.482884e+01
  -2.146200e+02  -5.276383e+02
   8.939355e+01  -4.993930e+02
   4.185820e+02  -1.121790e+02
   3.252085e+02   1.642524e+02
   1.300423e+02   2.896029e+02
  -1.376523e+02   2.097643e+02
  -1.312907e+02   3.520237e+01
   1.209896e+02  -5.834772e+01
   2.973080e+02   1.219614e+02
   8.627428e+01   2.667911e+02
  -3.363962e+02   2.384014e+02
  -5.299028e+02  -2.113085e+01
  -2.751239e+02  -3.152039e+02
   3.204939e+02  -3.212112e+02
   4.783323e+02   2.494187e+01
   2.572133e+02   3.601042e+02
  -1.770727e+02   3.260824e+02
  -3.671167e+02   1.509880e+02
  -2.940588e+02  -1.526569e+02
  -1.422424e+02  -3.343770e+02
   4.890064e+01  -2.127942e+02
   8.981375e+01   1.048097e+02
  -1.406956e+02   2.586694e+02
  -2.725808e+02  -6.248944e+01
  -1.772431e+02  -4.896799e+02
   2.112881e+02  -5.237721e+02
   3.340681e+02   1.602645e+00
   2.094137e+02   3.212201e+02
  -1.135467e+02   1.759142e+02
  -2.708139e+02  -2.337196e+02
  -1.611096e+01  -3.489168e+02
   4.199901e+02  -1.295429e+02
   4.720853e+02   2.378450e+02
   1.353990e+02   4.067124e+02
  -2.355924e+02   2.794434e+02
  -4.658620e+02   9.222621e-02
  -2.633840e+02  -2.085959e+02
   1.164973e+02  -2.537436e+02
   3.155004e+02  -1.183088e+02
   1.866540e+02   1.770831e+01
  -2.357039e+01   6.046572e+01
  -7.620620e+01  -9.556715e+01
   1.041901e+02  -8.475565e+01
   2.225679e+02   1.330545e+01
   1.098253e+02   1.496882e+02
  -1.160491e+02   2.123799e+02
  -1.980713e+02   7.879110e+01
  -1.868053e+02  -5.330623e+01
   1.956202e+01  -2.271787e+02
   1.986915e+02  -2.284845e+02
   2.430539e+02  -2.332642e+02
   2.194591e+02   5.081981e+01
   7.374666e+01   3.432710e+02
  -4.886096e+01   2.802667e+02
  -3.730334e+01   1.206043e+02
  -1.324141e+01   2.901996e+01
  -5.187604e+01   7.680111e+01
  -2.080695e+02   6.407507e+01
  -2.161494e+02  -3.777421e+01
  -1.161497e+02  -2.128578e+02
   4.302448e+01  -2.059673e+02
   1.534359e+02  -2.231449e+01
   1.409669e+02   1.317500e+02
  -1.540475e+01   2.420981e+02
  -1.886508e+02   1.221831e+02
  -2.912780e+02  -9.461888e+01
  -1.211127e+02  -2.465535e+02
   7.553131e+01  -2.584955e+02
   1.758283e+02  -1.289220e+02
   1.157296e+02  -4.797311e+01
   6.003874e+01  -7.493662e+01
   1.774831e+02  -6.441347e+01
   3.021683e+02   2.547867e+01
   2.861610e+02   2.017342e+02
   4.421110e+01   3.382351e+02
  -2.387112e+02   3.347834e+02
  -4.233370e+02   2.566890e+02
  -1.982626e+02  -7.709474e+01
  -6.979148e+01  -1.782174e+02
   7.943143e+01  -2.054772e+02
   4.974979e+01  -1.593472e+01
  -7.199959e+01   9.633476e+01
  -1.072756e+02  -4.484675e+00
  -2.752066e+01  -1.126989e+02
   1.422952e+02  -8.111979e+01
   1.445247e+02   2.288740e+01
   1.869847e+01   1.077780e+02
  -1.197175e+02   5.804910e+01
  -1.300843e+02  -2.203383e+02
   9.150063e+00  -2.630197e+02
   1.512137e+02  -2.122550e+02
   2.441511e+02  -2.740629e+00
   2.711588e+02   1.509539e+02
   6.459566e+01   1.939874e+02
  -9.458183e+01   1.318989e+02
  -1.280362e+02   2.228623e+01
  -3.296545e+01   7.033530e+00
   2.553392e+01   2.118875e+01
   1.123670e+01   6.939034e+01
  -7.816740e+01   8.285980e+01
  -1.263174e+02  -3.235154e+01
  -4.252608e+01  -4.411568e+01
   3.393190e+01   1.234252e+01
   6.093440e+01   5.566815e+01
  -9.084884e+01   7.274074e+01
  -2.673710e+02   6.943034e+01
  -2.284252e+02  -7.345104e+01
  -7.559101e+01  -1.953932e+02
   1.048828e+02  -1.690227e+02
   2.612252e+02  -9.730867e+01
   1.105951e+02   1.296302e+01
  -2.072328e+01   6.333153e+01
  -5.483768e+01   2.283543e+01
   3.645130e+01  -4.941477e+01
   1.586183e+02  -5.798405e+01
   1.753996e+02   5.951901e+01
   4.902135e+01   1.885456e+02
  -4.366966e+01   1.172487e+02
  -9.452953e+01   4.758238e+01
  -4.326605e+01  -3.625788e+01
   1.699519e+01   1.735582e-01
   9.556893e+00   7.915467e+01
  -4.894700e+01   9.766374e+01
  -1.257153e+02   3.643325e+01
  -1.230763e+02  -9.263792e+01
  -2.879783e+01  -1.582483e+02
   8.147531e+01  -1.765645e+02
   1.346510e+02  -2.111077e+01
   5.335511e+01   5.923229e+01
  -6.720992e+01   7.784993e+01
  -1.006448e+02   4.403295e+01
  -1.008531e+01  -1.337741e+01
   2.344770e+01  -1.920703e+00
  -9.384044e+00  -1.693692e+01
  -6.997012e+01  -1.023624e+01
  -9.297350e+01  -3.752147e+01
  -2.377426e+01  -1.252422e+02
   9.408802e+01  -1.068310e+02
   1.678113e+02  -3.614215e+01
   1.592634e+02   1.306785e+02
   3.733919e+01   1.617969e+02
  -6.841819e+01   1.005813e+02
  -7.376886e+01   4.179242e+01
  -3.074257e+01  -1.625425e+01
  -6.183644e+00  -4.719477e+01
  -3.134635e+01   2.960292e+01
  -5.346606e+01  -1.889179e+01
  -2.252812e+01  -5.256128e+01
   4.018255e+01  -8.312627e+01
   5.116599e+01  -6.534900e+01
   6.714374e+01   1.622524e+01
   2.058021e+01   1.018887e+02
  -1.127475e+02   5.568751e+01
  -1.321124e+02  -3.815072e+01
  -1.090630e+02  -1.443784e+02
   1.344851e+01  -1.548676e+02
   1.746858e+02  -1.183334e+02
   1.960870e+02   9.696402e+00
   9.333402e+01   1.462952e+02
  -1.850149e+01   1.033988e+02
  -5.009124e+01   8.665087e+01
  -5.110640e+01   5.890738e+01
  -4.752520e+01   8.235459e+01
  -3.845907e+01   3.679581e+01
  -1.279159e+02  -4.684948e+01
  -6.604940e+01  -1.052021e+02
  -1.551865e+01  -1.529328e+02
   1.442259e+01  -1.720232e+02
   1.221189e+02  -5.135088e+01
   1.361824e+02   4.970367e+01
   1.681766e+01   1.221137e+02
  -7.046868e+01   1.067751e+02
  -4.170180e+01   2.936387e+01
  -9.951853e+00  -3.042227e+01
   1.191211e+01  -1.317265e+01
  -2.413501e+01  -9.143870e+00
  -7.263533e+01   2.180439e+00
  -1.100502e+01  -1.215060e+01
   6.644145e+01  -2.391361e+01
   1.581598e+02  -2.523733e+01
   1.124028e+02  -1.938017e+00
  -3.927745e+00   6.193951e+01
  -8.919084e+01   7.541171e+01
  -1.048174e+02   3.755493e+01
  -2.770436e+01  -3.208129e+01
   8.570521e+01  -2.523063e+01
   4.524023e+01   1.106771e+01
   3.633031e+01   4.158978e+01
  -4.820039e+01   3.348658e+01
  -1.628153e+01  -1.352911e+00
  -3.702732e+01  -1.982097e+01
  -3.407824e+01  -3.976802e+01
  -3.233700e+01   1.823273e+01
  -5.676990e+01   2.015395e+00
  -5.701497e+01  -6.680754e+01
   3.211918e+01  -1.197900e+02
   8.700637e+01  -1.459394e+02
   1.245204e+02  -2.968087e+01
   6.681252e+01   4.580303e+01
   4.315288e+01   1.051779e+02
  -8.640068e+01   5.061301e+01
  -3.080136e+01  -1.172435e+01
   1.692433e+01  -3.831692e+01
   9.412250e+01   3.124227e+01
   6.490880e+01   7.500230e+01
  -8.797378e+01   1.163793e+02
  -1.322711e+02   5.416891e+01
  -1.162684e+02  -2.816133e+01
  -3.693300e+01  -5.374157e+01
   4.505531e+01  -3.838173e+01
   5.850099e+01  -2.504933e+01
  -3.522198e+01   2.784953e+01
  -5.037500e+01  -3.165112e+01
  -5.364883e+01  -1.169461e+02
   7.244227e+01  -1.285126e+02
   1.117111e+02  -7.158900e+01
   1.349703e+02   3.975749e+01
   3.288039e+01   1.746897e+02
  -4.715245e+01   1.202022e+02
  -9.357322e+01   7.143946e+00
  -4.053164e+01  -1.041983e+02
  -1.920457e+01  -6.852284e+01
   4.584034e+01  -2.016037e+01
   2.781088e+01   1.194935e+01
   4.831013e+00  -1.085872e+01
   2.248436e+01  -3.186816e+01
   2.824049e+01  -5.614712e+00
   4.192709e+01   8.973129e+01
   3.747214e+01   6.669537e+01
  -2.727366e+01   3.141815e+01
  -8.061226e+01  -6.926867e+00
  -1.047179e+02  -2.983994e+01
  -3.115719e+00  -2.115223e+01
   6.979832e+01  -6.919322e+01
   6.872525e+01  -6.008141e+00
  -5.499884e+00  -1.529562e+00
  -4.766839e+01   4.049104e+01
  -5.568004e-01   8.199277e+00
  -1.602147e+01   1.879044e+01
   2.329294e+00  -1.540431e+01
  -4.919155e+01   2.835036e+01
  -8.807831e+01  -2.421832e+01
  -2.795827e+01  -5.921505e+01
   5.286770e+01  -1.066065e+02
   1.273930e+02  -6.440869e+01
   1.406377e+02   1.530249e+01
   7.552658e+01   1.092128e+02
  -4.799351e+01   1.331762e+02
  -9.653180e+01   3.579148e+01
  -7.870455e+01  -4.093310e+00
  -3.221172e+01  -6.262262e+00
  -4.685512e+00  -1.212422e+01
  -2.378662e+01  -2.442464e+01
  -3.068231e+01  -5.646977e+01
  -2.296254e+01  -3.864338e+01
  -6.354762e-01  -4.595965e+01
   7.544420e+01   1.180331e+01
   4.859774e+01   5.900799e+01
   1.021312e+01   7.480905e+01
  -4.529417e+01   4.334526e+01
  -1.071520e+02  -3.411901e+01
  -3.987395e+01  -7.490695e+01
   6.198170e+01  -6.796243e+01
   1.269578e+02  -8.653069e+00
   5.195220e+01   5.627230e+01
  -1.098998e+01   8.383818e+01
  -1.517848e+01   4.254478e+01
   2.294920e+01   1.114577e+01
   3.212786e+01   1.265719e+01
  -6.778793e+00  -5.019123e+00
  -4.576317e+01   3.919171e+01
  -8.156475e+01   4.669521e+01
  -3.140925e+01  -9.291402e-01
   1.390565e+01  -7.641762e+01
   7.781919e+01  -4.083088e+01
   3.636196e+01  -3.787393e+01
   6.611858e+00   4.665088e+01
  -2.546871e+01   5.386487e+01
  -3.613979e+01   2.618008e+01
  -3.308790e+01   4.034179e+00
   5.664103e+00   2.351971e+00
   3.915752e+01  -4.674646e-01
   3.905310e+01   2.662572e+01
   2.710481e+01   7.377892e+00
   6.413392e+00  -1.774612e+01
  -1.760013e+01   3.044032e-01
  -1.153649e+01   4.077706e+01
  -1.707680e+01   6.591449e+01
   6.291270e+00   8.295760e+00
   1.700458e+01  -4.035358e+01
  -3.655230e+01  -5.388445e+01
   2.404568e+01  -1.463736e+01
   3.129057e+01   3.345888e+01
   9.146284e+00   7.599132e+01
  -6.878832e+01   5.283859e+01
  -8.060367e+01   1.062845e+01
  -5.882069e+01  -1.767136e+01
   3.479879e+01  -2.720466e+01
   4.036787e+01  -6.105657e+00
   1.469026e+00   6.030974e+00
  -2.148327e+01   1.270654e+01
  -8.623432e+00  -2.354525e+00
   2.634233e+01  -1.938246e+01
   7.335746e+01  -3.469873e+01
