
 $NMID
 id='ANONYMOUS ', fmtdat='(2E16.6)'
 volume=1.0
 tramp=1.0
 $END
   3.225294e+03  -2.943353e+01
   1.913571e+03   2.157411e+03
  -5.251116e+02   2.058882e+03
  -1.573107e+03   6.370573e+02
  -9.062433e+02  -7.178346e+02
   5.770594e+02  -4.182119e+02
   6.756590e+02   2.838656e+02
   1.088406e+01   9.364519e+02
  -6.657860e+02   7.452489e+02
  -6.927091e+02   1.515681e+01
  -2.264329e+02  -7.845596e+02
   2.019658e+02  -7.175507e+02
   4.710165e+02  -1.202657e+02
   3.028471e+02   4.745195e+02
  -1.030432e+02   5.624919e+02
  -5.177325e+02  -1.712389e+01
  -2.429934e+02  -6.010255e+02
   2.588207e+02  -5.727887e+02
   4.707910e+02  -1.162006e+02
   2.745413e+02   2.680073e+02
   6.237668e+01   3.531483e+02
  -1.875780e+02   2.076460e+02
  -1.546056e+02   3.831844e+01
   1.076052e+02  -9.181666e+01
   3.527899e+02   2.980722e+01
   1.737890e+02   3.198576e+02
  -2.835268e+02   3.106336e+02
  -6.104762e+02  -3.581451e+01
  -3.706146e+02  -4.423312e+02
   3.301605e+02  -3.366226e+02
   5.809828e+02  -8.669189e+01
   2.832370e+02   3.754055e+02
  -2.476508e+02   4.118623e+02
  -4.317057e+02   1.918816e+02
  -2.984306e+02  -1.146221e+02
  -1.053364e+02  -3.912721e+02
   1.575206e+02  -2.753097e+02
   1.792451e+02   1.258235e+02
  -1.379335e+02   3.894021e+02
  -3.992803e+02   1.492482e+01
  -2.157104e+02  -5.120630e+02
   2.018747e+02  -5.871857e+02
   4.967814e+02  -8.674507e+00
   2.720624e+02   3.948052e+02
  -1.748289e+02   3.459333e+02
  -3.156216e+02  -2.318472e+02
  -2.818973e+01  -4.092552e+02
   4.504731e+02  -1.437614e+02
   5.154952e+02   2.740056e+02
   1.253790e+02   4.061115e+02
  -2.919141e+02   3.164608e+02
  -5.067506e+02   2.075275e+01
  -3.438807e+02  -2.753617e+02
   9.480436e+01  -3.056843e+02
   3.047360e+02  -4.328455e+01
   2.132363e+02   1.518076e+02
  -9.308982e+01   8.971896e+01
  -1.007086e+02  -9.810313e+01
   9.275118e+01  -1.694764e+02
   2.720094e+02   1.968374e+01
   1.766213e+02   2.391899e+02
  -1.667768e+02   2.159486e+02
  -2.452145e+02   4.371181e+01
  -1.562320e+02  -8.810714e+01
  -2.777926e+01  -1.811452e+02
   1.168318e+02  -2.510737e+02
   2.499913e+02  -2.153354e+02
   2.604456e+02   3.575801e+01
   7.908041e+01   3.471599e+02
  -6.380049e+01   3.176138e+02
  -8.357376e+01   9.346443e+01
  -2.238574e+01  -2.476495e+01
  -4.798139e+01   4.102929e+01
  -1.196171e+02   1.062997e+02
  -1.894673e+02   7.690682e+00
  -1.714832e+02  -2.242624e+02
   6.180102e+01  -1.867041e+02
   1.654213e+02  -7.789311e+00
   1.700988e+02   1.505664e+02
  -1.751643e+01   2.477842e+02
  -1.582690e+02   1.320695e+02
  -2.970697e+02  -6.994445e+01
  -1.183300e+02  -2.831331e+02
   6.256029e+01  -2.509313e+02
   1.825723e+02  -1.063553e+02
   1.188338e+02  -6.766354e+00
   8.240734e+01  -5.507735e+01
   1.874056e+02  -6.084746e+01
   3.413438e+02  -8.970372e+00
   2.610668e+02   2.615413e+02
   2.987718e+01   3.204649e+02
  -2.275738e+02   3.906167e+02
  -3.451238e+02   2.195958e+02
  -2.366846e+02  -4.915129e+01
  -7.085221e+01  -1.808983e+02
   6.262485e+01  -2.146997e+02
   6.292512e+01  -2.210087e+01
  -4.871086e+01   1.095335e+02
  -1.709923e+02   2.229557e+01
  -7.978213e+01  -1.657561e+02
   1.221675e+02  -1.550552e+02
   1.536593e+02   4.257035e+00
   7.472540e+00   1.196169e+02
  -1.536107e+02   4.188611e+01
  -1.422449e+02  -1.922441e+02
   1.679164e+01  -2.872268e+02
   1.865395e+02  -2.099029e+02
   2.524453e+02   2.680886e+01
   2.053188e+02   1.929930e+02
   1.379089e+02   1.510875e+02
  -3.520857e+01   7.959358e+01
  -1.448012e+02   6.106768e+00
  -6.439628e+01  -4.156604e+01
   4.868960e+01   1.842199e+01
   2.663912e+01   8.313711e+01
  -9.583887e+01   1.039173e+02
  -1.486288e+02  -4.401854e+01
  -6.730289e+01  -8.582471e+01
   6.401919e+01   5.882497e+00
   6.737797e+01   7.299797e+01
  -4.434108e+01   5.798138e+01
  -2.148497e+02   5.880083e+01
  -2.133002e+02  -1.109278e+02
  -7.251741e+01  -2.101461e+02
   1.355205e+02  -2.039106e+02
   2.251347e+02  -8.706018e+01
   1.431894e+02   1.331799e+01
   3.462851e+00   9.449353e+01
  -8.064970e+01   3.092517e+01
   4.629249e+01  -5.510622e+01
   1.481913e+02  -8.018956e+01
   1.780457e+02   6.157182e+01
   7.708874e+01   1.757689e+02
  -5.229985e+01   1.380907e+02
  -9.446918e+01   4.259354e+01
  -5.453100e+01  -2.527228e+01
   1.044109e+00  -2.865481e+01
   5.603005e+00   6.293535e+01
  -5.288190e+01   7.502203e+01
  -1.602095e+02   1.731772e+01
  -1.761844e+02  -6.383591e+01
  -4.619677e+00  -1.913354e+02
   1.243789e+02  -2.032604e+02
   1.573038e+02  -1.355621e+01
   5.074525e+01   8.999265e+01
  -5.054134e+01   9.298349e+01
  -2.932420e+01   4.411353e+01
  -1.588556e+01  -2.652004e+01
   2.076608e+01  -3.031388e+01
  -6.755883e+00   2.124738e+01
  -7.117178e+01  -1.325058e+01
  -7.895904e+01  -7.495154e+01
  -3.312193e+01  -1.024693e+02
   1.001665e+02  -8.109304e+01
   1.760122e+02  -3.837897e+01
   1.723405e+02   1.053325e+02
   5.965052e+01   1.696056e+02
  -5.044328e+01   1.219437e+02
  -8.173109e+01   4.482618e+01
  -4.999445e+01  -3.476203e+01
  -3.959440e+01  -2.445306e+01
  -5.933872e+01  -6.371073e+00
  -4.939128e+01  -2.279058e+00
   5.804843e+00  -5.376098e+01
   3.897729e+01  -6.360352e+01
   1.077377e+02  -4.431161e+01
   8.557515e+01   9.515932e+00
   1.157244e+01   9.352884e+01
  -1.115511e+02   7.384331e+01
  -1.563688e+02   1.983474e-01
  -9.355029e+01  -1.289612e+02
   4.099099e+01  -1.803919e+02
   1.773171e+02  -9.216162e+01
   1.842987e+02   3.065258e+01
   8.184715e+01   1.420530e+02
  -3.785514e+01   9.138088e+01
  -3.683196e+01   7.757702e+01
  -5.541721e+01   8.527087e+01
  -5.547509e+01   5.598050e+01
  -6.371102e+01   6.114976e+01
  -9.473699e+01   1.966073e+01
  -1.109696e+02  -1.196360e+02
  -6.641109e+01  -1.919008e+02
   4.269071e+01  -1.538090e+02
   1.301789e+02  -3.272231e+01
   1.273338e+02   3.652522e+01
   3.285245e+01   1.420020e+02
  -5.785597e+01   5.910277e+01
  -4.882238e+01  -8.290945e-01
   2.952109e+01  -2.696823e+01
   1.405667e+01  -1.605259e+01
  -4.458874e+01  -1.949581e+01
  -5.193387e+01  -5.483889e+00
  -1.246301e+01  -2.536345e+01
   5.410998e+01  -2.046892e+01
   1.268278e+02  -2.466882e+01
   9.527483e+01   1.917526e+01
  -4.553952e-01   7.043880e+01
  -8.148824e+01   6.252303e+01
  -1.473771e+02   1.679040e+01
  -1.610841e+01  -4.915734e+01
   3.944661e+01  -5.728285e+01
   6.810494e+01   7.525221e+00
   4.273401e+01   6.624164e+01
  -3.303177e+01   3.335983e+01
  -4.558418e+01   5.857495e+00
  -3.945125e+01  -6.836246e+00
  -4.951481e+01  -2.112197e+01
  -4.228713e+01  -2.182343e+01
  -6.062281e+01   9.645736e+00
  -2.544583e+01  -5.308256e+01
   1.359303e+01  -9.777481e+01
   7.454694e+01  -1.410956e+02
   1.071725e+02  -4.632390e+01
   9.313696e+01   9.664606e+01
   5.932572e+00   1.027294e+02
  -1.011302e+02   6.369036e+01
  -2.748811e+01  -2.702686e+01
   4.143515e+01  -2.528888e+00
   1.137824e+02   2.707434e+01
   5.635496e+01   9.039985e+01
  -4.847706e+01   5.530401e+01
  -1.398924e+02   6.697245e+01
  -1.348353e+02  -5.256897e+00
  -3.371072e+01  -7.114191e+01
   4.039237e+01  -4.577349e+01
   4.735590e+01   4.804087e+00
  -3.733358e+01   1.520614e+01
  -7.163009e+01  -5.857604e+01
  -3.367686e+01  -8.158509e+01
   4.618046e+01  -1.408865e+02
   1.177212e+02  -9.030809e+01
   7.144506e+01   8.676752e+01
   3.579220e+01   1.417497e+02
  -5.882884e+01   1.092919e+02
  -6.700778e+01  -3.160488e+01
  -5.616853e+01  -8.930035e+01
  -2.671651e+01  -9.478032e+01
   4.900181e+01  -1.771945e+01
   1.403151e+01   1.439156e+01
   2.861507e+01   1.089415e+01
   1.417324e+01  -4.740227e+01
   2.115067e+01   6.348670e+00
   7.852095e+01   7.673891e+01
   4.506811e+01   8.489611e+01
  -2.055847e+01   3.171845e+01
  -1.269041e+02  -4.176801e+00
  -1.234355e+02  -4.533005e+01
  -3.954243e+00  -9.740488e+00
   3.726941e+01  -4.096859e+01
   8.707874e+01  -1.490977e+01
   3.295694e+01   2.522701e+01
  -3.664711e+01   2.256691e+01
  -1.807537e+01   1.197963e+01
   2.029863e+01  -1.592985e+01
  -1.602003e+01   3.373279e+00
  -8.472032e+01   4.426527e+01
  -1.144609e+02   2.882712e-01
  -1.433083e+01  -2.804274e+01
   7.021160e+01  -1.114706e+02
   1.499964e+02  -3.624151e+01
   9.770681e+01   4.733405e+01
   3.067099e+01   1.089826e+02
  -3.432633e+01   9.742538e+01
  -8.815862e+01   4.772602e+01
  -6.040779e+01  -2.396360e+01
  -2.494731e+01  -9.968837e+00
   2.575777e+01  -1.121211e+00
  -7.494669e+00  -3.006718e+01
  -2.824509e+01  -5.117499e+01
  -5.893162e+00  -6.645497e+01
   2.388214e+01  -5.465082e+01
   3.370448e+01  -1.327751e+01
   2.132809e+01   8.516829e+01
  -1.124033e+01   8.169302e+01
  -4.370141e+01   5.148986e+01
  -6.145400e+01  -5.842532e+01
  -7.662142e+00  -7.258158e+01
   4.248709e+01  -3.847969e+01
   6.554307e+01   5.113299e+00
   4.655313e+01   6.016262e+01
  -1.950126e+01   5.844364e+01
   1.043538e+01   2.132061e+01
   4.078781e+01  -7.921678e-01
   5.377363e+01  -1.122455e+01
   1.955575e+01   2.033035e+01
  -6.031616e+01   8.732379e+01
  -8.699241e+01   3.545388e+01
  -5.004465e+01   1.065978e+00
   2.304185e+01  -7.211656e+01
   2.828070e+01  -5.533490e+01
   4.027344e+01  -1.191885e+01
  -5.990402e+00   4.434375e+01
   6.602009e+00   4.589113e+01
  -5.576154e+01  -4.133940e+00
  -3.638192e+00  -3.214740e+00
   1.485538e+01  -1.937063e+01
   3.275338e+01  -3.990832e+00
   4.598363e+01   2.579493e+01
   2.991682e+01  -1.798787e+01
   1.437334e+01  -3.434541e+01
  -3.320469e+01  -2.120413e+01
   4.576805e+00   1.710014e+01
   2.963518e+00   3.134012e+01
  -1.617038e-01   6.639528e+00
  -1.182345e+01  -5.772593e+01
  -2.257948e+01  -2.556702e+01
   3.488225e+01   1.138444e+01
   5.864345e+01   8.348874e-01
  -3.896211e+00   4.894727e+01
  -6.501410e+01   1.482584e+01
  -6.893806e+01  -6.868944e+00
  -5.864412e+01  -1.597090e+01
   3.499345e+01  -1.247001e+01
   7.146485e+01  -1.128716e+01
   1.304546e+01  -8.384151e+00
  -1.096698e+01  -2.356312e+00
  -4.183162e+01  -1.914391e+01
   3.616320e+01  -8.320198e+00
   9.610648e+01  -3.861666e+01
