
 $NMID
 id='ANONYMOUS ', fmtdat='(2E16.6)'
 volume=1.0
 tramp=1.0
 $END
  -3.614366e+03  -8.474239e+01
  -2.506085e+03  -2.335818e+03
   4.625982e+02  -2.664296e+03
   2.040161e+03  -6.196066e+02
   7.642093e+02   5.614421e+02
  -7.536832e+02   5.740533e+02
  -8.162929e+02  -2.810331e+02
   1.697307e+01  -8.618346e+02
   7.083559e+02  -7.529486e+02
   8.352055e+02   5.514207e+01
   3.862708e+02   7.404951e+02
  -9.429348e+01   8.403824e+02
  -6.879314e+02   1.561079e+02
  -3.632042e+02  -5.356755e+02
   1.769205e+02  -7.140471e+02
   5.599346e+02  -3.250742e+01
   2.918435e+02   5.956933e+02
  -2.308447e+02   5.289324e+02
  -5.287787e+02   8.563957e+01
  -4.051747e+02  -3.415282e+02
  -2.294799e+01  -4.743191e+02
   2.346444e+02  -2.828135e+02
   1.723810e+02  -6.195063e+01
  -7.966549e+01   1.048512e+01
  -4.038805e+02  -1.214170e+02
  -1.053887e+02  -3.374190e+02
   4.263841e+02  -3.066998e+02
   8.225151e+02  -5.840582e+01
   2.924212e+02   5.170577e+02
  -3.509509e+02   4.416637e+02
  -6.236025e+02  -7.930408e+01
  -2.699732e+02  -4.617211e+02
   1.931291e+02  -4.394628e+02
   4.999184e+02  -2.063942e+02
   4.103989e+02   1.727721e+02
   5.580832e+01   4.299186e+02
  -1.906109e+02   2.907052e+02
  -1.538073e+02  -1.463173e+02
   1.584422e+02  -4.202810e+02
   3.937176e+02   4.795620e+01
   1.168459e+02   6.271698e+02
  -1.600591e+02   6.767797e+02
  -5.654930e+02  -3.641449e+01
  -2.667090e+02  -4.775370e+02
   2.750512e+02  -2.542025e+02
   3.354390e+02   3.022686e+02
  -5.045933e+01   4.709065e+02
  -4.853716e+02   1.568183e+02
  -6.089700e+02  -4.058128e+02
  -1.570165e+02  -5.850208e+02
   3.299604e+02  -3.458983e+02
   5.815828e+02   4.289668e+01
   3.208514e+02   4.001782e+02
  -1.079890e+02   3.854653e+02
  -4.516857e+02   5.421384e+01
  -1.824638e+02  -2.068700e+02
   7.219893e+01  -9.612716e+01
   1.369544e+02   1.317187e+02
  -1.662047e+02   1.769684e+02
  -3.149232e+02  -8.800353e+01
  -1.334986e+02  -2.876951e+02
   1.893136e+02  -2.725072e+02
   3.135398e+02  -5.173354e+01
   1.864939e+02   9.946412e+01
  -1.722814e+01   2.374594e+02
  -1.959355e+02   3.095724e+02
  -3.073641e+02   2.292552e+02
  -2.763795e+02  -1.409893e+02
  -1.149341e+02  -3.455212e+02
   1.305862e+02  -3.653714e+02
   1.319524e+02  -1.260826e+02
   4.072066e+01   1.189352e+01
   4.725067e+01  -5.098042e+01
   1.634529e+02  -1.340897e+02
   2.948054e+02   4.388213e+01
   1.675360e+02   1.831154e+02
  -4.930467e+01   2.305955e+02
  -1.832093e+02   2.606080e+00
  -1.738374e+02  -2.471060e+02
   3.378011e+01  -2.556993e+02
   2.339138e+02  -1.164895e+02
   3.690056e+02   1.586439e+02
   2.177747e+02   3.263861e+02
  -8.015773e+01   2.939019e+02
  -2.171125e+02   8.555908e+01
  -1.863955e+02   1.122806e+01
  -8.396176e+01   2.886073e+01
  -1.910970e+02   5.067011e+01
  -3.915313e+02  -1.291658e+02
  -2.597702e+02  -2.188150e+02
  -3.262205e+01  -4.193512e+02
   3.266485e+02  -4.005615e+02
   3.873448e+02  -1.928519e+02
   3.128789e+02   8.043546e+01
   4.737742e+01   2.493900e+02
  -1.243935e+02   2.316119e+02
  -6.594061e+01   1.075828e+00
   8.648045e+01  -1.030616e+02
   2.063635e+02   3.262342e+01
   4.499027e+01   1.721644e+02
  -1.707373e+02   9.714441e+01
  -1.720894e+02  -3.648072e+01
   9.707729e+00  -1.685524e+02
   2.026612e+02  -2.089534e+01
   1.788864e+02   2.369578e+02
  -3.441827e+00   2.914190e+02
  -2.150956e+02   1.791407e+02
  -3.005930e+02  -8.728158e+01
  -1.902605e+02  -1.633779e+02
  -5.367741e+01  -2.323434e+02
   1.214703e+02  -1.363800e+02
   1.583461e+02   5.534427e+00
   6.041863e+01   5.238731e+01
  -6.519983e+01  -4.484522e+01
  -4.969418e+01  -1.216221e+02
   1.124832e+02  -1.205667e+02
   1.465277e+02   2.599220e+01
   5.459084e+01   8.933610e+01
  -7.129314e+01   1.503228e+01
  -7.097497e+01  -7.598198e+01
   1.083270e+02  -5.931142e+01
   2.500867e+02  -1.606093e+00
   2.198621e+02   1.536056e+02
   2.600765e+01   2.287039e+02
  -1.604588e+02   1.905532e+02
  -2.543497e+02   8.814899e+01
  -2.098076e+02  -6.872157e+01
  -2.646310e+00  -1.314897e+02
   7.567124e+01   1.571571e+00
  -5.832480e+01   1.014473e+02
  -1.689319e+02   7.586114e+01
  -1.916434e+02  -1.119922e+02
  -3.068814e+01  -1.836973e+02
   7.557263e+01  -1.205910e+02
   1.448626e+02  -2.733224e+01
   7.493865e+01   2.125621e+01
  -1.886838e+01  -2.985735e+00
  -1.795252e+01  -4.490015e+01
   5.588978e+01  -9.433825e+01
   1.857410e+02  -1.620662e+01
   2.030339e+02   1.131028e+02
  -2.026382e+01   2.024178e+02
  -1.373251e+02   1.807395e+02
  -2.063671e+02   2.362808e+01
  -4.340213e+01  -9.347218e+01
   5.741245e+01  -1.208065e+02
   7.997064e+01  -2.256084e+01
   8.729121e+00   1.071782e+01
   1.813640e+01   5.991304e+00
   6.084538e+00  -4.084020e-02
   6.745390e+01   9.427074e+00
   8.231634e+01   9.600966e+01
  -7.967044e+00   1.405242e+02
  -1.270953e+02   1.286668e+02
  -2.179037e+02   7.736134e+00
  -1.925303e+02  -1.389282e+02
  -4.374714e+01  -2.301309e+02
   1.232370e+02  -1.569824e+02
   1.497845e+02  -3.276261e+01
   6.695591e+01   6.188113e+01
   3.192585e+01   4.758071e+01
   5.849196e+01  -3.037570e+01
   8.402330e+01  -1.535526e+01
   8.136522e+00   3.974143e+01
  -4.583595e+01   7.298135e+01
  -1.304676e+02   4.298409e+01
  -4.879262e+01  -3.763217e+01
   1.633642e+01  -9.054553e+01
   1.648471e+02  -6.020278e+01
   2.098146e+02   5.063970e+01
   6.881141e+01   1.990300e+02
  -9.720952e+01   2.445159e+02
  -2.715230e+02   9.665559e+01
  -2.537386e+02  -1.385529e+02
  -9.588373e+01  -1.127944e+02
   2.606372e+01  -1.253494e+02
   1.064149e+02  -8.178163e+01
   6.352445e+01  -6.315499e+01
   9.378906e+01  -6.322423e+01
   7.480497e+01  -7.615428e+01
   1.269353e+02   3.502214e+01
   1.255879e+02   1.161612e+02
   6.430778e+00   2.157860e+02
  -8.689128e+01   1.551783e+02
  -1.591640e+02  -1.196442e+00
  -1.094947e+02  -8.324491e+01
  -3.837288e+01  -1.810173e+02
   5.842853e+01  -6.176276e+01
   6.294032e+01  -2.513651e+01
   1.523014e+01   2.793783e+01
   2.616303e+01   3.729010e+01
   6.212271e+01   8.164998e+00
   7.892557e+01   3.532549e+01
   4.080668e+01   8.559926e+00
  -7.957187e+01   5.751554e+01
  -1.460061e+02  -1.831450e+01
  -1.448844e+02  -4.733979e+01
   1.636139e+01  -8.479738e+01
   1.450386e+02  -5.979282e+01
   1.342984e+02  -3.183688e+01
   4.380388e+01   4.873013e+01
  -3.613871e+01   3.702641e+01
  -9.958601e+01  -2.841352e+01
  -2.610773e+00  -1.011739e+02
   3.269932e+01  -4.665803e+01
   6.413190e+01   6.005490e-01
   8.390080e+00   4.161180e+01
   1.885443e+01   4.888394e+01
   6.667440e+01  -3.590139e+00
   6.603996e+01  -2.588272e+01
   2.311024e+01   8.200209e+01
  -5.292372e+01   1.327020e+02
  -1.339572e+02   1.500634e+02
  -1.495135e+02   3.343432e+01
  -1.436308e+02  -9.852865e+01
  -3.030191e+00  -1.022058e+02
   9.493818e+01  -6.428199e+01
   4.256780e+01   1.776332e+01
  -4.512935e+01   3.461226e+01
  -1.230159e+02  -1.863420e+01
  -7.293132e+01  -1.204909e+02
   6.832455e+01  -1.098785e+02
   2.196679e+02  -6.677333e+01
   1.979515e+02   2.909679e+01
   2.493629e+01   8.001001e+01
  -5.631695e+01   5.418729e+01
  -6.484864e+01   2.866832e+01
   6.690472e+01  -2.738814e+01
   1.176169e+02   3.484213e+01
   9.641392e+00   1.338216e+02
  -1.056074e+02   1.587082e+02
  -1.865509e+02   6.122151e+01
  -1.507934e+02  -9.519006e+01
  -4.151749e+01  -1.478724e+02
   1.065084e+02  -1.043102e+02
   9.678144e+01   9.915032e+00
   8.987322e+01   1.068697e+02
  -6.284810e+00   1.102846e+02
  -7.945980e+01   6.317256e+00
  -4.938733e+01  -3.383976e+01
  -1.733610e+01   6.398544e-01
  -5.880970e+00   3.897360e+00
   9.845222e-01   3.196382e+00
  -5.264260e+01  -9.802788e+01
  -2.718821e+01  -9.077573e+01
   3.192736e+01  -4.778576e+01
   1.500144e+02   7.946365e+01
   1.055833e+02   8.024850e+01
   1.016331e+01   4.295128e+01
  -9.510278e+01   2.169602e+01
  -8.189365e+01   2.865650e+01
  -1.428405e+01  -2.834795e+01
   5.120355e+01  -2.510227e+01
   2.077423e-01  -2.092115e+01
  -2.040563e+01   1.995052e+01
   9.681155e+00   1.617246e+01
   7.115187e+01   1.247080e+01
   8.816374e+01   1.045359e+01
   1.404768e+01   7.355052e+01
  -1.406888e+02   1.049571e+02
  -1.893381e+02   5.410634e+01
  -1.206229e+02  -7.572745e+01
  -3.425419e+01  -1.385415e+02
   7.561839e+01  -1.224212e+02
   1.074300e+02  -5.106240e+01
   9.044682e+01   2.308710e+01
   5.099640e+01   1.347709e+01
   4.402702e+00  -1.080036e-01
   2.537970e+01   3.239053e+01
   2.650016e+01   4.720524e+01
   5.034089e+00   9.776540e+01
  -1.366207e+01   6.070925e+01
  -8.316150e+01  -2.989949e+01
  -6.428706e+01  -1.206394e+02
   2.247093e+01  -1.145205e+02
   1.039133e+02  -9.487944e+00
   9.515984e+01   6.378213e+01
   5.837232e+00   7.298055e+01
  -4.800072e+01   5.194966e+01
  -8.895627e+01   7.961763e+00
  -5.504578e+01  -6.388263e+01
   1.781159e+01  -5.167119e+01
   2.113983e+01  -4.697157e+01
  -2.762999e+01   2.128702e+01
  -5.093305e+01  -2.339023e+01
  -8.555244e+00  -5.659724e+01
   6.231022e+01  -2.886675e+01
   1.286603e+02  -7.988273e+01
   9.152877e+01   9.737566e+00
   1.630515e+01   5.589662e+01
  -4.174268e+01   5.250163e+01
  -3.506911e+01   4.475921e+00
   3.700989e+01  -3.790113e+01
   1.761290e+01  -3.363433e+01
   3.914300e+01   2.558108e+01
   2.163206e+01   6.858621e+01
   1.239849e+01   2.202743e+01
  -3.549140e+01  -1.326404e+01
  -3.365506e+01  -8.431178e+00
  -3.292886e+01  -8.646348e+00
  -1.705252e+00   2.941166e+01
   2.072668e+01  -1.620213e+01
  -2.741706e+01  -3.730136e+01
   1.261435e+01  -6.095265e+01
   2.531143e+01  -3.440223e+01
   2.442038e+01   3.786341e+01
  -3.281668e+00   6.844506e+01
  -3.691522e+01   1.952525e+01
  -6.077180e+01  -3.840517e+01
  -3.816731e+01  -8.020943e+01
   2.396381e+01  -6.921253e+00
   7.586026e+01   3.418076e+01
   2.848879e+01   4.186788e+01
  -4.767997e+01   2.057898e+01
  -7.082855e+01   1.214188e+00
  -5.266319e+01   2.483688e+00
   5.960150e+01  -6.260385e+00
   4.401766e+01   1.679139e+01
  -2.488007e+01   6.696210e+00
  -8.462616e+01   4.295510e+01
