
 $NMID
 id='ANONYMOUS ', fmtdat='(2E16.6)'
 volume=1.0
 tramp=1.0
 $END
   4.213983e+03  -1.952232e+02
   2.237115e+03   2.072094e+03
  -6.409592e+02   2.531266e+03
  -1.960964e+03   9.876845e+02
  -9.939752e+02  -4.231902e+02
   4.619647e+02  -5.933818e+02
   8.324756e+02   1.786605e+02
   7.590469e+01   9.707315e+02
  -5.693442e+02   7.390870e+02
  -1.009286e+03   1.228339e+02
  -4.934244e+02  -7.705835e+02
   1.913629e+02  -7.400021e+02
   6.257117e+02  -1.983067e+02
   4.086913e+02   7.803377e+02
  -1.085767e+02   6.774458e+02
  -5.493873e+02   1.197671e+02
  -2.882637e+02  -6.744364e+02
   1.840236e+02  -6.971729e+02
   4.926395e+02  -2.163086e+02
   3.905173e+02   3.178326e+02
   8.503485e+01   4.629374e+02
  -2.269317e+02   2.783014e+02
  -2.059765e+02   5.046724e+01
   7.804628e+01  -3.007856e+01
   4.430797e+02   7.389779e+01
   7.610851e+01   4.136669e+02
  -4.265544e+02   3.111755e+02
  -7.016790e+02  -1.063453e+02
  -3.691684e+02  -4.897080e+02
   3.475183e+02  -4.235190e+02
   7.746451e+02  -1.630850e+00
   3.609565e+02   4.095559e+02
  -2.251564e+02   5.516919e+02
  -5.701779e+02   1.988553e+02
  -3.829762e+02  -1.714934e+02
  -1.170668e+02  -4.442251e+02
   1.957073e+02  -2.940177e+02
   1.441722e+02   1.861055e+02
  -1.055963e+02   3.741090e+02
  -3.729715e+02  -2.070327e+01
  -1.961100e+02  -5.916623e+02
   2.258267e+02  -7.023160e+02
   5.785199e+02  -7.087831e+01
   2.997451e+02   5.080605e+02
  -1.971674e+02   3.096911e+02
  -3.636974e+02  -3.224275e+02
   1.057722e+02  -4.772628e+02
   5.318835e+02  -1.366465e+02
   5.261052e+02   3.203516e+02
   1.300818e+02   5.464879e+02
  -3.302588e+02   3.228667e+02
  -5.622958e+02   4.586635e+01
  -3.432767e+02  -3.162883e+02
   1.364304e+02  -3.082328e+02
   4.267029e+02  -5.938933e+01
   2.311409e+02   1.187099e+02
  -7.656224e+01   1.227368e+02
  -1.069557e+02  -1.206543e+02
   1.677196e+02  -1.629973e+02
   3.776855e+02   1.163488e+01
   1.210008e+02   2.590715e+02
  -2.141859e+02   2.636137e+02
  -3.000526e+02   5.977080e+01
  -2.008524e+02  -8.716033e+01
   6.569370e+01  -2.376046e+02
   2.081777e+02  -3.268984e+02
   2.993135e+02  -2.124321e+02
   2.908386e+02   1.362185e+02
   9.745837e+01   4.128029e+02
  -8.020486e+01   3.814198e+02
  -1.007899e+02   1.822000e+02
  -2.723894e+01   1.621364e+01
  -7.725074e+01   6.526318e+01
  -1.882492e+02   1.123605e+02
  -2.127464e+02  -1.015338e+02
  -1.812779e+02  -2.416771e+02
   5.108392e+01  -2.087653e+02
   2.277146e+02  -2.489293e+01
   2.095366e+02   2.112752e+02
   1.641753e+01   2.830767e+02
  -2.364685e+02   1.753781e+02
  -3.989924e+02  -1.664053e+02
  -1.764927e+02  -3.418177e+02
   5.085980e+01  -3.243525e+02
   2.141081e+02  -1.184363e+02
   1.437634e+02   1.309691e+00
   1.124832e+02  -2.105449e+01
   2.294553e+02  -9.341750e+01
   3.328248e+02   4.231084e+01
   3.039171e+02   2.971309e+02
  -1.823070e+01   4.557508e+02
  -3.886825e+02   3.299719e+02
  -4.701124e+02   2.265955e+02
  -3.001597e+02  -7.575693e+01
  -5.715179e+01  -2.830738e+02
   1.102647e+02  -2.470393e+02
   7.369622e+01  -4.712519e+01
  -7.408828e+01   6.612691e+01
  -1.866269e+02  -1.617862e+01
  -4.237943e+01  -1.580479e+02
   1.185259e+02  -1.782815e+02
   1.930309e+02   4.593367e+01
   4.664362e+00   1.724707e+02
  -2.068592e+02   4.118438e+01
  -1.474505e+02  -2.365876e+02
   1.968313e+01  -3.625382e+02
   2.848015e+02  -2.462659e+02
   3.826316e+02   2.434196e+01
   2.646907e+02   1.970654e+02
   1.210040e+02   3.059873e+02
  -9.971201e+01   1.676485e+02
  -1.658701e+02   4.498755e+01
  -4.601885e+01  -1.006537e+00
   5.635205e+01   1.029099e+01
   2.028658e+01   1.503104e+02
  -1.404678e+02   1.063749e+02
  -1.638144e+02  -2.862081e+01
  -8.019777e+01  -9.915293e+01
   5.593146e+01  -2.112472e+01
   6.239455e+01   5.213336e+01
  -8.074145e+01   8.673867e+01
  -2.399994e+02   2.408823e+01
  -2.094271e+02  -1.098557e+02
  -3.963399e+01  -2.045897e+02
   1.672164e+02  -2.879995e+02
   2.444951e+02  -1.230081e+02
   1.531781e+02   3.739466e+01
  -3.119058e+01   9.199261e+01
  -9.461768e+01   8.575220e+00
   3.196195e+01  -9.034656e+01
   1.700356e+02  -9.802680e+01
   1.776560e+02   1.162565e+02
   1.984252e+01   1.893559e+02
  -7.897646e+01   1.336931e+02
  -1.817904e+02   4.801761e+01
  -7.822804e+01  -3.414664e+01
   5.052288e+01   2.182288e+01
   4.542302e+01   7.196781e+01
  -6.703471e+01   1.111415e+02
  -1.812493e+02   2.450074e+01
  -2.082198e+02  -1.591160e+02
  -2.640766e+01  -2.427627e+02
   1.186812e+02  -2.057041e+02
   1.773800e+02  -7.048743e-01
   7.478287e+01   1.155807e+02
  -7.553089e+01   1.099671e+02
  -9.113797e+01   3.317642e+01
  -1.762382e+01  -3.863830e+00
   1.684707e+01  -5.776017e+00
  -3.065595e+01   3.508132e+01
  -9.539573e+01  -2.917478e+00
  -1.246094e+02  -9.344568e+01
  -2.195041e+01  -1.350404e+02
   1.231599e+02  -1.548722e+02
   2.326204e+02  -2.022598e+00
   1.769887e+02   1.533490e+02
   7.790757e+01   2.299846e+02
  -1.094186e+02   1.777440e+02
  -1.395648e+02   3.532533e+01
  -4.675638e+01  -5.957761e+01
  -2.589213e+01  -4.976700e+01
  -2.427624e+01   3.965197e+00
  -9.421166e+01   1.792909e+01
  -4.568815e+01  -5.532477e+01
   2.877621e+01  -7.880290e+01
   1.352800e+02  -2.361258e+01
   1.134915e+02   3.431452e+01
  -1.504745e+01   1.007474e+02
  -1.515282e+02   6.405238e+01
  -1.800954e+02  -5.209126e+01
  -9.294035e+01  -2.300028e+02
   1.199316e+02  -2.379835e+02
   2.582517e+02  -9.388971e+01
   2.529179e+02   1.223528e+02
   1.141903e+02   1.629517e+02
   3.295880e+00   1.402803e+02
  -9.301643e+01   9.216694e+01
  -7.129937e+01   6.808245e+01
  -9.319473e+01   1.132463e+02
  -8.542026e+01   1.168321e+02
  -1.077492e+02   5.112782e+00
  -1.238651e+02  -1.304736e+02
  -1.977421e+01  -2.022169e+02
   6.345867e+01  -1.655660e+02
   1.832951e+02  -2.563360e+01
   1.368343e+02   1.223825e+02
   2.244110e+01   1.518364e+02
  -4.654724e+01   1.014297e+02
  -4.633673e+01   3.077298e+01
  -1.731958e+01  -4.206182e+01
   9.687913e+00  -2.883858e+01
  -3.776726e+01  -2.501684e+01
  -9.215492e+01   1.359226e+01
  -6.270075e+01  -2.304834e+01
   6.899981e+01  -4.432721e+01
   1.771216e+02   1.314940e+01
   1.462792e+02   2.311993e+01
   3.976211e-01   8.640443e+01
  -1.264439e+02   9.451941e+01
  -1.496810e+02   2.615576e+01
  -6.092013e+01  -6.374137e+01
   8.689091e+01  -4.211858e+01
   8.834104e+01   1.430131e+01
   2.343365e+01   7.271606e+01
  -5.497310e+01   6.229702e+01
  -6.504324e+01  -1.395928e+01
  -6.466032e+01  -7.122419e+01
  -4.071903e+01  -6.516998e+01
  -5.834204e+01   4.412474e+00
  -6.188493e+01   2.713984e+01
  -4.404807e+01  -5.540066e+01
   1.010858e+01  -1.637085e+02
   7.333402e+01  -1.378340e+02
   1.227629e+02  -5.150408e+01
   1.086976e+02   9.064759e+01
   3.266386e+01   1.070236e+02
  -8.129566e+01   5.753843e+01
  -6.577955e+01   6.235436e-01
   4.814090e+01  -3.492575e+01
   1.380005e+02   4.999572e+01
   5.757609e+01   9.156469e+01
  -1.066898e+02   1.210259e+02
  -1.687887e+02   4.011956e+01
  -1.730242e+02  -3.698452e+01
  -2.747475e+01  -7.562162e+01
   5.574347e+01  -8.795235e+01
   3.895374e+01  -1.656067e+01
  -1.661051e+01   2.325723e+01
  -9.781263e+01  -3.898972e+01
  -2.989527e+01  -9.449499e+01
   5.345645e+01  -1.252523e+02
   1.507857e+02  -8.769445e+01
   1.336595e+02   9.895447e+01
  -1.263595e+01   2.125537e+02
  -4.224396e+01   1.760597e+02
  -1.217062e+02  -2.970341e+01
  -3.671433e+01  -1.287112e+02
  -1.056071e+01  -9.451324e+01
   1.794387e+01  -5.932595e+00
   4.787647e+01   4.444405e+01
   2.899247e+01   3.855078e+01
   3.059981e+01  -1.025031e+01
   3.468455e+01   2.601021e+01
   5.914254e+01   1.066853e+02
   6.484854e+01   8.090681e+01
  -4.797986e+01   3.872660e+01
  -1.312550e+02  -4.485995e+01
  -1.202054e+02  -8.763348e+01
  -1.704234e+01  -3.743472e+01
   9.909305e+01  -4.080020e+01
   8.563964e+01  -2.357906e+01
   5.788982e-01   1.836966e+01
  -4.900740e+01   1.538234e+01
  -1.865900e+01  -3.923803e+00
   8.122590e+00   1.240196e+01
   1.418174e+01  -1.674270e+01
  -8.081028e+01  -7.224930e+00
  -1.030766e+02   6.171186e+00
  -1.075059e+01  -8.663255e+01
   1.139664e+02  -1.224016e+02
   1.967457e+02  -6.729860e+01
   1.364875e+02   6.927529e+01
   7.026124e+00   1.736148e+02
  -7.930468e+01   1.247950e+02
  -9.623729e+01   6.131939e+01
  -1.039641e+02  -2.457234e+00
  -1.661010e+01  -2.724403e+01
  -4.433739e+00  -3.396630e+00
  -3.923534e+00  -3.864995e-01
  -1.506333e+01  -5.770001e+01
  -4.474977e+01  -8.560416e+01
   4.174678e+01  -1.102246e+02
   8.990760e+01   1.302377e+01
   5.050256e+01   1.080778e+02
   1.119119e+01   9.640648e+01
  -6.166805e+01   3.587826e+00
  -8.256113e+01  -9.030802e+01
  -4.951882e+01  -1.038094e+02
   4.582652e+01  -2.680096e+01
   8.532839e+01  -2.298053e+01
   4.605158e+01   5.132289e+01
  -3.215539e+01   4.135493e+01
  -4.494666e+01   3.946470e+01
   2.028776e+01  -1.418495e+01
   6.158553e+01  -1.370384e+01
  -3.493187e+00   4.616419e+00
  -6.298022e+01   7.125372e+01
  -1.359192e+02   9.260798e+01
  -7.291748e+01  -7.277764e+00
   2.091953e+01  -1.062965e+02
   3.997503e+01  -1.164935e+02
   1.032785e+01  -1.878662e+01
   1.963836e+01   5.562602e+01
  -1.792624e+01   2.481639e+01
  -2.579639e+01   7.147255e+00
  -5.356431e+01  -4.279559e+01
  -1.191835e+00  -2.554572e+01
   1.712111e+01  -1.168781e+01
   2.618340e+01   3.801812e+01
   2.698054e+01  -8.075127e+00
  -1.156305e+01  -7.476004e+00
  -2.080239e+01   1.850755e+01
   8.977831e+00   3.211676e+01
  -2.748382e+01   4.610277e+01
  -4.431340e+01  -5.208152e+00
  -1.800589e+01  -5.032148e+01
   4.014017e+00  -5.575423e+01
   6.146793e+01  -3.129320e+01
   3.992825e+01   1.517888e+01
  -1.838550e+01   6.073005e+01
  -4.617645e+01   2.677120e+01
  -8.112905e+01  -1.880524e+01
  -3.485709e+01  -4.713243e+01
   4.429279e+01  -3.184312e+01
   7.105168e+01  -3.286224e+01
   1.970615e+01  -3.239730e+00
  -3.583956e+01   1.653944e+01
  -2.213549e+01   4.338367e+00
   3.244480e+01  -3.206489e+01
   6.841874e+01  -1.455430e+01
