
 $NMID
 id='ANONYMOUS ', fmtdat='(2E16.6)'
 volume=1.0
 tramp=1.0
 $END
  -2.248637e+03   2.639410e+02
  -1.650655e+03  -1.247032e+03
   1.884328e+02  -1.535013e+03
   9.962514e+02  -9.804515e+02
   8.011284e+02  -1.040748e+02
   4.813850e+01   1.415880e+02
  -4.357210e+02  -1.266730e+02
  -5.036713e+01  -4.007749e+02
   3.354516e+02  -4.793893e+02
   5.429838e+02   1.830380e+01
   2.657156e+02   3.637194e+02
  -1.394612e+01   5.207785e+02
  -2.493862e+02   1.929344e+02
  -2.190790e+02  -3.387450e+02
   7.578000e+01  -4.316328e+02
   3.888421e+02  -3.227387e+01
   2.325373e+02   4.041081e+02
  -1.446084e+02   5.588913e+02
  -2.888585e+02   1.502023e+02
  -3.808101e+02  -1.196691e+02
  -8.936788e+01  -2.749303e+02
   1.247209e+02  -1.500889e+02
   6.902168e+01  -7.892695e+01
  -8.123492e+01   5.483043e+00
  -2.749432e+02  -1.208049e+02
  -7.531333e+01  -2.344074e+02
   2.600703e+02  -1.768914e+02
   5.307861e+02   6.871145e+01
   2.715184e+02   2.900713e+02
  -2.223331e+02   2.010639e+02
  -4.922268e+02  -6.781828e+01
  -1.317478e+02  -2.690863e+02
   2.028558e+02  -2.349269e+02
   3.231428e+02  -1.053803e+02
   2.078719e+02   1.213654e+02
   1.036470e+02   2.318181e+02
  -3.627327e+01   2.093298e+02
  -5.047627e+01  -8.477072e+01
   1.788352e+02  -1.705116e+02
   1.489978e+02   1.206650e+02
   5.827328e+01   3.632202e+02
  -1.479626e+02   3.459616e+02
  -2.489474e+02   2.604277e+01
  -1.739423e+02  -1.809424e+02
   1.433303e+02  -1.449992e+02
   1.437249e+02   1.879738e+02
  -3.375788e+01   2.881453e+02
  -3.378015e+02   9.051943e+01
  -3.299139e+02  -3.628995e+02
  -1.528703e+02  -2.855675e+02
   2.017922e+02  -2.070824e+02
   3.433319e+02   4.856797e+01
   2.704407e+02   1.448016e+02
  -4.725900e+01   1.747487e+02
  -1.999156e+02   8.015869e+01
  -1.585995e+02  -1.124874e+01
   1.823140e+00  -8.015073e+00
   3.313317e+01   1.199271e+02
  -8.009821e+01   1.065566e+02
  -2.034384e+02  -1.470872e+01
  -1.291455e+02  -1.260415e+02
   7.934563e+01  -1.807012e+02
   1.855052e+02  -3.831649e+01
   2.041979e+02   6.698975e+01
  -4.289131e+01   1.936867e+02
  -1.822698e+02   2.227574e+02
  -2.538780e+02   1.195642e+02
  -1.848521e+02  -1.053945e+02
  -7.574232e+01  -2.262654e+02
  -1.687935e+01  -2.010068e+02
   8.600509e+00  -1.125484e+02
   1.744579e+01  -7.446887e+01
   8.639368e+01  -5.115574e+01
   1.528988e+02  -4.748053e+01
   1.820803e+02   1.107741e+02
   8.816031e+01   1.951034e+02
  -7.829865e+01   1.700025e+02
  -1.861586e+02  -1.205993e+01
  -1.152996e+02  -1.347840e+02
   2.846195e+01  -1.833330e+02
   2.315720e+02  -9.155622e+01
   2.121061e+02   1.114986e+02
   8.241354e+01   1.817693e+02
  -1.809828e+01   2.148767e+02
  -1.555237e+02   9.654514e+01
  -1.179712e+02   4.681481e+01
  -9.507792e+01   4.389101e+01
  -1.915223e+02   2.923414e+01
  -3.428285e+02  -4.090709e+01
  -2.715784e+02  -1.845400e+02
  -1.932898e+00  -3.186438e+02
   2.485301e+02  -3.121026e+02
   4.236765e+02  -1.688878e+02
   1.694407e+02   7.779661e+01
   1.818380e+00   1.659798e+02
  -4.536208e+01   1.132856e+02
  -2.440120e+01   5.648793e+00
   6.076098e+01  -4.176652e+01
   7.140589e+01   1.084226e+01
   1.287214e+01   9.410906e+01
  -9.176002e+01   1.196781e+02
  -1.130995e+02  -2.585165e+01
  -2.416552e+01  -1.082627e+02
   1.175188e+02  -2.052269e+01
   7.054260e+01   1.724476e+02
   2.958850e+01   2.318503e+02
  -1.507478e+02   1.891017e+02
  -2.668278e+02  -4.292562e+01
  -2.215542e+02  -1.637302e+02
  -5.752935e+01  -1.844003e+02
   7.469200e+01  -1.021621e+02
   1.037039e+02   1.272040e+01
   1.748776e+01  -8.355230e+00
  -1.528471e+01  -1.344977e+01
   1.468431e+01  -8.875562e+01
   7.095374e+01  -6.543748e+01
   1.237261e+02   1.392307e+01
   6.307527e+00   5.521153e+01
  -5.635047e+01  -1.469437e+01
  -4.449350e+01  -4.296636e+01
   8.153553e+01  -6.359976e+01
   2.289058e+02  -2.144915e+01
   2.003187e+02   9.371415e+01
   6.675052e+01   2.180442e+02
  -1.480580e+02   1.503273e+02
  -1.853737e+02   3.624839e+01
  -8.122639e+01  -2.581965e+01
   8.818486e+00  -5.767195e+01
   6.943956e+01  -6.958389e-01
  -3.278837e+01   6.484710e+01
  -1.784138e+02   3.653531e+01
  -1.545771e+02  -6.648841e+01
  -8.403720e+01  -1.284414e+02
   5.589291e+01  -1.089340e+02
   1.045050e+02  -5.201066e+01
   4.730631e+01   2.862747e+01
  -4.794459e+01   7.560516e+00
  -1.616996e+01  -7.676478e+01
   4.210493e+01  -7.906785e+01
   1.375805e+02  -2.824938e+01
   1.289978e+02   1.067291e+02
   3.688938e+01   1.535895e+02
  -1.046222e+02   1.123587e+02
  -1.099702e+02  -1.554664e+01
  -2.631377e+01  -8.305107e+01
   5.728078e+01  -8.692367e+01
   2.922138e+01  -3.239842e+01
   1.861463e+01   2.470055e+01
  -1.677308e+01   5.901425e+00
  -1.839188e+01  -3.195139e+01
   2.338923e+01  -7.037573e+00
   1.013700e+02   5.759602e+01
  -3.741231e+00   1.419867e+02
  -8.332476e+01   8.680411e+01
  -1.673825e+02   1.709208e+01
  -1.568265e+02  -1.262985e+02
  -3.382307e+01  -1.657861e+02
   7.258570e+01  -8.951465e+01
   7.366207e+01  -3.758044e+01
   8.607813e+01   3.796352e+01
   5.007331e+01   1.395371e+01
   3.413991e+01  -1.434004e+01
   4.255365e+01   2.470019e+00
   4.214924e+01   3.190275e+01
  -3.824978e+01   5.367947e+01
  -9.505067e+01   6.386660e+01
  -7.393381e+01  -1.841900e+00
   2.106679e+00  -1.061614e+02
   1.322543e+02  -5.425884e+01
   1.522644e+02   4.973664e+01
   4.109251e+01   1.423259e+02
  -7.313230e+01   1.977931e+02
  -2.000460e+02   8.865406e+01
  -1.619115e+02  -3.086732e+01
  -1.128305e+02  -9.890839e+01
  -7.844759e+00  -1.129568e+02
   6.411196e+01  -3.525094e+01
   5.150793e+01  -2.880122e+01
   6.264897e+01  -6.218428e+01
   3.648811e+01  -4.882074e+01
   1.001910e+02   3.155959e+01
   8.200856e+01   1.198547e+02
   6.446095e+01   1.707138e+02
  -3.401020e+01   1.202447e+02
  -9.814179e+01   4.116107e+00
  -1.338596e+02  -9.384324e+01
  -8.794966e+00  -1.113339e+02
   6.500295e+01  -5.525251e+01
   4.960226e+01   3.217613e+01
   1.933206e+01   1.967265e+01
  -4.855175e+00   4.599337e+01
   3.772693e+01   1.937296e+01
   3.156321e+01  -6.234864e-01
   1.518832e+01   1.506466e+01
  -6.652033e+01   6.225925e+01
  -1.227336e+02   3.806375e+01
  -8.875504e+01  -5.210908e+01
  -9.858737e-01  -6.769867e+01
   8.011730e+01  -5.272036e+01
   8.801122e+01  -1.953120e+01
   6.329590e+00   2.183243e+01
  -6.798334e+01   2.417176e+01
  -3.978321e+01  -2.197291e+01
  -4.391610e+01  -4.145024e+01
   3.971601e+01  -4.194148e+01
   6.395686e+01  -1.528571e+01
   3.846615e+01   2.277775e+01
   3.748261e+01   1.578399e+01
   5.251909e+01  -1.896943e+01
   2.955094e+01  -4.539207e+00
   5.452380e+01   6.325253e+01
  -1.699053e+01   1.079458e+02
  -7.748312e+01   1.309569e+02
  -1.511613e+02   2.283778e+01
  -9.978315e+01  -3.149985e+01
  -8.406910e-06  -9.041189e+01
   5.973547e+01  -4.143628e+01
   3.931446e+01   1.656565e+01
  -5.704041e+01   1.551921e+01
  -8.243218e+01  -1.381985e+01
  -5.635069e+01  -8.902668e+01
   5.871385e+01  -8.851437e+01
   1.339902e+02  -2.722071e+01
   1.145504e+02   2.920803e+01
  -2.350459e+00   8.250671e+01
  -9.867430e+00   1.217411e+01
  -4.691514e+01   1.039152e+01
  -6.443580e+00   9.943080e+00
   6.153010e+01   2.453874e+01
   3.627777e+01   5.334517e+01
  -4.726505e+01   9.818179e+01
  -1.405484e+02   5.059775e+01
  -9.217759e+01  -3.775332e+01
  -1.838801e+01  -1.256231e+02
   4.101510e+01  -9.515632e+01
   9.144400e+01   1.703945e+01
   3.554502e+01   9.442209e+01
  -4.283481e+00   1.006642e+02
  -2.996178e+01   9.800355e+00
  -1.337155e+01  -5.641061e-01
  -2.493156e+01   9.742746e+00
  -3.176921e+00   3.019642e+01
  -3.202726e+01  -9.666619e+00
  -4.140717e+01  -3.672556e+01
  -2.104840e+01  -8.676857e+01
   4.751284e+01  -2.874152e+01
   8.762231e+01   6.621022e+00
   9.183119e+01   3.752070e+00
   7.200532e+00   5.030113e+01
  -6.228213e+01   2.364482e+01
  -5.608967e+01  -5.454943e+00
  -1.752973e+01  -1.119035e+01
   3.672948e+01  -2.357698e+01
   9.856049e+00  -9.860987e+00
  -1.585617e+01   4.998548e-01
  -5.503119e+00  -3.247927e+01
   5.527150e+01  -3.989300e+01
   7.858467e+01   2.883041e+01
   2.162438e+01   5.426075e+01
  -5.237944e+01   9.443783e+01
  -1.275150e+02   7.034614e+01
  -1.249450e+02  -3.162924e+01
  -5.333845e+01  -1.340294e+02
   3.066067e+01  -1.118741e+02
   9.073979e+01  -3.552595e+01
   5.307383e+01  -6.856337e+00
   4.047495e+01   3.697998e+01
  -7.437116e+00   1.694137e+01
   3.867214e+00  -9.309249e+00
   1.773751e+01   3.488066e+01
   1.299584e+00   5.517534e+01
  -2.508876e+01   7.132617e+01
  -6.446306e+01  -3.065236e+00
  -5.384786e+01  -4.022003e+01
   2.096323e+00  -7.214282e+01
   3.250856e+01  -2.344545e+01
   8.159104e+01   3.073039e+01
   3.609405e+01   5.154963e+01
  -6.691984e+01   3.338377e+01
  -7.059195e+01  -3.960644e+00
  -2.528141e+01  -5.334045e+01
   2.972708e+01  -7.346877e+01
   8.880468e+00  -9.105391e+00
  -3.829708e+01   8.053715e+00
  -5.472566e+01   2.008382e+01
  -8.296633e+00  -2.109501e+01
   2.955488e+01  -3.889741e+01
   6.886302e+01  -4.216461e+01
   4.711002e+01  -2.975493e+00
  -2.060446e+01   3.795029e+01
  -4.901689e+01   6.854917e+01
  -9.819438e+00   1.692498e+01
  -2.011439e+01  -2.507896e+01
   3.894197e+01  -5.461485e+01
   4.400518e+01  -9.535472e+00
   1.775842e+01   1.495837e+01
   6.059049e+00   4.708467e+01
  -7.083140e+01  -1.652748e+01
  -4.948767e+01  -1.302440e+01
  -1.338297e+01   1.206920e+01
   2.796686e+01   2.841508e+01
  -2.194520e+01  -2.859222e+01
   2.074951e-01  -1.536613e+01
   2.833377e+00  -4.474094e+01
  -1.951964e+01  -1.913728e+01
  -4.943152e+00   1.230119e+01
   2.438587e+01   5.611130e+01
   7.909696e-01   2.556351e+01
  -4.296662e+01  -3.144938e+01
  -2.588140e+01  -4.914741e+00
   5.534839e+00  -2.845466e+01
   6.930426e+01   3.051618e+00
   4.253321e+01   8.960002e+00
  -1.166011e+01   4.531852e+01
  -5.117980e+01   3.174732e+00
  -2.379596e+01  -6.840991e-01
   2.121213e+01  -2.084345e+01
   4.116037e+01   1.891644e+01
  -4.126859e+01   2.000499e+01
  -6.402368e+01   8.986123e+00
