
 $NMID
 id='ANONYMOUS ', fmtdat='(2E16.6)'
 volume=1.0
 tramp=1.0
 $END
  -3.101762e+03  -1.334386e+02
  -1.765109e+03  -1.782346e+03
   2.264223e+02  -1.741202e+03
   1.643859e+03  -8.967280e+02
   6.505138e+02   4.651302e+02
  -3.140767e+02   3.403831e+02
  -6.736338e+02  -2.107613e+02
  -2.069680e+01  -7.690756e+02
   5.548049e+02  -5.668033e+02
   7.279222e+02   1.643134e+00
   2.904873e+02   5.642706e+02
  -9.676828e+01   5.997008e+02
  -4.494420e+02   1.105938e+02
  -3.199152e+02  -4.624815e+02
   2.121340e+02  -5.607121e+02
   5.025757e+02  -3.271182e+00
   1.810496e+02   4.599998e+02
  -2.684157e+02   5.331373e+02
  -5.441893e+02   9.937409e+01
  -3.484629e+02  -2.623949e+02
  -3.899248e+01  -3.806298e+02
   1.731094e+02  -2.176377e+02
   1.599734e+02  -3.581421e+01
  -1.149531e+02   1.789906e+01
  -3.227475e+02  -1.189410e+02
  -1.615609e+02  -3.003645e+02
   3.341716e+02  -3.136551e+02
   6.160158e+02  -1.183760e+01
   3.586303e+02   4.665164e+02
  -3.302693e+02   2.638465e+02
  -6.290216e+02   9.032744e+00
  -2.680219e+02  -3.683785e+02
   2.207822e+02  -3.232311e+02
   4.611426e+02  -1.766156e+02
   3.427355e+02   1.358013e+02
   1.008724e+02   3.038327e+02
  -1.395524e+02   2.287869e+02
  -1.669115e+02  -1.580366e+02
   1.240818e+02  -2.659741e+02
   2.720261e+02   1.050070e+01
   1.046516e+02   5.261483e+02
  -2.170560e+02   4.536310e+02
  -4.396629e+02   1.373791e+01
  -2.195379e+02  -4.012809e+02
   2.042748e+02  -2.613129e+02
   2.533109e+02   1.796852e+02
  -5.029057e+01   3.693766e+02
  -4.112072e+02   9.477741e+01
  -4.063604e+02  -2.866631e+02
  -1.282230e+02  -4.800320e+02
   2.935792e+02  -2.715029e+02
   5.159675e+02   4.842556e+01
   3.479783e+02   2.822452e+02
  -9.839946e+01   2.623975e+02
  -3.398904e+02   8.135354e+01
  -2.316964e+02  -1.555719e+02
   8.604322e+01  -7.332233e+01
   9.018334e+01   1.075355e+02
  -9.304420e+01   1.576592e+02
  -2.828086e+02  -2.010113e+01
  -1.186057e+02  -2.020413e+02
   1.948296e+02  -1.704359e+02
   2.460032e+02  -6.137507e+01
   1.495166e+02   1.203367e+02
  -6.467957e+01   1.614589e+02
  -1.499527e+02   2.549843e+02
  -3.144581e+02   1.220951e+02
  -2.120464e+02  -1.226096e+02
  -3.927388e+01  -2.896361e+02
   9.372064e+01  -2.331500e+02
   9.376051e+01  -1.340738e+02
   6.608767e+01  -2.215141e+01
   4.498972e+01  -5.875573e+01
   1.434554e+02  -6.381806e+01
   2.065322e+02   2.848683e+01
   9.776084e+01   2.172759e+02
  -4.973022e+01   1.971502e+02
  -1.766143e+02  -1.829470e+00
  -1.199355e+02  -2.209847e+02
   1.412946e+01  -2.577322e+02
   2.084160e+02  -1.014284e+02
   2.639715e+02   1.242017e+02
   1.132065e+02   2.117733e+02
  -5.194434e+01   2.624588e+02
  -1.732501e+02   9.472265e+01
  -1.654923e+02   2.509670e+01
  -7.452983e+01   2.668118e+01
  -2.162277e+02   2.345034e+01
  -3.395351e+02  -8.957065e+01
  -2.496782e+02  -2.758218e+02
  -2.896889e+01  -3.474846e+02
   3.102501e+02  -2.748035e+02
   4.272615e+02  -1.078192e+02
   2.564390e+02   3.818093e+01
   2.536868e+01   2.192575e+02
  -8.060772e+01   1.813982e+02
  -9.415173e+01   2.286617e+01
   6.533945e+01  -8.368024e+01
   1.656626e+02   2.275803e+01
   2.173275e+01   1.553468e+02
  -1.586179e+02   1.370296e+02
  -1.425714e+02  -1.637400e+01
   3.699190e+00  -1.462709e+02
   1.804592e+02  -9.210057e+00
   1.278030e+02   1.615536e+02
  -4.583151e+01   2.301731e+02
  -2.247731e+02   1.696461e+02
  -2.784991e+02  -8.840957e+01
  -1.955415e+02  -2.515847e+02
  -1.162257e+02  -2.088710e+02
   8.105819e+01  -1.086089e+02
   1.544129e+02  -2.528769e+01
   4.885329e+01   1.667309e+01
  -4.767749e+01  -4.671392e+01
  -2.945285e+01  -8.850855e+01
   1.062642e+02  -7.004369e+01
   1.527455e+02   2.264689e+01
   7.261010e+00   3.433371e+01
  -5.975902e+01   4.008034e+00
  -5.619810e+01  -7.929110e+01
   1.086463e+02  -3.272145e+01
   2.138017e+02  -2.946170e+00
   2.028389e+02   1.510755e+02
   2.698310e+01   2.058978e+02
  -1.747354e+02   1.846446e+02
  -1.783220e+02   6.414998e+01
  -1.511032e+02  -3.764406e+01
   3.130705e+01  -1.154140e+02
   7.209283e+01  -1.807898e+00
  -5.468104e+01   5.932096e+01
  -1.441926e+02   8.364135e+01
  -1.661508e+02  -8.674430e+01
  -6.291635e+01  -1.462657e+02
   6.257969e+01  -1.164149e+02
   1.271114e+02  -4.111765e+01
   3.623289e+01  -3.984878e+00
  -3.754794e+01   3.680596e+01
  -2.232361e+01  -4.694563e+01
   6.820677e+01  -6.770734e+01
   1.762733e+02  -2.132279e+01
   1.489557e+02   8.067348e+01
  -4.956296e+00   1.679345e+02
  -1.718181e+02   1.672513e+02
  -1.610438e+02  -1.716552e+01
  -3.884797e+01  -1.214585e+02
   5.992610e+01  -1.205326e+02
   7.449421e+01  -1.843053e+00
  -5.259582e+00   2.926092e+01
  -1.454628e+01   1.564952e+01
   1.241406e+01  -9.378842e+00
   5.590447e+01   3.932461e+01
   6.860736e+01   7.984821e+01
  -2.926741e+01   1.306302e+02
  -1.052064e+02   1.079982e+02
  -2.224063e+02  -8.641300e+00
  -1.759295e+02  -1.091100e+02
  -5.294750e+01  -1.911746e+02
   7.630545e+01  -1.116399e+02
   1.312646e+02  -2.309306e+01
   6.330564e+01   7.477967e+01
   2.830353e+01   5.589172e+01
   5.194197e+01   2.725073e+00
   6.097895e+01  -1.757412e+00
   3.319324e+01   3.888443e+01
  -5.529474e+01   5.971697e+01
  -1.288717e+02   6.367028e+01
  -4.597802e+01  -3.726633e+01
   1.320267e+01  -8.291501e+01
   1.484399e+02  -6.247808e+01
   1.690896e+02   7.894478e+01
   6.609131e+01   1.502043e+02
  -6.073395e+01   1.786189e+02
  -2.048572e+02   4.601335e+01
  -2.217512e+02  -9.851108e+01
  -8.180099e+01  -1.372719e+02
   1.149268e+01  -1.263440e+02
   5.295390e+01  -7.841967e+01
   8.502524e+01  -6.046743e+01
   4.926317e+01  -3.478025e+01
   9.130432e+01  -5.900304e+01
   6.949645e+01   3.764859e+01
   8.623602e+01   1.129689e+02
   1.436660e+01   1.759572e+02
  -8.459928e+01   1.228209e+02
  -1.490984e+02   1.951900e+01
  -8.628273e+01  -1.125034e+02
  -4.809344e+00  -1.234490e+02
   2.656682e+01  -7.691615e+01
   4.517947e+01  -2.840011e-01
  -2.380480e+00   2.785329e+01
  -8.263760e+00   2.079775e+01
   3.162575e+01   9.934109e+00
   5.097711e+01  -5.637329e-01
   2.611363e+01   1.606004e+01
  -7.247734e+01   4.346551e+00
  -1.117885e+02  -1.806818e+00
  -9.985598e+01  -5.789582e+01
  -1.087645e+01  -4.590366e+01
   8.025036e+01  -4.144666e+01
   1.135384e+02  -1.542226e+01
   4.567783e+01   2.210028e+01
  -7.280531e+01   3.705548e+01
  -5.093864e+01  -5.072853e+01
  -1.210788e+01  -7.763067e+01
   6.797963e+01  -5.107259e+01
   4.539596e+01  -1.650149e+01
   1.589217e+01   1.951222e+01
  -2.433951e+00   3.988213e+01
   7.342460e+01  -2.749826e+01
   4.195230e+01  -9.939042e-01
   1.800641e+01   8.486393e+01
  -3.564034e+01   9.071879e+01
  -1.149235e+02   9.692207e+01
  -1.249573e+02   1.208597e+01
  -8.360453e+01  -8.801709e+01
   1.000155e+01  -1.302678e+02
   7.569484e+01  -5.817027e+01
   2.329054e+01   1.171061e+01
  -6.417957e+01   2.240110e+01
  -7.775201e+01  -1.180228e+01
  -7.716970e+01  -1.294236e+02
   3.437123e+01  -9.127395e+01
   1.579164e+02  -8.564386e+01
   1.313939e+02  -4.338219e+00
   4.411810e+01   5.514983e+01
  -6.641964e+00   3.125922e+01
  -5.221423e+01  -3.727165e+00
   7.264188e+01   2.877888e+00
   7.833544e+01   2.730011e+01
   4.644357e+01   8.922339e+01
  -5.666397e+01   1.198805e+02
  -1.410898e+02   2.808111e+01
  -8.720104e+01  -1.145867e+02
   9.326529e+00  -1.464288e+02
   3.828069e+01  -7.971714e+01
   1.245425e+02   3.646615e+00
   4.112377e+01   1.058128e+02
  -1.693128e+01   9.632802e+01
  -3.794288e+01   2.176801e+01
   5.323991e+00  -2.045365e+01
  -2.663277e+00  -9.001650e+00
  -2.204632e+01   3.364954e+01
  -5.891307e+01  -1.388387e+01
  -5.799776e+01  -8.076786e+01
  -2.943739e+01  -7.733102e+01
   3.838558e+01  -3.126170e+01
   1.165483e+02   3.360552e+01
   9.168073e+01   7.453516e+01
   3.018615e+01   1.469780e+01
  -6.702339e+01   1.909678e+01
  -8.576723e+01   4.570435e+01
   7.205065e+00  -8.559313e+00
   4.478180e+01  -2.125850e+01
   1.014936e+01  -1.773851e+01
  -3.995455e+01   4.800347e-01
   1.802268e+01   3.175794e+01
   5.507074e+01  -3.658328e+01
   6.906550e+01   3.759991e+01
   2.610749e+01   7.107500e+01
  -1.230303e+02   9.090486e+01
  -1.171663e+02   3.155222e+01
  -9.999397e+01  -5.857094e+01
  -8.414246e+00  -1.457437e+02
   8.284261e+01  -7.672564e+01
   1.074958e+02  -6.413628e+01
   7.023343e+01   4.197158e+01
   3.622450e+01   2.225080e+01
  -4.927282e-01  -1.745322e+00
  -4.524093e+00  -3.241150e-01
   1.450467e+01   1.675142e+01
   1.040413e+01   2.583709e+01
  -5.930726e+01   6.276971e+01
  -6.036278e+01  -2.549245e+01
  -5.137271e+01  -6.716027e+01
  -7.045270e+00  -8.887420e+01
   7.134781e+01   7.116428e+00
   8.433686e+01   4.453941e+01
   9.670778e+00   7.474551e+01
  -4.195447e+01   3.817373e+01
  -4.511821e+01  -1.951708e+01
  -4.094906e+01  -6.131273e+01
   2.495256e+01  -7.038138e+01
   1.645384e+01  -2.291580e+01
  -3.385999e+01  -1.846867e+01
  -6.530081e+01  -8.428366e+00
  -1.455031e+00  -2.477519e+01
   4.804399e+01  -5.886504e+01
   1.022710e+02  -2.924866e+01
   5.842163e+01   5.923921e+00
  -1.687650e+01   6.603774e+01
  -4.974005e+01   6.373063e+01
  -5.548032e+01  -9.837923e+00
   3.475856e-01  -6.410269e+01
   3.751736e+01  -4.526127e+01
   5.270647e+01  -1.708127e+01
   1.665627e+01   3.832752e+01
   1.045393e+01   2.206849e+01
  -5.090695e+01  -4.474507e+01
  -1.955144e+01  -1.307376e+01
  -7.394645e+00   7.089622e+00
  -7.250566e+00   7.461807e+00
   3.458503e+01  -2.268947e-01
  -1.514906e+01  -3.605428e+01
   4.863427e+00  -5.433667e+01
   9.741044e-01  -3.073151e+01
   1.701650e+01   5.075671e+01
   2.132348e+00   4.813872e+01
  -4.624526e+01   2.152105e+01
  -5.184659e+01  -5.296325e+01
  -3.384507e+00  -4.656416e+01
   5.015938e+01  -3.040939e+01
   6.026207e+01   1.541141e+01
   5.143828e+01   5.592008e+01
  -2.408072e+01   3.293081e+01
  -4.247356e+01   3.880176e+00
  -1.164583e+01  -4.532458e+00
   7.747880e+01   3.260418e+01
   2.308743e+01   2.593988e+01
  -2.695688e+01   4.109339e+01
  -6.528971e+01   1.876889e+01
