
 $NMID
 id='ANONYMOUS ', fmtdat='(2E16.6)'
 volume=1.0
 tramp=1.0
 $END
  -3.593436e+03  -2.912274e+02
  -1.937372e+03  -1.912486e+03
   7.353842e+00  -2.376738e+03
   1.527017e+03  -8.642503e+02
   7.725635e+02   2.732429e+02
  -2.324213e+02   3.538926e+02
  -6.520375e+02  -1.499258e+02
  -1.525033e+01  -5.567934e+02
   6.190450e+02  -5.601128e+02
   8.163294e+02   1.956843e+01
   4.403238e+02   5.438898e+02
  -1.037470e+02   7.295350e+02
  -4.221023e+02   2.612237e+02
  -2.960434e+02  -4.975453e+02
   1.822908e+02  -5.945985e+02
   4.477408e+02  -2.063146e+01
   2.661799e+02   5.057587e+02
  -1.921283e+02   5.919347e+02
  -5.982555e+02   1.236695e+02
  -3.925657e+02  -2.373440e+02
  -4.475863e+01  -4.060483e+02
   1.652413e+02  -2.654166e+02
   1.713576e+02  -4.599542e+01
  -1.329948e+02   7.798155e+00
  -3.078552e+02  -1.865758e+02
  -6.433819e+01  -3.021720e+02
   4.623376e+02  -2.668794e+02
   6.604733e+02   8.469552e+01
   2.848674e+02   3.476771e+02
  -3.096017e+02   2.993827e+02
  -5.542562e+02  -9.929959e+01
  -3.140503e+02  -4.327335e+02
   2.343218e+02  -4.142073e+02
   5.003371e+02  -1.843674e+02
   3.865643e+02   1.402617e+02
   7.866702e+01   3.725916e+02
  -1.265880e+02   2.144829e+02
  -4.387550e+01  -1.507278e+02
   1.561708e+02  -2.618971e+02
   2.557036e+02   4.795083e+01
   9.111437e+01   4.659015e+02
  -2.248943e+02   5.763504e+02
  -4.094530e+02  -3.484444e+01
  -1.553293e+02  -4.605345e+02
   1.866300e+02  -1.772020e+02
   2.614428e+02   2.846254e+02
  -1.227186e+02   3.803882e+02
  -4.502773e+02   1.169472e+02
  -4.235141e+02  -3.651161e+02
  -1.720924e+02  -5.234082e+02
   3.638187e+02  -2.919317e+02
   5.661918e+02   4.684518e+01
   3.446171e+02   2.375263e+02
  -8.241365e+01   3.430073e+02
  -3.587015e+02   7.114674e+01
  -2.106911e+02  -1.152717e+02
   6.415060e+01  -5.838268e+01
   4.258577e+01   8.485780e+01
  -1.429592e+02   1.752743e+02
  -2.849798e+02  -6.491681e+01
  -1.137006e+02  -2.133412e+02
   2.128033e+02  -1.882596e+02
   3.339739e+02  -1.130327e+02
   1.843694e+02   8.713593e+01
  -4.923727e+01   2.472019e+02
  -2.334153e+02   2.767365e+02
  -3.641756e+02   1.609012e+02
  -1.983922e+02  -1.570505e+02
  -7.877961e+01  -3.575063e+02
   1.373902e+02  -3.418495e+02
   1.115291e+02  -1.461708e+02
   3.982033e+01  -2.707779e+01
   1.048808e+02  -9.032667e+01
   1.807210e+02  -9.140196e+01
   2.245056e+02   5.102279e+01
   1.632113e+02   2.316384e+02
  -7.628522e+01   1.732876e+02
  -1.530312e+02  -1.096535e+01
  -1.344532e+02  -2.320097e+02
   1.939304e+01  -1.969230e+02
   3.022065e+02  -4.914583e+01
   3.333261e+02   1.221864e+02
   1.927840e+02   2.847033e+02
  -1.003329e+02   2.869136e+02
  -1.912614e+02   1.351793e+02
  -1.545379e+02   7.392447e+00
  -1.189875e+02   5.087693e+01
  -2.431271e+02   1.906082e+01
  -3.834600e+02  -9.535906e+01
  -2.808921e+02  -2.744555e+02
  -2.826347e+01  -4.726013e+02
   3.265648e+02  -4.029290e+02
   4.886405e+02  -1.138997e+02
   3.087522e+02   5.552712e+01
   2.101179e+01   2.592883e+02
  -1.101166e+02   2.185811e+02
  -5.162373e+01   3.441528e+01
   1.020147e+02  -6.998321e+01
   1.567490e+02   3.510338e+01
   3.418864e+01   1.557818e+02
  -1.477527e+02   1.390034e+02
  -1.532688e+02  -5.955559e+01
   2.066730e+01  -1.511262e+02
   1.591914e+02  -1.700244e+01
   1.532337e+02   2.688495e+02
  -5.464823e+01   2.957839e+02
  -2.361615e+02   1.345450e+02
  -2.955404e+02  -5.701485e+01
  -2.273018e+02  -1.867974e+02
  -6.554364e+01  -2.678768e+02
   1.236932e+02  -1.387955e+02
   1.561700e+02  -2.050841e+01
   2.340156e+01   4.810735e+01
  -4.499437e+01  -6.535314e+01
   4.644114e+00  -9.844052e+01
   9.096425e+01  -6.701437e+01
   1.321801e+02   4.988222e+01
   6.123030e+01   5.585553e+01
  -4.385024e+01   1.368481e+01
  -6.070111e+01  -1.062362e+02
   1.082139e+02  -7.006554e+01
   2.553011e+02   1.666518e+01
   2.197245e+02   1.279837e+02
   1.494317e+01   2.072235e+02
  -2.003762e+02   2.168585e+02
  -2.601140e+02   1.065986e+02
  -1.499719e+02  -3.281242e+01
  -3.679531e+00  -1.010278e+02
   6.846571e+01   3.252099e+01
  -3.897898e+01   8.706044e+01
  -1.521734e+02   4.562747e+01
  -1.647944e+02  -1.081789e+02
  -6.112914e+01  -1.578707e+02
   8.793621e+01  -1.511845e+02
   1.395087e+02   8.926053e+00
   8.193918e+01   2.964824e+01
  -5.027113e+01  -8.089749e+00
  -4.062263e+00  -7.162764e+01
   1.015818e+02  -1.180021e+02
   1.745162e+02   2.612947e+01
   2.077454e+02   1.097040e+02
   2.078556e+01   2.029272e+02
  -1.516369e+02   1.669664e+02
  -1.715841e+02   9.577539e+00
   5.186451e+00  -7.566312e+01
   6.576022e+01  -1.098574e+02
   5.548594e+01  -1.033774e+01
   3.793591e+01   3.057869e+01
  -3.185856e+01  -2.078600e+01
  -2.339359e+00  -2.025776e+01
   8.576098e+01  -8.862049e-01
   7.898565e+01   9.701277e+01
  -3.606319e-01   1.498149e+02
  -1.338631e+02   1.165401e+02
  -2.305410e+02   2.020465e+00
  -1.776993e+02  -9.593886e+01
  -2.995125e+01  -2.515757e+02
   8.511761e+01  -1.220839e+02
   1.179641e+02  -5.777412e+01
   5.754719e+01   2.998103e+01
   2.241268e+01   5.781324e+01
   6.294925e+01  -2.157721e+00
   1.028303e+02  -3.171725e+01
   2.091147e+01   5.356976e+01
  -3.071697e+01   8.886335e+01
  -1.032695e+02   7.228794e+01
  -7.634605e+01  -2.914539e+01
   9.737359e+00  -9.774149e+01
   1.486845e+02  -7.078583e+01
   2.021110e+02   7.076130e+01
   8.355576e+01   2.175974e+02
  -1.326421e+02   1.895794e+02
  -2.470195e+02   1.575086e+01
  -2.155215e+02  -7.684567e+01
  -1.011894e+02  -1.445162e+02
   1.856656e+01  -1.236531e+02
   1.111331e+02  -8.957580e+01
   7.430322e+01  -4.546856e+01
   6.908642e+01  -9.198220e+01
   1.078154e+02  -6.818624e+01
   9.615680e+01  -9.348161e-01
   1.045755e+02   1.260573e+02
   4.792784e+01   1.827387e+02
  -8.156225e+01   1.643615e+02
  -1.328670e+02   1.741775e+01
  -1.311614e+02  -1.134410e+02
  -3.078380e+01  -1.596370e+02
   4.914263e+01  -6.785779e+01
   5.731564e+01  -1.077904e+01
  -1.975644e+01   7.710024e+00
  -4.563038e+01   3.378405e+01
   2.309338e+01   9.985259e+00
   8.597752e+01   1.548321e+01
   4.707070e+01   3.252444e+01
  -5.516265e+01   3.913830e+01
  -1.565707e+02   8.433432e+00
  -1.311682e+02  -6.629144e+01
   1.803455e+01  -5.639643e+01
   9.160684e+01  -8.002377e+01
   1.198205e+02  -2.035254e+01
   2.057610e+01   4.014628e+01
  -6.360092e+01   5.603759e+01
  -7.658844e+01  -4.194711e+01
   3.701081e-01  -4.737892e+01
   2.833293e+01  -5.583050e+01
   5.095609e+01  -6.962601e-01
   2.997997e+01   1.671302e+01
   1.424903e+01   2.509179e+01
   4.327453e+01  -1.083155e+01
   4.821584e+01  -3.735831e-01
   4.873589e+01   9.568784e+01
  -5.149775e+01   1.100204e+02
  -1.198452e+02   1.179042e+02
  -1.674008e+02   3.899315e+00
  -1.163367e+02  -9.900252e+01
   1.117854e+01  -1.154353e+02
   8.365650e+01  -7.500947e+01
   6.498108e+01   3.643488e+01
  -5.245628e+01  -2.738124e+00
  -1.466192e+02  -3.851236e+01
  -5.207506e+01  -1.063680e+02
   4.225577e+01  -8.291587e+01
   2.062927e+02  -5.239572e+01
   1.387642e+02   7.697707e+01
   5.628207e+00   1.107251e+02
  -8.126517e+01   3.882518e+01
  -3.503475e+01   8.464661e+00
   3.353789e+01  -2.964632e+01
   1.010825e+02   2.428599e+01
   2.357911e+01   9.720734e+01
  -8.150614e+01   1.325763e+02
  -1.942237e+02   3.870899e+01
  -9.995820e+01  -7.685956e+01
   5.081210e+01  -1.836814e+02
   1.005464e+02  -1.160731e+02
   1.272569e+02   4.182212e+00
   6.089203e+01   1.103115e+02
  -3.132867e+01   9.093264e+01
  -8.384653e+01  -8.871105e+00
  -5.517616e+01  -4.107068e+01
  -1.999770e+00  -4.379854e+01
  -3.846784e-01   3.592981e+01
  -5.703843e+01  -4.189548e+01
  -5.164172e+01  -7.001686e+01
  -5.143384e+01  -1.079422e+02
   4.447972e+01  -3.778993e+01
   1.240319e+02   5.982875e+01
   1.425053e+02   4.223605e+01
   9.671510e+00   4.858787e+01
  -9.621292e+01   8.769665e+00
  -6.797715e+01  -3.736168e+00
  -1.786584e+01  -2.760590e+01
   3.282835e+01  -8.679023e+00
  -2.684521e-01  -1.493096e+01
  -3.310564e+01  -5.601644e+00
   1.622853e+01   1.429663e+01
   6.852693e+01   2.166526e+01
   1.121127e+02   2.119580e+01
  -7.271336e+00   5.375063e+01
  -1.359190e+02   1.028062e+02
  -1.486588e+02   5.956897e+01
  -1.475684e+02  -7.869715e+01
   4.505226e+00  -1.362027e+02
   7.864725e+01  -1.289211e+02
   1.103080e+02  -6.142696e+01
   9.023715e+01   1.692303e+01
   1.745609e+01   3.924427e+00
   1.027377e+01   4.773774e+00
   8.669978e+00  -9.433952e+00
   1.187792e+01   4.107028e+01
   7.681546e+00   4.212837e+01
  -4.895660e+01   5.111144e+01
  -8.558785e+01  -1.484684e-01
  -7.491484e+01  -7.790808e+01
  -2.458247e+01  -1.034656e+02
   6.477289e+01  -2.266592e+01
   8.067305e+01   7.487754e+01
   2.155071e+01   5.173477e+01
  -4.323082e+01   5.523504e+01
  -1.085833e+02   3.179737e+00
  -3.295301e+01  -5.120638e+01
   1.050180e+01  -8.041118e+01
   2.567482e+01  -2.820056e+01
  -3.070441e+01  -1.072357e+01
  -6.017573e+01  -2.539980e+01
  -1.838200e+01  -2.515734e+01
   7.325334e+01  -6.687616e+01
   1.134911e+02  -2.410265e+01
   5.306763e+01   2.444593e+01
   6.648895e+00   7.376585e+01
  -6.258207e+01   5.003639e+01
  -5.200091e+01   1.191591e+01
   1.627968e+01  -4.890066e+01
   5.324806e+00  -3.041630e+01
   7.423656e+00   2.573376e+01
   2.513724e+01   4.942684e+01
  -2.705251e+01   2.493337e+01
  -3.763425e+01  -3.320810e+00
  -1.528335e+01  -2.959180e+01
  -3.302734e+01  -3.970267e+00
  -1.307402e+01   5.960678e+00
   1.498017e+01   1.790909e+01
  -5.857732e+00  -4.671023e+01
   1.754392e+01  -4.493023e+01
   1.470676e+01  -3.082438e+01
   2.185476e+01   5.386655e+01
  -1.271674e+00   7.316153e+01
  -3.574495e+01   2.098769e+01
  -6.934224e+01  -4.266478e+01
  -1.681363e+01  -6.069910e+01
   2.419357e+01  -1.942517e+01
   7.268791e+01   4.339259e+00
   3.966744e+01   3.655662e+01
  -2.040116e+01   1.317182e+01
  -7.454681e+01   1.819388e+01
  -4.099234e+01  -1.293301e+01
   3.204581e+01   7.060969e+00
   4.755829e+01   2.639073e+01
  -5.199796e+01   9.520996e+00
  -6.026411e+01   8.552530e+00
