
 $NMID
 id='ANONYMOUS ', fmtdat='(2E16.6)'
 volume=1.0
 tramp=1.0
 $END
   3.330006e+03  -3.187334e+02
   2.538930e+03   2.088705e+03
  -3.259169e+02   2.335857e+03
  -1.417382e+03   1.216339e+03
  -9.510370e+02   4.064111e+01
  -4.565296e+01  -4.406722e+02
   5.213113e+02  -8.901304e+00
   1.007529e+02   6.073579e+02
  -4.310755e+02   7.674440e+02
  -6.873451e+02   1.468784e+01
  -4.783852e+02  -4.507859e+02
  -3.982062e+00  -8.197676e+02
   4.762111e+02  -9.388883e+01
   3.685693e+02   5.370652e+02
  -4.837260e+01   7.376438e+02
  -5.239148e+02   1.203805e+02
  -3.498530e+02  -6.009130e+02
   1.504422e+02  -7.454736e+02
   4.728029e+02  -3.383548e+02
   4.031575e+02   1.975883e+02
   8.485957e+01   3.367553e+02
  -1.431306e+02   2.386525e+02
  -1.181030e+02   1.110112e+02
   9.968413e+01   4.669129e+01
   3.554613e+02   1.785662e+02
  -6.633188e+00   2.761219e+02
  -3.576570e+02   2.599633e+02
  -6.161991e+02  -6.968260e+01
  -2.196308e+02  -3.069507e+02
   2.553755e+02  -2.947238e+02
   5.531157e+02   2.583839e+01
   1.601391e+02   3.018023e+02
  -2.131860e+02   4.245457e+02
  -3.862261e+02   1.366186e+02
  -3.911620e+02  -1.598404e+02
  -1.134069e+02  -3.098497e+02
   9.508721e+01  -2.155022e+02
   1.197115e+02   9.910929e+01
  -1.020600e+02   2.257952e+02
  -2.625874e+02  -1.101078e+02
  -7.988219e+01  -5.156177e+02
   1.597947e+02  -6.834426e+02
   4.208403e+02  -7.152950e+00
   1.906346e+02   3.514805e+02
  -1.471713e+02   2.455183e+02
  -1.356272e+02  -2.074557e+02
   3.405982e+01  -3.764285e+02
   4.382684e+02  -9.363784e+01
   5.628243e+02   3.701495e+02
   9.838089e+01   3.985089e+02
  -3.149554e+02   3.170518e+02
  -5.049494e+02   4.159056e+01
  -3.515828e+02  -1.948093e+02
   2.579115e+01  -3.327227e+02
   3.532026e+02  -2.714441e+01
   1.387704e+02   3.543272e+01
  -3.682577e+01   5.575632e+01
  -1.036135e+02  -2.512720e+01
   8.265725e+01  -6.957927e+01
   2.643753e+02   3.046537e+01
   1.410941e+02   2.120851e+02
  -1.193281e+02   2.603349e+02
  -2.989271e+02   1.165277e+02
  -2.723996e+02  -4.906325e+01
   4.591984e+01  -3.204844e+02
   2.386803e+02  -3.541450e+02
   2.836727e+02  -1.993585e+02
   2.462130e+02   1.177885e+02
   1.171118e+02   3.986715e+02
  -7.993114e+01   3.413801e+02
  -3.376138e+01   1.785806e+02
  -5.357170e+01   6.542938e+01
  -9.824775e+01   6.407926e+01
  -2.281934e+02   1.078494e+02
  -2.377890e+02  -8.199627e+01
  -9.897714e+01  -2.201097e+02
   7.487788e+01  -1.741383e+02
   1.740601e+02   1.711963e+01
   1.538235e+02   1.959146e+02
  -2.798705e+01   2.733732e+02
  -2.062905e+02   1.001225e+02
  -3.061870e+02  -1.608554e+02
  -1.911980e+02  -3.516690e+02
   3.956573e+01  -2.294091e+02
   2.079620e+02  -1.754485e+02
   1.510435e+02  -6.887494e+01
   1.431079e+02  -4.794711e+01
   2.535908e+02  -6.697282e+01
   3.887992e+02   1.226323e+02
   2.904307e+02   2.135504e+02
  -1.893376e+01   4.008223e+02
  -3.431835e+02   3.767762e+02
  -4.253271e+02   2.025889e+02
  -2.873702e+02  -7.714774e+01
  -7.954391e+01  -2.322721e+02
   8.249676e+01  -2.045153e+02
  -4.360388e+00  -6.182052e+01
  -8.838166e+01   7.833166e+01
  -1.399328e+02  -3.137512e+01
   2.726583e+01  -1.423691e+02
   9.133850e+01  -1.324102e+02
   9.713099e+01   3.971531e+01
  -7.505395e+00   1.375358e+02
  -1.479391e+02   3.110575e+01
  -1.658010e+02  -2.566519e+02
   1.204328e+01  -3.222110e+02
   2.211076e+02  -2.186341e+02
   3.596033e+02   3.609698e+01
   3.299990e+02   1.861274e+02
   6.948915e+01   2.170190e+02
  -8.714322e+01   1.220080e+02
  -1.226242e+02   5.583347e+01
  -4.041716e+01  -3.926578e+00
   3.440724e+01   5.278730e+01
  -1.694120e+01   1.388067e+02
  -1.389261e+02   8.233288e+01
  -1.660445e+02  -2.157076e+01
  -2.444058e+01  -6.014768e+01
   7.292958e+01  -1.923865e+01
   3.986857e+01   6.774093e+01
  -1.300281e+02   9.497801e+01
  -2.694349e+02   7.753608e+00
  -2.293513e+02  -1.686154e+02
  -7.746135e+01  -2.223530e+02
   1.760181e+02  -2.393066e+02
   2.450216e+02  -8.546493e+01
   1.452723e+02   1.128994e+01
  -3.848585e+01   4.746965e+01
  -7.268486e+01  -4.771475e+00
   5.498550e+01  -9.205009e+01
   2.003104e+02  -5.965591e+01
   1.901043e+02   1.024247e+02
   5.276094e+01   2.078500e+02
  -7.612700e+01   1.476711e+02
  -7.899437e+01   1.944773e+00
  -1.533199e+01  -2.247526e+01
   3.903355e+01  -6.627410e+00
   1.552759e+01   8.756722e+01
  -8.781018e+01   1.187238e+02
  -1.815164e+02   4.588556e+01
  -1.899796e+02  -1.610631e+02
  -2.822930e+00  -1.728528e+02
   1.590599e+02  -1.752208e+02
   1.554291e+02  -2.628023e+01
   3.453857e+01   8.455743e+01
  -3.698235e+01   9.970349e+01
  -6.446730e+01   9.977407e+00
  -1.351288e+01  -2.144544e+00
   1.686321e+01  -3.545079e+01
  -1.079386e+01   4.357151e+01
  -7.276936e+01  -1.687517e+01
  -1.134262e+02  -1.070627e+02
   2.106807e+00  -1.799097e+02
   9.483216e+01  -1.883025e+02
   2.301776e+02   1.880527e+01
   1.599994e+02   1.532758e+02
   4.695855e+01   2.586480e+02
  -7.536804e+01   1.812478e+02
  -1.319530e+02   2.565844e+01
  -7.935767e+01  -5.249512e+01
  -2.407019e+01  -5.377876e+01
  -4.781871e+01   3.356019e+01
  -8.009379e+01   1.669722e+01
  -3.673537e+01  -8.640853e+01
   3.362445e+01  -8.941725e+01
   1.698217e+02  -2.453903e+01
   1.064698e+02   4.279275e+00
  -2.453352e+01   1.418055e+02
  -1.573391e+02   8.812209e+01
  -2.034586e+02  -5.965183e+01
  -6.858675e+01  -2.151347e+02
   1.538401e+02  -1.804521e+02
   2.694666e+02  -5.431093e+01
   2.257576e+02   5.473980e+01
   8.587765e+01   1.383284e+02
  -2.030164e+00   1.333443e+02
  -8.367775e+01   9.924905e+01
  -9.429084e+01   4.952848e+01
  -7.198665e+01   6.271986e+01
  -7.828847e+01   6.717855e+01
  -1.282933e+02  -1.732704e+01
  -1.350740e+02  -1.426371e+02
  -5.110294e+01  -2.172680e+02
   5.870765e+01  -1.582281e+02
   1.256369e+02  -1.906268e+01
   1.172273e+02   1.098214e+02
  -1.603413e+01   1.672584e+02
  -6.819349e+01   5.862056e+01
  -6.242581e+01  -1.204734e+01
  -1.943489e+01  -4.205032e+01
   1.036843e+01  -3.782201e+01
  -1.374793e+01  -2.997089e+01
  -6.302913e+01   1.203365e+01
  -8.145141e+01  -2.299563e+01
   5.822308e+01  -1.585366e+01
   1.660516e+02  -1.810989e+01
   1.266280e+02   4.151479e+01
  -1.260866e+01   8.492570e+01
  -1.149639e+02   5.897482e+01
  -1.590003e+02  -1.957313e+00
  -6.712256e+01  -2.420516e+01
   6.417124e+01  -3.285047e+01
   7.513527e+01   1.250909e+01
   2.815302e+01   9.699583e+01
  -7.088085e+01   8.590653e+01
  -4.934943e+01   2.719607e+01
  -1.966660e+01  -5.178837e+01
  -5.551298e+01  -5.924069e+01
  -6.003249e+01   7.991934e-01
  -6.241431e+01   1.465751e+00
  -2.012909e+01  -3.392318e+01
   2.113206e+01  -1.448533e+02
   1.038885e+02  -1.286399e+02
   1.645861e+02  -4.396412e+01
   1.386121e+02   9.962313e+01
   4.443846e+01   1.489630e+02
  -4.748561e+01   8.855419e+01
  -6.290775e+01  -7.403328e+00
   5.639224e+01  -3.416361e+01
   1.357868e+02   9.617614e+00
   1.100241e+02   9.172974e+01
  -9.077973e+01   8.203103e+01
  -1.992094e+02   3.365058e+01
  -1.320111e+02  -5.942997e+01
  -2.476576e+01  -9.312717e+01
   4.517845e+01  -8.102562e+01
   4.136762e+01  -2.700370e+01
  -2.453088e+01   5.315101e+01
  -1.023812e+02  -1.887275e+01
  -4.481219e+01  -1.232761e+02
   1.097633e+02  -1.796518e+02
   1.399119e+02  -7.888327e+01
   1.158808e+02   7.855555e+01
   2.502947e+01   1.749025e+02
  -8.338178e+01   1.576256e+02
  -9.749156e+01   9.400485e-01
  -4.286401e+01  -1.036856e+02
   6.651623e+00  -4.993798e+01
   4.915861e+01  -2.982384e+01
   4.108020e+01   3.309082e+01
   3.605630e+01   1.322168e+01
   1.386755e+01  -1.144773e+01
   4.684527e+01   1.989246e+01
   7.448516e+01   5.936795e+01
   4.701775e+01   1.180445e+02
  -3.064216e+01   3.865471e+01
  -1.415739e+02  -2.937306e+01
  -1.193293e+02  -6.181160e+01
  -3.738170e+01  -6.068468e+01
   9.875991e+01  -3.415207e+01
   6.451578e+01  -5.072228e+01
   2.534696e+01  -8.432621e+00
  -3.509709e+01   1.196371e+01
  -1.162017e+01   2.224715e+01
   2.213328e+01   1.547872e+01
  -2.043639e+01  -4.742098e+01
  -5.553086e+01   1.814675e+00
  -8.535040e+01  -1.244385e+01
  -9.272638e+00  -4.758448e+01
   1.178401e+02  -1.048792e+02
   1.848089e+02  -8.596755e+01
   1.526057e+02   8.205046e+01
   3.628420e+01   1.389343e+02
  -1.103175e+02   1.711281e+02
  -1.204929e+02   5.541608e+01
  -8.076157e+01   1.585479e+01
  -4.031654e+00  -3.835317e+01
  -2.926073e+01  -3.208119e+01
  -4.394705e+00  -2.739630e+01
  -3.589042e+01  -2.808152e+01
  -4.636452e+01  -6.561853e+01
   1.892724e+01  -9.964241e+01
   8.008734e+01  -1.447699e-01
   5.174227e+01   8.587072e+01
   8.542016e+00   9.285732e+01
  -7.529453e+01   3.608727e+01
  -8.773133e+01  -5.424714e+01
  -5.336480e+01  -1.317579e+02
   5.260302e+01  -6.944609e+01
   5.857706e+01  -1.256675e+01
   6.135151e+01   4.410777e+01
  -4.154395e+01   7.408376e+01
  -3.060184e+01   1.491946e+01
  -1.451572e+00   1.969002e+01
   6.986151e+01   1.067701e+01
   2.273837e+01   2.224988e+01
  -5.859601e+01   9.313841e+01
  -1.094149e+02   4.996489e+01
  -6.002001e+01  -3.478721e+01
   4.195694e+01  -8.931199e+01
   5.449363e+01  -8.010480e+01
   1.624512e+01  -2.537350e+01
  -1.938192e+00   4.959642e+01
  -3.036600e+01   3.310852e+01
  -2.665418e+01  -2.219622e+00
  -3.264587e+01  -2.047394e+01
   1.601774e+01  -5.626468e+01
   2.719351e+01   1.089094e+01
   2.376462e+01   3.037914e+01
   4.330824e+01   1.131480e+01
  -1.558094e+01  -3.183098e+01
  -2.176504e+01  -2.356137e+00
  -1.174283e+00   1.197153e+01
   8.787779e+00   3.853191e+01
  -2.752529e+01   2.636551e+01
  -4.422641e+01  -3.097713e+01
  -2.122613e+01  -6.594654e+01
   6.065161e+01  -2.904453e+01
   7.319406e+01   3.319859e+01
   2.522307e+01   8.648128e+01
  -3.927323e+01   1.655874e+01
  -8.859796e+01  -3.377660e+01
  -4.995287e+01  -4.584623e+01
   2.458764e+01  -3.147708e+01
   7.529731e+01  -2.806039e+01
   3.236546e+01  -2.413329e+00
  -1.357237e+01   1.658875e+01
  -3.014284e+01  -1.535830e+01
   1.365628e+01   1.681611e+01
   8.414381e+01  -5.540574e+01
