
 $NMID
 id='ANONYMOUS ', fmtdat='(2E16.6)'
 volume=1.0
 tramp=1.0
 $END
  -3.479909e+03   6.819394e+02
  -2.394320e+03  -1.877764e+03
   3.694601e+02  -2.102184e+03
   1.461734e+03  -1.422646e+03
   1.054889e+03   6.508020e+00
  -1.130980e+02   4.435571e+02
  -4.671964e+02  -5.168057e+01
  -1.679821e+02  -6.915060e+02
   5.150002e+02  -6.712924e+02
   7.108078e+02  -7.314484e+01
   4.573130e+02   5.286629e+02
   3.355356e+01   7.665484e+02
  -4.715967e+02   1.201600e+02
  -2.711043e+02  -6.361332e+02
  -1.862923e+01  -5.938334e+02
   5.222400e+02  -1.654290e+02
   3.902872e+02   5.687439e+02
  -1.442727e+02   7.133969e+02
  -5.060663e+02   3.772705e+02
  -4.201772e+02  -1.276963e+02
  -1.041597e+02  -3.193086e+02
   1.410677e+02  -2.224431e+02
   1.555051e+02  -1.108935e+02
  -8.130247e+01  -4.135430e+01
  -3.439133e+02  -2.035188e+02
  -5.947249e+01  -3.087223e+02
   3.702238e+02  -3.177900e+02
   6.061318e+02   4.550937e+01
   2.909348e+02   3.616322e+02
  -2.823841e+02   2.559803e+02
  -5.926314e+02  -3.350874e+01
  -1.892010e+02  -2.650490e+02
   1.789224e+02  -3.844930e+02
   3.523097e+02  -1.533317e+02
   3.772052e+02   1.293606e+02
   1.318524e+02   3.069329e+02
  -1.126868e+02   1.791636e+02
  -1.089626e+02  -7.919764e+01
   1.221633e+02  -2.495667e+02
   2.755695e+02   1.001292e+02
   1.190020e+02   5.337287e+02
  -1.287051e+02   5.901422e+02
  -4.550858e+02   5.373481e+01
  -2.858629e+02  -3.859426e+02
   1.344045e+02  -2.703596e+02
   2.250772e+02   1.882470e+02
  -8.613700e+01   4.018363e+02
  -4.674680e+02   1.147636e+02
  -5.599479e+02  -3.165993e+02
  -1.323367e+02  -3.705569e+02
   2.312443e+02  -3.361851e+02
   4.822271e+02  -4.725625e+00
   3.392483e+02   2.400865e+02
  -1.438654e+01   2.309579e+02
  -3.384876e+02   1.230390e+02
  -1.674599e+02  -2.335597e+01
   3.690772e+01  -6.369542e+01
   8.503753e+01   7.480354e+01
  -7.373138e+01   1.019618e+02
  -2.598411e+02  -3.906803e+01
  -1.542848e+02  -2.130751e+02
   1.477309e+02  -2.599760e+02
   3.088389e+02  -9.775291e+01
   2.594851e+02   2.936197e+01
  -5.466419e+01   2.633540e+02
  -2.890726e+02   3.042786e+02
  -2.400826e+02   2.049665e+02
  -2.456600e+02  -1.149204e+02
  -1.143465e+02  -3.434305e+02
   5.356073e+01  -3.272461e+02
   3.899406e+01  -2.020678e+02
   4.871153e+01  -6.907327e+01
   1.133276e+02  -8.202270e+01
   1.882402e+02  -9.895929e+01
   1.978523e+02   5.985120e+01
   1.007144e+02   2.484343e+02
  -5.630806e+01   2.060413e+02
  -1.565428e+02  -1.889568e+00
  -1.506385e+02  -1.995957e+02
   4.259906e+01  -2.894590e+02
   2.092679e+02  -8.695063e+01
   3.288659e+02   1.746587e+02
   1.823045e+02   3.292351e+02
  -8.272198e+00   2.339825e+02
  -1.885391e+02   1.381600e+02
  -1.432352e+02   5.524691e+01
  -1.227924e+02   2.269753e+01
  -2.725321e+02   4.701397e+01
  -3.831325e+02  -9.483672e+01
  -3.067391e+02  -2.292341e+02
   6.875883e+00  -4.459350e+02
   2.952111e+02  -3.942820e+02
   4.582588e+02  -1.800042e+02
   3.053650e+02   6.198516e+01
   5.876806e+01   2.435073e+02
  -1.090049e+02   2.154031e+02
  -2.725142e+01   2.670962e+01
   7.324634e+01  -8.326433e+01
   1.707094e+02   3.529363e+00
   8.065311e+00   1.239276e+02
  -1.139986e+02   1.078829e+02
  -1.373639e+02  -1.671528e+01
  -2.018285e+01  -1.510304e+02
   1.794491e+02  -1.631771e+01
   1.509305e+02   2.135261e+02
   1.516342e+01   3.297811e+02
  -2.615200e+02   2.264170e+02
  -3.654408e+02  -3.899840e+01
  -3.293642e+02  -2.137274e+02
  -5.530462e+01  -2.978479e+02
   1.092353e+02  -1.654175e+02
   1.412325e+02  -2.124400e+01
   3.654356e+01   9.725637e+00
  -5.844701e+01  -6.036214e+01
   6.274154e-01  -1.366521e+02
   1.251092e+02  -6.051159e+01
   1.862148e+02   2.494640e+01
   2.614266e+01   7.533197e+01
  -9.022517e+01  -1.413567e+01
  -7.033006e+01  -6.444899e+01
   1.276622e+02  -1.105544e+02
   2.356217e+02   3.156916e+01
   2.188604e+02   1.150820e+02
   5.095450e+01   2.335631e+02
  -1.330205e+02   2.488349e+02
  -2.652801e+02   1.139849e+02
  -1.386084e+02  -3.074395e+01
   2.250525e+01  -7.097535e+01
   8.190424e+01  -7.883281e+00
  -2.750850e+01   8.484523e+01
  -1.966626e+02   4.870980e+01
  -2.192150e+02  -9.651279e+01
  -5.799327e+01  -2.154935e+02
   8.672544e+01  -1.617249e+02
   1.626833e+02  -3.409058e+00
   5.014101e+01   2.158160e+01
  -3.668994e+01  -3.093248e+01
  -3.050983e+01  -5.798486e+01
   4.922243e+01  -9.522854e+01
   2.398268e+02  -1.866984e+01
   1.742963e+02   1.372703e+02
  -1.078704e+01   2.178973e+02
  -1.641577e+02   1.691940e+02
  -1.792847e+02   1.890260e+01
  -2.839568e+01  -1.107531e+02
   6.023182e+01  -1.206267e+02
   5.680576e+01  -4.307981e+01
   1.172619e+01   1.098341e+01
  -3.161984e+01  -1.368611e+01
   2.221445e+01  -3.360091e+01
   8.697867e+01  -1.439827e+01
   1.160618e+02   8.614923e+01
   2.769583e+01   1.337489e+02
  -8.102622e+01   1.477338e+02
  -2.044122e+02   3.298586e+00
  -1.812802e+02  -1.774938e+02
  -5.222089e+01  -1.837572e+02
   1.188593e+02  -1.505711e+02
   1.189949e+02  -3.810255e+01
   6.042198e+01   4.681400e+01
   2.505595e+01   2.257671e+01
   3.310527e+01  -1.458855e+01
   7.659433e+01   1.320645e+01
   5.833077e+01   7.281146e+01
  -2.770869e+01   9.330596e+01
  -1.300497e+02   7.107723e+00
  -8.575872e+01  -2.750132e+01
  -1.377592e+01  -1.230448e+02
   1.555854e+02  -7.595266e+01
   1.850321e+02   2.484436e+01
   1.257410e+02   1.853101e+02
  -1.339311e+02   1.859414e+02
  -2.695641e+02   8.282873e+01
  -2.295985e+02  -4.426284e+01
  -7.322156e+01  -1.469470e+02
   1.875530e+01  -1.237571e+02
   8.258402e+01  -7.057530e+01
   9.172494e+01  -6.204729e+01
   6.206818e+01  -1.000859e+02
   5.748576e+01  -7.071293e+01
   9.187472e+01   2.747809e+01
   1.297670e+02   1.536456e+02
   3.279074e+01   2.275857e+02
  -5.586158e+01   1.462657e+02
  -1.520888e+02   4.115277e+01
  -1.080120e+02  -1.173100e+02
  -4.518714e+01  -1.441252e+02
   6.161694e+01  -8.104936e+01
   7.314353e+01   9.952689e+00
   1.392051e+01   4.349297e+01
   3.354079e+01   2.954357e+01
   3.921436e+00   1.393590e+01
   9.454268e+01   2.502097e+00
   6.422173e+01   8.768628e+00
  -5.991544e+01   4.305459e+01
  -1.438561e+02   8.602013e+00
  -1.245739e+02  -5.601947e+01
  -2.920772e+00  -8.758774e+01
   1.310109e+02  -7.659204e+01
   1.467396e+02   4.854835e+00
   4.616339e+01   5.430108e+01
  -6.700248e+01   4.779287e+01
  -8.909074e+01  -1.011764e+00
  -2.823969e+01  -7.550022e+01
   1.828997e+01  -3.300709e+01
   7.349195e+01   6.294040e+00
   4.773909e+01   6.239093e+01
   5.291251e+01   4.689842e+01
   5.549250e+01  -2.659776e+01
   8.701367e+01   4.571483e+00
   5.604568e+01   6.201231e+01
  -2.342163e+01   1.504109e+02
  -1.014403e+02   1.514553e+02
  -1.558089e+02   3.015714e+01
  -1.221681e+02  -8.404990e+01
  -6.717275e+00  -1.206006e+02
   6.217245e+01  -3.981560e+01
   6.316055e+01   1.095232e+01
  -4.826836e+01   1.396617e+01
  -1.168462e+02  -6.166089e+00
  -7.550449e+01  -1.078532e+02
   7.886147e+01  -9.969897e+01
   2.168526e+02  -4.091216e+01
   1.652006e+02   4.899186e+01
   2.301436e+01   7.280429e+01
  -4.934320e+01   5.339818e+01
  -1.929399e+01   1.815867e+01
   2.968066e+01  -4.024238e+01
   1.021705e+02   2.987700e+00
   2.289328e+01   1.145719e+02
  -9.240557e+01   1.750003e+02
  -1.372447e+02   8.404558e+01
  -9.674068e+01  -6.573496e+01
  -3.116828e+01  -1.816125e+02
   8.344051e+01  -1.350029e+02
   9.703728e+01   2.071226e+01
   5.555841e+01   1.227261e+02
  -1.263432e+01   7.731038e+01
  -6.895073e+01   3.760452e+00
  -3.962670e+01  -3.643933e+01
  -5.004230e+01  -2.011157e+01
   3.801281e+00  -4.091942e+00
  -5.066917e+01  -1.293385e+01
  -9.791232e+01  -7.184099e+01
  -5.521326e+01  -1.015805e+02
   6.698648e+01  -4.734960e+01
   1.542484e+02   3.976343e+01
   1.365741e+02   7.983569e+01
   2.213522e+01   8.611742e+01
  -9.539815e+01   3.059605e+01
  -8.769375e+01   3.926347e+01
  -1.903411e+01  -1.674821e+01
   3.154273e+01  -1.873536e+01
   2.564808e+01   8.689678e+00
   3.183679e+00  -3.348804e-01
   1.949265e+01   2.780727e+01
   4.007129e+01  -1.135753e+01
   9.587536e+01  -3.911046e+01
   7.524941e+00   9.908143e+01
  -1.249257e+02   1.210077e+02
  -1.848938e+02   5.267965e+01
  -1.570314e+02  -4.536492e+01
  -3.579199e+01  -1.595180e+02
   7.377055e+01  -1.239436e+02
   9.721954e+01  -5.053578e+01
   7.903274e+01  -1.937954e+01
   1.375523e+00   3.283146e+01
  -6.888399e+00   3.081781e+01
   1.891291e+01   1.027443e+01
   2.302999e+01   6.151604e+01
   2.991786e+01   9.386536e+01
  -4.207220e+01   8.856311e+01
  -5.951685e+01   1.711750e+01
  -8.788494e+01  -7.649736e+01
  -2.690671e+01  -1.253414e+02
   9.717184e+01  -4.823924e+01
   1.022905e+02   6.251098e+01
   4.155483e+01   9.445779e+01
  -6.979831e+01   8.071342e+01
  -1.052995e+02  -2.540338e+01
  -2.032231e+01  -4.716190e+01
   2.541763e+01  -3.243788e+01
   4.249136e+01  -4.247332e+01
  -1.951694e+01   4.877391e+00
  -6.250402e+01  -3.388294e+00
  -4.056432e+01   3.254895e-01
   7.297480e+01  -6.303929e+01
   1.024868e+02  -6.904611e+01
   6.824046e+01   2.338937e+01
  -5.180848e+01   8.900341e+01
  -5.744550e+01   9.819635e+01
  -2.486103e+01   2.448782e+01
   5.125967e+00  -2.995690e+01
   3.116428e+01  -4.989846e+01
   2.063831e+01   2.229615e+01
  -5.685451e+00   2.433979e+01
  -9.408915e+00  -5.187805e+00
  -7.064491e+01  -1.857847e+01
  -4.119376e+01  -6.135754e+01
  -3.298478e+01   4.675423e+00
  -2.579587e+01   1.269778e+01
  -1.217394e+01   3.059134e+01
  -4.905718e+00  -1.746185e+01
  -1.488279e+01  -4.412867e+01
   3.199423e+01  -2.200684e+01
   3.281593e+01   2.461817e+01
   4.600119e+01   5.039683e+01
  -4.207577e+01   1.665272e+01
  -5.306475e+01  -3.159672e+01
  -3.616709e+01  -6.515375e+01
   3.911853e+01  -2.034058e+01
   9.570749e+01   2.650892e+01
   3.424001e+01   1.970041e+01
  -3.347526e+01   4.678937e+01
  -7.323666e+01   3.177489e+01
  -2.198822e+01   1.117239e+00
   8.023888e+00  -2.938123e+00
   1.834899e+01  -1.221610e+01
  -2.169332e+01   1.461297e+01
  -6.384422e+01   3.808220e+01
