
 $NMID
 id='ANONYMOUS ', fmtdat='(2E16.6)'
 volume=1.0
 tramp=1.0
 $END
  -2.257635e+03   6.404280e+01
  -1.397000e+03  -1.443787e+03
  -4.002741e+02  -1.367020e+03
   7.272004e+02  -1.299633e+03
   8.461225e+02  -5.416133e+02
   2.789744e+02   1.884899e+02
  -2.168381e+02   1.415101e+02
  -7.089626e+01  -3.705683e+02
   3.008164e+02  -4.522446e+02
   4.958168e+02  -1.568275e+02
   4.418303e+02   3.689165e+02
   1.045313e+02   3.602349e+02
  -2.090037e+02   1.152508e+02
  -1.100412e+02  -3.150323e+02
   5.734751e+01  -3.711824e+02
   1.777899e+02  -9.318769e+01
   3.063761e+02   3.505558e+02
   9.434223e+00   4.604752e+02
  -2.858180e+02   2.704948e+02
  -3.644735e+02  -1.287932e+02
  -1.438484e+02  -3.365403e+02
   4.723826e+01  -2.493875e+02
  -1.883959e+01  -6.101878e+01
  -1.968729e+02  -1.354620e+02
  -1.833903e+02  -3.587870e+02
   3.049245e+01  -2.791849e+02
   2.780042e+02  -8.646083e+01
   4.164496e+02   1.735019e+02
   1.378645e+02   2.754071e+02
  -2.768559e+02   1.591377e+02
  -3.854565e+02  -1.001260e+02
  -1.795454e+02  -3.265054e+02
   1.915880e+02  -2.653619e+02
   3.393357e+02  -1.181738e+02
   2.615647e+02   6.914217e+01
   1.414704e+02   1.806092e+02
  -4.698686e+01   1.002533e+02
   1.421685e+02  -1.007584e+02
   1.963430e+02  -2.002024e+01
   1.229142e+02   2.029525e+02
  -2.316525e+01   3.509551e+02
  -7.696645e+01   2.756724e+02
  -2.280106e+02  -5.824462e+01
  -3.444310e+01  -2.861090e+02
  -2.321268e+00  -3.982254e+01
   1.217590e+02   2.326783e+02
  -7.321128e+01   3.173888e+02
  -3.355363e+02   2.663663e+01
  -3.830057e+02  -2.397292e+02
  -1.564859e+02  -5.077342e+02
   2.128163e+02  -1.504048e+02
   3.935595e+02  -4.352736e+01
   3.267648e+02   1.635374e+02
   3.238590e+00   1.503811e+02
  -2.543225e+02   6.861731e+01
  -2.146457e+02   6.103610e+01
  -5.897092e+01   8.579892e+00
  -1.573375e+01  -2.080014e+01
  -6.320288e+01   9.863849e+00
  -1.778024e+02  -2.959404e+01
  -1.553901e+02  -9.473276e+01
   1.386296e+02  -2.226673e+02
   3.032383e+02  -1.558383e+02
   2.438746e+02   7.190912e+01
  -5.381237e+00   3.089251e+02
  -3.088108e+02   3.499374e+02
  -2.961388e+02   1.126968e+02
  -2.223834e+02  -1.382768e+02
   8.825073e+00  -2.040388e+02
   6.394374e+01  -3.036738e+02
  -7.881195e+00  -1.341168e+02
   5.027339e+00  -1.268557e+02
   1.384480e+02  -1.360700e+02
   2.149831e+02  -3.188316e+01
   2.184793e+02   1.029481e+02
   4.281264e+01   1.800699e+02
  -5.589464e+01   1.050066e+02
  -1.664511e+02  -6.289657e+01
  -9.545109e+01  -1.981506e+02
   4.450656e+01  -1.649505e+02
   2.132891e+02  -3.217587e+01
   2.652771e+02   1.709254e+02
   1.462399e+02   2.253433e+02
  -2.658695e+01   2.124352e+02
  -1.017602e+02   1.794448e+02
  -1.286103e+02   8.783897e+01
  -1.330329e+02   8.806158e+01
  -2.439030e+02   6.416129e+00
  -3.547197e+02  -2.427952e+01
  -2.879965e+02  -2.751716e+02
   2.804078e+01  -4.298994e+02
   2.717880e+02  -3.442096e+02
   4.567844e+02  -6.766069e+01
   1.908930e+02   7.887833e+01
   6.543371e+00   1.938717e+02
  -6.794768e+01   1.812318e+02
   3.106880e+01   1.257080e+01
   1.042288e+02   2.842426e+01
   7.930079e+01   3.676315e+01
   2.311039e+01   1.153343e+02
  -8.095002e+01   4.827544e+01
  -7.660438e+01  -5.274381e+01
   1.282960e+01  -9.291401e+01
   1.468711e+02   3.423700e+01
   1.345508e+02   2.110869e+02
  -3.851634e+01   2.766281e+02
  -2.200778e+02   1.806312e+02
  -3.105079e+02  -4.407650e+01
  -2.160674e+02  -2.066425e+02
  -3.460738e+01  -2.981163e+02
   1.155233e+02  -1.098870e+02
   1.069872e+02  -2.512326e-01
  -3.127616e-01   3.508785e+00
  -3.758249e+01  -7.476717e+01
   1.501134e+01  -9.491280e+01
   1.189832e+02  -2.645834e+01
   9.842490e+01   2.776562e+01
   3.014845e+01   2.166911e+01
  -9.902600e+01  -1.057007e+01
  -4.060638e+01  -1.139361e+02
   1.382173e+02  -8.122708e+01
   2.553767e+02  -8.789537e+00
   2.705216e+02   1.372635e+02
  -8.817456e+00   2.068021e+02
  -1.680877e+02   2.125987e+02
  -2.516022e+02   1.121885e+02
  -1.005934e+02  -7.394281e+00
   3.111460e+01  -5.180191e+01
   6.972589e+01   8.547584e+00
  -5.820678e+01   4.203393e+01
  -1.181697e+02   1.540358e+00
  -1.280504e+02  -6.773407e+01
  -3.195867e+01  -1.482356e+02
   6.252988e+01  -8.664921e+01
   1.326282e+02  -1.084949e+00
   4.961763e+01   2.639662e+01
  -4.126726e+01  -4.133973e+01
  -1.977271e+01  -9.141212e+01
   1.111481e+02  -9.098356e+01
   1.982629e+02   2.449980e+01
   1.639436e+02   1.408296e+02
  -2.489459e+01   1.519170e+02
  -1.581624e+02   1.092878e+02
  -1.433410e+02   1.464062e+01
  -3.668381e+01  -9.738919e+01
   4.187046e+01  -6.929336e+01
   5.867050e+01  -1.052178e+01
   2.159088e+01   2.515397e+01
  -4.621601e+01   2.778024e+01
   3.132610e+01  -4.267082e+01
   9.187252e+01  -3.371319e+01
   9.964696e+01   8.469568e+01
   2.887703e+01   1.412769e+02
  -1.169239e+02   1.559289e+02
  -1.946116e+02  -6.369632e+00
  -1.184045e+02  -1.265564e+02
   1.809078e+01  -1.912007e+02
   7.632322e+01  -1.373172e+02
   7.709458e+01  -1.486020e+01
   6.231502e+01   4.238238e+01
   2.543413e+01   2.441780e+01
   3.763064e+01  -3.711599e+00
   6.673812e+01   7.027350e-01
   6.019016e+01   3.376689e+01
  -4.438000e+01   8.896296e+01
  -1.192261e+02   8.441069e+01
  -1.130920e+02  -3.230016e+01
   4.999951e+01  -1.030384e+02
   1.480385e+02  -7.185620e+01
   1.932605e+02   3.899855e+01
   6.143054e+01   2.090924e+02
  -1.311600e+02   1.885336e+02
  -2.727150e+02   3.255890e+01
  -1.926971e+02  -5.717490e+01
  -8.249778e+01  -1.575439e+02
   1.022236e+01  -1.192091e+02
   8.217285e+01  -6.653283e+01
   8.713631e+01  -6.019579e+01
   5.305952e+01  -8.361851e+01
   9.711658e+01  -7.434469e+01
   1.002019e+02   1.093259e+01
   1.256438e+02   1.112310e+02
   5.967824e+01   1.607373e+02
  -7.937083e+01   1.212661e+02
  -1.247286e+02   1.102505e+01
  -9.084679e+01  -1.032511e+02
  -1.183882e+01  -1.477380e+02
   5.220931e+01  -7.590158e+01
   7.243387e+01   1.812346e+01
   3.271566e+00   3.048961e+01
   9.702314e+00   2.829812e+01
   2.565548e+01   5.014844e+00
   6.034557e+01  -2.132720e+01
   6.079957e+01   2.733577e+01
  -8.405332e+01   3.500746e+01
  -1.619993e+02   1.723846e+01
  -1.193124e+02  -6.348663e+01
  -1.024510e+01  -7.298745e+01
   1.163749e+02  -5.157408e+01
   1.081919e+02   2.284938e+01
   3.724989e+01   3.625700e+01
  -6.933779e+01   6.279660e+01
  -5.938152e+01  -4.506091e+01
  -3.475854e+00  -3.904275e+01
   5.325216e+01  -3.191254e+01
   6.974381e+01  -3.980659e+01
   3.575710e+01   2.216638e+01
   4.249674e+01   3.669714e+01
   6.314798e+01   2.085437e+00
   8.472226e+01   7.025577e+00
   2.194574e+01   6.643338e+01
  -7.139830e+00   1.359675e+02
  -1.112064e+02   1.309077e+02
  -1.516035e+02   6.146476e+01
  -1.288353e+02  -7.207717e+01
   1.728926e+01  -1.366205e+02
   7.894039e+01  -5.045205e+01
   6.961019e+01   1.888491e+01
  -4.478219e+01   4.615380e+00
  -8.653577e+01  -1.428058e+01
  -5.999221e+01  -8.030379e+01
   6.781393e+01  -1.029676e+02
   1.502931e+02  -6.117315e+01
   1.413939e+02   3.605492e+01
   1.751588e+01   8.890734e+01
  -6.967641e+01   4.439322e+01
  -5.424891e+01  -9.487422e+00
   9.593452e+00  -1.256473e+01
   7.381318e+01   1.290250e+01
   2.362866e+01   5.911873e+01
  -5.163759e+01   1.209139e+02
  -1.286844e+02   7.633871e+01
  -1.210452e+02  -8.248288e+01
   3.845530e+00  -1.897457e+02
   6.611484e+01  -9.390955e+01
   1.128393e+02   1.362852e+01
   7.536527e+01   9.064897e+01
  -2.950190e+01   1.343514e+02
  -3.469747e+01   1.398575e+01
  -4.380046e+01  -3.841843e+01
  -4.333599e+01   7.139065e+00
  -3.825070e+01  -6.921039e-01
  -3.996653e+01  -1.505973e+01
  -3.274851e+01  -7.061794e+01
  -4.828493e+01  -6.403327e+01
   6.509386e+01  -3.192580e+01
   1.432148e+02   3.738940e+01
   8.897017e+01   6.946536e+01
   1.025554e+01   4.821032e+01
  -4.622452e+01   7.949955e+00
  -7.496785e+01  -5.931397e-02
  -3.878496e+01   2.938265e-03
   3.100800e+01  -1.794127e+01
   2.471536e+01   1.231950e+01
   6.909800e+00  -1.802651e+01
  -2.808183e+01   5.404899e+01
   3.761232e+01  -9.816184e+00
   9.177405e+01   2.280652e+01
   4.931358e+01   7.106098e+01
  -7.795129e+01   1.202382e+02
  -1.768274e+02   6.119326e+01
  -1.424894e+02  -6.817253e+01
  -4.568667e+01  -1.450458e+02
   3.284166e+01  -1.358367e+02
   8.988159e+01  -5.171311e+01
   8.482228e+01   3.353326e+01
   1.628830e+01   1.695716e+01
   2.225614e+01   1.383158e+01
  -1.536964e+01   1.342235e+01
   1.568454e+01   5.056806e+01
   5.648553e+00   7.119681e+01
  -3.433371e+01   8.116211e+01
  -6.582657e+01  -2.179247e+01
  -9.101108e+01  -9.194394e+01
  -2.111162e+01  -9.316845e+01
   7.399153e+01  -2.611805e+01
   1.187099e+02   6.025753e+01
   3.956651e+01   1.000877e+02
  -6.003817e+01   7.745860e+01
  -1.398992e+02  -6.466542e+01
  -5.220264e+01  -5.904274e+01
   4.114424e+01  -3.829287e+01
   5.766306e+01  -2.519617e+01
  -4.496706e+00   3.221176e+01
  -5.216971e+01   3.560188e+00
   2.256479e+01  -2.202705e+01
   5.520531e+01  -6.134029e+01
   1.397438e+02  -2.107454e+01
   4.306030e+01   1.813588e+01
  -1.493517e+01   5.635311e+01
  -5.966661e+01   4.075160e+01
  -3.907783e+01   3.439066e+01
  -2.324208e+01  -2.474550e+01
   1.854363e+01  -5.546291e+01
   3.972659e+01   2.584455e+01
   3.772438e+01   4.805571e+01
  -1.547460e+00   4.825019e+01
  -3.932621e+01   6.656008e+00
  -3.997086e+01  -3.486439e+01
  -2.215855e+01  -3.236658e+01
   6.244776e+00   2.252722e+01
   9.058179e+00   1.220099e+01
  -2.877516e-01  -3.155592e+01
   1.061692e+00  -6.431554e+01
   5.524733e+01  -2.019884e+01
   3.051123e+01   3.202484e+01
   2.481600e+01   5.506496e+01
  -4.297783e+01   2.069626e+01
  -3.995003e+01  -1.166985e+01
  -1.979644e+01  -1.877463e+01
   6.290015e+01  -2.090386e+01
   8.759693e+01  -6.185849e+00
   3.789863e+01   1.084737e+01
  -4.254518e+00   6.453215e+01
  -1.823855e+01   3.363027e+01
  -1.603430e+01  -4.914913e+00
   3.618663e+01   2.525446e-01
   2.816213e+01   8.075942e+00
  -3.171029e+01   3.104862e+01
  -9.200555e+01   1.954189e+01
