
 $NMID
 id='ANONYMOUS ', fmtdat='(2E16.6)'
 volume=1.0
 tramp=1.0
 $END
   1.977620e+03  -6.424512e+02
   1.362536e+03   4.039462e+02
   5.805886e+02   9.588099e+02
  -4.373025e+02   7.334359e+02
  -4.974223e+02   4.067523e+02
  -2.996189e+02   1.441660e+01
  -5.185060e+00  -2.517387e+01
   1.547661e+02   3.055029e+02
  -1.430595e+02   2.925085e+02
  -2.859572e+02   1.038761e+02
  -2.379205e+02  -2.155703e+02
  -2.195099e+01  -3.265266e+02
   9.597938e+01  -1.514860e+02
   1.278155e+02   2.430852e+02
  -8.137716e+00   2.524380e+02
  -1.913112e+02   6.261069e+01
  -1.625827e+02  -2.070784e+02
   7.727022e+01  -2.869338e+02
   1.779892e+02  -2.097286e+02
   2.562199e+02  -4.660486e+01
   1.191680e+02   1.446506e+02
  -6.467950e+01   1.090828e+02
   2.977029e+01   5.892072e+01
   1.466303e+02   4.997599e+01
   1.567103e+02   1.672619e+02
  -5.694031e+01   2.291356e+02
  -2.696114e+02   2.777929e+01
  -2.598606e+02  -1.428036e+02
  -1.403005e+02  -2.032962e+02
   1.759592e+02  -2.342115e+01
   2.573441e+02   1.608156e+02
   1.403603e+01   1.731937e+02
  -1.874487e+02   1.837537e+02
  -2.013060e+02   6.904991e+01
  -1.374876e+02  -8.211421e+01
  -4.758641e+01  -1.620646e+02
  -6.895312e+00  -8.352691e+01
  -9.307021e+01   7.247754e+01
  -7.434454e+01  -1.687447e+01
  -7.654693e+01  -1.279941e+02
  -4.180292e+01  -3.080897e+02
   1.553248e+02  -1.997219e+02
   1.967793e+02   1.345862e+01
   6.869490e+01   1.603329e+02
  -8.095991e+01   4.847720e+01
  -1.894727e+01  -1.248625e+02
   7.072831e+01  -2.157502e+02
   2.038375e+02  -2.025496e+01
   1.728701e+02   2.290480e+02
   9.959745e+01   2.519666e+02
  -1.390461e+02   1.151219e+02
  -2.905849e+02  -1.712574e+01
  -2.448118e+02  -1.490574e+02
  -1.844087e+01  -6.004838e+01
   1.524369e+02   1.244411e+00
   1.629279e+02  -5.106790e+01
   4.043124e+01  -2.759562e+01
   3.410500e+01  -5.946700e+00
   9.018587e+01  -3.266116e+00
   1.045924e+02   1.111897e+02
   9.974417e+01   1.336789e+02
  -5.101437e+01   6.853685e+01
  -2.026963e+02   8.654675e+01
  -1.613999e+02  -4.697863e+01
  -2.264469e+01  -1.768052e+02
   1.798961e+02  -2.476906e+02
   2.147439e+02  -1.246363e+02
   1.619842e+02   1.282721e+02
   4.528262e+01   1.798264e+02
  -4.075441e+00   1.291380e+02
   3.828134e+01   8.482729e+01
  -5.228905e+01   8.765362e+01
  -8.502920e+01   9.579155e+01
  -1.354009e+02   5.798954e+01
  -1.076873e+02  -7.129577e+01
  -2.005592e+01  -1.106649e+02
   7.874827e+01  -1.220901e+02
   9.086367e+01   9.705203e+00
   8.368567e+01   1.524879e+02
   4.449892e+00   1.468594e+02
  -1.459028e+02   9.461126e+00
  -1.493728e+02  -1.458163e+02
  -1.120275e+02  -1.312276e+02
   5.306830e+01  -8.274250e+01
   7.336303e+01  -8.053266e+01
   6.292833e+01  -3.032229e+01
   1.074019e+02  -6.764863e+01
   1.586305e+02  -2.934553e+01
   2.798618e+02   2.523199e+01
   2.194582e+02   9.499958e+01
  -5.658419e+01   2.568155e+02
  -1.669388e+02   2.525700e+02
  -2.545487e+02   9.962085e+01
  -1.292324e+02  -3.307543e+01
   9.586831e+00  -1.389562e+02
   1.582778e+01  -7.551607e+01
  -1.037438e+01   1.100573e+00
  -8.773597e+01  -3.000752e+01
  -3.630271e+01  -3.778065e+01
  -3.271693e+00  -3.435696e+01
   8.613994e+01  -4.553417e+01
   1.589253e+01   5.688443e+01
  -1.304328e+00   6.793122e+01
  -6.481206e+01  -1.498794e+01
  -5.536542e+01  -1.714445e+02
   1.771037e+01  -1.935187e+02
   1.536291e+02  -1.613417e+02
   2.499769e+02   5.447620e+01
   1.606134e+02   1.155489e+02
   7.253301e+00   1.601769e+02
  -7.426880e+01   7.469499e+01
  -3.127148e+01   1.716211e+01
  -4.957969e-01  -7.799363e-01
   5.486875e+01   5.844061e+01
  -2.068529e+01   6.445543e+01
  -8.760312e+01   6.580985e-01
  -8.189516e+01  -4.141339e+01
  -2.318325e+01  -1.588364e+01
   3.856695e+01   3.879831e+01
   4.343650e-01   2.953992e+01
  -7.098546e+01   5.310528e+01
  -1.566181e+02   1.282807e+01
  -1.690288e+02  -8.089687e+01
  -8.427604e+00  -1.838776e+02
   1.220806e+02  -1.319968e+02
   1.628194e+02  -8.238100e+01
   4.268791e+01   4.556799e+01
  -1.300418e+01   2.285665e+01
  -3.236832e+01  -1.244729e+01
   5.916873e+01  -1.978456e+01
   8.728606e+01  -4.128497e+01
   1.209754e+02   2.905689e+01
   2.048144e+01   9.302421e+01
  -2.185904e+01   2.421692e+01
  -6.279829e+01   3.751865e+01
   1.468226e+01  -1.443468e+01
   4.180864e+01   9.656542e+00
   1.077804e+01   7.329434e+01
  -5.674066e+01   8.525420e+01
  -1.615304e+02   4.274313e+01
  -9.485682e+01  -8.858101e+01
  -4.105392e+00  -9.485833e+01
   1.044509e+02  -6.885589e+01
   8.489001e+01  -1.444461e+01
   2.937831e+01   8.696513e+01
  -6.144657e+01   6.933053e+01
  -1.669111e+01  -4.336486e+00
  -2.577669e+01  -2.600790e+01
   1.628800e+01  -3.624717e-01
   1.345855e+01   2.311547e+01
  -4.545665e+01   2.124443e+01
  -7.931534e+01  -8.581482e+01
  -1.880771e+01  -1.031243e+02
   8.009723e+01  -1.105565e+02
   1.886830e+02  -3.849174e+01
   8.847998e+01   8.143566e+01
  -4.915181e+00   1.189091e+02
  -6.238731e+01   9.874465e+01
  -4.353104e+01   1.434822e+01
  -5.596448e+01  -3.198998e+01
  -1.621198e+01  -4.688069e+01
  -2.765375e+01   1.700481e+01
  -3.569276e+01  -2.271772e+01
  -2.380257e+01  -2.905169e+01
   3.352054e+01  -8.420363e+01
   9.569867e+01  -2.044149e+01
   1.008658e+02   1.924448e+01
   1.416967e+00   6.055399e+01
  -8.658297e+01   8.394121e+01
  -1.456858e+02  -7.533653e+01
  -3.195857e+01  -6.626805e+01
   7.446615e+01  -1.962043e+02
   2.031307e+02  -3.631691e+01
   1.476827e+02   5.796720e+01
   8.055602e+01   7.990013e+01
  -1.766974e+01   8.196612e+01
  -6.225527e+01   7.360120e+01
  -8.181639e+01   2.626633e+01
  -2.768423e+01   6.214383e+01
  -5.831235e+01   4.544202e+01
  -9.226392e+01   5.707499e+00
  -3.676206e+01  -9.345179e+01
  -4.096838e+01  -1.429250e+02
   4.072067e+01  -1.266049e+02
   1.228607e+02  -6.469654e+00
   8.297954e+01   4.994805e+01
  -1.710731e+01   9.187536e+01
  -4.717815e+01   7.714703e+01
  -3.581857e+01  -1.522096e+01
  -8.694255e+00  -5.454547e+01
   3.143480e+01  -1.089632e+01
  -1.976988e+01   6.346918e-01
  -1.647470e+01   3.270749e+00
  -3.187996e+01  -3.239073e+01
   4.753796e+01  -6.710180e+00
   1.122404e+02  -4.231793e+00
   6.106451e+01   3.666534e+01
  -3.900453e+00   5.123488e+01
  -8.158688e+01   1.981986e+01
  -7.711444e+01  -6.299885e+00
  -5.479393e+01  -3.421795e+01
   4.623639e+01  -3.809620e+01
   2.896662e+01  -7.716436e+00
   1.007476e+01   4.387574e+01
  -5.915907e+00   3.848076e+01
  -1.596194e+01   2.553349e+01
  -4.847313e+01  -6.015192e+01
  -6.328012e+01  -2.915997e+01
  -5.478366e+01  -6.089705e+00
  -4.059515e+01   1.440068e+01
  -2.435410e+01  -4.089935e+01
   1.626935e+01  -9.446735e+01
   8.278205e+01  -6.124173e+01
   7.836696e+01  -1.954183e+01
   7.301184e+01   3.291930e+01
   4.038518e+00   1.156709e+02
  -5.426022e+01   5.815300e+01
  -9.068367e+00  -1.074999e+01
   1.169048e+01   2.049626e+01
   5.020016e+01   9.472687e+00
   3.977508e+01   3.863995e+01
  -6.583858e+01   7.286128e+01
  -8.286832e+01  -5.277059e+00
  -9.284272e+01  -3.982310e+01
  -7.793641e+00  -4.759146e+01
   3.166433e+01  -6.524898e+01
   2.018472e+01  -3.385999e+01
  -9.565345e+00   1.342283e+01
  -7.675062e+01   1.098691e+01
  -2.366739e+01  -7.267417e+01
   9.202344e+01  -1.038205e+02
   1.205563e+02  -3.830706e+01
   4.563480e+01   1.895579e+01
   4.324795e+01   1.207648e+02
  -3.160610e+01   6.413614e+01
  -8.975215e+01  -1.309388e+01
  -5.594328e+01  -7.462510e+01
  -1.788205e+01  -8.665239e+01
   4.026146e+01  -1.026053e+01
   9.385023e+00   1.655512e+01
   1.454028e+01  -6.907892e+00
  -2.579499e+01  -1.542389e+01
   1.923270e+01   2.950121e+01
   4.257107e+01   5.354410e+01
   2.757319e+00   5.947345e+01
   3.408881e+00   2.737297e+01
  -5.398514e+01  -4.664854e+00
  -7.326470e+01  -2.056546e+00
  -1.543823e+01  -1.101719e+01
   4.805281e+01   1.817915e+01
   4.745712e+01  -1.848275e+01
   7.475317e+00   9.754898e-01
  -2.589509e+01   1.430305e+01
  -1.937068e+01  -1.502846e+01
   1.142545e+01   9.863552e+00
   1.125382e+01  -3.714261e+00
  -4.341797e+01  -1.932871e+01
  -7.203456e+01  -3.464675e+01
  -3.018806e+01  -5.097846e+01
   1.785520e+01  -5.297506e+01
   1.161271e+02  -5.938515e+01
   8.638129e+01  -1.848013e+01
   3.093165e+01   1.054510e+02
  -2.580639e+01   9.157101e+01
  -5.257745e+01   7.298023e+01
  -5.849840e+01   8.712030e+00
  -1.740779e+01   1.280567e+01
  -3.757653e+01  -1.308877e+00
  -5.702427e+00  -2.498797e+00
  -1.615705e+01  -2.065035e+01
  -5.547615e+00  -3.450046e+01
   3.644970e+01  -4.056043e+01
   2.711642e+01  -1.443027e+01
   4.348766e+01   4.256230e+01
   3.392558e+01   5.774354e+01
  -2.457617e+01   2.843831e+01
  -6.663366e+01  -1.097639e+01
  -3.059893e+01  -6.904457e+01
   2.856367e+01  -4.309271e+01
   7.233621e+01   1.747783e+01
   3.993657e+01   3.436767e+01
  -4.902398e+01   3.842325e+01
  -2.065826e+01   3.027969e+00
   1.322534e+01  -1.384953e+01
   5.477216e+01  -2.973144e+01
   2.974733e+01  -5.762336e+00
  -1.884704e+01   5.748648e+01
  -5.459098e+01   9.055728e+00
  -4.267249e+01   1.024980e+01
   4.512414e+01  -6.687457e+01
   1.323819e+01  -2.518438e+01
   2.673710e+01  -1.666809e+01
   1.393759e-01   4.114043e+01
  -2.656722e+01   3.608793e+01
  -2.983959e+01  -2.431870e+01
  -3.196213e+01  -2.341145e+01
   2.034876e+01  -2.547882e+01
   2.142753e+01   2.026209e+01
   2.860862e+01   1.450932e+01
   1.454613e+01  -5.398555e+00
  -2.021713e+01  -3.922747e+00
   2.092371e-01  -1.149525e+01
   9.985467e+00   1.040445e+01
   2.171812e+01   3.474461e+01
  -1.074157e+01   1.643610e+01
  -4.774226e+01   4.172639e+00
  -2.648120e-01  -2.142550e+01
   2.632323e+01  -1.529776e+00
   4.735563e+01   1.483677e+00
   3.811511e+01  -1.271855e+01
  -4.716816e+01   2.343866e+01
  -2.651327e+01  -1.994878e+01
  -3.749850e+00  -2.851647e+00
   1.753529e+01  -2.756735e+00
   3.981039e+01  -8.412006e+00
   2.128651e+01   3.567495e+00
   1.582640e+01   8.015068e+00
  -2.133547e+01   4.760450e+00
   5.850728e+00   6.600975e+00
   2.230006e+01  -6.911064e+00
