
 $NMID
 id='ANONYMOUS ', fmtdat='(2E16.6)'
 volume=1.0
 tramp=1.0
 $END
   3.002311e+03   2.396760e+02
   1.696091e+03   1.664845e+03
  -1.245978e+01   2.064923e+03
  -1.194988e+03   1.211279e+03
  -9.747438e+02   1.098362e+00
   1.456976e+01  -3.314314e+02
   5.729796e+02   1.819150e+02
  -3.947954e+00   5.481828e+02
  -3.482239e+02   5.497449e+02
  -6.589746e+02   5.305015e+01
  -5.197298e+02  -4.968523e+02
   1.005077e+02  -6.730327e+02
   2.478151e+02  -1.577553e+02
   2.890989e+02   4.608168e+02
  -4.363740e+01   5.334647e+02
  -3.977410e+02  -5.481363e+01
  -3.212952e+02  -4.774411e+02
   1.408455e+02  -6.476139e+02
   4.688691e+02  -1.236447e+02
   4.036095e+02   2.002549e+02
   8.920446e+01   2.992349e+02
  -1.349788e+02   2.029134e+02
  -1.021518e+02   3.951482e+01
   1.082724e+02   5.883154e+01
   2.368865e+02   2.280861e+02
   5.681978e+01   3.022814e+02
  -3.743175e+02   1.574095e+02
  -6.054599e+02  -1.790650e+02
  -2.105298e+02  -2.714738e+02
   2.393295e+02  -1.028269e+02
   5.106091e+02   8.832585e+01
   1.758199e+02   2.614544e+02
  -2.687803e+02   3.517143e+02
  -4.556059e+02   8.969595e+01
  -3.212988e+02  -1.431599e+02
  -1.542056e+02  -2.978048e+02
  -5.406851e+00  -1.790927e+02
  -1.522737e+01   5.391017e+01
  -1.147671e+02   1.104825e+02
  -2.402447e+02  -9.735538e+01
  -1.135579e+01  -3.896754e+02
   3.358186e+02  -5.127970e+02
   3.626990e+02   5.406997e+01
   4.869334e+01   3.226613e+02
  -1.027698e+02   1.573624e+02
  -1.159742e+02  -2.305821e+02
   7.255266e+01  -3.093889e+02
   4.096509e+02  -1.999901e+01
   4.699145e+02   3.559902e+02
   1.414985e+02   4.595738e+02
  -3.198252e+02   2.298572e+02
  -4.517702e+02  -3.999500e+01
  -2.658383e+02  -1.879355e+02
   7.088700e+01  -2.516781e+02
   2.250840e+02  -5.679286e+01
   2.074141e+02   3.010666e+01
  -6.886482e+01   3.948360e+01
  -4.350428e+01  -6.513530e+01
   1.179196e+02  -5.787299e+01
   2.323257e+02  -1.153168e+01
   1.245484e+02   1.540993e+02
  -1.609747e+02   1.626171e+02
  -2.880168e+02   1.066184e+02
  -2.366328e+02  -9.766777e+01
   3.544955e+01  -2.561521e+02
   2.406649e+02  -3.303549e+02
   3.083720e+02  -1.490941e+02
   2.163547e+02   1.170334e+02
   3.705014e+01   3.104181e+02
  -6.906493e+01   2.910747e+02
  -3.143142e+01   1.072307e+02
  -4.716745e+01   8.204142e+01
  -8.592129e+01   8.972763e+01
  -2.339459e+02   4.910554e+01
  -2.208030e+02  -9.434458e+01
  -9.691501e+01  -2.385736e+02
   7.575669e+01  -1.745260e+02
   1.864563e+02   4.625639e+01
   7.541303e+01   2.360060e+02
  -5.666673e+01   1.873091e+02
  -2.782301e+02   6.031224e+01
  -2.911482e+02  -1.502177e+02
  -1.555096e+02  -2.712450e+02
   7.323314e+01  -2.473474e+02
   1.757566e+02  -1.162622e+02
   1.371144e+02  -3.266179e+00
   1.183928e+02  -6.859254e+01
   2.568328e+02  -4.038671e+01
   3.046645e+02   1.034080e+02
   2.672649e+02   2.459779e+02
  -4.622595e+01   3.817886e+02
  -3.376571e+02   3.286000e+02
  -4.503686e+02   1.536438e+02
  -2.647529e+02  -8.318386e+01
  -6.486099e+01  -2.885122e+02
   3.683080e+01  -1.828174e+02
   2.694768e+01  -3.690979e+01
  -1.014061e+02   3.789550e+01
  -1.444163e+02   6.203370e+00
  -3.035425e+01  -1.632068e+02
   9.265553e+01  -1.692858e+02
   7.151988e+01   5.819300e+01
  -1.361017e+01   1.156397e+02
  -1.412951e+02  -2.523733e+00
  -9.181407e+01  -1.788729e+02
   5.888272e+01  -3.247107e+02
   2.229390e+02  -1.599130e+02
   2.947578e+02   5.994033e+01
   2.347031e+02   2.437022e+02
  -8.472587e+00   2.211334e+02
  -1.180011e+02   1.487107e+02
  -1.417857e+02   3.770397e+00
  -5.247686e+01  -1.023414e+01
   3.125236e+01   8.250284e+01
  -3.287662e+01   9.211532e+01
  -1.214401e+02   3.740633e+01
  -1.396248e+02  -5.301205e+01
  -1.426064e+01  -4.188903e+01
   7.865031e+01  -4.724690e+00
   3.969210e+01   6.900349e+01
  -1.216825e+02   6.561487e+01
  -2.085588e+02  -3.888160e+01
  -2.131426e+02  -1.391553e+02
  -1.446981e+01  -1.853086e+02
   1.843037e+02  -1.700191e+02
   2.021245e+02  -9.430602e+01
   1.083041e+02   4.998815e+01
   5.072649e+00   7.372438e+01
  -5.158786e+01  -3.508092e+01
   2.920428e+01  -6.801109e+01
   1.593393e+02  -3.130629e+01
   1.260505e+02   4.960528e+01
   5.289805e+01   1.281468e+02
  -7.953917e+01   1.138425e+02
  -8.265826e+01  -6.457230e+00
  -3.523964e+01  -3.242843e+01
   3.257841e+01  -2.057353e+01
   2.002338e+01   7.756288e+01
  -7.705134e+01   1.332940e+02
  -2.082258e+02  -7.834456e+00
  -1.568280e+02  -1.218128e+02
  -2.538874e+01  -1.535984e+02
   1.441516e+02  -1.188271e+02
   1.224064e+02  -3.988522e+01
   1.584722e+01   7.273633e+01
  -7.052417e+01   6.914024e+01
  -6.376890e+01  -3.361141e+00
  -2.856387e+01  -2.957866e+01
   5.909040e+01  -5.373918e+00
  -2.004587e+01  -4.373391e+00
  -6.854296e+01   2.351990e+01
  -6.990595e+01  -7.573760e+01
  -2.310191e+01  -1.766861e+02
   1.316584e+02  -1.184942e+02
   2.071396e+02   8.615200e+00
   1.701179e+02   9.315170e+01
   3.643659e+01   2.212173e+02
  -7.723574e+01   1.172563e+02
  -1.211923e+02   3.272434e+01
  -4.246070e+01  -5.640155e+01
   1.301621e+01  -4.409233e+01
  -3.252043e+01   2.151006e+01
  -1.112986e+02   2.103049e+01
  -1.142780e+01  -6.654214e+01
   5.908653e+01  -8.621647e+01
   1.111060e+02  -6.913264e+01
   7.676445e+01   4.168162e+01
  -1.938365e+01   9.846183e+01
  -1.545667e+02   6.343799e+01
  -1.764398e+02  -3.967687e+01
  -4.063218e+01  -1.677527e+02
   1.415792e+02  -1.619811e+02
   2.327214e+02  -3.703602e+01
   2.036573e+02   4.793695e+01
   9.676458e+01   1.625871e+02
  -1.864349e+01   1.207242e+02
  -4.507146e+01   7.416397e+01
  -5.166677e+01   6.758773e+01
  -3.308712e+01   8.662694e+01
  -7.572403e+01   7.442881e+01
  -1.494578e+02  -8.935322e+00
  -7.917617e+01  -1.278996e+02
  -5.706022e+01  -1.823188e+02
   6.173093e+01  -1.118720e+02
   1.158643e+02  -3.506130e+01
   9.723979e+01   1.430514e+02
   7.586142e+00   1.611225e+02
  -7.564345e+01   6.943860e+01
  -3.304501e+01  -1.821512e+01
   1.217768e+01  -1.643653e+01
  -9.479139e+00  -4.887175e+01
  -2.393222e+01   5.315011e+00
  -6.595199e+01  -2.714631e+00
  -2.925993e+01  -3.388345e+01
   6.340788e+01  -2.774851e+01
   1.167398e+02  -1.123358e+01
   8.870302e+01   6.900540e+01
  -1.422120e+01   7.488400e+01
  -1.034430e+02   5.684946e+01
  -1.193038e+02   3.429457e+01
  -4.599136e+01  -5.872618e+01
   6.726915e+01  -6.470163e+01
   6.374771e+01   2.721610e+01
   1.685692e+01   6.715616e+01
  -3.914303e+01   2.994641e+01
  -2.779427e+01  -1.798068e+01
  -3.104894e+01  -4.315792e+01
  -1.724931e+01  -4.249146e+01
  -5.511390e+01  -3.096561e+00
  -4.923495e+01   1.939536e+01
  -6.162251e+01  -9.841925e+01
   2.439679e+01  -1.345476e+02
   1.167517e+02  -1.444389e+02
   1.752757e+02  -3.476662e+01
   8.470399e+01   1.255340e+02
  -1.205360e+01   9.544287e+01
  -7.418072e+01   6.745687e+01
  -6.672424e+01  -1.188151e+01
   6.399166e+01  -2.665659e+00
   1.139340e+02   3.100775e+01
   7.291938e+01   9.112984e+01
  -8.274729e+01   5.581824e+01
  -1.734574e+02   3.445378e+01
  -1.118240e+02  -6.238475e+01
   1.107575e+01  -7.929826e+01
   4.332612e+01  -5.146259e+01
   3.272639e+01   1.031813e+01
  -3.701971e+01   3.097930e+01
  -8.020541e+01  -4.162646e+01
  -3.133831e+01  -9.370077e+01
   8.887910e+01  -1.100748e+02
   1.468534e+02  -4.918343e+01
   6.405862e+01   9.092213e+01
  -3.007456e+01   1.315990e+02
  -9.181047e+01   1.272487e+02
  -1.037460e+02  -4.548530e+00
  -6.094366e+01  -1.144187e+02
   1.176277e+00  -8.896299e+01
   4.552067e+01  -1.932393e+00
   1.839651e+01   2.054924e+01
  -8.274160e+00   3.150976e+01
   2.017364e+01  -1.799675e+01
   4.679653e+01   5.511708e+00
   3.450946e+01   5.505950e+01
   1.152735e+01   1.139457e+02
  -5.258814e+01   2.727652e+01
  -1.136102e+02  -6.080499e+01
  -8.173959e+01  -5.663550e+01
  -5.347086e+00  -4.265727e+01
   8.266277e+01  -3.492038e+01
   8.523010e+01   7.149206e+00
   4.792919e+00   4.078593e+01
  -4.967862e+01   4.125780e+01
  -1.514179e+01   1.914011e+01
   1.447939e+00  -1.928832e+01
  -1.435026e+01  -2.051099e+01
  -5.311732e+01  -2.712588e+01
  -1.021444e+02  -2.394220e+01
   2.602398e+01  -5.287223e+01
   1.120364e+02  -1.237877e+02
   1.543531e+02  -4.119740e+01
   1.232168e+02   6.245733e+01
   1.589211e+01   1.575488e+02
  -5.918324e+01   1.226511e+02
  -9.233096e+01   6.042579e+01
  -1.040018e+02  -5.968414e+00
  -2.887958e+01  -2.391519e+01
   1.625506e+01   1.503282e+01
  -5.042154e+00  -3.511503e+00
  -2.797269e+01  -2.506930e+01
  -3.487913e+01  -8.552368e+01
  -9.046786e+00  -4.003504e+01
   8.810672e+01   4.444355e+01
   4.948901e+01   7.890564e+01
  -3.342479e+00   1.227966e+02
  -5.110730e+01   1.962775e+01
  -8.413617e+01  -8.098288e+01
  -3.146285e+01  -1.100122e+02
   4.874653e+01  -7.957279e+01
   9.012182e+01   5.718942e+00
   2.694804e+01   2.289750e+01
  -4.957300e+01   5.660517e+01
  -3.048298e+01   1.620976e+01
   3.432123e+01  -3.241860e+01
   7.868050e+01   9.979549e+00
   3.434308e+01  -4.004107e+00
  -7.149979e+01   5.641211e+01
  -9.917264e+01   3.126894e+01
  -4.581698e+01  -2.001128e+01
   8.874488e+00  -7.285156e+01
   5.000083e+01  -4.485087e+01
   3.641462e+01  -3.315565e+01
  -3.582005e+01   5.281915e+01
  -1.793396e+01   1.587006e+01
  -2.597977e+01   6.147596e+00
  -8.854756e+00  -6.280125e+01
  -2.170345e+01  -8.199812e+01
   1.755095e+01   1.983254e+01
   1.097746e+01   4.546563e+01
   2.094441e+01  -4.700391e+00
   3.368428e-01  -1.620182e+01
   1.530114e+01  -3.072688e+00
   3.195029e+00   4.533186e+01
  -5.894448e+00   6.090052e+01
  -3.166306e+01   4.294110e+01
  -3.389297e+01  -2.068783e+01
  -1.362927e+01  -5.646492e+01
   3.316744e+01  -1.858663e+01
   5.737200e+01   2.494943e+01
   8.846760e+00   3.838462e+01
  -6.350320e+01   4.132903e+01
  -8.755784e+01  -1.191884e+00
  -1.573758e+01  -3.595724e+01
   2.571526e+01  -1.471802e+01
   4.221203e+01  -1.596470e+01
   3.410483e+01  -1.763745e+01
  -3.951035e+01  -1.606851e+01
  -2.655549e+01   5.235214e+00
   4.989985e+01   6.244116e+00
   7.476099e+01  -3.370333e+01
