
 $NMID
 id='ANONYMOUS ', fmtdat='(2E16.6)'
 volume=1.0
 tramp=1.0
 $END
  -3.165856e+03  -6.749462e+01
  -1.908778e+03  -1.401116e+03
  -5.031474e+01  -1.955587e+03
   1.354243e+03  -1.377097e+03
   8.289716e+02  -6.172520e+01
  -4.510651e+01   3.045388e+02
  -5.229465e+02  -1.490385e+02
  -1.565342e+02  -5.461297e+02
   3.398136e+02  -6.765269e+02
   6.844376e+02  -6.575405e+01
   5.863901e+02   5.858902e+02
  -1.632857e+02   6.785599e+02
  -2.887526e+02   2.228547e+02
  -1.910742e+02  -4.209355e+02
   1.172966e+02  -5.730116e+02
   4.296429e+02  -4.374025e+01
   3.093680e+02   5.233187e+02
  -1.526317e+02   6.954202e+02
  -4.272332e+02   1.970785e+02
  -4.465657e+02  -1.931447e+02
  -1.248005e+02  -2.988366e+02
   1.206690e+02  -2.309137e+02
   6.768523e+01  -5.179783e+01
  -1.350428e+02  -5.754858e+01
  -2.807285e+02  -2.198935e+02
  -7.271241e+01  -3.436705e+02
   3.632147e+02  -1.785197e+02
   6.158639e+02   2.170566e+02
   2.472787e+02   2.830862e+02
  -2.550034e+02   1.482268e+02
  -4.668795e+02  -3.254080e+01
  -1.781248e+02  -2.760862e+02
   2.538476e+02  -3.405393e+02
   3.725381e+02  -1.185981e+02
   3.931932e+02   1.826877e+02
   1.325287e+02   3.795214e+02
  -3.064377e+01   1.597288e+02
  -1.214481e+01  -6.193232e+01
   8.068648e+01  -1.510544e+02
   2.234708e+02   1.038526e+02
   7.390075e+01   3.736030e+02
  -2.804083e+02   4.725620e+02
  -3.248353e+02   3.118432e+01
  -1.224526e+02  -3.100946e+02
   1.043748e+02  -2.421533e+02
   2.081045e+02   2.246850e+02
  -5.771728e+01   4.156711e+02
  -4.163882e+02   3.666540e+01
  -5.413663e+02  -3.235437e+02
  -1.382406e+02  -4.415331e+02
   3.000757e+02  -2.899374e+02
   4.812586e+02   4.857541e+01
   3.801380e+02   2.488712e+02
  -3.254048e+01   2.156618e+02
  -2.482939e+02   6.544712e+01
  -1.833669e+02  -2.610484e+01
   3.998392e+01  -3.376436e+01
   6.048766e+01   7.940655e+01
  -8.803046e+01   9.338826e+01
  -2.530623e+02  -1.549980e+01
  -1.085006e+02  -1.877104e+02
   1.389103e+02  -1.798643e+02
   2.768688e+02  -1.001371e+02
   2.389939e+02   8.064947e+01
  -5.988680e+01   2.374301e+02
  -2.386410e+02   3.034168e+02
  -3.585236e+02   1.697936e+02
  -2.317553e+02  -7.979855e+01
  -2.429146e+01  -3.432656e+02
   3.345381e+01  -2.757440e+02
   6.335293e+01  -1.258718e+02
   6.246839e+01  -7.402860e+01
   1.025118e+02  -8.191081e+01
   2.128465e+02  -5.016147e+01
   2.189870e+02   1.119897e+02
   9.251553e+01   2.587344e+02
  -7.400763e+01   2.212426e+02
  -1.951695e+02  -3.792757e+01
  -1.141621e+02  -2.036245e+02
   3.014033e+01  -2.047468e+02
   2.589387e+02  -4.319333e+01
   3.096560e+02   1.268178e+02
   1.726301e+02   3.161311e+02
  -2.441728e+01   2.500989e+02
  -1.738601e+02   1.102327e+02
  -9.716566e+01   6.588024e+01
  -1.112045e+02   7.208702e+01
  -2.539697e+02   1.043025e+02
  -3.056335e+02  -7.643660e+01
  -2.702307e+02  -2.940517e+02
   2.666654e+00  -4.047871e+02
   3.611043e+02  -3.901486e+02
   4.510640e+02  -8.725361e+01
   2.971205e+02   4.980726e+01
   6.209518e+01   2.887526e+02
  -4.478673e+01   1.993780e+02
  -3.423324e+00   4.378365e+01
   8.412059e+01  -3.746758e+01
   1.617832e+02  -1.757547e+01
   5.465069e+01   1.625282e+02
  -1.074835e+02   1.392121e+02
  -6.629959e+01  -9.260489e+01
   1.835045e+01  -1.216248e+02
   1.404820e+02  -3.358757e+01
   1.175672e+02   1.858920e+02
  -7.484918e+00   3.126400e+02
  -2.381039e+02   1.691202e+02
  -2.803432e+02  -4.204557e+01
  -2.877160e+02  -2.426854e+02
  -4.732131e+01  -2.166009e+02
   1.003144e+02  -1.414842e+02
   1.310843e+02  -1.723033e+01
   6.386375e+01   2.691255e+01
  -5.915997e+01  -6.737471e+01
  -6.212321e+00  -8.685374e+01
   1.036022e+02  -8.339826e+01
   1.448631e+02   1.876491e+01
   3.327339e+01   6.026778e+01
  -9.473414e+01  -2.180052e+01
  -5.476822e+01  -6.494064e+01
   1.080835e+02  -5.681285e+01
   2.258059e+02  -3.366386e+00
   2.253618e+02   1.620454e+02
   4.009690e+01   1.971070e+02
  -1.903906e+02   2.339547e+02
  -2.486648e+02   1.116248e+02
  -1.451217e+02  -1.255224e+01
   2.080768e+01  -9.376380e+01
   6.804577e+01   5.471359e+01
  -3.800573e+01   7.995517e+01
  -1.848694e+02   5.094796e+01
  -1.688450e+02  -8.558884e+01
  -8.032256e+01  -1.698588e+02
   7.309639e+01  -1.367063e+02
   1.209682e+02  -7.275884e+00
   4.818801e+01   5.772504e+01
  -4.489055e+01  -8.028796e+00
  -8.057601e+00  -8.605232e+01
   9.438983e+01  -1.139761e+02
   1.866149e+02   2.613284e+00
   1.728907e+02   1.244964e+02
   1.151807e+01   1.619793e+02
  -1.371657e+02   1.216317e+02
  -1.379556e+02   4.882985e+01
  -5.085539e+01  -7.334739e+01
   5.515965e+01  -7.485613e+01
   4.862545e+01  -1.712154e+01
  -1.293322e+00   6.915428e+00
  -3.108179e+01   5.821175e+00
  -6.709587e+00  -3.007160e-01
   1.141818e+02  -9.716726e+00
   1.051710e+02   7.977027e+01
   5.511933e+01   1.350580e+02
  -8.087402e+01   1.438311e+02
  -2.246476e+02   3.376474e+00
  -2.066533e+02  -1.415012e+02
  -2.713768e+01  -2.423676e+02
   7.782483e+01  -1.480714e+02
   1.388123e+02  -5.008082e+01
   7.512098e+01   4.835803e+01
   1.990939e+01   3.608912e+01
   7.275938e+01  -1.932604e+01
   9.520709e+01  -9.300264e+00
   3.229568e+01   2.976418e+01
  -5.636051e+01   9.166971e+01
  -1.047950e+02   2.575245e+01
  -1.087586e+02  -2.690652e+01
   2.576058e+01  -1.249075e+02
   1.341562e+02  -6.947480e+01
   2.058258e+02   3.500882e+01
   8.307277e+01   2.020455e+02
  -1.137640e+02   2.030019e+02
  -2.317876e+02   2.203252e+01
  -2.622942e+02  -7.866694e+01
  -9.211577e+01  -1.578612e+02
   3.412035e+01  -9.715123e+01
   8.006425e+01  -6.110699e+01
   7.944351e+01  -4.350295e+01
   4.250324e+01  -7.680187e+01
   8.649346e+01  -9.612842e+01
   1.170381e+02   2.005406e+01
   1.296142e+02   1.340692e+02
   4.869823e+01   1.898442e+02
  -5.905413e+01   1.585339e+02
  -8.917992e+01   3.137725e+01
  -8.628112e+01  -1.117515e+02
  -2.475006e+01  -1.566341e+02
   6.042145e+01  -7.034328e+01
   6.037398e+01  -7.431681e+00
   1.841304e+01   3.174269e+01
  -3.021592e+01   2.092422e+01
   2.647126e+01   1.315548e+01
   6.065122e+01  -3.236905e+00
   3.340679e+01   2.393042e+01
  -8.561352e+01   4.718233e+01
  -1.442663e+02  -3.931542e+00
  -1.451540e+02  -5.606198e+01
   3.024518e+01  -6.079282e+01
   1.229532e+02  -1.019918e+02
   1.322572e+02  -1.627862e+01
   4.873569e+01   4.293448e+01
  -4.147401e+01   1.110871e+01
  -6.592605e+01  -4.772312e+01
  -9.643186e+00  -7.611107e+01
   5.264753e+01  -3.395579e+01
   4.114002e+01  -2.619286e+01
   3.985488e+01   1.763977e+01
   5.805810e+01   7.519511e+01
   5.582148e+01  -8.370286e+00
   6.492563e+01  -3.572944e+00
   2.947742e+01   5.274946e+01
  -7.586493e+00   1.486542e+02
  -9.925196e+01   1.334522e+02
  -1.989850e+02   1.863039e+01
  -1.097303e+02  -9.186338e+01
   6.126175e+00  -1.203670e+02
   5.533645e+01  -6.902045e+01
   7.454738e+01   1.388721e+00
  -6.839834e+01   9.501564e+00
  -1.255306e+02  -4.664865e+01
  -6.119848e+01  -1.123993e+02
   9.464999e+01  -9.885849e+01
   1.913979e+02  -4.582868e+01
   1.036616e+02   5.253209e+01
   2.612425e+01   6.465660e+01
  -4.857218e+01   6.489355e+01
  -2.910778e+01   8.944355e+00
   4.401237e+01  -3.046974e+01
   6.750034e+01   2.163078e+01
   1.527957e+01   7.844425e+01
  -8.390207e+01   1.012634e+02
  -1.424048e+02   7.679051e+01
  -8.439589e+01  -6.995550e+01
   4.412370e+00  -1.503548e+02
   6.071706e+01  -1.345943e+02
   9.971156e+01  -7.670860e+00
   7.023133e+01   1.218428e+02
  -1.831107e+01   8.006171e+01
  -4.550864e+01   1.845064e+01
  -3.588587e+01  -3.015658e+01
  -2.082613e+01  -1.954984e+01
  -3.178389e+00   2.486904e+01
  -4.063242e+01  -2.393212e+01
  -2.829738e+01  -7.281691e+01
  -2.117522e+01  -8.866416e+01
   3.859081e+01  -4.988538e+01
   1.647370e+02   5.052765e+01
   1.135944e+02   6.612654e+01
   1.898229e+01   5.104831e+01
  -8.613284e+01   5.891030e+00
  -6.635197e+01   1.880270e+01
  -7.881381e+00  -1.471078e+01
   3.241670e+01  -4.643349e+01
   2.985958e+01   1.539777e+00
   6.341549e+00   2.299434e+01
   1.492840e+01   1.871834e+01
   3.207447e+01  -1.441346e+01
   6.282846e+01   1.183780e+01
  -4.822075e+00   8.541686e+01
  -1.096419e+02   9.262676e+01
  -1.775426e+02   3.435895e+01
  -1.322668e+02  -4.224326e+01
  -4.200382e-01  -1.103310e+02
   1.052472e+02  -1.387214e+02
   1.225588e+02  -6.767041e+01
   9.403683e+01   1.725056e+01
   1.516125e+01   1.803172e+01
  -5.696236e+00   1.809809e+01
   1.299578e+01   1.150577e+01
   1.382120e+01   1.720643e+01
   4.007060e+01   7.257038e+01
   1.427813e+01   6.976033e+01
  -8.247989e+01  -6.224001e+00
  -4.946402e+01  -9.917058e+01
  -6.194234e+00  -7.408115e+01
   7.455842e+01  -4.045131e+01
   8.695494e+01   6.430482e+01
   3.756485e+01   6.618664e+01
  -3.954349e+01   4.079039e+01
  -7.920244e+01   8.287758e-01
  -2.031322e+01  -2.708952e+01
   4.104809e+01  -4.720622e+01
   2.003156e+01  -2.018543e+01
  -2.561641e+01   1.185792e+01
  -8.814428e+01  -1.547299e+01
  -4.786071e+01   1.508479e+00
   6.845232e+01  -7.844722e+01
   8.323620e+01  -6.650346e+01
   5.224910e+01  -2.332817e+00
  -8.279766e+00   7.932656e+01
  -5.271608e+01   6.461797e+01
  -3.911894e+01   4.193671e+01
   1.082870e+01  -3.050682e+01
   1.606772e+01  -2.511733e+01
   3.446602e+01   5.472586e+00
   2.477423e+01   3.356117e+01
   1.128966e+01   4.296635e+01
   3.950755e+00   1.096345e+01
  -4.420751e+01  -2.365198e+01
  -1.163663e+01  -8.515586e+00
  -7.580871e+00   5.692829e+01
   4.520608e+00   1.938534e+01
   1.121542e+01  -1.169811e+00
   2.538459e+01  -7.409611e+01
   2.394993e+01  -2.491910e+01
   2.174347e+01   4.304104e+01
   1.584483e+00   5.826231e+01
  -2.293982e+01   2.209379e+01
  -4.169638e+01  -3.291522e+01
  -1.323908e+01  -4.178604e+01
   4.819553e+01  -6.611026e+01
   9.573412e+01   4.306108e+01
   4.242674e+01   6.957457e+01
  -2.709665e+01   3.144978e+01
  -5.997714e+01   1.245463e+01
  -3.294997e+01  -1.444825e+00
   4.009057e+01   1.199750e+01
   4.843388e+01  -1.556418e+01
  -5.014368e+01   2.699715e+01
  -7.682542e+01   9.934024e+00
