
 $NMID
 id='ANONYMOUS ', fmtdat='(2E16.6)'
 volume=1.0
 tramp=1.0
 $END
  -2.703638e+03   7.143145e+02
  -2.089031e+03  -1.253581e+03
   4.566070e+01  -1.651368e+03
   1.177682e+03  -1.430872e+03
   9.179355e+02  -3.960094e+02
   1.219060e+02   2.242198e+02
  -3.555984e+02  -1.514968e+02
  -1.356581e+02  -4.942224e+02
   4.187700e+02  -6.637862e+02
   5.208721e+02  -2.812372e+01
   3.296736e+02   4.907134e+02
   5.262242e+01   6.640657e+02
  -2.584326e+02   1.539412e+02
  -1.772907e+02  -2.956211e+02
   1.358861e+02  -5.689588e+02
   4.330833e+02  -1.154458e+02
   2.934479e+02   3.792650e+02
  -1.339713e+02   5.937377e+02
  -4.103397e+02   3.341067e+02
  -4.483070e+02  -7.865490e+01
  -1.667776e+02  -3.278980e+02
   8.916533e+01  -1.877746e+02
   9.672657e+01  -1.263504e+02
  -1.735457e+02  -5.110973e+01
  -2.280898e+02  -2.101089e+02
   5.488070e+00  -2.727921e+02
   3.084928e+02  -1.719391e+02
   6.077010e+02   1.691228e+02
   2.554249e+02   3.504386e+02
  -2.881751e+02   2.252500e+02
  -4.076198e+02  -4.753852e+01
  -1.833580e+02  -2.577491e+02
   2.063633e+02  -3.544902e+02
   3.651275e+02  -1.870967e+02
   3.345608e+02   1.340024e+02
   4.926826e+01   2.419963e+02
  -3.907836e+01   1.751390e+02
  -4.933530e+01  -4.771094e+01
   1.594209e+02  -1.728594e+02
   1.934161e+02   9.865501e+01
   5.040171e+01   4.492014e+02
  -2.235357e+02   3.939180e+02
  -2.711934e+02   3.365495e+01
  -1.525788e+02  -2.903227e+02
   1.315630e+02  -1.918487e+02
   2.239374e+02   2.118790e+02
  -3.093594e+01   3.293500e+02
  -3.815282e+02   2.205036e+01
  -4.040752e+02  -3.951666e+02
  -1.602432e+02  -4.317696e+02
   1.992411e+02  -3.261440e+02
   4.913038e+02   2.807017e+00
   3.691485e+02   1.899740e+02
   2.241326e+01   2.443210e+02
  -2.546742e+02   7.501401e+01
  -1.665236e+02   1.112379e+01
  -1.967777e+01  -1.636135e+01
   6.042886e+01   4.511743e+01
  -5.181634e+01   1.028232e+02
  -2.121263e+02  -2.621481e+01
  -1.311678e+02  -1.786261e+02
   9.914859e+01  -2.192310e+02
   3.055376e+02  -1.318872e+02
   2.840750e+02   8.850387e+01
  -5.039239e+01   2.872256e+02
  -2.400127e+02   3.203125e+02
  -2.657606e+02   2.062433e+02
  -1.987573e+02  -1.376276e+02
  -5.611860e+01  -3.093391e+02
   4.030233e+01  -2.848014e+02
   2.676240e+01  -1.705987e+02
   3.286748e+01  -8.667634e+01
   1.201997e+02  -8.975132e+01
   2.211446e+02  -6.909861e+01
   2.431103e+02   1.119343e+02
   1.660317e+01   2.555464e+02
  -1.236930e+02   1.900202e+02
  -1.674065e+02  -3.153627e+01
  -9.682910e+01  -1.941443e+02
   3.971260e+00  -2.445594e+02
   1.902912e+02  -2.037787e+01
   2.517651e+02   1.434492e+02
   1.412942e+02   3.296969e+02
  -1.787222e+01   2.403158e+02
  -1.739754e+02   1.440794e+02
  -1.438144e+02   1.055370e+02
  -1.134917e+02   4.896898e+01
  -2.323345e+02   7.282975e+01
  -3.356793e+02  -9.086250e+01
  -2.932808e+02  -1.891449e+02
  -1.603607e+01  -3.705265e+02
   3.273272e+02  -3.866379e+02
   3.768747e+02  -1.166614e+02
   2.310424e+02   7.262291e+01
  -5.923571e-01   2.233942e+02
  -6.749189e+01   1.857798e+02
   1.342487e+01  -2.090540e+00
   6.837664e+01  -6.959010e+01
   1.262801e+02   5.351877e+01
   3.007234e+01   1.473679e+02
  -1.037350e+02   8.348474e+01
  -1.063177e+02  -2.998276e+01
  -1.453529e+01  -1.059345e+02
   1.365390e+02  -1.414071e+01
   1.279259e+02   1.909270e+02
   1.450262e+01   3.023575e+02
  -2.047844e+02   1.792841e+02
  -3.346315e+02  -8.956933e+00
  -2.923344e+02  -2.208240e+02
  -8.229621e+01  -2.052822e+02
   1.209189e+02  -1.411447e+02
   1.386437e+02  -1.409470e+01
   5.859799e+01   2.868973e+00
  -8.212131e+01  -6.446476e+01
  -5.260915e+00  -1.302891e+02
   9.743970e+01  -9.768778e+01
   1.387723e+02  -1.636333e+01
   1.681001e+01   2.529044e+01
  -8.423401e+01  -2.035815e+01
  -6.429039e+01  -5.308331e+01
   1.012220e+02  -1.155801e+02
   2.741504e+02   1.607168e+01
   2.138502e+02   1.403282e+02
   5.038358e+01   2.316623e+02
  -1.836660e+02   2.729424e+02
  -2.598726e+02   9.832479e+01
  -1.484436e+02  -5.288145e+01
   1.831318e+01  -7.197264e+01
   6.577921e+01  -4.863980e+00
  -1.756379e+01   1.161559e+02
  -1.834308e+02   6.430860e+01
  -1.920154e+02  -8.589348e+01
  -8.845681e+01  -1.651595e+02
   9.072749e+01  -1.306163e+02
   8.645548e+01  -1.739329e+01
  -5.064294e+00   4.596773e+01
  -4.662515e+01  -2.627571e+00
  -6.256160e+00  -9.294027e+01
   9.001688e+01  -1.215080e+02
   2.147146e+02  -2.198592e+01
   1.584871e+02   1.463887e+02
   1.359424e+00   2.030131e+02
  -1.428099e+02   1.487264e+02
  -1.803052e+02   2.489503e+01
  -2.379091e+01  -8.911814e+01
   4.107587e+01  -9.778247e+01
   5.656651e+01  -1.927407e+01
  -1.811249e+01   1.218955e+01
  -1.910068e+01   1.128974e+01
   8.296441e-01  -1.681879e+01
   8.351589e+01  -7.800847e+00
   1.084170e+02   8.917904e+01
   2.661021e+01   1.406051e+02
  -1.288415e+02   1.288482e+02
  -1.509123e+02   2.230803e+01
  -2.003673e+02  -1.827348e+02
   2.097805e+00  -1.867920e+02
   9.463847e+01  -1.680730e+02
   1.320804e+02  -4.125974e+01
   7.346964e+01   3.673533e+01
   5.286301e+01   7.602691e+00
   5.983580e+01   9.673453e-01
   6.406964e+01   2.279044e+01
   5.742427e+01   2.743693e+01
  -1.303018e+01   1.054926e+02
  -9.944119e+01   3.184293e+01
  -1.130485e+02  -4.915997e+01
   2.146817e+00  -1.070281e+02
   1.567127e+02  -5.549013e+01
   1.891163e+02   4.246195e+01
   6.267501e+01   2.148399e+02
  -1.061652e+02   1.902161e+02
  -1.898131e+02   8.183559e+01
  -2.319214e+02  -5.790503e+00
  -6.713966e+01  -1.297746e+02
   2.518188e+01  -1.068531e+02
   7.646404e+01  -7.723169e+01
   4.982059e+01  -6.974607e+01
   3.219221e+01  -4.087902e+01
   4.967472e+01  -8.727168e+01
   1.035857e+02   1.171686e+01
   1.292095e+02   1.256776e+02
   9.354145e+01   1.928550e+02
  -8.227385e+01   1.664027e+02
  -1.627610e+02   1.501569e+01
  -1.151469e+02  -1.052273e+02
   7.692390e+00  -1.525386e+02
   7.787328e+01  -6.579355e+01
   5.906699e+01   2.242845e+01
   1.574801e+01   4.294012e+01
  -4.164577e+01   1.340943e+01
   3.409656e+01   1.327858e+01
   6.261820e+01   3.291986e+01
   7.004891e+01   1.816409e+01
  -7.955742e+01   4.333633e+01
  -1.535771e+02   8.327093e+00
  -1.365970e+02  -4.032202e+01
  -2.110283e+01  -7.841445e+01
   1.013028e+02  -5.693351e+01
   1.356440e+02   1.049805e+01
   6.362569e+01   6.413927e+01
  -3.674108e+01   4.249261e+01
  -8.016607e+01  -1.317671e+01
  -1.305210e+01  -7.282567e+01
   4.395989e+01  -7.607369e+01
   5.868327e+01   1.773409e+01
   2.887113e+01   3.218309e+01
   6.981600e+01   7.790970e+01
   3.396189e+01  -6.547201e+00
   8.240725e+01  -8.276971e+00
   1.117543e+01   8.880743e+01
  -4.650280e+01   1.439989e+02
  -1.052876e+02   9.108579e+01
  -1.752995e+02   4.180507e+01
  -9.829547e+01  -1.031659e+02
   9.762524e+00  -1.447024e+02
   5.830939e+01  -3.622577e+01
   6.358331e+01  -7.793554e+00
  -2.591981e+01   3.741464e+01
  -1.020905e+02  -5.904573e+01
  -5.631029e+01  -9.026228e+01
   6.006056e+01  -9.303211e+01
   2.017180e+02  -5.499851e+00
   1.003669e+02   5.204604e+01
   3.918239e+01   5.537497e+01
  -6.359844e+01   1.679453e+01
  -5.071638e+01   5.118523e+00
   2.049675e+01  -5.831468e+01
   8.989703e+01   2.462598e+01
   3.262501e+01   8.312713e+01
  -1.042776e+02   1.681835e+02
  -1.340211e+02   8.136579e+01
  -7.568499e+01  -9.327938e+01
  -6.564924e+01  -1.700755e+02
   1.074896e+02  -1.208902e+02
   6.371713e+01   1.597538e+00
   2.150714e+01   1.115722e+02
   1.083323e+00   6.909066e+01
  -4.388349e+01   2.039821e+01
  -7.582159e+01  -1.436659e+01
  -1.142989e+01  -3.562699e+01
  -1.375625e+00   1.820565e+01
  -2.622792e+01  -3.942134e+01
  -9.047129e+01  -8.652518e+01
  -5.297654e+00  -9.809950e+01
   3.953293e+01  -3.379672e+01
   1.332973e+02   8.419739e+00
   1.123911e+02   5.575111e+01
   9.122634e+00   4.373372e+01
  -9.528303e+01   2.842872e+01
  -6.673452e+01   1.898205e+01
  -1.552917e+01   1.643026e+01
   3.631582e+01   1.380235e+01
   1.215764e+01  -3.537424e+00
  -1.058238e+01  -6.159505e+00
   1.529908e+01   3.730614e+01
   4.635853e+01  -2.955562e+01
   9.366358e+01   4.091042e-01
   1.124769e+01   4.189438e+01
  -8.544764e+01   1.392786e+02
  -1.919712e+02   6.840627e+01
  -1.365452e+02  -6.525457e+00
  -4.701608e+01  -1.353253e+02
   1.005480e+02  -1.521563e+02
   1.209020e+02  -4.495995e+01
   8.432991e+01  -2.361131e+01
   1.894822e+01   3.517561e+01
   2.996898e+01   1.760476e+01
   2.678872e+01   2.101874e+01
   5.077716e+01   3.395370e+01
   3.168296e+01   7.446861e+01
  -2.640162e+01   6.183421e+01
  -5.980148e+01  -2.125383e+01
  -5.585597e+01  -8.718769e+01
  -4.476755e+01  -1.137751e+02
   7.634666e+01  -2.188354e+01
   1.036221e+02   4.271836e+01
   5.611662e+01   8.599628e+01
  -5.401414e+01   4.786172e+01
  -6.895957e+01   2.136275e+01
  -4.347513e+01  -4.141591e+01
   9.754816e+00  -6.392102e+01
   5.561939e+01  -1.990431e+01
  -2.395969e+01   2.179582e+01
  -5.453789e+01   1.496442e+00
  -1.304100e+01  -1.234298e+01
   7.733689e+01  -6.605338e+01
   9.071489e+01  -5.094151e+01
   6.467262e+01   1.207088e+01
  -3.135443e+01   7.140394e+01
  -5.884035e+01   8.225052e+01
  -7.487959e+00   1.619800e+01
  -1.819405e+01  -3.564063e+01
   3.449356e+01  -5.386764e+01
   3.464450e+01   2.311377e+01
   2.455278e+01   4.952149e+01
   2.132428e+01   7.009982e+01
  -4.566732e+00  -1.275455e+01
  -5.444068e+01  -2.339542e+01
  -3.429503e+01   1.238730e+01
  -1.469307e+01   1.555002e+01
   5.472729e+00   1.616662e+01
  -9.673132e+00  -3.817186e+01
  -9.098226e+00  -5.034981e+01
   3.428735e+01  -4.688090e+00
   4.647773e+01   9.425161e+00
   6.178003e+00   7.582676e+01
  -3.657145e+01   2.560092e+01
  -4.531874e+01  -1.279172e+01
  -4.506674e+00  -7.298064e+01
   4.428972e+01  -1.965891e+01
   7.427121e+01   1.207282e+01
   2.499933e+01   2.536499e+01
  -1.609875e+01   4.584181e+01
  -6.422253e+01   1.550841e+01
  -2.154888e+01  -8.158920e+00
   2.664961e+01   5.462127e-01
   8.619735e+00   3.428893e+00
  -3.674486e+01   1.829481e+01
  -6.774756e+01   1.531166e+01
