
 $NMID
 id='ANONYMOUS ', fmtdat='(2E16.6)'
 volume=1.0
 tramp=1.0
 $END
   2.238385e+03  -2.309846e+02
   1.431726e+03   6.249192e+02
  -7.856463e+01   1.158459e+03
  -7.738652e+02   8.317709e+02
  -5.990776e+02   2.685808e+02
  -1.182559e+02  -2.083281e+01
   1.984857e+02   2.874696e+01
   2.273761e+01   3.128075e+02
  -8.018201e+01   4.234346e+02
  -2.113533e+02  -2.669374e+01
  -2.714994e+02  -2.479676e+02
  -2.220212e+02  -2.905038e+02
   6.465553e+01  -1.587323e+02
   1.246437e+02   2.060559e+02
   1.133990e+02   2.993714e+02
  -1.755016e+02   1.266535e+02
  -1.464135e+02  -2.914858e+02
  -8.311056e-02  -3.863764e+02
   1.930027e+02  -1.661865e+02
   3.188140e+02   8.179833e+01
   1.177075e+02   1.689362e+02
  -1.231373e+01   1.473501e+02
   1.131589e+01   5.256711e+01
   1.854552e+02   1.183080e+02
   2.074137e+02   2.247016e+02
  -1.026998e+01   2.441521e+02
  -2.646043e+02   8.209415e+01
  -3.085784e+02  -7.304316e+01
  -5.695431e+01  -2.151685e+02
   1.202543e+02  -9.886058e+01
   2.591526e+02   2.063377e+02
   6.287580e+01   1.796542e+02
  -2.361492e+02   1.901702e+02
  -2.795386e+02   1.649761e+02
  -1.835328e+02  -6.603877e+01
  -1.868989e+01  -1.967357e+02
  -3.170233e+01  -1.042813e+01
  -6.239745e+01   6.917506e+01
  -7.894471e+01  -9.373142e-01
  -9.711002e+01  -1.162934e+02
   8.035638e+01  -3.310336e+02
   1.338498e+02  -2.319192e+02
   7.403808e+01   2.181625e+01
  -1.202408e+01   2.041441e+02
  -1.054999e+02  -1.747715e+01
  -1.308190e+02  -1.359299e+02
   3.800118e+01  -3.049010e+02
   2.827732e+02  -3.570071e+01
   2.216315e+02   2.009105e+02
   1.236310e+02   2.801584e+02
  -1.790886e+02   1.926506e+02
  -2.371436e+02  -2.200213e+01
  -2.662051e+02  -1.443416e+02
  -4.206821e+01  -1.136306e+02
   1.073040e+02  -6.040739e+01
   1.055738e+02  -1.277338e+01
   5.123109e+01   6.158356e+00
   6.697769e+00  -3.815858e+01
   6.652092e+01   2.704799e+01
   1.217297e+02   1.146786e+02
   9.418926e+01   1.128062e+02
  -5.815741e+01   1.369620e+02
  -2.177955e+02   1.316934e+02
  -2.154354e+02  -6.073116e+01
   2.824641e+01  -2.408833e+02
   1.605212e+02  -2.367614e+02
   2.393055e+02  -8.703564e+01
   1.388264e+02   1.479476e+02
   5.268746e+01   1.926099e+02
  -2.205304e+01   1.225487e+02
   2.714913e+01   8.441975e+01
  -1.478403e+01   7.878097e+01
  -8.896546e+01   1.088023e+02
  -1.644263e+02   2.227994e+01
  -1.300447e+02  -6.746600e+01
  -1.073782e+01  -1.201402e+02
   3.866464e+01  -1.255717e+02
   1.189671e+02   2.414151e+01
   3.737583e+01   1.936053e+02
  -1.031875e+01   1.263002e+02
  -1.440126e+02   1.134019e+01
  -1.621371e+02  -1.306419e+02
  -1.019753e+02  -2.293687e+02
   1.101538e+01  -1.197328e+02
   6.298975e+01  -1.022934e+02
   1.007374e+02  -9.053180e+01
   1.259107e+02  -6.716188e+01
   1.781124e+02  -5.439913e+01
   2.162925e+02   1.077918e+02
   2.328207e+02   2.491614e+02
   7.991431e+00   2.954079e+02
  -2.904504e+02   2.142309e+02
  -2.812590e+02   7.827668e+01
  -1.789013e+02  -8.347151e+01
  -3.361786e+01  -1.689629e+02
   4.417273e+01  -1.431909e+02
  -1.036645e+01  -3.063254e+01
  -9.790303e+01   4.610121e-01
  -5.139329e+01  -3.416740e+01
  -1.399975e+01  -9.939445e+01
   4.859748e+01  -4.948844e+01
   3.372828e+01   5.601891e+01
  -2.760879e+01   6.067318e+01
  -1.132958e+02  -8.062389e+00
  -2.337588e+01  -1.449465e+02
  -1.302489e+01  -2.036803e+02
   1.912047e+02  -1.373450e+02
   2.558515e+02   1.625189e+01
   1.922954e+02   1.196820e+02
  -2.957565e+00   1.746239e+02
  -6.921551e+01   9.790324e+01
  -1.026150e+02  -1.257009e+01
  -1.927783e+01   4.834666e+00
   2.269503e+01   6.399825e+01
  -3.960602e+01   5.962214e+01
  -8.018365e+01   2.365085e+01
  -1.025950e+02  -1.513270e+01
  -3.228452e+01  -3.665306e+01
   3.927211e+01  -1.217139e+00
   2.279783e+01   5.371404e+01
  -4.039475e+01   7.822408e+01
  -1.805579e+02   9.403266e+00
  -1.891163e+02  -1.452387e+02
  -4.161243e+01  -1.721538e+02
   1.332287e+02  -1.537086e+02
   1.563285e+02  -6.088932e+01
   7.110943e+01   1.054174e+01
  -5.454498e+01   2.542682e+01
  -5.980662e+01   4.229674e+00
   6.708993e+01  -3.090140e+01
   1.045464e+02  -4.452176e+01
   1.259599e+02   9.623168e+01
   2.228397e+01   9.555786e+01
  -3.904135e+01   5.286020e+01
  -7.382098e+01   2.055165e+01
  -7.149168e-01  -3.279214e+01
   5.481563e+01  -9.652281e+00
   1.727068e+01   1.138832e+02
  -2.308511e+01   8.296829e+01
  -1.524492e+02   5.304601e+01
  -9.890435e+01  -8.533501e+01
   5.191920e+00  -9.846038e+01
   8.686379e+01  -9.858600e+01
   1.207047e+02   4.215369e+00
   6.042683e+01   5.104052e+01
  -6.081321e+01   2.616560e+01
  -5.467023e+01   2.745673e+01
   1.671882e+00  -3.693026e+01
   5.512447e+01  -2.186533e+01
  -2.003195e+01   2.828868e+01
  -6.177724e+01   2.286089e+01
  -5.778633e+01  -5.812263e+01
  -1.671770e+01  -7.925710e+01
   1.007703e+02  -9.289961e+01
   1.654332e+02  -3.624626e+00
   1.014299e+02   8.191884e+01
  -2.816880e+00   1.411485e+02
  -7.984723e+01   1.078025e+02
  -1.141261e+02   2.955145e+01
  -2.802634e+01  -5.123368e+01
  -4.920909e+01  -1.036956e+01
  -2.930813e+01   4.619996e+00
  -4.178201e+01  -5.602307e+00
   2.796190e+00  -6.455167e+01
   4.365491e+01  -7.345665e+01
   6.470352e+01  -3.400867e+01
   8.701986e+01   4.026988e+01
  -2.364408e+01   9.579010e+01
  -1.072012e+02   7.001048e+01
  -1.535766e+02  -5.591004e+01
  -4.989112e+01  -1.371326e+02
   7.603229e+01  -1.707136e+02
   1.317913e+02  -4.189886e+01
   1.922316e+02   5.687101e+01
   1.072613e+02   7.573979e+01
  -4.761240e+01   1.043098e+02
  -4.333299e+01   7.501991e+01
  -7.056578e+01   5.241820e+01
  -5.412041e+00   3.144767e+01
  -7.322878e+01   6.284668e+01
  -7.487038e+01  -1.312963e+01
  -8.188002e+01  -1.096791e+02
  -5.206649e+01  -1.540529e+02
   4.479010e+01  -9.730516e+01
   1.163654e+02   2.421235e+01
   7.025377e+01   6.533434e+01
  -1.144703e+01   1.002126e+02
  -1.678037e+01   4.021206e+01
  -4.874503e+01  -1.074042e+01
   1.528724e+01  -4.128796e+01
   3.754548e+01  -4.335767e+01
   1.664741e+01  -1.980017e+01
  -4.891790e+01   7.461833e+00
  -8.732639e+00  -3.876622e+01
   3.536304e+01  -1.405654e+01
   1.166914e+02  -1.227162e+01
   9.709780e+01   3.616238e+01
   8.651663e+00   5.910538e+01
  -8.377775e+01   4.946192e+01
  -6.138144e+01  -1.431707e+01
  -5.869628e+01  -2.662300e+01
   3.185611e+01  -4.499444e+01
   2.946641e+01   3.545686e+01
   1.682920e+01   2.727535e+01
  -9.617778e+00   3.658548e+01
  -6.111625e+01   6.774618e+00
  -3.870277e+01  -4.384942e+01
  -5.813602e+01  -3.144647e+01
  -3.518064e+01   3.325565e-01
  -6.299209e+00  -1.271605e+01
  -2.346597e+01  -5.383952e+01
   9.326827e+00  -7.843565e+01
   9.249803e+01  -9.280964e+01
   8.993336e+01  -6.914753e+01
   9.474453e+01   4.937903e+01
  -1.902238e+00   7.432377e+01
  -4.272091e+01   5.154104e+01
  -1.164029e+01   1.095348e+01
   2.462075e+01  -3.905760e+01
   7.211662e+01  -1.760830e+01
   4.365783e+01   4.988888e+01
  -4.385077e+01   7.673745e+01
  -8.124105e+01  -1.822751e+01
  -7.679321e+01  -4.704393e+01
   3.506337e-01  -5.068194e+01
   2.460927e+01  -2.582062e+01
   1.289701e+01  -4.668990e+00
  -2.160686e+01   1.245045e+01
  -3.138462e+01  -5.070091e+00
  -8.873897e+00  -7.509975e+01
   4.906985e+01  -9.043161e+01
   1.039927e+02  -5.713817e+01
   9.769785e+01   2.753243e+01
   4.951869e+01   1.172885e+02
  -3.528831e+01   7.697433e+01
  -7.484326e+01  -3.596240e+01
  -3.446708e+01  -5.625339e+01
  -2.043437e+01  -8.653473e+01
   4.448555e+01   1.852241e+01
  -2.032853e+00   2.670412e+01
   8.224730e+00   1.627450e+01
   1.176674e+01  -2.125856e+00
   7.159735e+00   7.489844e+00
   5.031084e+01   5.466893e+01
   1.123577e+01   9.955933e+01
  -5.665564e+01   2.590349e+01
  -1.061370e+02   7.957425e+00
  -8.134646e+01  -3.146296e+01
  -6.719005e+00  -1.468259e+01
   3.886212e+01   3.629731e+00
   6.429660e+01   9.102853e+00
   2.759757e+01   2.363564e+01
  -5.125423e+00   1.723329e+01
  -9.421609e+00  -1.157839e+00
  -1.597506e+01   1.314338e+01
  -4.851901e+00   5.731598e+00
  -4.391415e+01  -2.948816e+01
  -4.331216e+01   5.822450e-01
  -3.600034e+01  -2.320972e+01
   5.582539e+01  -9.464460e+01
   1.036291e+02  -4.560698e+01
   1.063354e+02  -6.189125e-01
   3.186586e+01   7.044858e+01
  -2.375110e+01   1.139250e+02
  -6.338752e+01   8.267796e+01
  -4.298698e+01   2.004676e+00
  -1.743573e+01  -3.522877e+01
  -2.677006e+01   1.931015e+01
  -1.978549e+00  -1.186435e+01
  -4.406373e+01  -2.060052e+01
  -1.903120e+01  -5.429726e+01
   5.002901e+01  -3.210176e+01
   2.717781e+01   2.821315e+01
   4.862962e+01   4.965996e+01
  -1.242825e+01   7.538998e+01
  -4.375540e+01   4.857271e+01
  -8.104521e+01  -1.348504e+01
  -4.536125e+01  -7.690635e+01
   1.911389e+01  -4.641450e+01
   5.618823e+01   8.816344e+00
   3.521912e+01   3.486899e+01
  -4.324335e+01   2.821278e+01
  -3.291252e+01   1.642183e+01
   5.025475e+00  -2.590107e+01
   6.219300e+01  -1.334088e+01
   1.005101e+01   2.713003e+01
  -3.859664e+01   5.712688e+01
  -9.327172e+01   3.948615e+01
  -3.907572e+01   5.631479e+00
   1.668807e+01  -6.072226e+01
   2.836301e+01  -2.323049e+01
   2.486947e+01  -3.925278e+00
   2.948079e+01   1.373321e+01
  -1.878044e+01  -5.125040e-01
  -1.093695e+01  -1.139003e+01
  -2.920072e+01  -4.059450e+01
  -1.076861e+00  -2.411054e+01
   3.565286e+01  -1.793446e+00
   4.379469e+01  -5.511203e+00
  -2.664782e+00   4.614174e+00
  -3.450170e+01  -2.113305e+01
  -2.038540e+01  -4.749180e-01
   8.840962e+00   1.965994e+01
  -1.216256e+00   5.277450e+01
  -1.181200e+01  -1.907483e+01
  -1.659540e+01  -2.198505e+01
  -4.384440e+00  -3.510006e+01
   1.451069e+01  -2.405950e+01
   3.137119e+01  -3.546348e+00
   2.217021e+01   2.900735e+01
  -2.687269e+01   2.122714e+01
  -7.382198e+01  -2.371963e+00
  -4.749204e+01  -4.061943e+01
   2.661038e+01  -4.174310e+01
   5.536903e+01  -3.053746e+01
   1.019314e+01  -1.356204e+01
  -2.037306e+01  -4.844422e+00
  -9.771267e+00  -3.918691e+00
   4.102187e+01   1.080554e+01
   4.810405e+01  -1.952075e+01
