
 $NMID
 id='ANONYMOUS ', fmtdat='(2E16.6)'
 volume=1.0
 tramp=1.0
 $END
  -2.126915e+03  -2.054491e+02
  -1.567016e+03  -1.036213e+03
  -4.718055e+01  -1.122599e+03
   7.390163e+02  -6.698360e+02
   6.176485e+02   9.970149e+00
  -1.258030e+02   1.449969e+02
  -1.660015e+02  -1.468949e+02
  -7.800174e+00  -2.901044e+02
   3.462917e+02  -1.808357e+02
   3.409782e+02   6.622824e+01
   1.743764e+02   2.375678e+02
   3.316792e+01   3.457070e+02
  -1.526131e+02   2.905513e+01
  -1.384790e+02  -2.182350e+02
   1.696593e+02  -3.206412e+02
   2.275628e+02   4.868493e+01
   8.058838e+01   3.069409e+02
  -3.623885e+01   2.833213e+02
  -2.753746e+02   1.614215e+02
  -2.497868e+02  -1.672206e+02
  -1.731045e+01  -2.045204e+02
   1.072075e+02  -1.321061e+02
   5.589327e+01  -1.833191e+01
  -1.113332e+02  -1.992119e+01
  -1.631519e+02  -1.662103e+02
   7.407350e+01  -1.975790e+02
   3.071073e+02  -4.042710e+01
   3.133781e+02   1.689119e+02
   7.984602e+00   2.022543e+02
  -2.297296e+02   7.863393e+01
  -2.703815e+02  -1.040765e+02
  -6.709419e+01  -1.946621e+02
   1.849502e+02  -1.783172e+02
   2.524064e+02  -8.887847e+01
   1.327812e+02   1.024683e+02
  -3.509120e+01   2.193115e+02
  -2.118564e+01   9.011063e+01
   2.140699e+01  -1.026943e+02
   1.915530e+02  -1.223867e+02
   1.103907e+02   1.449011e+02
  -6.430270e+01   3.871276e+02
  -2.095370e+02   2.729623e+02
  -1.662889e+02  -9.502276e+00
  -2.239579e+01  -2.348150e+02
   9.242367e+01  -4.358816e+01
   9.383935e+01   1.627482e+02
  -1.042651e+02   2.061654e+02
  -2.960151e+02  -3.122091e+01
  -2.033579e+02  -2.099178e+02
  -6.476132e+01  -2.692741e+02
   2.131606e+02  -1.311479e+02
   3.026547e+02   1.073811e+02
   1.758894e+02   2.007556e+02
  -7.893393e+01   1.939268e+02
  -2.250027e+02   1.569489e+01
  -1.307750e+02  -4.823664e+01
  -5.328286e+00   2.185236e+01
  -8.516512e+00   2.003310e+01
  -9.192978e+01  -3.201947e+01
  -6.144338e+01  -3.262461e+01
  -2.320186e+01  -1.133220e+02
   1.088608e+02  -1.210042e+02
   1.726166e+02  -6.359085e+01
   1.429839e+02   7.425722e+01
  -1.785080e+01   1.452859e+02
  -1.934690e+02   2.099914e+02
  -2.589677e+02   8.498858e+01
  -1.213919e+02  -1.340786e+02
  -2.297418e+01  -2.220721e+02
   6.355717e+01  -1.489981e+02
  -7.989996e+00  -9.367347e+01
  -8.597246e+00  -6.707847e+01
   1.044670e+02  -1.006043e+02
   1.933565e+02  -2.570426e+01
   1.432855e+02   6.852953e+01
   3.481280e+01   1.704311e+02
  -8.308134e+01   1.264716e+02
  -6.117974e+01  -2.250383e+01
  -9.757454e+01  -1.685437e+02
   6.329505e+01  -1.718532e+02
   1.277799e+02   5.519802e+00
   8.553391e+01   1.222403e+02
   5.144423e+01   1.518869e+02
  -2.522158e+01   1.987284e+02
  -9.240368e+01   7.634927e+01
  -7.295977e+01   1.322280e+01
  -1.316680e+02   2.689546e+01
  -1.581232e+02   6.881794e+00
  -2.621769e+02  -1.159615e+02
  -1.960359e+02  -1.871833e+02
   2.029267e+01  -2.291563e+02
   2.338249e+02  -2.265975e+02
   2.314992e+02  -4.079630e+01
   1.688303e+02   3.939709e+01
  -3.888057e+01   1.337828e+02
  -8.107069e+01   1.281147e+02
  -9.320491e+00  -1.151077e+01
   7.925778e+01  -3.276189e+01
   8.732597e+01   3.493705e+01
  -4.151048e+00   8.755866e+01
  -9.344423e+01   5.271522e+01
  -3.638000e+01  -3.238723e+01
  -7.097915e-01  -4.430521e+01
   6.786819e+01   1.227030e+01
   6.403076e+01   1.499882e+02
   3.137070e+00   2.028962e+02
  -1.773846e+02   8.847726e+01
  -2.090268e+02  -5.553454e+01
  -1.242363e+02  -1.945147e+02
  -4.898252e+01  -1.805062e+02
   9.448628e+01  -8.999008e+01
   9.600336e+01   4.279098e+01
   1.093420e+01  -9.736756e+00
  -3.455347e+01  -2.080545e+01
   2.402809e+01  -7.830149e+01
   8.438595e+01  -9.158832e+00
   1.155571e+02   3.228790e+01
  -1.724456e+01  -6.764236e+00
  -2.754952e+01  -1.903748e+01
  -2.900429e+01  -7.397832e+01
   7.167940e+01  -7.379220e+01
   1.653509e+02   2.265449e+01
   1.339013e+02   1.111030e+02
  -5.567448e+00   1.713576e+02
  -1.423711e+02   1.268116e+02
  -2.090640e+02   5.003736e+01
  -6.820221e+01  -2.321359e+01
   4.805924e+00  -2.487380e+01
   3.068973e+01   2.246658e+01
  -3.750529e+01   1.442212e+01
  -9.622418e+01   1.676224e+01
  -1.041246e+02  -8.189271e+01
  -4.472602e+01  -1.187678e+02
   2.027746e+01  -6.665221e+01
   9.481204e+01   1.033785e+01
   1.354352e+01   3.851154e+00
  -3.129397e+01   1.763733e+01
  -1.772272e+01  -6.773402e+01
   3.045732e+01  -5.230792e+01
   1.414746e+02   1.325587e+01
   1.013884e+02   8.950399e+01
  -1.192570e+00   1.045984e+02
  -1.032122e+02   2.293126e+01
  -1.261441e+02   2.217235e+01
  -1.516102e+01  -6.928983e+01
   2.276565e+01  -3.072473e+01
   4.914700e+01  -1.451188e+01
   5.746589e-01   2.797541e+01
  -3.940519e+01   2.501711e+01
   2.489190e+01  -1.742749e+01
   3.786787e+01  -2.571360e+00
   4.102399e+01   6.698641e+01
  -1.484156e+00   1.133317e+02
  -1.151709e+02   1.057918e+02
  -9.808466e+01  -3.585190e+01
  -9.197657e+01  -7.141773e+01
  -2.175727e+00  -9.374495e+01
   5.557339e+01  -8.145788e+01
   1.097915e+02  -1.911626e+01
   1.274718e+01   2.425792e+01
   2.262580e+01   2.040966e+01
   1.203249e+01  -1.834680e+01
   6.748438e+01  -9.397656e-01
   2.461690e+01   3.798878e+01
  -5.587737e+01   4.425753e+01
  -9.792136e+01   2.078681e+01
  -4.342749e+01  -3.239684e+01
   8.462081e+00  -5.244224e+01
   1.017117e+02  -6.364869e+01
   1.370724e+02   7.910323e+01
   2.098713e+01   1.154798e+02
  -7.658533e+01   1.393071e+02
  -1.465898e+02   2.657455e+01
  -1.262281e+02  -8.348917e+01
  -4.813319e+01  -6.942091e+01
   2.061099e+01  -5.118456e+01
   7.693330e+01  -6.580942e+01
   3.112404e+01  -2.487616e+01
   2.827502e+01  -4.954232e+01
   6.937431e+01  -6.645211e+01
   7.942432e+01  -5.025374e+00
   7.222896e+01   1.155257e+02
  -7.918667e-02   1.503085e+02
  -3.076625e+01   6.545432e+01
  -1.306395e+02  -7.639324e+00
  -1.190597e+01  -8.083958e+01
   1.099014e+01  -8.250140e+01
   4.376831e+01  -5.044822e+01
   4.639941e+01   1.600687e+01
  -3.197350e+00   2.376323e+01
  -2.791996e+01   3.495967e+00
   2.879492e+01   7.246576e+00
   4.648892e+01  -1.079066e+01
   3.144546e+01   2.715711e+01
  -5.852283e+01   1.241052e+00
  -9.886951e+01  -2.537188e+01
  -7.128265e+01  -7.191019e+01
  -8.536475e-01  -8.016183e+01
   6.431396e+01  -4.843284e+01
   9.844026e+01   4.972222e+01
   5.439245e+01   2.939818e+01
  -2.584697e+01  -7.635282e+00
  -1.477773e+01  -2.106973e+01
  -3.659954e+01  -2.918004e+01
   7.153984e+01  -2.601587e+01
   4.232373e+01   1.806820e+01
   6.129761e+01   1.458913e+01
   2.208980e+01   4.526357e+01
   2.321273e+01  -2.396610e+01
   1.820298e+01   5.471453e+00
   4.665888e+01   3.390786e+01
  -1.379511e+01   9.432472e+01
  -3.505099e+01   8.426603e+01
  -1.175412e+02   2.086663e+01
  -8.551973e+01  -7.073813e+01
   4.787630e+01  -8.059511e+01
   6.753245e+01  -1.522488e+01
   3.227254e+01   1.217906e+01
  -6.491827e+01   1.741883e+01
  -6.750640e+01  -3.290850e+01
  -1.614211e+01  -7.111393e+01
   6.920944e+01  -5.466147e+01
   1.118175e+02   1.051596e+01
   9.310244e+01   3.033562e+01
   5.176917e+00   3.589342e+01
  -5.223431e+01   6.676593e+01
  -2.823239e+01   1.836884e+01
   2.027361e+01  -1.315521e+01
   5.210063e+01  -1.235645e+01
   1.590945e+01   8.628021e+01
  -5.627102e+01   1.027155e+02
  -9.212858e+01   6.349663e+00
  -7.523341e+01  -5.082891e+01
   1.296481e+01  -1.170615e+02
   5.996130e+01  -1.008372e+02
   9.637218e+01   1.090488e+01
   4.289487e+01   6.612158e+01
  -1.388199e+01   5.485339e+01
  -8.424552e+01   2.585930e+01
   2.074860e+01  -5.716580e+00
  -1.094089e+01  -1.039016e+01
  -2.029306e+01   7.279762e+00
  -2.838784e+01  -2.167039e+01
  -4.848378e+01  -6.526192e+01
   9.628955e+00  -6.277493e+01
  -1.640121e+01  -1.874726e+01
   6.608092e+01   3.532059e+01
   8.811689e+01   4.751468e+01
   5.748561e+00   1.496958e+01
  -7.503102e+01   2.189275e+01
  -5.068044e+01  -1.928005e+01
  -1.118629e+01  -1.578149e+01
   4.704425e+01  -1.146076e+01
   1.855290e+01  -2.882230e+01
  -2.440393e+01  -6.659346e+00
   2.359176e+00   2.027607e+00
   1.897014e+01   2.131092e+01
   4.848729e+01   3.084890e+01
   3.655809e+00   3.981476e+01
  -4.068160e+01   5.336226e+01
  -1.211180e+02   3.659327e+01
  -1.064135e+02  -3.503538e+01
  -3.092840e+01  -8.893463e+01
   6.151479e+01  -6.587005e+01
   7.207227e+01  -2.871672e+01
   6.734339e+01   2.540061e+01
   2.270106e+01   3.115296e+00
  -3.984764e+00   1.414490e+01
   1.028451e+01  -1.816298e+00
   1.638438e+01   1.024953e+01
   3.339045e+00   3.397164e+01
  -1.268147e+01   2.582142e+01
  -4.175127e+01  -3.602411e+01
  -7.597253e+01  -5.163537e+01
  -9.748213e+00  -5.823864e+01
   5.082613e+01  -4.763200e+01
   5.058286e+01   1.012999e+02
   4.731159e+01   8.242245e+01
  -3.205948e+01   3.199111e+01
  -6.018265e+01  -3.227613e+01
  -2.809475e+01  -5.969485e+00
   2.310700e+01  -9.359203e+00
   6.114509e+01  -5.934596e+00
  -2.634493e+01  -1.623542e+01
  -4.196996e+01  -5.852289e+00
   3.856420e+00  -2.707297e+00
   3.594884e+01  -3.109796e-01
   6.474937e+01  -2.205488e+01
   5.608216e+01  -8.376072e+00
  -1.077017e+01   4.724018e+01
  -3.785808e+01   4.852087e+01
  -3.165129e+01   2.348474e+01
  -1.637088e+01  -4.696246e+01
   1.391526e+01  -4.964308e+01
   2.480722e+01   8.844411e+00
   1.163443e+01   5.779247e+01
   4.110191e+00   6.197635e+00
  -1.137662e+01   7.843455e+00
  -1.812307e+01  -1.672601e+01
   2.222865e+01   5.963776e-01
   2.088163e+01   3.586563e+01
  -2.942999e+01   9.384732e+00
   7.433764e-01  -1.962870e+01
  -6.108539e+00  -2.721812e+01
   3.692167e+01  -3.617570e+01
   2.083587e+01   1.827352e+01
   5.237921e+00   2.276936e+01
  -2.869131e+01  -1.814727e+00
  -5.336937e+01   1.004152e+01
   7.166301e+00  -1.325906e+01
   3.646065e+01  -5.116638e+01
   3.190619e+01   4.632494e+00
   1.448034e+01   5.062489e+01
  -1.315175e+01   2.535650e+01
  -4.446632e+01   2.319298e+01
  -1.705835e+01  -1.149887e+01
   2.359304e+01   6.168804e+00
   1.660734e+01   5.397849e-01
  -2.830814e+01   2.176045e+00
  -2.405969e+01  -1.040963e+01
