
 $NMID
 id='ANONYMOUS ', fmtdat='(2E16.6)'
 volume=1.0
 tramp=1.0
 $END
  -2.735043e+03  -3.919864e+02
  -1.752076e+03  -1.521775e+03
  -4.976361e+01  -1.907471e+03
   1.030535e+03  -1.014739e+03
   1.068654e+03   4.269660e+01
  -4.091344e+01   1.855944e+02
  -4.851219e+02  -6.008185e+01
   5.834169e+01  -4.870837e+02
   3.071948e+02  -4.366476e+02
   6.076224e+02   4.142899e+01
   4.104044e+02   3.843232e+02
  -7.309315e+01   5.723563e+02
  -2.389030e+02   7.611493e+01
  -2.416349e+02  -4.113915e+02
   9.141460e+01  -4.250854e+02
   3.121043e+02   3.704545e+01
   3.197021e+02   4.631188e+02
  -9.434763e+01   4.871010e+02
  -4.704148e+02   1.042276e+02
  -3.158874e+02  -1.558245e+02
  -1.931823e+01  -2.956932e+02
   1.528153e+02  -1.845625e+02
   7.209819e+01  -1.066638e+01
  -1.076807e+02  -3.519709e+01
  -1.870290e+02  -1.986737e+02
  -6.172758e+01  -2.783830e+02
   4.086308e+02  -1.529610e+02
   5.916632e+02   1.308373e+02
   1.153760e+02   2.587418e+02
  -2.062791e+02   1.459028e+02
  -4.541070e+02  -1.741598e+02
  -1.547999e+02  -3.013708e+02
   2.006926e+02  -3.067392e+02
   4.225433e+02  -5.753287e+01
   2.409127e+02   1.641908e+02
   1.052482e+02   2.457856e+02
  -3.341914e+01   1.549326e+02
   1.119887e+01  -5.346314e+01
   1.578233e+02  -1.240563e+02
   1.521497e+02   6.542368e+01
   3.848293e+01   4.485671e+02
  -2.282191e+02   3.809632e+02
  -3.051830e+02  -8.351350e+01
  -2.567984e+01  -2.691160e+02
   1.318475e+02  -1.002673e+02
   1.252849e+02   2.328273e+02
  -4.592163e+01   2.994739e+02
  -3.678089e+02  -3.353731e+01
  -4.175517e+02  -2.858834e+02
  -1.962089e+02  -3.348295e+02
   2.544448e+02  -1.974061e+02
   4.014139e+02   6.404847e+01
   2.255223e+02   1.728891e+02
  -9.176310e+01   2.264812e+02
  -2.403266e+02   6.131388e+01
  -1.449791e+02  -2.953767e+01
   3.174778e+01  -3.645347e+01
   2.203007e+01   4.121990e+01
  -1.171331e+02   2.174366e+01
  -1.994385e+02  -1.296425e+01
  -6.608357e+01  -1.566883e+02
   1.323793e+02  -1.634138e+02
   2.564000e+02  -1.247226e+02
   1.960204e+02   8.650430e+01
  -5.839665e+01   1.961425e+02
  -2.240897e+02   2.701783e+02
  -2.590202e+02   8.553783e+01
  -1.691983e+02  -1.413266e+02
  -5.700942e+01  -2.847460e+02
   6.761258e+01  -2.532989e+02
   3.888407e+01  -1.253275e+02
   2.524405e+01  -8.990960e+01
   1.191238e+02  -8.650119e+01
   2.010177e+02  -5.102018e+01
   1.666645e+02   1.141703e+02
   6.946960e+01   2.150538e+02
  -9.085480e+01   1.486230e+02
  -1.145273e+02  -3.352529e+01
  -1.221863e+02  -1.990263e+02
   7.517618e+01  -1.911451e+02
   2.096941e+02  -3.465739e+01
   2.144575e+02   1.454114e+02
   1.433761e+02   2.167883e+02
  -1.238162e+02   2.770313e+02
  -9.394352e+01   1.206070e+02
  -1.428705e+02  -3.908276e+00
  -1.428294e+02   1.168448e+01
  -2.195878e+02  -4.163672e+01
  -3.183495e+02  -9.962902e+01
  -2.607017e+02  -2.445823e+02
   4.572277e+01  -3.476503e+02
   2.818030e+02  -2.605970e+02
   4.024298e+02  -1.088490e+02
   2.165644e+02   1.098680e+02
   4.543458e+01   1.967218e+02
  -7.175783e+01   1.706956e+02
  -2.429018e+01   5.576301e+01
   8.759994e+01  -3.150581e+01
   8.863008e+01   2.227509e+01
   1.347359e+01   1.258010e+02
  -8.943308e+01   1.112277e+02
  -6.826493e+01  -4.634240e+01
   4.316982e+01  -9.131794e+01
   1.076175e+02   9.730846e+00
   1.034886e+02   1.906838e+02
  -1.980325e+01   2.428793e+02
  -1.876723e+02   8.545038e+01
  -2.719774e+02  -8.627806e+01
  -2.077289e+02  -2.433796e+02
  -1.070256e+01  -2.303800e+02
   9.359358e+01  -1.325422e+02
   1.519038e+02   1.128177e+01
   2.282210e+01   9.081447e+00
  -1.346788e+01  -5.985801e+01
   2.554903e+01  -8.575507e+01
   1.182260e+02   7.797526e-01
   1.127629e+02   6.289890e+01
   2.208493e+01   3.276686e+01
  -4.799182e+01  -2.289007e+01
  -4.767412e+01  -9.843668e+01
   7.055370e+01  -5.435237e+01
   2.221132e+02   3.359839e+01
   1.996047e+02   1.042230e+02
   4.697874e+00   2.053028e+02
  -1.903135e+02   1.678893e+02
  -2.093541e+02   7.335212e+01
  -1.091721e+02  -6.793406e+01
  -4.099826e+00  -6.111284e+01
   3.614936e+01   1.489585e+01
  -5.032251e+01   7.207377e+01
  -1.456539e+02   8.843032e+00
  -1.031174e+02  -7.014028e+01
  -3.325087e+01  -1.457884e+02
   5.968508e+01  -1.006685e+02
   7.302327e+01  -9.598534e+00
   2.786930e+01   2.119213e+01
  -4.931262e+01  -2.439331e+01
  -2.239336e+01  -8.093086e+01
   8.326120e+01  -1.070389e+02
   1.743694e+02   4.448057e+01
   1.137785e+02   9.694756e+01
  -1.125460e+01   1.587325e+02
  -1.157520e+02   8.558925e+01
  -1.646020e+02   6.817186e+00
   1.553509e+01  -9.553261e+01
   4.220941e+01  -7.731693e+01
   7.899154e+01  -2.685860e+00
   2.101646e+01   3.529635e+01
  -5.811466e+00  -2.876921e+01
   9.661974e-01  -2.229232e+00
   5.315967e+01  -1.704894e+01
   8.759653e+01   4.799168e+01
   1.656076e-01   1.231210e+02
  -1.509746e+02   1.056278e+02
  -1.659663e+02  -2.108808e+01
  -1.303599e+02  -1.012338e+02
  -5.540444e+00  -1.676728e+02
   7.077498e+01  -1.224982e+02
   1.162555e+02  -3.805722e+01
   5.075031e+01   3.815943e+01
   1.956043e+01   3.058048e+01
   2.006602e+01   8.587274e+00
   1.055118e+02  -8.427614e-01
   2.982807e+01   4.376080e+01
  -5.979493e+01   8.694350e+01
  -8.300768e+01   4.532149e+01
  -6.331405e+01  -3.882767e+01
   6.037702e+00  -1.094015e+02
   1.162897e+02  -6.616651e+01
   1.791342e+02   6.007817e+01
   3.068527e+01   1.866385e+02
  -1.182161e+02   1.240578e+02
  -2.107096e+02   4.612791e+01
  -1.911352e+02  -1.065398e+02
  -5.306228e+01  -1.345386e+02
   7.620995e+00  -1.089174e+02
   8.795938e+01  -7.445362e+01
   3.518692e+01  -6.641083e+01
   5.164995e+01  -7.713218e+01
   8.916516e+01  -7.870536e+01
   8.821775e+01   3.530777e+00
   9.214054e+01   1.301604e+02
  -4.313158e+00   1.826164e+02
  -8.343024e+01   1.299729e+02
  -1.354026e+02   2.791279e+01
  -4.520728e+01  -1.123612e+02
   1.458979e+01  -1.302908e+02
   7.704161e+01  -6.295385e+01
   5.551701e+01   2.109344e+01
   1.131273e+00   1.740411e+01
  -1.988738e+00   4.340133e+01
   2.391196e+01  -1.800738e+01
   5.165757e+01   4.827346e+01
   1.852399e+01   4.785288e+01
  -1.030248e+02   2.751261e+01
  -9.290497e+01   9.510898e+00
  -8.648360e+01  -6.644974e+01
  -2.234489e+00  -5.054307e+01
   1.173637e+02  -6.521894e+01
   7.883954e+01   1.682333e+00
   4.846868e+01   5.632008e+01
  -7.145391e+01   3.241897e+01
  -3.147617e+01  -4.163117e+01
   1.609693e+01  -7.168132e+01
   3.411129e+01  -5.602364e+01
   7.233702e+01  -8.983383e+00
   2.251508e+01   1.777797e+01
   2.262148e+01   7.997255e+01
   6.392944e+01  -4.334252e+00
   7.853560e+01  -8.830675e+00
   3.373273e+01   6.086353e+01
  -1.852522e+01   1.185346e+02
  -5.516312e+01   1.086033e+02
  -1.466227e+02   1.807580e+01
  -1.202226e+02  -7.394014e+01
   2.266384e+00  -1.200635e+02
   6.726960e+01  -5.957279e+01
   3.890163e+01   8.898770e+00
  -3.446200e+01   3.443817e+01
  -1.140429e+02  -9.822466e+00
  -8.598521e+01  -7.843152e+01
   6.139655e+01  -6.906801e+01
   1.644532e+02  -2.221971e+01
   1.210386e+02   3.309827e+01
   1.843008e+00   8.013267e+01
  -2.662116e+01   3.568196e+01
  -1.820313e+01   8.493496e+00
   1.727286e+01  -2.209994e+01
   7.885303e+01   1.011868e+01
  -7.850519e-01   1.036352e+02
  -8.672897e+01   1.119099e+02
  -1.370314e+02   7.198157e+01
  -5.153465e+01  -5.790335e+01
  -2.179744e+01  -1.312662e+02
   5.081142e+01  -1.217609e+02
   7.416587e+01   2.147422e+01
   5.779553e+01   1.292306e+02
  -3.354348e+01   7.805935e+01
  -2.520393e+01   2.595496e+01
  -5.549393e+01  -1.325300e+01
   4.564831e+00  -2.294724e+01
  -9.622838e+00   1.172745e+01
  -2.543228e+01  -1.273587e+01
  -3.018538e+01  -7.132948e+01
  -1.365295e+01  -8.582134e+01
   3.500394e+01   4.439814e+00
   1.210282e+02   2.594966e+01
   1.153388e+02   5.030240e+01
   1.167367e+01   5.180308e+01
  -1.157526e+02   1.118422e+01
  -7.647894e+01  -1.913229e+01
   4.325096e+00   7.620777e-01
   4.578200e+01  -2.309839e+01
  -1.041463e+01  -2.276082e+01
  -2.975205e+01  -2.500186e+01
   1.470196e+01   8.603306e+00
   4.279845e+01   1.649242e+01
   7.166418e+01   4.525574e+01
   2.920949e+01   7.212973e+01
  -1.150094e+02   8.339807e+01
  -1.507036e+02   5.179973e+01
  -1.281140e+02  -2.413527e+01
   3.565100e+00  -1.193549e+02
   7.753814e+01  -1.203017e+02
   1.088942e+02  -6.695585e+01
   6.951128e+01   1.283956e+01
   6.331578e+00   7.014665e+00
   1.200456e+00   3.237266e+01
  -1.487955e+01  -2.576133e+00
   2.939314e+01   3.991803e+01
   6.677896e+00   7.348750e+01
  -4.318340e+01   7.167561e+01
  -7.822102e+01  -4.689357e+01
  -7.828147e+01  -1.052312e+02
  -4.342818e+00  -1.118581e+02
   9.470438e+01  -1.725888e+01
   6.378864e+01   3.125128e+01
   2.234197e+01   8.394190e+01
  -2.837661e+01   6.100819e+01
  -7.043010e+01  -5.346601e+00
  -3.048597e+01  -3.389046e+01
   2.138746e+01  -5.143429e+01
   2.176068e+01  -2.774030e+01
  -4.714252e+01  -1.607901e+00
  -7.860246e+01  -1.866381e+01
  -2.954382e+01  -1.057190e+01
   8.073977e+01  -3.866500e+01
   1.026444e+02  -1.909151e+01
   4.009879e+01   2.965610e+01
   1.519322e+01   7.972452e+01
  -7.080511e+01   8.002669e+01
  -4.796703e+01   1.677868e+01
   3.183439e+00  -5.078414e+01
  -4.335325e+00  -4.735951e+01
   1.144538e+01  -3.312814e+00
  -1.283438e+01   3.695428e+01
  -1.301217e+01   1.637297e+01
  -3.188084e+01  -1.123054e-01
  -1.422243e+01  -1.754722e+01
  -4.688023e+00  -1.291621e+01
  -4.181361e+00   1.794963e+01
  -2.201870e+01   5.849096e+00
   9.763598e+00  -2.889409e+01
  -1.881498e+01  -6.346975e+01
   8.713108e+00  -3.228583e+01
   2.817056e+01   2.940664e+01
  -1.278621e+01   5.475974e+01
  -1.717939e+01   1.252235e+01
  -6.714088e+01  -4.295709e+01
  -2.552146e+01  -5.869593e+01
   5.686806e+01  -6.084150e+01
   7.563585e+01   1.446859e+01
   3.170708e+01   2.019163e+01
  -4.175875e+01   3.891517e+01
  -5.196458e+01   1.199412e+01
  -9.660298e+00  -7.022669e+00
   3.596914e+01   3.490621e+01
   2.063206e+01  -2.515541e+00
  -9.128661e+00   3.978049e+01
  -3.642361e+01   1.801511e+01
