
 $NMID
 id='ANONYMOUS ', fmtdat='(2E16.6)'
 volume=1.0
 tramp=1.0
 $END
   2.754511e+03  -8.283812e+01
   1.680248e+03   1.548657e+03
   4.611455e+02   1.603315e+03
  -9.801710e+02   1.109739e+03
  -8.010070e+02   1.723547e+02
  -1.551197e+02  -1.112294e+02
   3.187054e+02  -3.748994e+01
  -1.381824e+01   3.299505e+02
  -1.617593e+02   5.461400e+02
  -4.150288e+02   1.554454e+02
  -3.209130e+02  -3.340076e+02
  -2.504760e+01  -5.782819e+02
   1.485180e+02  -2.047588e+02
   1.533048e+02   3.426862e+02
  -2.896812e+00   4.232127e+02
  -3.453803e+02   9.692111e+01
  -2.394303e+02  -4.115855e+02
   7.723852e+01  -5.470755e+02
   4.363836e+02  -2.623249e+02
   3.934322e+02   6.836948e+01
   1.173810e+02   2.225779e+02
  -4.225900e+01   1.942985e+02
  -7.285871e+01   6.844018e+01
   1.626229e+02   1.436424e+02
   1.662425e+02   1.882931e+02
  -4.516555e+01   3.803074e+02
  -4.827909e+02   1.739290e+02
  -4.727909e+02  -1.856994e+02
  -4.890150e+01  -2.721060e+02
   2.039532e+02  -4.100947e+01
   3.648846e+02   1.105750e+02
   2.873116e+01   2.659313e+02
  -2.062116e+02   2.427650e+02
  -3.313835e+02   7.792466e+01
  -2.913325e+02  -1.141040e+02
  -1.038772e+02  -2.440005e+02
  -6.166100e-01  -5.308147e+01
  -6.054907e+01   2.978315e+01
  -1.065543e+02   9.514948e+01
  -1.039766e+02  -1.324925e+02
   1.482822e+00  -4.520477e+02
   1.970012e+02  -3.533947e+02
   1.710936e+02   8.065272e+01
   1.644372e+01   1.072392e+02
  -1.636963e+02   6.218641e+01
  -6.291863e+01  -1.615932e+02
   1.141515e+02  -3.052457e+02
   3.924805e+02  -5.153512e+01
   3.554711e+02   2.871901e+02
   9.779275e+01   3.744038e+02
  -2.747767e+02   2.541245e+02
  -4.441383e+02  -5.947851e+01
  -3.039139e+02  -1.984482e+02
   1.841759e+01  -1.866335e+02
   2.059900e+02  -2.713407e+01
   1.578579e+02  -3.604470e+01
   3.263329e+01   4.733049e+01
  -5.225548e+01  -1.351435e+01
   6.319079e+01   3.218018e+01
   8.462916e+01   1.452034e+01
   1.159362e+02   1.520589e+02
  -1.237105e+02   1.654645e+02
  -2.094458e+02   1.005693e+02
  -2.342624e+02  -8.735467e+01
  -8.796019e+00  -2.844712e+02
   2.841040e+02  -3.318465e+02
   3.454633e+02  -1.255226e+02
   1.828301e+02   1.560220e+02
  -1.851022e+01   2.969105e+02
  -4.502039e+01   2.002143e+02
   1.997229e+01   1.549136e+02
  -3.920418e+00   8.002196e+01
  -1.428915e+02   8.860801e+01
  -2.203810e+02   6.097204e+01
  -1.926279e+02  -1.244589e+02
  -7.112244e+01  -2.262698e+02
   1.093773e+02  -1.647495e+02
   1.249956e+02   7.811352e+01
   8.143710e+01   2.006054e+02
  -2.793955e+01   2.223998e+02
  -1.746955e+02   1.547361e+01
  -2.161059e+02  -1.005659e+02
  -1.426513e+02  -2.083084e+02
   5.605228e+01  -1.655511e+02
   1.424948e+02  -1.780638e+02
   1.224220e+02  -6.275476e+01
   1.493982e+02  -6.630274e+01
   2.156788e+02  -1.090292e+01
   3.134074e+02   9.150609e+01
   2.511200e+02   2.288487e+02
  -8.298128e+01   3.240575e+02
  -3.981710e+02   4.174601e+02
  -3.316307e+02   8.596527e+01
  -2.166782e+02  -1.078839e+02
  -2.891754e+01  -2.341513e+02
   5.041793e+01  -1.120899e+02
   1.310428e-01  -5.870891e+01
  -1.422930e+02   1.578871e+01
  -5.658964e+01  -6.205147e+01
   1.820777e+01  -1.118694e+02
   6.454056e+01  -2.678956e+01
   2.667231e+01   2.083861e+01
  -2.439697e+01   1.222253e+02
  -1.119252e+02  -1.186460e+01
  -9.001961e+01  -1.471126e+02
   4.425058e+01  -2.449997e+02
   2.019732e+02  -1.792196e+02
   2.697009e+02   5.452328e+01
   2.529862e+02   2.293694e+02
   1.309607e+01   2.438734e+02
  -1.461241e+02   1.189291e+02
  -1.107406e+02   1.042148e+01
   1.849157e+00  -2.127034e+01
   2.432017e+01   9.538023e+01
  -1.474215e+01   8.252346e+01
  -9.977668e+01   5.034233e+01
  -1.232972e+02  -3.718106e+01
  -1.342747e+01  -3.902076e+01
   8.273969e+01   1.261030e+01
   2.812739e+01   1.029751e+02
  -1.395871e+02   6.722922e+01
  -2.616295e+02  -2.577454e+01
  -1.630482e+02  -1.225882e+02
   8.162076e+00  -2.599724e+02
   1.980248e+02  -1.843876e+02
   1.883503e+02  -5.729543e+01
   1.225812e+02   9.134010e+00
  -2.363368e+01   5.079132e+01
  -5.866038e+01  -1.230151e+01
   7.480047e+01  -5.186097e+01
   1.340834e+02  -5.443646e+01
   1.512106e+02   1.070522e+02
   2.020120e+01   1.533025e+02
  -6.612294e+01   1.109307e+02
  -7.452809e+01   3.055464e+01
  -1.247912e+01  -2.687814e+01
   4.487239e+01   3.966067e+01
   2.462011e+01   9.461284e+01
  -9.256600e+01   1.277809e+02
  -1.512808e+02   2.192342e+01
  -1.254735e+02  -1.292274e+02
  -7.568642e+00  -1.515973e+02
   1.124354e+02  -1.013275e+02
   1.373602e+02  -1.611521e-02
   2.332945e+01   6.654110e+01
  -4.439256e+01   9.771281e+01
  -6.468752e+01   9.726582e+00
   1.034240e+01  -4.570673e+01
   1.828739e+01  -9.405354e+00
   2.018882e+01   2.501465e+01
  -4.259980e+01   2.315432e+01
  -6.274582e+01  -5.792618e+01
   1.085908e+00  -1.653459e+02
   1.405219e+02  -1.219910e+02
   1.523099e+02  -1.708588e+01
   1.642597e+02   1.173911e+02
   3.608137e+01   2.100781e+02
  -7.109649e+01   1.207306e+02
  -8.743246e+01   9.703047e+00
  -7.850014e+01  -4.232299e+01
  -2.668826e+01  -2.664528e+01
  -3.618634e+01  -1.452354e+00
  -7.926604e+01  -3.346296e+01
  -3.323452e+01  -5.252153e+01
   4.720560e+01  -8.712982e+01
   9.319195e+01  -7.480979e+01
   1.029484e+02   5.714905e+01
  -1.976101e+01   9.924678e+01
  -1.252171e+02   6.381104e+01
  -1.867228e+02  -6.241326e+01
  -5.680913e+01  -1.584291e+02
   1.275660e+02  -1.648268e+02
   1.903406e+02  -6.222195e+01
   2.045758e+02   1.264668e+02
   4.398502e+01   1.717488e+02
  -2.081383e+01   1.037894e+02
  -4.415759e+01   5.050342e+01
  -6.850570e+01   4.256527e+01
  -1.672938e+01   9.390134e+01
  -5.468540e+01   7.611953e+01
  -7.858790e+01  -5.999942e+01
  -9.364291e+01  -1.572713e+02
   9.690972e+00  -1.739348e+02
   9.278920e+01  -1.166712e+02
   1.510546e+02   2.640256e+01
   9.704050e+01   7.772009e+01
  -2.560068e+00   1.287053e+02
  -7.004615e+01   9.938263e+01
  -7.331749e+01  -3.519751e+01
   1.944179e+00  -5.333089e+01
   8.454494e+00  -4.621093e+01
  -3.166768e+01   7.914092e+00
  -9.641172e+01  -2.316125e+01
   2.331041e+00  -3.631877e+01
   8.439397e+01  -2.265498e+00
   1.137066e+02   2.796879e+01
   1.196574e+02   7.007543e+01
  -9.812893e+00   6.815897e+01
  -1.006626e+02   7.512088e+01
  -7.261658e+01   3.737715e+01
  -4.882707e+01  -7.161991e+01
   4.036479e+01  -4.712361e+01
   6.997835e+01   1.829211e+01
   1.413040e+01   4.811700e+01
  -3.901247e+01   5.648582e+01
  -3.684990e+01   3.891031e+01
  -6.940283e+01  -5.556624e+01
  -3.361165e+01  -4.653687e+01
  -4.473169e+01  -6.033227e+00
  -5.368115e+01  -1.497056e+01
  -7.114536e+01  -7.669489e+01
   2.998227e+01  -1.297265e+02
   9.729747e+01  -1.328738e+02
   1.881221e+02  -1.415573e+01
   1.162230e+02   6.764460e+01
   7.099935e+00   1.144324e+02
  -7.768808e+01   4.227764e+01
  -5.162577e+01  -2.449478e+01
   3.782240e+01  -2.226062e+01
   8.503118e+01   1.134704e+01
   4.464935e+01   8.579140e+01
  -4.126628e+01   8.016127e+01
  -1.323490e+02   3.644750e+01
  -8.613203e+01  -1.444816e+01
  -5.504691e+01  -4.379704e+01
   6.970472e+01  -5.105279e+01
   7.152019e+01   4.403613e+01
  -4.515571e+01   1.675658e+01
  -7.064748e+01  -1.775308e+01
  -6.464493e+01  -1.091026e+02
   2.041128e+01  -1.423585e+02
   1.216132e+02  -6.513031e+01
   1.284542e+02   7.501742e+01
   2.743874e+01   1.569476e+02
  -5.927401e+01   9.240979e+01
  -8.851010e+01  -2.730652e+01
  -4.463056e+01  -1.176760e+02
   2.639620e+01  -8.528412e+01
   4.796571e+01  -1.522915e+01
   5.571386e+01   6.977741e+01
  -4.400292e+00   7.815451e+00
  -2.643207e+01   5.261355e+00
   4.068501e+01   2.588334e+01
   2.964140e+01   9.092745e+01
   2.594942e+01   8.075575e+01
  -6.541134e+01   4.037640e+01
  -1.197016e+02  -3.726069e+01
  -7.981325e+01  -7.822343e+01
  -3.234241e+01  -1.989601e+01
   5.869566e+01  -3.014429e+01
   3.551780e+01   5.019846e+00
   1.058854e+01   3.076606e+01
  -3.964026e+01   1.534195e+01
  -2.242694e+01   3.052595e+01
   4.424852e+00   7.550111e+00
  -4.803188e+00  -1.514716e+01
  -5.041691e+01   1.426800e+00
  -6.418647e+01  -1.918838e+01
  -2.862788e+01  -6.714303e+01
   6.982251e+01  -1.130204e+02
   1.606336e+02  -2.613610e+01
   1.050807e+02   4.613892e+01
   1.622657e+01   1.441977e+02
  -8.802221e+01   1.398869e+02
  -1.079341e+02   6.855978e+01
  -7.841335e+01  -4.982172e+00
  -3.405265e+01  -4.170737e+01
  -3.497378e+01   2.722575e+00
  -2.433353e+00  -1.775309e+00
  -2.984673e+01  -5.723474e+01
  -1.938098e+01  -5.991723e+01
   1.334373e+01  -6.154381e+01
   5.763235e+01   2.242018e+01
   5.593518e+01   7.706733e+01
   3.172455e+01   1.018018e+02
  -7.418912e+01   1.364786e+01
  -7.011587e+01  -4.759638e+01
  -3.373233e+01  -8.903518e+01
   4.291315e+01  -5.867851e+01
   7.940289e+01   9.634179e+00
   2.349763e+01   5.723275e+01
  -2.653268e+01   8.686445e+01
  -3.852991e+01   2.925060e+01
   3.415800e+01  -3.555090e+01
   7.411320e+01  -4.046674e+01
   1.930763e+01   1.018979e+01
  -6.589545e+01   2.111049e+01
  -7.652415e+01   3.213296e+01
  -3.913301e+01  -6.218235e+00
   1.971552e+01  -7.608267e+01
   1.971018e+01  -5.925375e+01
   4.778728e+01   5.775448e-01
  -2.132603e+01   5.067998e+01
  -1.600820e+01   3.755844e+01
  -3.087728e+01  -2.935433e+00
   1.559938e+01  -7.075252e+01
   1.283922e+01  -3.695533e+01
   4.910208e+01   2.100561e+01
   1.704508e+01   2.220723e+01
  -6.777295e+00  -1.826730e+01
  -1.274152e+01  -1.365589e+01
  -6.911149e+00  -1.307131e+01
   2.221497e+01   3.701820e+01
   1.892538e+01   1.840991e+01
  -1.260510e+01   1.065804e+01
  -2.815369e+01  -3.880273e+01
  -5.065797e+01  -3.973589e+01
   5.023161e+01  -2.053364e+01
   8.305488e+01   1.898396e+01
   4.536441e+01   5.651879e+01
  -4.096919e+01   4.255585e+01
  -1.131058e+02   1.282298e+01
  -6.242532e+01  -2.127388e+01
   2.346601e+01  -3.631207e+01
   5.979075e+01  -3.439538e+01
   3.409115e+01  -7.973145e+00
  -7.386315e+00   9.889822e+00
  -3.637656e+01  -1.363261e+01
   1.727776e+01  -9.595979e+00
   3.146534e+01  -5.815543e+00
