
 $NMID
 id='ANONYMOUS ', fmtdat='(2E16.6)'
 volume=1.0
 tramp=1.0
 $END
  -2.269185e+03   6.841667e+02
  -1.535953e+03  -7.584073e+02
  -6.994498e+01  -1.636946e+03
   8.973624e+02  -9.913607e+02
   7.340655e+02  -3.713576e+02
   1.431183e+01   1.885136e+02
  -3.526000e+02  -1.844863e+02
  -2.752793e+02  -4.796698e+02
   4.286176e+02  -5.827624e+02
   5.258233e+02  -3.292868e+01
   3.926561e+02   4.867386e+02
  -3.389607e+01   4.632262e+02
  -2.706171e+02   1.888775e+02
  -2.079234e+02  -2.623100e+02
   1.169757e+02  -3.770448e+02
   2.912568e+02  -2.050957e+01
   2.568700e+02   3.927170e+02
  -9.190629e+01   5.130849e+02
  -2.951961e+02   2.689485e+02
  -4.581945e+02  -1.027972e+02
  -1.553156e+02  -2.773585e+02
   8.551853e+01  -2.269514e+02
   3.854364e+01  -5.568874e+01
  -1.728838e+02  -6.136258e+01
  -2.191399e+02  -2.154165e+02
  -6.641293e+01  -3.062028e+02
   3.152820e+02  -1.826194e+02
   5.829643e+02   1.037334e+02
   3.179507e+02   2.882901e+02
  -3.022742e+02   1.553789e+02
  -3.593854e+02  -8.326864e+01
  -1.944499e+02  -2.642447e+02
   2.221033e+02  -2.312905e+02
   3.667972e+02  -1.224914e+02
   3.052992e+02   1.545327e+02
   1.271963e+02   2.594168e+02
   1.183491e+01   8.559351e+01
   2.174783e+01  -5.289263e+01
   1.243802e+02  -1.304769e+02
   1.707668e+02   2.661369e+01
   1.274108e+02   3.180254e+02
  -2.162548e+02   3.521736e+02
  -1.934260e+02   4.865846e+01
  -1.877472e+02  -2.444515e+02
   1.476221e+02  -1.381972e+02
   2.529608e+02   2.332590e+02
  -5.740188e+01   3.817273e+02
  -3.356407e+02   1.516828e+02
  -4.095816e+02  -3.634764e+02
  -1.949915e+02  -4.393090e+02
   1.658636e+02  -2.733208e+02
   5.012838e+02   1.214764e+02
   3.561829e+02   2.716332e+02
  -8.360430e+01   1.831867e+02
  -1.707397e+02   9.620002e+01
  -1.674743e+02  -2.629863e+00
  -4.111949e-01  -3.860734e+00
   5.236755e+01   4.099415e+01
  -4.603180e+01   3.441808e+01
  -1.560934e+02  -2.791731e+01
  -1.292836e+02  -1.160293e+02
   1.070787e+02  -2.238958e+02
   2.682686e+02  -1.552530e+02
   1.927853e+02   1.218259e+02
  -1.409545e+01   2.629207e+02
  -2.701676e+02   2.856860e+02
  -2.654018e+02   1.376233e+02
  -2.207050e+02  -1.244927e+02
  -2.955952e+01  -2.129536e+02
   5.106171e+00  -2.333720e+02
  -1.625920e+00  -1.272183e+02
   1.969461e+01  -9.804624e+01
   8.407049e+01  -1.405114e+02
   1.804631e+02  -6.129768e+01
   2.049742e+02   9.748300e+01
   3.658195e+01   1.818192e+02
  -2.279219e+01   1.858626e+02
  -1.877454e+02  -6.223439e+01
  -1.001172e+02  -1.931776e+02
   1.467260e+01  -1.855715e+02
   2.092481e+02  -4.844606e+01
   2.810442e+02   1.266462e+02
   1.373852e+02   2.477340e+02
  -5.848807e+01   2.160056e+02
  -1.340480e+02   8.708750e+01
  -1.167345e+02   1.101880e+02
  -1.171973e+02   5.797615e+01
  -2.755325e+02   4.760663e+01
  -3.420023e+02  -5.279669e+00
  -2.872340e+02  -2.544375e+02
  -3.385831e+01  -3.353008e+02
   3.120919e+02  -3.473781e+02
   3.619931e+02  -1.130402e+02
   2.379548e+02   6.743768e+01
  -3.616611e+01   2.195056e+02
  -5.086367e+01   1.534699e+02
  -4.266194e+01   4.483285e+01
   7.810637e+01  -3.685505e+01
   1.132580e+02   5.017661e+01
  -3.578532e+00   9.813527e+01
  -9.144500e+01   1.000478e+02
  -6.001044e+01  -4.695566e+01
  -2.460737e+01  -9.232282e+01
   1.517059e+02  -1.086959e+01
   9.898191e+01   1.558509e+02
  -2.154835e+00   3.216776e+02
  -1.548418e+02   1.912828e+02
  -2.924050e+02  -2.092781e+01
  -2.590386e+02  -2.505702e+02
  -1.005139e+02  -2.415459e+02
   8.924026e+01  -1.480825e+02
   1.432550e+02  -3.996570e+01
   3.117218e+01   1.218740e+01
  -5.065953e+01  -4.085117e+01
  -9.521732e+00  -1.040167e+02
   7.627867e+01  -7.239646e+01
   1.379825e+02   2.131192e+01
   1.552199e+01   3.964673e+01
  -7.491068e+01  -5.197375e+00
  -2.969499e+01  -8.799768e+01
   1.100033e+02  -9.646927e+01
   2.157259e+02   4.821292e+00
   2.475270e+02   1.514481e+02
   1.972897e+01   2.096140e+02
  -1.945084e+02   1.893619e+02
  -2.055957e+02   8.668854e+01
  -1.257770e+02  -4.978898e+01
   3.901822e+01  -7.617358e+01
   8.409964e+01   5.272794e+01
  -5.515842e+01   5.512752e+01
  -1.656974e+02   1.311300e+01
  -1.512057e+02  -3.993269e+01
  -3.111762e+01  -1.559928e+02
   6.724754e+01  -9.006097e+01
   1.126155e+02  -4.699225e+00
   5.725758e+01   4.108468e+01
  -3.484753e+01  -1.588041e+01
  -3.534202e+01  -9.653829e+01
   9.480958e+01  -1.141648e+02
   1.964050e+02  -9.800163e+00
   1.602911e+02   1.163594e+02
   2.734570e+01   2.131589e+02
  -1.363209e+02   1.362400e+02
  -1.278200e+02   4.669180e+00
  -9.162101e+01  -6.194148e+01
   5.323158e+01  -7.271517e+01
   5.408267e+01   6.437312e+00
   1.706395e+00   3.448343e+01
  -2.035487e+01  -9.989816e+00
   3.180808e+01  -1.951818e+01
   6.518838e+01  -3.779481e+01
   7.994368e+01   7.385839e+01
   3.485386e+01   1.511776e+02
  -1.128158e+02   1.168693e+02
  -1.815194e+02   1.592171e+01
  -1.427607e+02  -1.152033e+02
  -2.417059e+01  -1.736398e+02
   6.980491e+01  -1.502451e+02
   1.048928e+02  -4.311222e+01
   5.230285e+01   4.689309e+01
   3.873555e+01   3.975422e+01
   4.828997e+01   3.187552e+00
   8.085292e+01   2.391942e+00
   2.154942e+01   4.800914e+01
  -2.684320e+01   8.121004e+01
  -1.147592e+02   4.671697e+01
  -9.044464e+01  -4.278554e+01
  -1.249403e+01  -7.800899e+01
   1.269455e+02  -9.258036e+01
   1.893741e+02   3.848124e+01
   8.848209e+01   2.031248e+02
  -1.002203e+02   2.000525e+02
  -1.730587e+02   9.066493e+01
  -2.516572e+02  -6.154724e+01
  -9.153805e+01  -9.003083e+01
   2.989216e+01  -1.017572e+02
   3.264572e+01  -5.243398e+01
   6.264258e+01  -7.034917e+01
   4.484030e+01  -8.582974e+01
   6.941216e+01  -5.333578e+01
   1.176212e+02   2.566245e+01
   9.376440e+01   1.352310e+02
   7.845779e+01   1.808008e+02
  -7.452580e+01   1.528254e+02
  -1.187317e+02   2.066277e+01
  -7.447684e+01  -1.292295e+02
  -1.800246e+00  -1.128373e+02
   8.669320e+01  -6.265296e+01
   3.808245e+01   1.620552e+00
  -2.643151e+01   5.801382e+01
  -2.650832e+01   2.336302e+00
   3.946131e+01   2.214785e+01
   5.861841e+01   2.319267e+01
   3.981867e+01   2.831683e+01
  -1.165462e+02   3.818978e+01
  -1.492231e+02   3.790719e+01
  -1.113814e+02  -5.978401e+01
   9.930723e+00  -8.215844e+01
   9.608296e+01  -6.650253e+01
   1.001253e+02   1.302650e+01
   4.085473e+01   6.052445e+01
  -3.818675e+01   3.453949e+01
  -5.372385e+01   1.481159e+01
  -2.637594e+01  -6.421976e+01
   3.597752e+01  -7.209387e+01
   7.770488e+01  -1.485393e+01
   3.078343e+01   3.629292e+01
   6.402689e+01   7.756974e+01
   7.231450e+01  -3.982733e-01
   6.553969e+01  -1.500069e-01
   6.600923e+01   4.995724e+01
  -4.066308e+01   1.448226e+02
  -8.465917e+01   1.022689e+02
  -1.521572e+02   3.082971e+01
  -1.518900e+02  -9.077554e+01
  -4.204676e+00  -1.007454e+02
   7.291634e+01  -8.146160e+01
   4.784042e+01   1.015308e+00
  -2.794943e+01   7.088820e+00
  -1.254650e+02  -3.537417e+01
  -7.120427e+01  -5.502714e+01
   7.746789e+01  -1.124767e+02
   1.408182e+02  -2.272857e+01
   1.191134e+02   2.197369e+01
   1.447608e+01   6.188524e+01
  -4.634727e+01   4.405472e+01
  -3.199151e+01  -1.113390e+01
   3.772690e+01  -3.435215e+01
   7.283702e+01   2.397961e+01
  -6.039618e+00   9.668745e+01
  -3.783445e+01   1.157440e+02
  -1.159840e+02   2.433172e+01
  -1.511323e+02  -8.460333e+01
  -2.585776e+01  -1.628486e+02
   6.141288e+01  -1.061269e+02
   8.683852e+01   9.060563e-01
   5.141310e+01   9.394257e+01
  -7.197816e+00   3.705708e+01
  -3.993159e+01  -2.025825e+01
  -4.939312e+01  -5.339854e+00
  -1.675510e+01  -5.847727e-01
   8.798346e+00  -1.398388e+00
  -5.358663e+01  -2.959046e+01
  -5.089100e+01  -4.164065e+01
  -2.078911e+01  -7.904466e+01
   2.263355e+01  -5.636359e+00
   1.209409e+02  -3.534328e+00
   1.203982e+02   4.695246e+01
   3.080575e+01   4.814154e+01
  -8.391500e+01   1.606303e+01
  -5.904219e+01   1.077818e+01
  -6.186683e+00  -3.435555e+01
   2.290271e+01  -4.321370e+00
   2.836024e+01  -2.157086e+01
  -1.679724e+01   1.536273e+01
   4.595884e+01   3.010673e+01
   3.786270e+01  -5.603784e+00
   8.330921e+01  -1.646112e+01
   6.956000e+00   5.646670e+01
  -5.820088e+01   8.591698e+01
  -1.717976e+02   5.750971e+01
  -1.218755e+02  -3.610751e+01
  -4.051109e+01  -1.291585e+02
   6.291567e+01  -1.173221e+02
   1.291811e+02  -7.676165e+01
   8.101491e+01  -9.683437e+00
   3.642027e+01   3.848606e+01
   1.222761e+01   2.247899e+00
   1.798333e+01   3.391598e+01
   5.407787e+01   4.155730e+01
   1.664210e+01   6.268364e+01
  -1.108721e+01   5.693446e+01
  -7.201415e+01   5.521216e+00
  -7.642522e+01  -7.500344e+01
  -4.571478e+01  -6.596659e+01
   5.134265e+01  -5.046286e+01
   8.737641e+01   7.062049e+01
   4.217320e+01   7.400231e+01
  -3.165244e+01   5.736356e+01
  -4.589750e+01   4.524329e+01
  -2.901332e+01  -3.466318e+01
   4.707050e+01  -4.624527e+01
   2.340997e+01  -1.279841e+00
  -2.783104e+01   2.019515e+01
  -7.078259e+01   1.476040e+01
  -2.750911e+01  -2.355056e+01
   4.037447e+01  -7.032613e+01
   1.067953e+02  -6.236978e+01
   3.792865e+01   3.569429e+01
  -6.875297e+00   9.986797e+01
  -3.323796e+01   6.823320e+01
  -1.451745e+01   3.265180e+01
  -3.306236e-01  -6.025076e+01
  -8.311365e-01  -4.345445e+01
   2.759745e+01  -8.367662e+00
   2.084587e+01   2.183085e+01
   1.307534e+01   2.330491e+01
  -2.984934e+01   9.761727e-01
  -4.892358e+01  -1.776526e+01
   1.529292e+01   2.039473e+01
  -8.823562e+00   3.913386e+01
   6.607128e+00   9.658676e+00
  -6.978203e+00  -2.214444e+01
   1.545489e+01  -3.889742e+01
  -4.392063e+00  -4.720745e+01
   1.896507e+01   1.253874e+01
   2.022842e+01   4.699082e+01
  -3.582930e+01   8.623973e+00
  -5.336436e+01  -1.163423e+01
  -3.515763e+01  -4.448941e+01
   4.753003e+01  -4.151353e+01
   7.477448e+01   8.064995e+00
   4.826098e+01   3.306234e+01
  -4.791632e+01   1.263193e+01
  -4.337233e+01   1.562727e+01
  -9.892689e+00  -3.809438e+00
   4.112650e+01  -6.315601e+00
   4.058967e+01   1.001826e+01
  -4.574742e+00   3.997654e+01
  -6.820729e+01   1.535324e+01
