
 $NMID
 id='ANONYMOUS ', fmtdat='(2E16.6)'
 volume=1.0
 tramp=1.0
 $END
   2.393014e+03  -3.933101e+02
   1.673389e+03   8.840319e+02
   3.052943e+02   1.559478e+03
  -9.415573e+02   8.950587e+02
  -8.177944e+02   4.586463e+02
  -9.304461e+01  -2.106019e+02
   3.300537e+02   1.835506e+02
   1.385714e+02   4.708017e+02
  -4.657407e+02   4.262954e+02
  -3.675174e+02   5.956147e+01
  -2.569256e+02  -4.257408e+02
   8.409870e+01  -4.598197e+02
   1.988157e+02  -2.204046e+02
   1.870009e+02   1.550716e+02
  -1.337686e+02   4.683225e+02
  -2.838285e+02   3.421235e+01
  -1.729858e+02  -3.052438e+02
   4.974368e+01  -4.202568e+02
   4.101054e+02  -2.264248e+02
   4.092908e+02   1.422519e+02
   1.242764e+02   3.034544e+02
  -8.252732e+01   1.977152e+02
  -1.814643e+01   5.749060e+01
   1.721279e+02   6.965085e+01
   2.085765e+02   3.029232e+02
   5.272419e+00   2.791172e+02
  -3.950860e+02   1.454776e+02
  -5.128357e+02  -1.319852e+02
  -1.811948e+02  -3.330346e+02
   2.751169e+02  -1.234737e+02
   3.465618e+02   1.238064e+02
   1.791907e+02   2.984922e+02
  -1.982811e+02   2.901869e+02
  -3.637087e+02   1.247610e+02
  -2.708181e+02  -1.559979e+02
  -4.574787e+01  -2.590567e+02
   1.226609e+01  -1.281353e+02
  -6.235074e+01   6.013445e+01
  -1.552213e+02   7.817219e+01
  -1.486880e+02  -9.971859e+01
  -5.948247e+01  -3.293171e+02
   2.257742e+02  -3.136951e+02
   2.038563e+02  -1.296483e+01
   6.345964e+01   2.425538e+02
  -1.407138e+02   1.057607e+02
  -1.512174e+02  -2.530468e+02
   8.780889e+01  -3.307606e+02
   3.182860e+02  -1.021033e+02
   3.756788e+02   3.834911e+02
   1.646568e+02   4.399141e+02
  -2.317123e+02   2.754246e+02
  -4.522339e+02  -5.051262e+01
  -3.398635e+02  -2.555237e+02
   7.758324e+01  -1.958043e+02
   1.881401e+02  -1.035895e+02
   1.648472e+02  -1.973853e+01
   4.253422e+01   1.483682e+01
  -2.587596e+01  -4.393461e+00
   4.954950e+01  -6.527548e+01
   1.980997e+02   4.794689e+01
   1.192213e+02   1.456672e+02
  -1.408812e+02   2.123819e+02
  -2.659956e+02   1.088348e+02
  -2.247830e+02  -8.939479e+01
   5.562541e+01  -2.276623e+02
   2.583498e+02  -2.661789e+02
   3.022285e+02  -1.661681e+02
   2.309759e+02   1.466406e+02
   1.104105e+01   2.273205e+02
  -3.156894e+01   2.461710e+02
  -1.908003e+01   1.629381e+02
  -9.893241e+00   1.143445e+02
  -8.792610e+01   1.168498e+02
  -2.040605e+02   5.705831e+01
  -2.041195e+02  -1.323199e+02
  -5.010754e+01  -1.876718e+02
   8.590134e+01  -1.426224e+02
   1.492966e+02   4.471525e+01
   8.007448e+01   2.173569e+02
  -8.070733e+01   1.928295e+02
  -1.741953e+02   3.081314e+01
  -2.657419e+02  -7.948413e+01
  -1.307219e+02  -2.832047e+02
   2.793268e+01  -2.120875e+02
   1.514245e+02  -1.011840e+02
   1.175436e+02  -9.819107e+01
   1.011152e+02  -2.705117e+01
   2.419755e+02  -6.666089e+01
   3.340868e+02   3.434989e+01
   2.737514e+02   2.959081e+02
   1.613618e+01   3.154126e+02
  -3.305820e+02   2.859534e+02
  -3.482768e+02   1.133392e+02
  -2.148995e+02  -7.245375e+01
   5.140346e+01  -2.512895e+02
   5.198474e+01  -1.642669e+02
   3.580503e+00  -2.790792e+01
  -9.790874e+01   2.197658e+01
  -8.832534e+01  -6.085904e+01
  -2.631148e+01  -1.230985e+02
   1.242296e+02  -6.675944e+01
   7.958528e+01   6.085802e+01
   1.278112e+01   9.972748e+01
  -1.128399e+02  -1.602121e+01
  -8.565134e+01  -1.741119e+02
   1.533210e+01  -2.607808e+02
   1.608840e+02  -1.449548e+02
   3.082863e+02   4.109610e+01
   2.479677e+02   2.520011e+02
   3.982126e+01   2.216632e+02
  -1.528860e+02   1.131488e+02
  -1.146874e+02   9.323971e+00
  -3.102715e+01   6.953494e+00
   6.049717e+01   6.393067e+01
  -1.923006e+01   1.025373e+02
  -9.117539e+01   8.443851e+01
  -1.316313e+02  -3.757824e+01
  -5.767396e-01  -5.218453e+01
   8.063556e+01   1.348799e+01
   2.026084e+01   9.179417e+01
  -1.490353e+02   6.966833e+01
  -2.708965e+02   1.352012e+01
  -2.174672e+02  -1.474596e+02
  -2.909746e+00  -2.217683e+02
   2.686937e+02  -2.098132e+02
   1.920109e+02  -4.008456e+01
   1.160668e+02   4.694452e+01
  -3.317955e+01   9.001502e+01
  -9.063912e+00  -5.466343e+00
   3.110061e+01  -6.304239e+01
   1.883673e+02  -1.537881e+01
   1.309018e+02   4.641636e+01
   2.346338e+01   1.587628e+02
  -1.041070e+02   7.565561e+01
  -1.067439e+02  -3.451258e+00
  -3.154632e+01  -6.102765e+01
   4.711029e+01   6.337403e+00
   4.176638e+01   1.272534e+02
  -6.241400e+01   1.144004e+02
  -1.888192e+02   9.113730e+00
  -1.393599e+02  -1.077896e+02
  -6.571941e+00  -1.726730e+02
   1.211830e+02  -1.456117e+02
   1.512623e+02   1.781998e+01
   4.601744e+01   5.304129e+01
  -5.265930e+01   3.568144e+01
  -4.476308e+01   5.809588e+00
  -4.313563e-02  -1.644928e+01
   3.539784e+01  -9.735383e+00
   2.801408e+00   2.238816e+01
  -6.710026e+01   3.674836e+01
  -6.973716e+01  -8.208673e+01
  -2.967119e+01  -1.559834e+02
   1.357781e+02  -1.184416e+02
   1.667046e+02  -3.497670e+01
   1.671793e+02   1.094177e+02
   1.019293e+00   1.533033e+02
  -7.885391e+01   1.728422e+02
  -1.041547e+02   2.578311e+01
  -6.063910e+01  -4.164546e+01
  -2.042244e+01  -1.378886e+01
  -4.965167e+01   8.067253e+00
  -8.104990e+01   4.036456e+00
  -1.928902e+01  -3.068549e+01
   2.848010e+01  -1.120124e+02
   1.146284e+02  -7.358301e+01
   8.311572e+01   3.248191e+01
   3.109025e+01   9.106035e+01
  -1.577467e+02   1.100961e+02
  -2.005038e+02  -5.688550e+01
  -4.485120e+01  -1.984692e+02
   9.768871e+01  -1.474904e+02
   1.957639e+02  -6.238963e+01
   2.031350e+02   6.134835e+01
   1.043739e+02   1.187676e+02
  -4.814215e+01   1.460266e+02
  -7.332002e+01   8.026379e+01
  -5.072305e+01   5.709956e+01
  -5.438872e+01   7.160003e+01
  -6.224804e+01   7.005715e+01
  -1.405332e+02  -2.696922e+01
  -6.117306e+01  -1.331712e+02
  -4.580967e+01  -1.910167e+02
   5.495990e+01  -1.313921e+02
   1.175154e+02  -1.775942e+00
   9.115644e+01   1.054172e+02
  -2.361351e+01   1.067118e+02
  -4.695484e+01   6.751244e+01
  -5.893950e+01  -2.632762e+01
  -4.070609e-02  -3.028862e+01
   4.061731e+01  -1.746511e+01
  -2.389435e+01  -3.302306e+01
  -5.693942e+01  -8.398825e+00
  -4.500463e+01  -1.503120e+01
   6.424288e+01  -1.131341e+00
   1.520618e+02  -1.941405e+01
   1.213969e+02   8.443198e+01
  -7.925639e+00   8.919665e+01
  -1.066230e+02   6.382598e+01
  -1.285391e+02   7.781842e+00
  -2.324686e+01  -3.399544e+01
   4.576774e+01  -6.035319e+01
   5.123677e+01   2.548766e+01
   3.838985e+01   6.614543e+01
  -2.392106e+01   6.587079e+01
  -8.565375e+01  -2.173434e+01
  -5.005876e+01  -2.553821e+01
  -7.009709e+01  -6.891020e+01
  -5.225868e+01  -2.072626e+01
  -5.924892e+01  -1.832628e+01
  -2.517828e+01  -5.919554e+01
   3.888180e+01  -1.297053e+02
   1.251425e+02  -1.205576e+02
   1.752044e+02  -4.141091e+00
   1.227206e+02   9.156272e+01
   9.866200e+00   8.973577e+01
  -5.893272e+01   6.272079e+01
  -5.476415e+01  -1.916346e+00
   3.853111e+01  -1.504739e+01
   1.305363e+02   4.799580e+01
   5.256503e+01   7.784485e+01
  -5.915813e+01   1.293567e+02
  -1.392978e+02   4.571075e+01
  -1.130483e+02  -6.196867e+00
   5.481038e+00  -3.448084e+01
   6.713314e+01  -4.794099e+01
   4.172105e+01   1.567941e-01
  -3.948150e+01   3.406224e+01
  -7.113840e+01  -2.733569e+01
   9.420695e-01  -9.776060e+01
   5.999111e+01  -1.549399e+02
   9.686867e+01  -6.099386e+01
   1.281230e+02   6.700469e+01
   3.194781e+01   1.546501e+02
  -7.665452e+01   9.546195e+01
  -8.459039e+01   4.276223e+01
  -5.651326e+01  -1.174343e+02
  -1.103060e+01  -7.273238e+01
   1.097392e+01  -2.466335e+01
   4.993272e+01   2.637267e+01
   1.051995e+01   6.835554e+00
   2.193491e+01   3.134931e+00
   3.517685e+01   2.505124e+01
   4.713041e+01   5.531101e+01
   2.925783e+01   8.042550e+01
  -4.336979e+01   2.831189e+01
  -1.220826e+02  -1.371018e+01
  -1.138343e+02  -4.541637e+01
  -5.410171e+00  -6.904429e+01
   7.622179e+01  -1.452670e+01
   5.432640e+01  -2.706433e+01
   2.363349e+01   2.373997e+01
  -3.269761e+01  -1.082484e+01
  -1.986018e+01  -6.999629e+00
   2.513025e+00   1.032833e+01
  -1.059558e+01  -3.470360e-01
  -3.421141e+01   4.809794e+01
  -8.380765e+01  -2.427567e+01
  -2.191801e+01  -8.441744e+01
   5.880584e+01  -1.067544e+02
   1.539880e+02  -2.796312e+01
   1.289326e+02   4.344212e+01
   4.346457e+01   1.169780e+02
  -8.016405e+01   1.158248e+02
  -1.140411e+02   5.424725e+01
  -4.764188e+01  -3.107884e+00
  -9.936402e+00  -1.647510e+01
  -2.311665e+00  -7.124185e+00
  -1.240656e+01   1.151532e+00
  -1.721373e+01  -4.884815e+01
  -1.211462e+01  -8.695204e+01
  -1.283607e+01  -7.554199e+01
   4.788296e+01   7.029687e+00
   4.731920e+01   1.002882e+02
   5.358954e+01   1.039450e+02
  -5.904335e+01   5.743773e+01
  -1.146658e+02  -3.735441e+01
  -2.416242e+01  -8.067716e+01
   3.468187e+01  -4.544116e+01
   4.853493e+01  -3.133206e+01
   5.844076e+01   2.348723e+01
  -6.168601e+01   5.057294e+01
  -1.096310e+01  -1.851256e+01
   2.938807e+00   2.118808e+01
   5.779528e+01   1.149300e+01
   1.912467e+01   2.008298e+01
  -7.422698e+01   5.836587e+01
  -8.280996e+01   5.708485e+01
  -3.066229e+01  -2.918233e+01
   1.391543e+01  -8.951668e+01
   3.767470e+01  -8.440510e+01
   2.952320e+01  -3.730474e+01
  -1.565722e+01   7.767136e+01
  -5.079160e+01   5.295538e+01
  -2.642099e+01  -8.910526e+00
  -1.493824e+01  -3.644715e+01
  -1.726246e+01  -5.778384e+01
   2.500840e+00   1.712103e+01
   4.723937e+01   4.330892e+01
   5.476750e+01  -2.413809e+01
  -4.740771e+00  -2.880737e+01
  -4.957124e+00  -2.628143e+01
  -2.598898e+01   4.523101e+01
   1.453427e+01   4.456303e+01
  -2.595449e+01   3.395936e+01
  -1.369232e+01  -1.967430e+01
  -3.174238e+01  -4.648149e+01
   4.683013e+01  -1.099920e+01
   4.674031e+01   2.777088e+01
   2.529878e+01   3.923898e+01
  -5.332769e+01   1.979976e+01
  -5.254761e+01  -8.814737e+00
  -2.491359e+01  -3.914494e+01
   2.803703e+01  -4.591839e+01
   5.988121e+01  -2.527825e+01
   3.909152e+01  -3.017464e+00
   7.640723e+00   2.373507e+00
  -4.408614e+01   2.912103e+00
   4.385935e+01  -4.406236e+01
   4.565762e+01   7.763979e+00
