
 $NMID
 id='ANONYMOUS ', fmtdat='(2E16.6)'
 volume=1.0
 tramp=1.0
 $END
   2.136687e+03   1.487298e+02
   1.568160e+03   1.629971e+03
  -2.394967e+02   1.576041e+03
  -7.913661e+02   8.140378e+02
  -7.060303e+02  -1.844623e+02
   4.688694e+01  -2.330226e+02
   3.526330e+02   2.257761e+02
   6.930699e+01   4.257025e+02
  -2.878376e+02   4.134838e+02
  -3.857613e+02   4.203317e+01
  -4.025712e+02  -3.985715e+02
   2.844068e+01  -4.673103e+02
   2.210183e+02  -6.367398e+01
   2.050707e+02   2.922406e+02
  -1.104590e+02   3.549343e+02
  -3.216344e+02   5.851626e+01
  -2.401497e+02  -3.894738e+02
   5.073128e+01  -3.959199e+02
   3.337503e+02  -1.007964e+02
   2.282942e+02   9.236590e+01
   3.038408e+01   1.946491e+02
  -8.162492e+01   1.613491e+02
  -6.711150e+01   2.742753e+01
   6.053193e+01   4.310330e+01
   1.388274e+02   1.613441e+02
   5.094136e+01   2.530883e+02
  -2.961399e+02   5.403038e+01
  -4.072120e+02  -4.486487e+01
  -1.872451e+02  -1.464093e+02
   1.541762e+02  -1.058297e+02
   3.119314e+02   7.002926e+01
   5.381149e+01   2.712620e+02
  -1.638078e+02   2.587596e+02
  -2.394329e+02   1.540600e+02
  -1.998252e+02  -1.278867e+02
  -1.145342e+02  -2.185118e+02
   4.398470e+01  -1.701371e+02
   1.158163e+01   3.017532e+01
  -8.339745e+01   1.168240e+02
  -9.937075e+01  -4.910485e+01
  -9.654441e+01  -3.747717e+02
   1.659603e+02  -3.154880e+02
   2.609875e+02  -2.162641e+01
   1.318992e+02   1.290304e+02
  -9.481225e+01   1.563615e+02
  -7.711272e+01  -1.483471e+02
  -2.584504e+01  -2.207939e+02
   2.324374e+02   1.018237e+01
   3.125577e+02   2.173053e+02
   1.089356e+02   2.894457e+02
  -1.609511e+02   1.673382e+02
  -2.921091e+02  -3.495008e+01
  -2.500758e+02  -1.818378e+02
   9.230146e+01  -1.594576e+02
   2.205245e+02  -2.540468e+01
   1.193467e+02   7.745918e+01
  -7.461404e+01   9.948257e+00
  -6.506431e+01  -2.438435e+01
   5.416882e+01   1.019323e+01
   1.666530e+02  -2.838706e+01
   1.107445e+02   1.044108e+02
  -6.631387e+01   1.061231e+02
  -1.827982e+02   1.008660e+02
  -1.556854e+02  -9.150786e+01
  -1.968956e+00  -1.406983e+02
   1.736154e+02  -1.831466e+02
   1.632544e+02  -1.135825e+02
   1.149256e+02   1.037239e+02
   4.527970e+01   1.668906e+02
  -3.431739e+01   1.373759e+02
  -6.461399e+00   8.534349e+01
  -5.276566e+01   2.879715e+01
  -8.280784e+01   7.825613e+01
  -1.866629e+02   3.155836e+01
  -1.368268e+02  -7.096598e+01
  -1.574078e+01  -1.913462e+02
   6.297390e+01  -1.130816e+02
   1.280166e+02   5.017692e-01
   8.909902e+01   1.425151e+02
  -3.030401e+01   1.826358e+02
  -1.101376e+02   3.042484e+01
  -1.760497e+02  -1.368962e+02
  -7.061741e+01  -1.568159e+02
   3.399594e+01  -1.602685e+02
   7.682067e+01  -7.382246e+01
   7.006470e+01  -6.174101e+00
   1.090549e+02  -3.366584e+01
   1.393084e+02  -9.359842e-01
   2.160116e+02   7.777723e+01
   1.657135e+02   1.327500e+02
  -2.864068e+01   2.212636e+02
  -2.010687e+02   1.806303e+02
  -2.334419e+02   1.122692e+02
  -1.586451e+02  -5.850977e+01
  -4.594934e+01  -1.339589e+02
   2.835387e+01  -1.223225e+02
   2.780592e+01  -1.320000e+01
  -3.993455e+01  -1.034107e+01
  -6.536392e+01  -2.870178e+01
  -1.122579e+01  -9.668972e+01
   4.128751e+01  -8.439918e+01
   7.039670e+01   3.176759e+01
  -3.917286e+01   1.033209e+02
  -7.675659e+01   3.057965e+01
  -6.700164e+01  -1.286429e+02
   4.130040e+01  -1.858128e+02
   8.725942e+01  -9.956529e+01
   2.089516e+02   4.537904e+01
   1.700292e+02   1.341639e+02
   1.126904e+01   1.640791e+02
  -9.091028e+01   1.076333e+02
  -8.129854e+01   1.517140e+01
  -4.217502e+01   4.462321e+00
   1.356188e+01   2.952234e+01
  -2.089552e+01   6.872449e+01
  -7.102678e+01   4.565616e+01
  -1.194205e+02  -4.035550e+01
  -2.660870e+01  -1.930155e+01
   6.032977e+01   1.440708e+01
   2.573605e+01   5.286638e+01
  -1.059266e+02   1.980199e+01
  -1.602167e+02  -4.931038e+01
  -1.568289e+02  -9.517839e+01
  -3.840937e+01  -1.378104e+02
   1.238072e+02  -1.154229e+02
   1.894013e+02  -3.358178e+01
   1.033246e+02   2.052193e+01
  -7.217616e+00   5.356479e+01
  -4.760693e+01   1.576915e+01
   3.566731e+01  -5.725817e+01
   9.819692e+01  -1.251228e+01
   1.201575e+02   2.349190e+01
   1.919306e+00   9.067660e+01
  -2.975868e+01   7.389884e+01
  -5.149194e+01   1.677511e+01
  -2.525247e+01   4.208196e+00
   1.298717e+01   2.412321e+01
   2.483864e+01   5.300523e+01
  -3.984474e+01   9.586571e+01
  -1.175477e+02   2.193215e+01
  -9.733292e+01  -7.947460e+01
  -8.358647e+00  -1.350141e+02
   8.119433e+01  -5.416823e+01
   1.300881e+02  -2.329286e+01
   3.751470e+01   8.336960e+01
  -9.120023e+00   4.329152e+01
  -4.145303e+01   2.083353e+01
  -7.872560e+00  -2.150402e+01
   3.169609e+01  -3.332027e+01
   4.507233e+00  -8.024589e+00
  -5.908260e+01   1.535779e+01
  -7.190863e+01  -2.916200e+01
  -1.042248e+01  -7.631606e+01
   1.056973e+02  -1.025903e+02
   1.180579e+02  -4.758706e+01
   1.187073e+02   1.112298e+02
   6.005872e+01   9.797240e+01
  -5.184078e+01   7.648548e+01
  -8.363866e+01   3.965427e+01
  -5.860218e+01  -2.715995e+01
  -2.093755e+01  -2.039991e+01
  -5.879155e+01  -3.957459e+00
  -7.341724e+01  -1.134646e+01
  -1.466608e+01  -5.584688e+01
   4.421722e+01  -7.190956e+01
   5.386406e+01  -5.370260e+01
   6.875386e+01   2.590704e+01
   4.194305e+00   5.442796e+01
  -6.604302e+01   3.168789e+01
  -1.006582e+02  -1.629217e+01
  -2.348655e+01  -8.973718e+01
   2.888246e+01  -9.030037e+01
   1.472908e+02  -3.914656e+01
   1.483398e+02   4.290593e+01
   8.357362e+01   1.022351e+02
   1.018300e+00   8.037895e+01
  -6.109430e+01   7.578542e+01
  -5.640348e+01   3.380415e+01
  -3.828963e+01   7.602204e+01
  -6.370021e+01   3.063610e+01
  -9.960437e+01  -2.975627e+01
  -7.170545e+01  -5.920124e+01
  -1.147188e+01  -1.048123e+02
   4.313586e+01  -1.107119e+02
   6.646905e+01  -2.567217e+01
   6.478890e+01   7.550177e+01
  -5.628435e+00   7.684126e+01
  -6.156211e+01   3.122269e+01
  -4.683747e+01  -8.850754e+00
   1.516691e+01  -1.316621e+01
   7.725183e+00  -1.585775e+01
  -1.466601e+01   3.076245e+00
  -5.897588e+01  -2.177569e+01
  -1.287444e+01  -3.101838e+01
   7.248102e+01  -2.285992e+01
   9.647307e+01  -1.079850e+00
   1.037452e+02   5.050708e+01
   7.149957e+00   5.016392e+01
  -9.575536e+01   4.357636e+01
  -7.814403e+01  -2.193962e+01
  -1.911268e+01  -5.117136e+01
   5.272195e+01  -9.046166e+00
   1.642413e+01   1.026312e+01
   1.555242e+01   2.316286e+01
  -4.273430e+01   1.120416e+01
  -6.049405e+01   2.386302e+01
  -5.459246e+01  -6.888961e+00
  -6.146991e+00  -3.247734e+01
  -3.490309e+01  -6.941684e+00
  -1.135521e+01   3.167132e+01
  -3.093521e+01  -5.311095e+01
   4.389265e+00  -9.458210e+01
   6.355517e+01  -1.116078e+02
   1.283261e+02  -3.634716e+01
   6.408985e+01   6.737989e+01
  -7.276711e+00   7.507988e+01
  -1.201328e+01   4.220483e+01
  -4.768745e+01  -2.946769e+01
   8.139166e+00  -1.159140e+01
   7.909972e+01   2.354477e+01
   2.755217e+01   3.354565e+01
  -6.511527e+01   6.093460e+01
  -9.172337e+01   4.567295e+01
  -1.007386e+02  -4.331143e+01
  -3.220817e+01  -6.684194e+01
   2.754454e+01  -2.393641e+01
   3.394352e+01   9.668282e+00
  -2.657233e+01   6.545502e+01
  -5.198608e+01  -2.329737e+01
  -6.644011e+01  -7.451095e+01
   7.830753e+01  -6.793072e+01
   7.184205e+01  -6.531018e+01
   4.573715e+01   5.271235e+01
   2.015849e+01   1.110579e+02
  -4.001252e+01   6.558369e+01
  -8.137308e+01   1.468444e+01
  -2.836960e+01  -7.799748e+01
   3.830428e+01  -5.397822e+01
   4.484610e+01  -3.976904e+01
   1.851821e+00   2.243400e-01
   1.361134e+01   6.436527e+00
  -2.080901e+01  -3.625520e+00
  -6.418987e-01   3.152344e+01
   3.857507e+01   4.216439e+01
   3.324236e+01   6.536770e+01
  -4.626999e+01   3.287110e+01
  -9.653264e+01  -3.548057e+01
  -5.784131e+01  -5.293527e+00
  -1.313007e+00  -4.208783e+01
   1.934906e+01  -2.864800e+01
   5.031931e+01   3.058731e+01
  -1.428928e+01   5.099073e+00
  -3.868644e+01   1.225601e+01
  -1.874839e+01   1.814350e+01
  -1.002562e+01  -1.611232e+00
  -4.236850e+00  -2.041588e+01
  -2.917361e+01   9.508673e+00
  -7.226250e+01  -5.114616e+00
  -2.829338e+00  -5.438337e+01
   6.983635e+01  -2.679491e+01
   1.368697e+02  -7.795927e+01
   7.747741e+01   3.620997e+01
   4.764160e+01   1.004923e+02
  -6.515350e+01   8.272699e+01
  -9.160782e+01   6.262127e+01
  -5.851317e+01   1.757132e+01
  -2.774379e+01  -7.296911e+00
  -2.869074e+00  -1.782820e+01
  -1.448279e+01  -1.082375e+01
  -2.129662e+01  -5.656948e+01
  -4.583141e+00  -7.545786e+01
   2.008499e+01  -5.046942e+01
   4.927605e+01   1.163147e+01
   6.164376e+01   1.028357e+02
  -8.470951e-01   9.147088e+01
  -3.016654e+01   2.605432e+01
  -3.924980e+01  -4.443962e+01
  -1.905591e+01  -5.585960e+01
   1.582252e+01  -5.162268e+01
   2.597246e+01   1.516748e+00
   3.052752e+01   4.893721e+01
  -3.539751e+01   4.094891e+01
  -3.345830e+01   1.335031e+01
   2.031076e+01  -3.309633e+00
   5.539275e+01   9.520570e+00
  -1.610266e+00   3.267181e+00
  -3.959496e+01   4.841054e+01
  -3.622584e+01  -8.888817e-01
  -6.133802e+01   1.843731e+01
  -9.567099e+00  -8.262100e+01
   5.917634e+01  -2.260819e+01
   3.984599e+01   1.565732e+00
  -2.171709e+01   3.156890e+01
  -1.545723e+01   1.073053e+01
  -5.522636e+01   2.347114e+00
  -1.209214e+01  -1.117668e+01
  -8.013793e-01  -1.141003e+01
   4.886354e+01   1.575371e+01
  -1.456116e+00   1.381512e+01
  -1.086097e+01  -1.588346e+01
  -6.821592e+00   2.800723e+00
   5.749844e+00   5.849218e+00
  -9.393699e+00   3.655843e+01
  -2.522606e+01   2.419524e+01
  -4.220237e+00   3.198661e+01
  -4.660657e+01  -2.297127e+01
   6.080054e+00  -4.778353e+01
   2.894848e+01   2.171472e+00
   1.932650e+01   2.592437e+01
   7.850717e-02   1.888101e+01
  -5.709089e+01   2.250933e+01
  -3.560411e+01   2.203694e+00
  -1.984898e+01  -4.175742e+01
   4.640782e+01  -3.329524e+00
   3.309695e+01   1.267945e+01
  -7.001859e-01   1.160257e+00
  -1.939265e+01   4.106070e+00
  -1.684320e+01  -1.047667e+01
  -2.384216e+00   2.523121e+01
   3.560548e+01  -2.786213e+01
