
 $NMID
 id='ANONYMOUS ', fmtdat='(2E16.6)'
 volume=1.0
 tramp=1.0
 $END
  -4.181761e+07   6.427690e+05
  -2.621197e+07  -2.357649e+07
   3.524819e+06  -2.769049e+07
   1.943261e+07  -1.311148e+07
   1.299676e+07   2.880694e+06
  -1.367040e+06   7.076145e+06
  -7.597963e+06   6.402173e+05
  -3.479605e+06  -6.982885e+06
   3.608727e+06  -8.361826e+06
   7.279011e+06  -2.718460e+06
   5.764226e+06   4.767873e+06
   8.078359e+05   7.122026e+06
  -3.309814e+06   2.025026e+06
  -2.512184e+06  -5.010663e+06
   2.520863e+06  -6.057113e+06
   6.179146e+06   3.182487e+05
   4.024195e+06   7.668116e+06
  -2.335630e+06   9.269689e+06
  -7.548742e+06   4.673696e+06
  -8.087118e+06  -1.675973e+06
  -4.550712e+06  -5.616691e+06
  -2.076785e+05  -5.888562e+06
   1.561745e+06  -3.846567e+06
  -3.795054e+04  -2.217573e+06
  -1.900331e+06  -2.826428e+06
   2.551328e+04  -4.383540e+06
   5.322886e+06  -3.712679e+06
   8.534933e+06   2.959189e+03
   5.660303e+06   3.693523e+06
  -5.352181e+05   4.127225e+06
  -3.873340e+06   1.655462e+06
  -2.110605e+06  -9.122782e+05
   1.510285e+06  -1.638530e+06
   3.165977e+06  -3.481608e+05
   2.176031e+06   2.144505e+06
   3.744637e+03   3.955234e+06
  -1.788126e+06   2.852446e+06
  -2.043011e+06  -7.466849e+05
  -6.301285e+05  -2.855363e+06
   7.058814e+05  -6.563245e+05
  -7.223590e+04   2.861384e+06
  -2.152163e+06   2.312739e+06
  -2.193058e+06  -2.254741e+06
   1.114974e+06  -4.696478e+06
   4.515368e+06  -1.059053e+06
   3.810531e+06   4.825146e+06
  -9.804828e+05   6.278261e+06
  -5.582454e+06   1.994195e+06
  -6.031509e+06  -3.296763e+06
  -2.180401e+06  -4.980113e+06
   2.721795e+06  -2.747558e+06
   4.820953e+06   7.046429e+05
   2.621071e+06   2.663211e+06
  -1.596404e+06   1.980445e+06
  -3.646735e+06  -3.824497e+05
  -1.783267e+06  -1.952623e+06
   1.263797e+06  -1.152283e+06
   1.684206e+06   7.298726e+05
  -5.825469e+05   1.089863e+06
  -2.014967e+06  -5.707242e+05
  -3.107348e+05  -2.122403e+06
   2.803361e+06  -1.697871e+06
   4.006538e+06   3.884893e+05
   2.091168e+06   2.760769e+06
  -1.492521e+06   4.341144e+06
  -4.496094e+06   4.106649e+06
  -5.317810e+06   1.321307e+06
  -3.624149e+06  -2.828002e+06
  -7.239609e+05  -5.266668e+06
   1.187625e+06  -4.236685e+06
   1.135733e+06  -1.596600e+06
   4.065241e+05  -4.496825e+05
   7.736130e+05  -1.149022e+06
   2.145149e+06  -1.325134e+06
   2.821840e+06   3.753473e+05
   1.752533e+06   2.362665e+06
  -3.481774e+05   2.340457e+06
  -1.926524e+06   1.590964e+05
  -1.837229e+06  -2.236457e+06
   6.782878e+04  -2.894116e+06
   2.641087e+06  -1.350231e+06
   3.847274e+06   1.290945e+06
   2.525194e+06   3.216335e+06
  -1.146316e+05   3.291280e+06
  -1.696087e+06   2.046508e+06
  -1.566067e+06   1.007649e+06
  -1.428994e+06   8.609254e+05
  -2.659891e+06   7.438604e+05
  -4.084320e+06  -4.200087e+05
  -3.411916e+06  -2.419805e+06
  -3.037937e+05  -3.943877e+06
   3.012417e+06  -3.850621e+06
   4.088567e+06  -2.007204e+06
   2.536402e+06   5.966258e+05
   5.367156e+04   2.260067e+06
  -1.239579e+06   1.785514e+06
  -5.302415e+05  -1.259654e+05
   1.101122e+06  -1.262814e+06
   1.772095e+06  -3.993299e+05
   7.895988e+05   1.107363e+06
  -5.686905e+05   1.113333e+06
  -6.035816e+05  -3.234817e+05
   7.218567e+05  -9.604725e+05
   1.784310e+06   5.656822e+05
   1.233994e+06   2.874184e+06
  -6.848342e+05   3.542512e+06
  -2.671251e+06   1.839150e+06
  -3.523800e+06  -8.389838e+05
  -2.719994e+06  -2.637233e+06
  -6.737756e+05  -2.711523e+06
   1.232287e+06  -1.493650e+06
   1.586051e+06  -2.123454e+05
   4.799576e+05   3.192737e+04
  -3.831790e+05  -7.151676e+05
   2.978407e+05  -1.249134e+06
   1.711512e+06  -6.100068e+05
   1.942576e+06   6.867771e+05
   4.770473e+05   1.278586e+06
  -1.093193e+06   6.405570e+05
  -9.910910e+05  -3.907624e+05
   7.140457e+05  -7.034477e+05
   2.255159e+06   9.845127e+03
   2.002522e+06   1.228707e+06
  -2.603073e+04   2.088735e+06
  -2.205676e+06   1.831413e+06
  -2.719120e+06   4.042879e+05
  -1.209236e+06  -1.137777e+06
   8.124974e+05  -1.396042e+06
   1.406179e+06  -2.001618e+05
   1.666047e+05   9.958650e+05
  -1.434443e+06   7.482955e+05
  -1.710290e+06  -6.491690e+05
  -4.858208e+05  -1.582893e+06
   9.427360e+05  -1.089962e+06
   1.264680e+06   1.344182e+05
   3.603783e+05   7.133267e+05
  -7.160934e+05   1.072207e+05
  -7.362626e+05  -9.809634e+05
   5.317807e+05  -1.394476e+06
   1.947654e+06  -5.677241e+05
   2.002457e+06   9.710792e+05
   4.428238e+05   1.992171e+06
  -1.310005e+06   1.645319e+06
  -1.657978e+06   2.982923e+05
  -5.591521e+05  -8.121892e+05
   5.948812e+05  -8.377967e+05
   6.832632e+05  -9.415161e+04
  -3.792353e+04   4.655859e+05
  -5.478654e+05   3.467766e+05
  -3.028272e+05  -7.009635e+04
   3.312142e+05  -8.614872e+04
   5.687821e+05   5.040680e+05
  -6.949395e+04   1.131768e+06
  -1.276053e+06   9.449492e+05
  -2.041241e+06  -3.089752e+05
  -1.492041e+06  -1.834999e+06
   1.279043e+05  -2.394927e+06
   1.539226e+06  -1.516485e+06
   1.731248e+06  -1.544066e+03
   9.920065e+05   9.135642e+05
   3.796787e+05   8.063046e+05
   3.835970e+05   3.156622e+05
   5.040870e+05   2.448520e+05
   9.500153e+04   6.621854e+05
  -7.788917e+05   9.254853e+05
  -1.413159e+06   4.360737e+05
  -1.134944e+06  -6.754781e+05
   1.249264e+05  -1.523520e+06
   1.644207e+06  -1.182963e+06
   2.252643e+06   3.654250e+05
   1.243288e+06   1.989505e+06
  -8.120181e+05   2.339940e+06
  -2.379249e+06   1.161304e+06
  -2.363603e+06  -4.622939e+05
  -1.117895e+06  -1.264402e+06
   8.747637e+04  -1.043857e+06
   4.369490e+05  -6.243805e+05
   1.996542e+05  -7.355102e+05
   1.355665e+05  -1.194664e+06
   5.907754e+05  -1.212862e+06
   1.209238e+06  -3.311313e+05
   1.325379e+06   1.022096e+06
   5.991622e+05   1.843050e+06
  -5.734431e+05   1.430883e+06
  -1.269405e+06   6.298464e+04
  -8.653762e+05  -1.182532e+06
   2.619186e+05  -1.369290e+06
   1.036190e+06  -5.192164e+05
   8.012793e+05   5.223476e+05
   4.774668e+03   9.783979e+05
  -3.813904e+05   7.952224e+05
  -2.066807e+04   4.549851e+05
   4.133497e+05   3.383471e+05
   5.813202e+04   3.816132e+05
  -1.073078e+06   2.585120e+05
  -1.970401e+06  -2.294969e+05
  -1.616368e+06  -9.169409e+05
  -8.310352e+04  -1.349827e+06
   1.432847e+06  -1.145430e+06
   1.751832e+06  -3.855305e+05
   8.562901e+05   3.599004e+05
  -1.996656e+05   5.195975e+05
  -4.715461e+05   8.823248e+04
  -1.207314e+04  -3.531965e+05
   4.551716e+05  -2.490146e+05
   4.695224e+05   3.214027e+05
   2.024639e+05   7.201844e+05
   4.489161e+04   4.728887e+05
   1.356863e+05  -1.442803e+05
   3.118206e+05  -3.584260e+05
   2.901412e+05   2.049052e+05
  -1.345163e+05   9.919746e+05
  -8.368617e+05   1.062714e+06
  -1.247192e+06   1.734117e+05
  -7.863644e+05  -8.699633e+05
   3.687893e+05  -1.066017e+06
   1.175470e+06  -3.059828e+05
   7.272599e+05   5.586347e+05
  -6.481485e+05   6.712193e+05
  -1.587811e+06  -2.079990e+03
  -1.103607e+06  -7.906207e+05
   3.731506e+05  -1.038726e+06
   1.468374e+06  -6.156755e+05
   1.275688e+06   9.311987e+04
   1.846059e+05   5.151196e+05
  -6.205863e+05   3.191066e+05
  -3.670999e+05  -2.557021e+05
   5.879181e+05  -5.035318e+05
   1.161114e+06   8.708752e+04
   6.422002e+05   1.164928e+06
  -5.927531e+05   1.671149e+06
  -1.464723e+06   8.770148e+05
  -1.258281e+06  -7.298479e+05
  -2.488616e+05  -1.774337e+06
   6.884649e+05  -1.334333e+06
   9.296914e+05   1.039306e+05
   5.068032e+05   1.155824e+06
  -1.312458e+05   9.935149e+05
  -5.361406e+05   1.248996e+05
  -5.115169e+05  -3.648428e+05
  -2.087682e+05  -1.430641e+05
  -2.940858e+04   1.083937e+05
  -2.269849e+05  -2.550263e+05
  -5.133905e+05  -9.264971e+05
  -2.738728e+05  -1.068651e+06
   6.365496e+05  -4.222139e+05
   1.481188e+06   4.125759e+05
   1.338732e+06   7.836970e+05
   2.114076e+05   6.734365e+05
  -8.687926e+05   4.379477e+05
  -9.808381e+05   2.280563e+05
  -3.241210e+05  -1.732519e+04
   1.526434e+05  -2.236928e+05
  -1.713043e+04  -2.254426e+05
  -3.142309e+05  -1.091308e+05
  -3.666163e+04  -1.327372e+05
   6.971631e+05  -2.370255e+05
   1.028130e+06  -7.312392e+03
   3.789262e+05   6.631401e+05
  -8.401030e+05   1.160808e+06
  -1.623086e+06   7.632747e+05
  -1.347990e+06  -4.100062e+05
  -2.961810e+05  -1.387140e+06
   7.019356e+05  -1.365017e+06
   1.017976e+06  -5.328164e+05
   6.613434e+05   2.333821e+05
   1.244649e+05   3.489542e+05
  -1.066053e+05   4.225226e+04
   6.426723e+04  -4.924581e+04
   3.287652e+05   3.394111e+05
   2.874599e+05   7.898473e+05
  -1.650940e+05   6.675779e+05
  -6.859233e+05  -1.269095e+05
  -7.341789e+05  -9.455086e+05
  -9.902509e+04  -1.010967e+06
   7.615208e+05  -2.281811e+05
   1.030360e+06   7.165508e+05
   3.502355e+05   1.062234e+06
  -6.895006e+05   6.602417e+05
  -1.085667e+06  -5.091957e+04
  -5.201556e+05  -5.601768e+05
   2.593147e+05  -6.414488e+05
   3.300226e+05  -3.662887e+05
  -2.798819e+05  -1.530872e+04
  -6.485487e+05   5.318796e+04
  -1.413487e+05  -2.922775e+05
   7.935889e+05  -6.998358e+05
   1.194812e+06  -5.977280e+05
   7.211402e+05   1.244330e+05
  -7.218029e+04   8.463930e+05
  -4.876685e+05   8.460956e+05
  -3.796941e+05   1.464086e+05
  -4.908610e+04  -4.856118e+05
   2.293251e+05  -4.175778e+05
   3.540515e+05   1.654484e+05
   2.633778e+05   5.628127e+05
  -4.778554e+04   3.945629e+05
  -3.860254e+05  -4.583964e+04
  -4.664691e+05  -2.408239e+05
  -2.412942e+05  -6.829594e+04
   2.251657e+04   1.229109e+05
   8.158697e+04  -1.031916e+04
   2.019564e+04  -3.691189e+05
   9.419489e+04  -5.110880e+05
   3.284762e+05  -1.689516e+05
   4.230328e+05   3.975973e+05
   1.197741e+05   6.397187e+05
  -4.087380e+05   3.077316e+05
  -6.435531e+05  -2.757570e+05
  -2.526336e+05  -5.702083e+05
   4.799544e+05  -3.714583e+05
   8.549683e+05   6.123841e+04
   4.751361e+05   3.587529e+05
  -2.780609e+05   3.811193e+05
  -6.159405e+05   2.162741e+05
  -2.226837e+05   2.008107e+04
   3.735101e+05  -5.439161e+04
   4.179161e+05   8.417675e+04
  -1.837997e+05   3.133625e+05
  -7.695499e+05   2.901840e+05
