
 $NMID
 id='ANONYMOUS ', fmtdat='(2E16.6)'
 volume=1.0
 tramp=1.0
 $END
  -2.876573e+07  -4.669611e+05
  -1.790059e+07  -1.524138e+07
   1.830166e+06  -1.833604e+07
   1.280927e+07  -1.005357e+07
   9.283556e+06   5.217387e+05
  -2.465793e+05   4.827420e+06
  -5.289760e+06   1.421496e+06
  -3.227647e+06  -4.546807e+06
   1.833802e+06  -6.616602e+06
   5.055474e+06  -2.606605e+06
   4.288490e+06   3.504719e+06
   5.979482e+05   5.462984e+06
  -2.566497e+06   1.344693e+06
  -2.065807e+06  -4.175266e+06
   1.616158e+06  -4.956568e+06
   4.448399e+06  -1.201302e+05
   3.093216e+06   5.444358e+06
  -1.522201e+06   6.709977e+06
  -5.409977e+06   3.237662e+06
  -5.626737e+06  -1.527377e+06
  -2.705427e+06  -4.112328e+06
   3.158779e+05  -3.701251e+06
   7.861135e+05  -2.077809e+06
  -1.055744e+06  -1.615001e+06
  -2.125037e+06  -2.886340e+06
   2.417806e+05  -4.012636e+06
   4.750832e+06  -2.808267e+06
   6.923461e+06   4.557621e+05
   4.148633e+06   3.136256e+06
  -9.898098e+05   3.123330e+06
  -3.538049e+06   9.007483e+05
  -1.680320e+06  -1.360706e+06
   1.822429e+06  -1.866369e+06
   3.319264e+06  -2.392822e+05
   1.961134e+06   2.336616e+06
  -4.019093e+05   3.581897e+06
  -1.665688e+06   1.970888e+06
  -1.184037e+06  -1.093146e+06
   1.196768e+05  -2.145291e+06
   6.657346e+05   1.509853e+05
  -3.144392e+05   2.782297e+06
  -1.769943e+06   2.009423e+06
  -1.721519e+06  -1.493057e+06
   3.876698e+05  -3.234028e+06
   2.624899e+06  -7.505066e+05
   2.425338e+06   3.204201e+06
  -5.775646e+05   4.201717e+06
  -3.950632e+06   1.327313e+06
  -4.691463e+06  -2.407171e+06
  -1.987077e+06  -3.819941e+06
   1.998633e+06  -2.370869e+06
   3.949148e+06   2.353044e+05
   2.370937e+06   1.892320e+06
  -9.423935e+05   1.555160e+06
  -2.670289e+06  -1.089759e+05
  -1.431341e+06  -1.293969e+06
   8.614862e+05  -8.442875e+05
   1.429853e+06   4.833577e+05
  -7.918483e+04   9.934861e+05
  -1.426776e+06   1.222559e+05
  -6.925649e+05  -1.054647e+06
   1.481390e+06  -1.227730e+06
   2.756452e+06  -7.484855e+04
   1.618307e+06   1.801821e+06
  -1.267342e+06   3.301601e+06
  -3.806922e+06   3.147342e+06
  -4.269788e+06   8.109455e+05
  -2.620154e+06  -2.425692e+06
  -4.076958e+05  -4.176751e+06
   7.411174e+05  -3.404164e+06
   6.464993e+05  -1.596911e+06
   4.779358e+05  -8.240696e+05
   1.163069e+06  -1.146199e+06
   2.250633e+06  -8.924050e+05
   2.516836e+06   7.261184e+05
   1.378565e+06   2.357956e+06
  -5.271275e+05   2.178192e+06
  -1.896198e+06   1.133087e+05
  -1.683238e+06  -2.061858e+06
   1.319553e+05  -2.522926e+06
   2.286440e+06  -9.796678e+05
   3.036196e+06   1.279729e+06
   1.773120e+06   2.612364e+06
  -2.401912e+05   2.392485e+06
  -1.245995e+06   1.382860e+06
  -1.040669e+06   7.623477e+05
  -1.041754e+06   8.165114e+05
  -2.184212e+06   7.455567e+05
  -3.429679e+06  -2.578105e+05
  -2.915436e+06  -1.992425e+06
  -2.993117e+05  -3.363379e+06
   2.604452e+06  -3.308838e+06
   3.587266e+06  -1.645721e+06
   2.163120e+06   6.580369e+05
  -1.060499e+05   2.011305e+06
  -1.190004e+06   1.482498e+06
  -4.413758e+05  -1.587217e+05
   9.875870e+05  -1.061260e+06
   1.470540e+06  -3.244509e+05
   5.977292e+05   9.231923e+05
  -5.245058e+05   9.672974e+05
  -6.056596e+05  -2.350651e+05
   4.301113e+05  -9.484455e+05
   1.461554e+06   1.224275e+05
   1.342283e+06   2.158330e+06
  -1.153594e+05   3.124816e+06
  -2.059732e+06   1.972104e+06
  -3.186459e+06  -4.196331e+05
  -2.618576e+06  -2.255957e+06
  -6.931675e+05  -2.441634e+06
   1.099436e+06  -1.320033e+06
   1.405072e+06  -1.644404e+05
   4.157158e+05   2.326801e+04
  -3.348964e+05  -6.059485e+05
   2.163037e+05  -1.022488e+06
   1.385025e+06  -5.146405e+05
   1.618781e+06   5.073522e+05
   4.464501e+05   1.023348e+06
  -9.035919e+05   5.704369e+05
  -9.031573e+05  -3.095081e+05
   5.549109e+05  -6.946266e+05
   2.004553e+06  -1.369455e+05
   1.882409e+06   1.017946e+06
   8.552089e+04   1.887718e+06
  -1.889203e+06   1.676630e+06
  -2.351523e+06   3.978548e+05
  -1.036382e+06  -9.317239e+05
   6.678740e+05  -1.141502e+06
   1.137588e+06  -1.585508e+05
   1.063305e+05   8.185999e+05
  -1.212746e+06   6.343588e+05
  -1.473321e+06  -5.090723e+05
  -4.927772e+05  -1.335196e+06
   7.336544e+05  -9.979968e+05
   1.089046e+06   2.117247e+04
   3.671071e+05   5.669426e+05
  -5.708988e+05   9.485621e+04
  -6.127557e+05  -8.342043e+05
   4.751983e+05  -1.190459e+06
   1.684847e+06  -4.720309e+05
   1.717243e+06   8.402523e+05
   3.904413e+05   1.700075e+06
  -1.089733e+06   1.419608e+06
  -1.407886e+06   2.965841e+05
  -5.125748e+05  -6.693660e+05
   4.833147e+05  -7.361317e+05
   6.185592e+05  -9.039337e+04
   8.504514e+03   4.553845e+05
  -5.107679e+05   3.732057e+05
  -3.668587e+05  -6.089898e+04
   2.197296e+05  -1.573397e+05
   5.152138e+05   3.551752e+05
  -3.383944e+03   9.576218e+05
  -1.074825e+06   8.348175e+05
  -1.760859e+06  -2.448300e+05
  -1.293815e+06  -1.570973e+06
   9.213652e+04  -2.083825e+06
   1.316894e+06  -1.372565e+06
   1.539252e+06  -6.322598e+04
   9.510794e+05   8.126682e+05
   3.826459e+05   8.022702e+05
   2.905891e+05   3.523808e+05
   3.631371e+05   1.988421e+05
   6.732516e+04   5.323105e+05
  -6.453791e+05   8.178712e+05
  -1.232034e+06   4.269476e+05
  -1.044916e+06  -5.845483e+05
   5.404972e+04  -1.375765e+06
   1.416927e+06  -1.078733e+06
   1.974421e+06   2.859318e+05
   1.119867e+06   1.693462e+06
  -6.335329e+05   2.012051e+06
  -1.999139e+06   1.050924e+06
  -2.061718e+06  -3.170245e+05
  -1.057667e+06  -1.064532e+06
   9.275673e+03  -9.641579e+05
   4.104381e+05  -6.180681e+05
   2.598621e+05  -6.477367e+05
   1.644712e+05  -9.872032e+05
   4.951922e+05  -1.007501e+06
   1.017356e+06  -2.743474e+05
   1.139870e+06   8.844829e+05
   5.222998e+05   1.595326e+06
  -4.952923e+05   1.242186e+06
  -1.099847e+06   7.476662e+04
  -7.654218e+05  -9.871955e+05
   1.752640e+05  -1.172130e+06
   8.313649e+05  -4.962968e+05
   6.733312e+05   3.693155e+05
   5.532178e+04   7.903634e+05
  -2.539587e+05   6.842565e+05
   2.008474e+04   4.152232e+05
   3.517802e+05   3.097938e+05
   4.570312e+04   3.402084e+05
  -9.029273e+05   2.343683e+05
  -1.671476e+06  -1.813466e+05
  -1.398059e+06  -7.608605e+05
  -1.138246e+05  -1.124630e+06
   1.186172e+06  -9.729268e+05
   1.487198e+06  -3.718712e+05
   7.454097e+05   2.449241e+05
  -1.531952e+05   4.195045e+05
  -3.877473e+05   9.921954e+04
   1.175202e+04  -2.774947e+05
   4.139303e+05  -2.145642e+05
   4.034002e+05   2.782277e+05
   1.408326e+05   6.457992e+05
   2.770280e+03   4.215412e+05
   1.160595e+05  -1.568776e+05
   2.943952e+05  -3.548016e+05
   2.600192e+05   1.730009e+05
  -1.313126e+05   8.823204e+05
  -7.227091e+05   9.156589e+05
  -1.038159e+06   1.139545e+05
  -6.357468e+05  -7.648765e+05
   3.249499e+05  -8.859906e+05
   9.991544e+05  -2.230119e+05
   6.303771e+05   4.963003e+05
  -5.451920e+05   5.924138e+05
  -1.391403e+06   3.640111e+04
  -1.017220e+06  -6.554404e+05
   2.675111e+05  -9.305475e+05
   1.268887e+06  -6.064505e+05
   1.139502e+06   3.301059e+04
   1.877844e+05   4.510616e+05
  -5.262616e+05   2.993065e+05
  -3.017343e+05  -2.096609e+05
   5.335053e+05  -4.224827e+05
   1.011136e+06   1.047127e+05
   5.265077e+05   1.034856e+06
  -5.585756e+05   1.448174e+06
  -1.298836e+06   7.438181e+05
  -1.099162e+06  -6.469912e+05
  -2.199890e+05  -1.555344e+06
   5.897743e+05  -1.188184e+06
   8.122139e+05   5.816049e+04
   4.734231e+05   9.947397e+05
  -7.020562e+04   8.777053e+05
  -4.524554e+05   1.229326e+05
  -4.744326e+05  -3.162147e+05
  -2.131032e+05  -1.262460e+05
  -1.132073e+04   1.010200e+05
  -1.518500e+05  -2.111106e+05
  -4.331403e+05  -7.998387e+05
  -2.802543e+05  -9.277540e+05
   5.106340e+05  -3.674857e+05
   1.298990e+06   3.529782e+05
   1.203885e+06   6.697882e+05
   1.894152e+05   5.786688e+05
  -7.860509e+05   3.888146e+05
  -8.627706e+05   2.161384e+05
  -2.540258e+05  -2.384064e+03
   1.439649e+05  -1.950603e+05
  -5.480385e+04  -2.060169e+05
  -3.153925e+05  -1.064406e+05
  -1.733174e+04  -1.217390e+05
   6.507003e+05  -2.021258e+05
   8.934422e+05   6.214788e+03
   2.742415e+05   5.845693e+05
  -7.722409e+05   9.970742e+05
  -1.395607e+06   6.311068e+05
  -1.133733e+06  -3.899482e+05
  -2.440483e+05  -1.218852e+06
   6.063193e+05  -1.173940e+06
   8.931770e+05  -4.373181e+05
   5.858217e+05   2.240439e+05
   9.122029e+04   3.074926e+05
  -1.300818e+05   2.245751e+04
   3.835804e+04  -6.470331e+04
   3.000555e+05   2.810164e+05
   2.634182e+05   6.841461e+05
  -1.542396e+05   5.742957e+05
  -6.095910e+05  -1.349626e+05
  -6.213568e+05  -8.538590e+05
  -4.368226e+04  -8.860795e+05
   6.933503e+05  -1.681775e+05
   8.921460e+05   6.611416e+05
   2.789478e+05   9.300926e+05
  -6.146748e+05   5.489129e+05
  -9.309331e+05  -6.202481e+04
  -4.253494e+05  -4.709028e+05
   2.337446e+05  -5.255070e+05
   2.618845e+05  -3.027935e+05
  -2.785974e+05  -1.799236e+04
  -5.750766e+05   4.137088e+04
  -1.100158e+05  -2.518217e+05
   6.918513e+05  -6.119456e+05
   1.009200e+06  -5.346606e+05
   5.902290e+05   9.311727e+04
  -7.094916e+04   7.250667e+05
  -4.027297e+05   7.159213e+05
  -3.056572e+05   9.580112e+04
  -2.791017e+04  -4.405392e+05
   2.115546e+05  -3.475801e+05
   3.169304e+05   1.729662e+05
   2.233344e+05   4.935083e+05
  -5.715222e+04   3.196669e+05
  -3.379062e+05  -5.400132e+04
  -3.905441e+05  -1.939977e+05
  -2.053344e+05  -4.259599e+04
  -8.955082e+02   8.846685e+04
   5.904543e+04  -5.465615e+04
   5.381182e+04  -3.496193e+05
   1.477882e+05  -4.277503e+05
   3.178107e+05  -9.864664e+04
   3.377540e+05   3.914608e+05
   5.233112e+04   5.752049e+05
  -3.756563e+05   2.559454e+05
  -5.453322e+05  -2.670903e+05
  -2.056967e+05  -5.133907e+05
   4.124780e+05  -3.150665e+05
   7.308720e+05   7.455922e+04
   4.038893e+05   3.175710e+05
  -2.493161e+05   3.091474e+05
  -5.363285e+05   1.573526e+05
  -1.728373e+05   6.497462e+03
   3.626589e+05  -3.035440e+04
   3.839977e+05   1.040537e+05
  -1.824394e+05   2.976165e+05
  -7.143631e+05   2.586886e+05
