
 $NMID
 id='ANONYMOUS ', fmtdat='(2E16.6)'
 volume=1.0
 tramp=1.0
 $END
   6.111819e+07   1.572517e+05
   3.634638e+07   3.867426e+07
  -8.818900e+06   4.155968e+07
  -3.026886e+07   1.503899e+07
  -1.752829e+07  -8.468201e+06
   4.014854e+06  -1.004873e+07
   1.053030e+07   1.904590e+06
   2.478815e+06   1.067850e+07
  -7.070444e+06   9.578370e+06
  -1.040049e+07   1.705838e+06
  -7.377489e+06  -6.651373e+06
  -8.270331e+05  -9.047746e+06
   4.205495e+06  -2.988053e+06
   2.678621e+06   5.526445e+06
  -4.152325e+06   6.651790e+06
  -8.398971e+06  -1.687778e+06
  -4.560529e+06  -1.100713e+07
   4.245443e+06  -1.258701e+07
   1.091495e+07  -6.310311e+06
   1.170183e+07   2.141901e+06
   7.341033e+06   8.092625e+06
   8.744199e+05   9.595474e+06
  -3.398967e+06   6.806843e+06
  -2.547977e+06   2.798017e+06
   8.294097e+05   1.829049e+06
   4.119970e+05   4.045087e+06
  -5.337318e+06   4.656601e+06
  -9.981032e+06   7.451448e+05
  -7.512689e+06  -4.221206e+06
  -5.639066e+05  -5.384991e+06
   3.626464e+06  -2.932911e+06
   2.615898e+06  -3.779752e+05
  -2.253298e+05   6.971411e+05
  -1.912354e+06   5.893696e+05
  -2.203881e+06  -1.117579e+06
  -9.819312e+05  -3.877637e+06
   1.773782e+06  -4.195561e+06
   3.658116e+06  -1.347677e+05
   2.111062e+06   3.903453e+06
  -8.101047e+05   2.389071e+06
  -5.337803e+05  -2.284109e+06
   2.521666e+06  -2.288909e+06
   2.516443e+06   3.499138e+06
  -2.877652e+06   6.595262e+06
  -7.776183e+06   9.872032e+05
  -5.564162e+06  -7.627114e+06
   2.217318e+06  -9.272235e+06
   8.023971e+06  -2.571868e+06
   7.231709e+06   4.793937e+06
   1.725871e+06   6.336964e+06
  -3.703262e+06   2.679308e+06
  -5.363578e+06  -1.789987e+06
  -2.327193e+06  -3.741068e+06
   2.697965e+06  -2.255033e+06
   4.808434e+06   1.107432e+06
   1.989251e+06   2.975819e+06
  -1.871433e+06   1.442057e+06
  -1.744569e+06  -1.120676e+06
   1.579109e+06  -8.437031e+05
   2.615885e+06   2.169135e+06
  -9.552357e+05   3.886043e+06
  -5.246078e+06   1.959268e+06
  -5.715060e+06  -1.686361e+06
  -2.381743e+06  -4.371419e+06
   1.874664e+06  -5.557924e+06
   5.119845e+06  -5.095147e+06
   6.449672e+06  -1.919434e+06
   4.910327e+06   3.231491e+06
   1.044579e+06   6.445667e+06
  -2.071673e+06   4.920721e+06
  -1.962312e+06   1.065322e+06
  -5.460790e+04  -5.076668e+05
   3.429995e+05   9.299352e+05
  -1.387252e+06   1.982256e+06
  -2.809926e+06   4.942381e+05
  -2.149624e+06  -1.752999e+06
  -1.848037e+05  -2.077397e+06
   1.414820e+06  -2.444026e+05
   1.637480e+06   1.995188e+06
   5.193415e+04   2.942415e+06
  -2.794175e+06   1.779848e+06
  -4.688765e+06  -1.122713e+06
  -3.477298e+06  -3.923645e+06
  -6.971715e+03  -4.547240e+06
   2.466506e+06  -2.953806e+06
   2.456976e+06  -1.182175e+06
   1.963880e+06  -6.200832e+05
   3.027671e+06  -3.978494e+05
   4.432841e+06   8.570502e+05
   3.517517e+06   2.864451e+06
   9.101451e+04   4.185612e+06
  -3.246802e+06   3.934647e+06
  -4.188076e+06   2.190981e+06
  -2.708796e+06  -3.382542e+05
  -3.779928e+05  -2.229446e+06
   1.038841e+06  -2.001282e+06
   5.815274e+05   1.462311e+03
  -1.077813e+06   1.339448e+06
  -1.962709e+06   4.080070e+05
  -9.804890e+05  -1.244341e+06
   4.961417e+05  -1.122200e+06
   3.662473e+05   4.126101e+05
  -1.193925e+06   5.991313e+05
  -1.883891e+06  -1.558013e+06
  -4.256179e+05  -3.710145e+06
   1.925829e+06  -3.349468e+06
   3.302412e+06  -8.339588e+05
   3.214214e+06   1.660090e+06
   2.107428e+06   2.785064e+06
   3.831596e+05   2.561319e+06
  -1.233815e+06   1.460391e+06
  -1.575051e+06   2.440458e+05
  -4.984284e+05  -4.976678e+04
   3.542807e+05   7.686261e+05
  -4.574923e+05   1.387692e+06
  -1.995919e+06   5.766171e+05
  -2.084461e+06  -9.690323e+05
  -3.523248e+05  -1.482949e+06
   1.210615e+06  -5.526167e+05
   8.545831e+05   4.791457e+05
  -9.015517e+05   4.479794e+05
  -2.149855e+06  -4.390044e+05
  -1.642014e+06  -1.399090e+06
   3.322403e+05  -1.921300e+06
   2.346296e+06  -1.593294e+06
   2.802602e+06  -2.317373e+05
   1.229741e+06   1.321970e+06
  -9.652726e+05   1.560541e+06
  -1.636442e+06   1.912199e+05
  -2.232373e+05  -1.126267e+06
   1.557740e+06  -7.452129e+05
   1.733464e+06   8.365782e+05
   2.776345e+05   1.688971e+06
  -1.161353e+06   9.322361e+05
  -1.260620e+06  -3.915231e+05
  -1.964648e+05  -8.184759e+05
   8.402680e+05  -3.902334e+04
   7.525785e+05   1.085736e+06
  -5.841351e+05   1.451724e+06
  -2.039742e+06   5.527906e+05
  -2.069172e+06  -1.074941e+06
  -3.723716e+05  -2.120284e+06
   1.498120e+06  -1.657161e+06
   1.764802e+06  -1.765231e+05
   4.803720e+05   8.997425e+05
  -6.896909e+05   7.959366e+05
  -6.149781e+05   7.297651e+04
   1.506141e+05  -3.139014e+05
   4.610129e+05  -1.514382e+05
   3.860699e+04   5.616091e+04
  -4.999104e+05  -1.546065e+05
  -4.945155e+05  -7.478317e+05
   2.646035e+05  -1.214328e+06
   1.428648e+06  -8.833101e+05
   2.109832e+06   4.490430e+05
   1.472051e+06   1.989856e+06
  -2.412978e+05   2.441768e+06
  -1.644726e+06   1.376620e+06
  -1.671714e+06  -1.762445e+05
  -7.985888e+05  -8.812895e+05
  -2.934819e+05  -5.730837e+05
  -5.272709e+05  -1.691064e+05
  -6.902020e+05  -3.428976e+05
  -9.416893e+04  -8.127974e+05
   9.160013e+05  -8.942114e+05
   1.460030e+06  -2.826734e+05
   1.012585e+06   7.327813e+05
  -2.976410e+05   1.428040e+06
  -1.750468e+06   1.033765e+06
  -2.252659e+06  -5.222761e+05
  -1.099294e+06  -2.149291e+06
   1.091113e+06  -2.391877e+06
   2.621134e+06  -9.885254e+05
   2.353639e+06   7.408501e+05
   8.867188e+05   1.369706e+06
  -2.567048e+05   8.985201e+05
  -3.593031e+05   4.581244e+05
  -1.054680e+04   7.671028e+05
  -7.774078e+04   1.368747e+06
  -7.023704e+05   1.335098e+06
  -1.337061e+06   3.241410e+05
  -1.357652e+06  -1.099995e+06
  -5.550648e+05  -1.920251e+06
   6.343469e+05  -1.450501e+06
   1.297294e+06   2.314892e+04
   7.985497e+05   1.330051e+06
  -4.446304e+05   1.415319e+06
  -1.225084e+06   3.575258e+05
  -8.222118e+05  -7.809311e+05
   1.801150e+05  -1.127312e+06
   6.097371e+05  -7.806576e+05
   1.145408e+05  -3.970019e+05
  -4.473633e+05  -3.297829e+05
  -6.512008e+04  -3.829862e+05
   1.186359e+06  -1.959475e+05
   2.116889e+06   3.651477e+05
   1.630746e+06   1.084130e+06
  -8.662940e+04   1.482469e+06
  -1.662891e+06   1.156442e+06
  -1.874168e+06   2.391690e+05
  -8.274964e+05  -5.580475e+05
   2.884852e+05  -5.983849e+05
   5.325704e+05  -9.652769e+03
   4.445360e+04   4.570344e+05
  -4.333336e+05   2.680669e+05
  -4.920873e+05  -3.479644e+05
  -2.914426e+05  -7.218143e+05
  -1.312581e+05  -4.825682e+05
  -1.357189e+05   6.792148e+04
  -2.551069e+05   2.600616e+05
  -2.698391e+05  -2.417343e+05
   1.297429e+05  -9.841774e+05
   9.188183e+05  -1.082072e+06
   1.427022e+06  -1.975573e+05
   9.056706e+05   9.282922e+05
  -4.255158e+05   1.189945e+06
  -1.302530e+06   3.757351e+05
  -7.467544e+05  -5.702583e+05
   7.257564e+05  -6.439545e+05
   1.588827e+06   1.314574e+05
   9.560044e+05   8.926051e+05
  -5.388663e+05   9.628435e+05
  -1.509038e+06   4.133800e+05
  -1.207503e+06  -2.341974e+05
  -1.095915e+05  -5.110550e+05
   6.645436e+05  -2.471070e+05
   4.018063e+05   3.136219e+05
  -5.730139e+05   5.484420e+05
  -1.201973e+06  -5.098661e+04
  -7.191743e+05  -1.179238e+06
   5.493748e+05  -1.740968e+06
   1.478614e+06  -9.272886e+05
   1.272607e+06   7.492599e+05
   2.094745e+05   1.800748e+06
  -7.500112e+05   1.281095e+06
  -9.254835e+05  -2.112281e+05
  -4.000231e+05  -1.209656e+06
   2.662809e+05  -9.545184e+05
   5.806120e+05  -6.536327e+04
   4.388747e+05   3.752953e+05
   1.303683e+05   1.280820e+05
   6.262809e+04  -8.534415e+04
   3.318832e+05   3.229415e+05
   5.318577e+05   9.874402e+05
   1.481033e+05   1.081549e+06
  -7.713648e+05   3.893989e+05
  -1.481697e+06  -4.704034e+05
  -1.250666e+06  -8.468494e+05
  -1.808408e+05  -7.145897e+05
   8.257221e+05  -4.278122e+05
   9.804361e+05  -1.695829e+05
   3.955201e+05   7.607343e+04
  -1.323554e+05   2.322330e+05
  -8.001156e+04   1.848173e+05
   2.206331e+05   6.880336e+04
   7.042634e+04   1.317146e+05
  -6.168524e+05   2.605336e+05
  -1.065760e+06   8.706047e+03
  -5.136551e+05  -7.070821e+05
   7.983310e+05  -1.227731e+06
   1.749761e+06  -8.132358e+05
   1.493796e+06   3.990857e+05
   3.088219e+05   1.413465e+06
  -7.802156e+05   1.415467e+06
  -1.060296e+06   5.875810e+05
  -6.587602e+05  -2.017744e+05
  -1.602944e+05  -3.630393e+05
   2.733080e+04  -9.818806e+04
  -9.813071e+04  -1.684836e+04
  -2.834096e+05  -3.853884e+05
  -2.363489e+05  -8.169859e+05
   1.651208e+05  -7.009269e+05
   6.816550e+05   8.078108e+04
   7.899757e+05   9.221272e+05
   1.857350e+05   1.050059e+06
  -7.294606e+05   3.098544e+05
  -1.074530e+06  -6.713713e+05
  -4.001232e+05  -1.102924e+06
   7.062810e+05  -7.335252e+05
   1.160027e+06   4.718479e+04
   5.751474e+05   6.493551e+05
  -2.864695e+05   7.374058e+05
  -4.221447e+05   3.881776e+05
   2.045890e+05  -1.223975e+04
   6.455715e+05  -5.564191e+04
   1.685746e+05   3.195654e+05
  -8.284601e+05   6.913750e+05
  -1.309742e+06   5.267706e+05
  -8.213450e+05  -2.079231e+05
   8.263713e+04  -9.011578e+05
   5.903504e+05  -8.937874e+05
   4.768299e+05  -2.036144e+05
   8.634995e+04   4.654955e+05
  -2.275784e+05   4.706326e+05
  -3.565751e+05  -1.014889e+05
  -2.726952e+05  -5.799810e+05
   3.583729e+04  -4.733547e+05
   3.990338e+05   2.047945e+04
   5.011963e+05   3.078644e+05
   2.475005e+05   1.213356e+05
  -5.871959e+04  -1.858192e+05
  -8.480578e+04  -1.131783e+05
   7.817990e+04   3.304656e+05
   4.377035e+04   6.069977e+05
  -2.926884e+05   3.067379e+05
  -5.293670e+05  -3.250832e+05
  -2.477928e+05  -6.476007e+05
   3.862827e+05  -3.478279e+05
   7.082641e+05   2.426973e+05
   2.901528e+05   5.593315e+05
  -5.218764e+05   3.857868e+05
  -9.230243e+05  -4.139394e+04
  -5.057049e+05  -3.736692e+05
   2.911092e+05  -4.447565e+05
   6.564578e+05  -2.838848e+05
   2.891407e+05  -3.008484e+04
  -3.003026e+05   1.122651e+05
  -3.951534e+05  -6.414580e+03
   1.242320e+05  -2.681770e+05
   6.816739e+05  -2.909892e+05
