
 $NMID
 id='ANONYMOUS ', fmtdat='(2E16.6)'
 volume=1.0
 tramp=1.0
 $END
   2.863858e+07  -1.416207e+06
   1.945571e+07   1.363949e+07
  -3.551511e+04   1.856230e+07
  -1.232973e+07   1.156572e+07
  -9.981203e+06   4.802451e+05
  -3.014957e+05  -5.099523e+06
   5.605990e+06  -2.074275e+06
   3.917788e+06   4.574650e+06
  -1.492463e+06   7.287599e+06
  -5.177195e+06   3.189369e+06
  -4.569346e+06  -3.399880e+06
  -7.915059e+05  -5.624321e+06
   2.556904e+06  -1.397275e+06
   2.215483e+06   4.409772e+06
  -1.515273e+06   5.393652e+06
  -4.646015e+06   4.858479e+05
  -3.555849e+06  -5.401833e+06
   1.106666e+06  -6.977072e+06
   5.244128e+06  -3.583707e+06
   5.634373e+06   1.240882e+06
   2.800726e+06   3.838709e+06
  -5.411415e+04   3.460315e+06
  -3.385177e+05   2.066522e+06
   1.472310e+06   1.930671e+06
   2.273297e+06   3.320070e+06
  -3.669946e+05   4.281787e+06
  -4.998357e+06   2.868211e+06
  -7.159842e+06  -4.684172e+05
  -4.258826e+06  -3.133800e+06
   1.079427e+06  -3.080858e+06
   3.691909e+06  -7.687591e+05
   1.599354e+06   1.563395e+06
  -2.205475e+06   1.958768e+06
  -3.666863e+06   7.633511e+04
  -1.966323e+06  -2.623034e+06
   5.774109e+05  -3.728791e+06
   1.655729e+06  -1.935942e+06
   9.797056e+05   1.112761e+06
  -2.042418e+05   2.021161e+06
  -5.192265e+05  -3.517444e+05
   4.827688e+05  -2.975152e+06
   1.863871e+06  -2.177187e+06
   1.921513e+06   1.434223e+06
  -3.825789e+04   3.424802e+06
  -2.448920e+06   1.133876e+06
  -2.667231e+06  -2.941222e+06
   1.893970e+05  -4.278949e+06
   3.894120e+06  -1.584337e+06
   5.021315e+06   2.307076e+06
   2.293070e+06   3.989129e+06
  -2.049626e+06   2.631081e+06
  -4.272346e+06  -9.892833e+04
  -2.663505e+06  -1.948560e+06
   8.706936e+05  -1.739714e+06
   2.800010e+06  -6.565303e+04
   1.601239e+06   1.259405e+06
  -8.316187e+05   9.281377e+05
  -1.558930e+06  -4.781221e+05
   7.150351e+03  -1.194959e+06
   1.626081e+06  -3.631493e+05
   1.059848e+06   1.067375e+06
  -1.287658e+06   1.529090e+06
  -2.886842e+06   3.870854e+05
  -1.852103e+06  -1.722369e+06
   1.203742e+06  -3.419465e+06
   3.911873e+06  -3.289761e+06
   4.375464e+06  -8.890081e+05
   2.679272e+06   2.428822e+06
   4.931579e+05   4.298384e+06
  -6.445028e+05   3.645514e+06
  -6.622976e+05   1.844889e+06
  -6.522944e+05   9.468657e+05
  -1.396685e+06   1.127324e+06
  -2.428735e+06   7.892918e+05
  -2.598487e+06  -8.908505e+05
  -1.350847e+06  -2.559074e+06
   6.672552e+05  -2.301454e+06
   2.079711e+06  -4.534581e+04
   1.784428e+06   2.265502e+06
  -1.673540e+05   2.679433e+06
  -2.389655e+06   9.990445e+05
  -3.123473e+06  -1.319711e+06
  -1.842095e+06  -2.623558e+06
   1.558803e+05  -2.398454e+06
   1.157245e+06  -1.445309e+06
   9.955256e+05  -8.800721e+05
   1.081478e+06  -9.493458e+05
   2.332884e+06  -8.620376e+05
   3.669490e+06   2.094170e+05
   3.137580e+06   2.085342e+06
   3.487178e+05   3.591756e+06
  -2.768237e+06   3.535837e+06
  -3.814201e+06   1.725603e+06
  -2.262140e+06  -7.299846e+05
   1.666409e+05  -2.120096e+06
   1.283903e+06  -1.530920e+06
   4.533640e+05   1.834636e+05
  -1.058527e+06   1.118337e+06
  -1.553869e+06   3.553812e+05
  -6.254580e+05  -9.572972e+05
   5.773414e+05  -1.022914e+06
   6.848462e+05   2.712347e+05
  -4.503397e+05   1.103999e+06
  -1.655954e+06  -1.511539e+04
  -1.601347e+06  -2.304479e+06
   2.235587e+04  -3.491258e+06
   2.246962e+06  -2.275547e+06
   3.522861e+06   4.074600e+05
   2.868680e+06   2.475022e+06
   7.428478e+05   2.661415e+06
  -1.186371e+06   1.407220e+06
  -1.500572e+06   1.610476e+05
  -4.435231e+05  -2.408536e+04
   3.636905e+05   6.474999e+05
  -2.051451e+05   1.093981e+06
  -1.456388e+06   5.754021e+05
  -1.742217e+06  -5.071610e+05
  -5.062210e+05  -1.089321e+06
   9.676408e+05  -6.282785e+05
   9.911565e+05   3.412316e+05
  -6.013845e+05   7.900995e+05
  -2.200838e+06   1.739665e+05
  -2.065874e+06  -1.117496e+06
  -9.768543e+04  -2.070076e+06
   2.038956e+06  -1.822623e+06
   2.524923e+06  -4.382084e+05
   1.118378e+06   9.805712e+05
  -6.877980e+05   1.213600e+06
  -1.192770e+06   1.863803e+05
  -1.155237e+05  -8.564487e+05
   1.287791e+06  -6.843179e+05
   1.589556e+06   5.304491e+05
   5.527407e+05   1.441441e+06
  -7.837780e+05   1.103708e+06
  -1.193154e+06  -1.552592e+03
  -4.191030e+05  -6.158283e+05
   6.050886e+05  -1.208892e+05
   6.612179e+05   8.811361e+05
  -5.015456e+05   1.269534e+06
  -1.794486e+06   5.069241e+05
  -1.833992e+06  -8.894179e+05
  -4.282351e+05  -1.812690e+06
   1.151666e+06  -1.528861e+06
   1.507909e+06  -3.319604e+05
   5.614331e+05   7.189164e+05
  -5.163161e+05   7.996562e+05
  -6.735980e+05   8.739085e+04
  -4.346658e+03  -5.178875e+05
   5.789380e+05  -4.108528e+05
   4.219543e+05   9.606035e+04
  -2.402764e+05   2.129945e+05
  -5.822692e+05  -3.610988e+05
  -2.250147e+04  -1.033560e+06
   1.141779e+06  -9.088913e+05
   1.887023e+06   2.485346e+05
   1.391736e+06   1.670840e+06
  -9.388937e+04   2.232853e+06
  -1.419312e+06   1.485449e+06
  -1.670948e+06   7.131469e+04
  -1.028961e+06  -8.992881e+05
  -3.876945e+05  -8.958546e+05
  -2.753665e+05  -3.795062e+05
  -3.754590e+05  -1.825514e+05
  -8.500706e+04  -5.504934e+05
   6.810449e+05  -8.872098e+05
   1.328389e+06  -4.717132e+05
   1.132303e+06   6.360881e+05
  -5.584820e+04   1.498179e+06
  -1.523226e+06   1.172642e+06
  -2.124469e+06  -2.991111e+05
  -1.220379e+06  -1.813595e+06
   6.514367e+05  -2.170620e+06
   2.133774e+06  -1.156671e+06
   2.232635e+06   3.210377e+05
   1.161600e+06   1.157546e+06
  -1.221797e+04   1.065581e+06
  -4.695153e+05   6.687028e+05
  -3.004900e+05   6.662849e+05
  -1.702837e+05   1.027260e+06
  -5.096904e+05   1.071179e+06
  -1.074878e+06   3.012118e+05
  -1.217103e+06  -9.400170e+05
  -5.613894e+05  -1.704127e+06
   5.282547e+05  -1.328771e+06
   1.182308e+06  -8.596888e+04
   8.356950e+05   1.049968e+06
  -1.685069e+05   1.266031e+06
  -8.872397e+05   5.646285e+05
  -7.429658e+05  -3.662430e+05
  -9.207058e+04  -8.476430e+05
   2.505175e+05  -7.564612e+05
  -2.317746e+04  -4.610608e+05
  -3.684451e+05  -3.302372e+05
  -4.587787e+04  -3.623172e+05
   9.592626e+05  -2.642591e+05
   1.781865e+06   1.721615e+05
   1.505606e+06   8.005959e+05
   1.492694e+05   1.205758e+06
  -1.245402e+06   1.056123e+06
  -1.593528e+06   4.181673e+05
  -8.203436e+05  -2.466114e+05
   1.471925e+05  -4.476064e+05
   4.162182e+05  -1.194553e+05
  -6.993302e+03   2.799764e+05
  -4.440254e+05   2.210924e+05
  -4.289146e+05  -2.944204e+05
  -1.354108e+05  -6.805040e+05
   9.180117e+03  -4.396054e+05
  -1.331816e+05   1.756634e+05
  -3.340227e+05   3.827804e+05
  -2.830555e+05  -1.834328e+05
   1.469364e+05  -9.414043e+05
   7.654610e+05  -9.804850e+05
   1.085463e+06  -1.326999e+05
   6.665553e+05   8.007715e+05
  -3.322654e+05   9.359265e+05
  -1.045795e+06   2.374146e+05
  -6.688564e+05  -5.308431e+05
   5.802542e+05  -6.408319e+05
   1.500673e+06  -4.476929e+04
   1.110855e+06   7.112160e+05
  -2.808028e+05   1.019384e+06
  -1.377117e+06   6.677460e+05
  -1.240840e+06  -3.365803e+04
  -2.060482e+05  -4.919842e+05
   5.672107e+05  -3.298304e+05
   3.236099e+05   2.152908e+05
  -5.694292e+05   4.410488e+05
  -1.070782e+06  -1.181913e+05
  -5.480637e+05  -1.098805e+06
   6.039446e+05  -1.530123e+06
   1.385319e+06  -7.811767e+05
   1.170092e+06   6.948448e+05
   2.318968e+05   1.664174e+06
  -6.367158e+05   1.278399e+06
  -8.797233e+05  -5.525120e+04
  -5.178994e+05  -1.071318e+06
   6.897608e+04  -9.571064e+05
   4.855002e+05  -1.406499e+05
   5.146945e+05   3.477850e+05
   2.346724e+05   1.469255e+05
   1.154016e+04  -1.143193e+05
   1.560107e+05   2.066624e+05
   4.619877e+05   8.481803e+05
   3.094827e+05   1.005795e+06
  -5.356951e+05   4.082050e+05
  -1.391706e+06  -3.790629e+05
  -1.299043e+06  -7.260709e+05
  -2.066771e+05  -6.178232e+05
   8.485559e+05  -4.062453e+05
   9.296902e+05  -2.319612e+05
   2.693540e+05  -1.079645e+04
  -1.567487e+05   2.040750e+05
   6.402896e+04   2.360973e+05
   3.429256e+05   1.309672e+05
   1.379999e+04   1.263942e+05
  -7.033008e+05   1.997816e+05
  -9.498119e+05  -8.500471e+03
  -2.779077e+05  -6.059271e+05
   8.292562e+05  -1.047228e+06
   1.474440e+06  -6.729478e+05
   1.189725e+06   4.091785e+05
   2.538441e+05   1.299037e+06
  -6.404716e+05   1.252683e+06
  -9.457168e+05   4.594850e+05
  -6.211196e+05  -2.471574e+05
  -9.288240e+04  -3.233448e+05
   1.422159e+05  -7.590811e+03
  -4.476397e+04   8.057292e+04
  -3.293042e+05  -3.017736e+05
  -2.861059e+05  -7.352308e+05
   1.648872e+05  -6.087079e+05
   6.458046e+05   1.541962e+05
   6.488253e+05   9.130044e+05
   3.462429e+04   9.325617e+05
  -7.365557e+05   1.615336e+05
  -9.381503e+05  -7.128482e+05
  -2.902262e+05  -9.849635e+05
   6.500511e+05  -5.752802e+05
   9.846906e+05   6.457639e+04
   4.547608e+05   4.889647e+05
  -2.390343e+05   5.514325e+05
  -2.683029e+05   3.296503e+05
   3.032636e+05   3.302686e+04
   6.145726e+05  -3.968180e+04
   1.155946e+05   2.633588e+05
  -7.400521e+05   6.539277e+05
  -1.076018e+06   5.857031e+05
  -6.272892e+05  -8.226367e+04
   7.337869e+04  -7.687190e+05
   4.174531e+05  -7.678726e+05
   3.090368e+05  -1.043462e+05
   2.004472e+04   4.689513e+05
  -2.225427e+05   3.632600e+05
  -3.298030e+05  -1.942990e+05
  -2.360193e+05  -5.255791e+05
   5.577576e+04  -3.303031e+05
   3.562082e+05   6.158162e+04
   4.192921e+05   1.980072e+05
   2.242601e+05   3.988185e+04
  -1.243416e+03  -8.290283e+04
  -7.699557e+04   7.311476e+04
  -7.600547e+04   3.666631e+05
  -1.665206e+05   4.288990e+05
  -3.289355e+05   8.264228e+04
  -3.371991e+05  -4.171956e+05
  -3.752211e+04  -5.994090e+05
   4.011698e+05  -2.634953e+05
   5.692134e+05   2.856546e+05
   2.105410e+05   5.468431e+05
  -4.360910e+05   3.367707e+05
  -7.698552e+05  -7.930005e+04
  -4.273261e+05  -3.367778e+05
   2.597451e+05  -3.224261e+05
   5.615985e+05  -1.608640e+05
   1.755740e+05  -1.196571e+04
  -3.899604e+05   1.479003e+04
  -4.035123e+05  -1.257267e+05
   2.091931e+05  -3.154404e+05
   7.753756e+05  -2.614493e+05
