
 $NMID
 id='ANONYMOUS ', fmtdat='(2E16.6)'
 volume=1.0
 tramp=1.0
 $END
   2.326080e+07   1.264196e+06
   1.513248e+07   1.114630e+07
  -3.230472e+05   1.449103e+07
  -1.025545e+07   9.868270e+06
  -8.704303e+06   1.251787e+06
  -6.557768e+05  -4.239836e+06
   4.896606e+06  -2.357295e+06
   3.817809e+06   3.811036e+06
  -1.091842e+06   6.819939e+06
  -4.548993e+06   3.045919e+06
  -3.826543e+06  -3.293109e+06
  -2.936324e+05  -5.195257e+06
   2.448775e+06  -9.057073e+05
   1.803222e+06   4.493793e+06
  -1.519654e+06   5.120363e+06
  -4.054981e+06   4.573981e+05
  -2.904026e+06  -4.800226e+06
   1.236608e+06  -5.956094e+06
   4.673225e+06  -2.619516e+06
   4.520416e+06   1.695491e+06
   1.609876e+06   3.457601e+06
  -6.372890e+05   2.396336e+06
  -1.893833e+04   1.136805e+06
   2.105351e+06   1.882794e+06
   2.352273e+06   3.874878e+06
  -8.912988e+05   4.426555e+06
  -5.343437e+06   2.168394e+06
  -6.791421e+06  -1.366659e+06
  -3.471335e+06  -3.415927e+06
   1.708463e+06  -2.653658e+06
   3.892443e+06  -6.925060e+04
   1.345716e+06   2.123889e+06
  -2.788010e+06   2.102272e+06
  -4.125188e+06  -2.996554e+05
  -1.791200e+06  -3.165755e+06
   1.205024e+06  -3.799848e+06
   1.888824e+06  -1.426227e+06
   4.311000e+05   1.509398e+06
  -8.534034e+05   1.737870e+06
  -4.960371e+05  -9.394406e+05
   9.327040e+05  -3.168481e+06
   1.980429e+06  -2.046642e+06
   1.707654e+06   1.246489e+06
   1.646477e+05   2.848997e+06
  -1.579356e+06   8.878655e+05
  -1.842259e+06  -2.393011e+06
   2.620847e+05  -3.373621e+06
   3.356746e+06  -1.026637e+06
   4.488029e+06   2.359501e+06
   2.083821e+06   3.832326e+06
  -2.007200e+06   2.494424e+06
  -4.141736e+06  -1.528255e+05
  -2.617508e+06  -1.875600e+06
   6.830477e+05  -1.588266e+06
   2.472091e+06  -3.135613e+04
   1.445655e+06   1.098607e+06
  -7.311511e+05   7.673740e+05
  -1.517739e+06  -4.966350e+05
  -2.113549e+05  -1.266199e+06
   1.462839e+06  -7.138068e+05
   1.342889e+06   5.976874e+05
  -6.936633e+05   1.304460e+06
  -2.420269e+06   5.017141e+05
  -1.608638e+06  -1.429140e+06
   1.445342e+06  -2.994005e+06
   4.112993e+06  -2.682481e+06
   4.200010e+06  -3.035500e+05
   2.106227e+06   2.615032e+06
  -1.965432e+02   4.062510e+06
  -7.177419e+05   3.429825e+06
  -5.772743e+05   1.977309e+06
  -8.509535e+05   1.214052e+06
  -1.871775e+06   1.104983e+06
  -2.785309e+06   3.854884e+05
  -2.574500e+06  -1.409895e+06
  -1.031239e+06  -2.911145e+06
   1.035833e+06  -2.365150e+06
   2.268124e+06   1.524358e+05
   1.675782e+06   2.523910e+06
  -4.420860e+05   2.692021e+06
  -2.475223e+06   6.686750e+05
  -2.803036e+06  -1.687743e+06
  -1.335518e+06  -2.636441e+06
   4.348839e+05  -2.046373e+06
   1.092790e+06  -1.075926e+06
   8.282578e+05  -7.357056e+05
   1.019926e+06  -9.298056e+05
   2.330120e+06  -7.606922e+05
   3.595988e+06   4.220578e+05
   2.960601e+06   2.271381e+06
   8.977318e+04   3.602576e+06
  -3.064737e+06   3.311320e+06
  -4.005800e+06   1.353079e+06
  -2.184468e+06  -1.022997e+06
   4.568943e+05  -2.152212e+06
   1.501996e+06  -1.382079e+06
   4.277889e+05   2.583622e+05
  -1.179254e+06   1.014792e+06
  -1.544903e+06   2.198620e+05
  -4.900340e+05  -9.837396e+05
   6.898614e+05  -9.857110e+05
   7.349788e+05   2.980880e+05
  -4.004831e+05   1.174754e+06
  -1.621658e+06   1.348421e+05
  -1.648056e+06  -2.212329e+06
  -5.074363e+04  -3.578762e+06
   2.273682e+06  -2.405614e+06
   3.626692e+06   4.730293e+05
   2.882492e+06   2.716129e+06
   6.082039e+05   2.812861e+06
  -1.333252e+06   1.336031e+06
  -1.545384e+06   2.264068e+04
  -4.444199e+05  -5.773182e+04
   3.173684e+05   6.708074e+05
  -2.593719e+05   1.042436e+06
  -1.438170e+06   4.571929e+05
  -1.670504e+06  -5.819537e+05
  -4.526063e+05  -1.077545e+06
   9.928029e+05  -5.709715e+05
   1.007215e+06   4.023363e+05
  -6.226059e+05   8.143779e+05
  -2.272634e+06   1.054003e+05
  -2.101458e+06  -1.263160e+06
  -8.519619e+03  -2.154877e+06
   2.187165e+06  -1.737360e+06
   2.575561e+06  -2.716747e+05
   1.040471e+06   1.037212e+06
  -7.602065e+05   1.117083e+06
  -1.155043e+06   8.393992e+04
  -2.159405e+04  -8.368905e+05
   1.328017e+06  -5.764627e+05
   1.553874e+06   6.218184e+05
   4.959766e+05   1.472999e+06
  -8.191285e+05   1.093565e+06
  -1.202556e+06  -2.553938e+04
  -4.181126e+05  -6.194642e+05
   5.804479e+05  -7.962031e+04
   5.768799e+05   9.242593e+05
  -6.150176e+05   1.221525e+06
  -1.841464e+06   3.504096e+05
  -1.759161e+06  -1.040777e+06
  -2.905014e+05  -1.839055e+06
   1.248644e+06  -1.442908e+06
   1.525800e+06  -2.412873e+05
   5.307152e+05   7.463210e+05
  -5.609533e+05   7.741136e+05
  -7.071853e+05   3.940242e+04
   6.820662e+03  -5.634723e+05
   6.455685e+05  -4.209746e+05
   4.961773e+05   1.350432e+05
  -2.107209e+05   2.604350e+05
  -5.762123e+05  -3.489612e+05
   1.695408e+04  -1.025472e+06
   1.198587e+06  -8.345551e+05
   1.872208e+06   3.849703e+05
   1.265595e+06   1.778574e+06
  -2.625771e+05   2.245803e+06
  -1.539570e+06   1.424194e+06
  -1.719992e+06  -2.003722e+04
  -1.029499e+06  -1.010653e+06
  -3.508748e+05  -1.015292e+06
  -2.087776e+05  -4.617609e+05
  -3.064221e+05  -1.990914e+05
  -3.078767e+04  -5.266784e+05
   7.351488e+05  -8.488883e+05
   1.380850e+06  -4.023203e+05
   1.131832e+06   7.340193e+05
  -1.400829e+05   1.545985e+06
  -1.622993e+06   1.095915e+06
  -2.130201e+06  -4.510540e+05
  -1.114569e+06  -1.901839e+06
   7.764060e+05  -2.122498e+06
   2.194893e+06  -1.028040e+06
   2.235215e+06   4.414441e+05
   1.144344e+06   1.240611e+06
  -5.158562e+04   1.120462e+06
  -5.555149e+05   6.912592e+05
  -4.235603e+05   6.484022e+05
  -2.881989e+05   9.799212e+05
  -5.846296e+05   1.003742e+06
  -1.081592e+06   2.077510e+05
  -1.141259e+06  -1.042990e+06
  -4.287262e+05  -1.758591e+06
   6.382279e+05  -1.295677e+06
   1.197521e+06  -6.226914e+03
   7.696405e+05   1.095959e+06
  -2.317842e+05   1.251804e+06
  -8.899622e+05   5.356306e+05
  -7.063207e+05  -3.632173e+05
  -6.665102e+04  -8.188236e+05
   2.540142e+05  -7.415546e+05
  -1.364462e+04  -4.843956e+05
  -3.369943e+05  -3.745319e+05
  -1.196714e+04  -3.746850e+05
   9.655989e+05  -1.968386e+05
   1.750430e+06   3.024101e+05
   1.448966e+06   9.012112e+05
   8.768844e+04   1.192557e+06
  -1.294099e+06   9.493079e+05
  -1.615591e+06   3.220712e+05
  -8.121614e+05  -2.633052e+05
   1.672271e+05  -4.154883e+05
   4.134408e+05  -1.049838e+05
  -4.588414e+04   2.571407e+05
  -4.800059e+05   1.831945e+05
  -4.042994e+05  -3.310917e+05
  -5.187773e+04  -7.099617e+05
   7.401128e+04  -4.482041e+05
  -1.489748e+05   1.901125e+05
  -3.879636e+05   3.903187e+05
  -2.757917e+05  -2.036575e+05
   2.373416e+05  -9.501462e+05
   8.463993e+05  -9.192275e+05
   1.066022e+06  -1.995236e+04
   5.686494e+05   8.646618e+05
  -4.119157e+05   8.841555e+05
  -1.052919e+06   1.218023e+05
  -6.283714e+05  -5.979985e+05
   6.239231e+05  -6.062583e+05
   1.527101e+06   4.924035e+04
   1.107781e+06   7.868489e+05
  -3.244745e+05   1.029037e+06
  -1.441192e+06   6.156392e+05
  -1.274390e+06  -1.002558e+05
  -1.883620e+05  -5.169887e+05
   5.898909e+05  -3.041329e+05
   2.962630e+05   2.323419e+05
  -6.260161e+05   3.849137e+05
  -1.069065e+06  -2.289227e+05
  -4.366317e+05  -1.167332e+06
   7.672002e+05  -1.486489e+06
   1.478933e+06  -6.577741e+05
   1.125697e+06   8.064130e+05
   9.924608e+04   1.706560e+06
  -7.415281e+05   1.258687e+06
  -8.872360e+05  -1.029634e+05
  -4.605139e+05  -1.116312e+06
   1.143511e+05  -9.727326e+05
   4.909301e+05  -1.143160e+05
   5.135150e+05   3.935861e+05
   2.491290e+05   1.706912e+05
   1.050966e+04  -1.205871e+05
   1.058472e+05   2.097483e+05
   3.865590e+05   8.875566e+05
   2.625418e+05   1.041116e+06
  -5.402584e+05   3.708770e+05
  -1.380953e+06  -4.923857e+05
  -1.281699e+06  -8.318980e+05
  -1.624448e+05  -6.345835e+05
   9.129585e+05  -3.440746e+05
   9.649700e+05  -1.708808e+05
   2.515670e+05  -4.891928e+02
  -1.836512e+05   1.926842e+05
   7.530248e+04   2.536177e+05
   3.668482e+05   1.715596e+05
  -7.966785e+03   1.321959e+05
  -7.593739e+05   1.378160e+05
  -9.554740e+05  -9.582921e+04
  -1.871994e+05  -6.360094e+05
   9.532753e+05  -9.755796e+05
   1.527086e+06  -5.334309e+05
   1.133709e+06   5.333411e+05
   1.381528e+05   1.339156e+06
  -7.440112e+05   1.200354e+06
  -9.951374e+05   3.651064e+05
  -6.127601e+05  -3.168046e+05
  -5.387466e+04  -3.353728e+05
   1.719296e+05   1.752661e+04
  -3.951239e+04   9.568646e+04
  -3.192350e+05  -3.209982e+05
  -2.391257e+05  -7.633347e+05
   2.237095e+05  -5.948171e+05
   6.470837e+05   2.280115e+05
   5.642462e+05   9.969535e+05
  -7.478177e+04   9.457083e+05
  -7.780464e+05   7.703921e+04
  -8.819341e+05  -8.247974e+05
  -1.915687e+05  -1.019967e+06
   7.124320e+05  -5.060514e+05
   9.758699e+05   1.585583e+05
   3.985689e+05   5.155513e+05
  -2.901383e+05   5.106205e+05
  -2.767154e+05   2.999880e+05
   3.300451e+05   6.431861e+04
   6.309666e+05   1.488709e+04
   8.502253e+04   2.722362e+05
  -8.011985e+05   6.011658e+05
  -1.110566e+06   5.159441e+05
  -5.980151e+05  -1.201527e+05
   1.425766e+05  -7.599598e+05
   4.658230e+05  -7.259071e+05
   2.988717e+05  -5.697020e+04
  -3.095774e+04   4.875777e+05
  -2.624730e+05   3.350075e+05
  -3.216015e+05  -2.461356e+05
  -1.901737e+05  -5.519394e+05
   9.383691e+04  -3.091341e+05
   3.548785e+05   1.023817e+05
   3.958218e+05   2.209727e+05
   2.204238e+05   4.525927e+04
   2.017009e+04  -6.797768e+04
  -7.741330e+04   1.037061e+05
  -1.367177e+05   3.832772e+05
  -2.531117e+05   4.014002e+05
  -3.602048e+05   1.668275e+04
  -2.793104e+05  -4.817596e+05
   5.283711e+04  -6.185718e+05
   4.409158e+05  -2.223301e+05
   5.374336e+05   3.548196e+05
   1.554148e+05   5.811364e+05
  -4.628084e+05   2.979078e+05
  -7.583521e+05  -1.586579e+05
  -3.956499e+05  -3.782220e+05
   2.926238e+05  -2.860175e+05
   5.779210e+05  -9.227224e+04
   1.611182e+05   9.553350e+03
  -4.227225e+05  -3.260880e+04
  -4.105518e+05  -1.851656e+05
   2.559582e+05  -3.189924e+05
   8.386756e+05  -2.020542e+05
