
 $NMID
 id='ANONYMOUS ', fmtdat='(2E16.6)'
 volume=1.0
 tramp=1.0
 $END
   3.186321e+07   9.141145e+05
   1.996820e+07   1.728194e+07
  -2.175225e+06   2.059198e+07
  -1.469900e+07   1.110379e+07
  -1.066935e+07  -8.618914e+05
   3.649020e+05  -5.535369e+06
   6.138980e+06  -1.442999e+06
   3.548699e+06   5.320777e+06
  -2.374139e+06   7.456252e+06
  -5.842311e+06   2.785037e+06
  -4.661314e+06  -4.032118e+06
  -4.556177e+05  -6.079534e+06
   2.850921e+06  -1.395944e+06
   2.051175e+06   4.728130e+06
  -2.067239e+06   5.491572e+06
  -5.032966e+06   5.524075e+03
  -3.315736e+06  -6.187024e+06
   1.877402e+06  -7.469676e+06
   6.077925e+06  -3.484641e+06
   6.165847e+06   1.781142e+06
   2.921161e+06   4.515403e+06
  -3.023063e+05   4.032797e+06
  -7.857671e+05   2.400304e+06
   1.087722e+06   2.056015e+06
   2.069819e+06   3.401700e+06
  -5.541347e+05   4.374028e+06
  -5.350628e+06   2.792441e+06
  -7.557476e+06  -8.382968e+05
  -4.425391e+06  -3.588767e+06
   1.188049e+06  -3.303816e+06
   3.859082e+06  -7.540844e+05
   1.668136e+06   1.562292e+06
  -2.197490e+06   1.835448e+06
  -3.652949e+06  -4.924654e+04
  -1.932751e+06  -2.702249e+06
   6.794304e+05  -3.854278e+06
   1.866028e+06  -2.073697e+06
   1.178623e+06   1.154547e+06
  -1.819082e+05   2.250829e+06
  -5.910003e+05  -1.930561e+05
   5.706885e+05  -2.998969e+06
   2.089114e+06  -2.128708e+06
   1.901048e+06   1.741484e+06
  -5.002504e+05   3.687683e+06
  -2.966110e+06   9.075914e+05
  -2.690405e+06  -3.570691e+06
   6.875150e+05  -4.705678e+06
   4.411978e+06  -1.395807e+06
   5.138097e+06   2.877467e+06
   2.043933e+06   4.386317e+06
  -2.369879e+06   2.561456e+06
  -4.428554e+06  -4.807875e+05
  -2.576498e+06  -2.272592e+06
   1.123120e+06  -1.744152e+06
   3.001627e+06   2.061162e+05
   1.578310e+06   1.510607e+06
  -9.841631e+05   9.253792e+05
  -1.577927e+06  -6.232345e+05
   1.740387e+05  -1.167826e+06
   1.709060e+06  -8.181718e+04
   8.274093e+05   1.314442e+06
  -1.705670e+06   1.447137e+06
  -3.155543e+06   2.685860e+04
  -1.793007e+06  -2.080449e+06
   1.525222e+06  -3.595241e+06
   4.336324e+06  -3.274866e+06
   4.724789e+06  -7.035928e+05
   2.769373e+06   2.752168e+06
   2.685660e+05   4.617738e+06
  -9.931715e+05   3.781080e+06
  -8.656392e+05   1.782173e+06
  -6.565849e+05   8.452660e+05
  -1.370667e+06   1.098677e+06
  -2.485446e+06   7.800650e+05
  -2.660275e+06  -9.623130e+05
  -1.321725e+06  -2.656884e+06
   7.401831e+05  -2.326186e+06
   2.089449e+06   3.669265e+04
   1.703169e+06   2.397918e+06
  -3.053527e+05   2.766018e+06
  -2.554116e+06   9.458530e+05
  -3.257709e+06  -1.545234e+06
  -1.844668e+06  -2.929801e+06
   3.251053e+05  -2.621927e+06
   1.400854e+06  -1.508004e+06
   1.190677e+06  -8.416743e+05
   1.224741e+06  -8.716599e+05
   2.486812e+06  -7.048442e+05
   3.801602e+06   4.860398e+05
   3.119961e+06   2.384315e+06
   1.267562e+05   3.747464e+06
  -3.085367e+06   3.497053e+06
  -4.052154e+06   1.588747e+06
  -2.324672e+06  -8.523911e+05
   2.489316e+05  -2.186562e+06
   1.391999e+06  -1.544476e+06
   4.677559e+05   1.978557e+05
  -1.151833e+06   1.104809e+06
  -1.643396e+06   2.779072e+05
  -6.115758e+05  -1.042880e+06
   6.392968e+05  -1.028526e+06
   6.581421e+05   3.157905e+05
  -5.653497e+05   1.051946e+06
  -1.679496e+06  -2.277713e+05
  -1.398974e+06  -2.535237e+06
   3.530563e+05  -3.534461e+06
   2.482279e+06  -2.083834e+06
   3.550080e+06   7.008261e+05
   2.749619e+06   2.709279e+06
   5.913139e+05   2.760942e+06
  -1.302740e+06   1.384150e+06
  -1.559105e+06   8.878491e+04
  -4.590398e+05  -5.163564e+04
   3.337750e+05   6.923013e+05
  -2.950324e+05   1.126243e+06
  -1.564808e+06   4.991652e+05
  -1.775084e+06  -6.548709e+05
  -4.420132e+05  -1.167735e+06
   1.039635e+06  -5.790332e+05
   9.812283e+05   4.099245e+05
  -6.777025e+05   7.412695e+05
  -2.251505e+06   8.533968e+03
  -2.020277e+06  -1.274771e+06
   4.393979e+04  -2.110201e+06
   2.212921e+06  -1.735141e+06
   2.634221e+06  -2.905441e+05
   1.097291e+06   1.094987e+06
  -7.990867e+05   1.228544e+06
  -1.267312e+06   1.188887e+05
  -7.474709e+04  -9.057964e+05
   1.379564e+06  -6.300436e+05
   1.606499e+06   6.566411e+05
   4.640413e+05   1.521480e+06
  -8.869985e+05   1.069456e+06
  -1.219519e+06  -9.506595e+04
  -3.760409e+05  -6.613804e+05
   6.401404e+05  -7.607217e+04
   6.279645e+05   9.588487e+05
  -5.984932e+05   1.284959e+06
  -1.890671e+06   4.161923e+05
  -1.847050e+06  -1.035167e+06
  -3.286808e+05  -1.907028e+06
   1.295193e+06  -1.509413e+06
   1.582960e+06  -2.431986e+05
   5.290527e+05   7.779815e+05
  -5.839794e+05   7.877603e+05
  -6.891784e+05   5.498985e+04
   3.214619e+04  -5.094236e+05
   6.014085e+05  -3.698972e+05
   3.974155e+05   1.109240e+05
  -2.721164e+05   1.696586e+05
  -5.625678e+05  -4.333899e+05
   6.228832e+04  -1.071385e+06
   1.246466e+06  -8.609496e+05
   1.937227e+06   3.818288e+05
   1.335422e+06   1.820659e+06
  -2.356334e+05   2.302056e+06
  -1.554207e+06   1.435573e+06
  -1.716020e+06  -3.657346e+04
  -9.933417e+05  -9.740205e+05
  -3.519896e+05  -9.164436e+05
  -2.870937e+05  -3.970436e+05
  -3.953497e+05  -2.303282e+05
  -4.969560e+04  -5.929519e+05
   7.698780e+05  -8.698089e+05
   1.399665e+06  -3.916588e+05
   1.117715e+06   7.242822e+05
  -1.590263e+05   1.526954e+06
  -1.646450e+06   1.103464e+06
  -2.171165e+06  -4.466042e+05
  -1.135229e+06  -1.953339e+06
   8.285476e+05  -2.198932e+06
   2.288540e+06  -1.045366e+06
   2.274752e+06   4.869758e+05
   1.104166e+06   1.261569e+06
  -8.498559e+04   1.075192e+06
  -5.055971e+05   6.485642e+05
  -3.262521e+05   6.838082e+05
  -2.331999e+05   1.075078e+06
  -6.039896e+05   1.088057e+06
  -1.141625e+06   2.453254e+05
  -1.205503e+06  -1.048761e+06
  -4.770449e+05  -1.798110e+06
   6.267675e+05  -1.342665e+06
   1.224743e+06  -1.209177e+04
   7.901933e+05   1.144929e+06
  -2.677098e+05   1.295404e+06
  -9.624465e+05   5.062078e+05
  -7.375941e+05  -4.512813e+05
  -1.920412e+04  -8.897948e+05
   3.270584e+05  -7.548225e+05
   9.534413e+03  -4.662090e+05
  -3.673295e+05  -3.628801e+05
  -2.791226e+04  -3.781919e+05
   1.017045e+06  -2.069661e+05
   1.842948e+06   3.004026e+05
   1.504759e+06   9.312001e+05
   6.063434e+04   1.260980e+06
  -1.372848e+06   1.012191e+06
  -1.676597e+06   3.211384e+05
  -8.207221e+05  -3.218723e+05
   1.913582e+05  -4.595764e+05
   4.404098e+05  -8.802593e+04
  -2.381530e+04   3.038678e+05
  -4.699118e+05   2.083019e+05
  -4.291577e+05  -3.322678e+05
  -1.133578e+05  -7.159391e+05
   2.363379e+04  -4.593476e+05
  -1.441398e+05   1.651582e+05
  -3.551491e+05   3.673967e+05
  -2.776559e+05  -2.100830e+05
   2.041814e+05  -9.647114e+05
   8.569772e+05  -9.683810e+05
   1.151896e+06  -6.990523e+04
   6.556101e+05   8.777413e+05
  -4.083857e+05   9.607853e+05
  -1.112954e+06   1.895749e+05
  -6.640504e+05  -5.880131e+05
   6.430339e+05  -6.235464e+05
   1.547572e+06   5.178484e+04
   1.086420e+06   8.014551e+05
  -3.626577e+05   1.021186e+06
  -1.455119e+06   5.880289e+05
  -1.265316e+06  -1.168359e+05
  -1.770397e+05  -5.155214e+05
   6.056423e+05  -2.986492e+05
   3.233505e+05   2.487706e+05
  -6.132584e+05   4.300852e+05
  -1.106466e+06  -1.790571e+05
  -5.142498e+05  -1.171291e+06
   7.066399e+05  -1.558803e+06
   1.479044e+06  -7.367776e+05
   1.172197e+06   7.854970e+05
   1.422710e+05   1.734193e+06
  -7.331710e+05   1.276892e+06
  -9.002340e+05  -1.183290e+05
  -4.604689e+05  -1.136781e+06
   1.384323e+05  -9.733886e+05
   5.116968e+05  -1.087321e+05
   5.032108e+05   3.853708e+05
   2.255291e+05   1.587485e+05
   2.081868e+04  -1.131081e+05
   1.587928e+05   2.357223e+05
   4.298749e+05   9.100889e+05
   2.489620e+05   1.051318e+06
  -5.904499e+05   3.814989e+05
  -1.414685e+06  -4.751374e+05
  -1.288959e+06  -8.249254e+05
  -1.737374e+05  -6.535194e+05
   8.938652e+05  -3.743810e+05
   9.706578e+05  -1.815653e+05
   2.846099e+05   1.452361e+04
  -1.710078e+05   2.045147e+05
   4.376312e+04   2.378708e+05
   3.378222e+05   1.447736e+05
   1.099174e+04   1.330227e+05
  -7.295917e+05   1.745606e+05
  -9.856290e+05  -6.299124e+04
  -2.677172e+05  -6.538337e+05
   9.130481e+05  -1.046981e+06
   1.578768e+06  -6.139018e+05
   1.225411e+06   4.947018e+05
   1.910392e+05   1.360601e+06
  -7.432245e+05   1.261446e+06
  -1.010855e+06   4.269179e+05
  -6.294639e+05  -2.859650e+05
  -8.144370e+04  -3.428070e+05
   1.408493e+05  -1.072340e+04
  -5.137900e+04   7.105917e+04
  -3.157335e+05  -3.332380e+05
  -2.474654e+05  -7.760034e+05
   2.055509e+05  -6.237159e+05
   6.605389e+05   1.891699e+05
   6.281640e+05   9.791727e+05
  -6.962739e+03   9.748476e+05
  -7.704638e+05   1.380632e+05
  -9.382104e+05  -7.851494e+05
  -2.497295e+05  -1.041580e+06
   7.094833e+05  -5.668199e+05
   1.023371e+06   1.245071e+05
   4.448470e+05   5.441172e+05
  -2.859230e+05   5.667306e+05
  -3.076094e+05   3.234360e+05
   3.042737e+05   4.342483e+04
   6.373133e+05  -7.555560e+03
   1.068477e+05   2.833945e+05
  -8.045850e+05   6.323794e+05
  -1.154413e+06   5.316657e+05
  -6.515579e+05  -1.347781e+05
   1.221385e+05  -7.965575e+05
   4.885671e+05  -7.711119e+05
   3.399674e+05  -9.262135e+04
   5.103817e+02   4.854422e+05
  -2.526757e+05   3.697607e+05
  -3.339650e+05  -2.114281e+05
  -2.152710e+05  -5.588193e+05
   7.853439e+04  -3.484736e+05
   3.676690e+05   8.081847e+04
   4.231484e+05   2.375455e+05
   2.276202e+05   6.025183e+04
   2.279372e+03  -9.519616e+04
  -7.747751e+04   5.631090e+04
  -8.481237e+04   3.753084e+05
  -1.840830e+05   4.529989e+05
  -3.474824e+05   8.589251e+04
  -3.422863e+05  -4.465990e+05
  -2.085359e+04  -6.293647e+05
   4.286086e+05  -2.563206e+05
   5.822060e+05   3.260613e+05
   1.925726e+05   5.775289e+05
  -4.751395e+05   3.235902e+05
  -8.005931e+05  -1.255388e+05
  -4.260478e+05  -3.749705e+05
   2.910477e+05  -3.259446e+05
   5.976854e+05  -1.415081e+05
   1.907498e+05  -5.392168e+02
  -3.979369e+05   4.713568e+03
  -4.114687e+05  -1.414166e+05
   2.238972e+05  -3.121650e+05
   8.051649e+05  -2.323949e+05
