
 $NMID
 id='ANONYMOUS ', fmtdat='(2E16.6)'
 volume=1.0
 tramp=1.0
 $END
  -3.925438e+07  -3.333761e+06
  -2.186786e+07  -2.502862e+07
   6.457956e+06  -2.559400e+07
   1.940478e+07  -9.781535e+06
   1.140057e+07   4.422886e+06
  -2.184927e+06   6.309788e+06
  -6.853016e+06  -4.839186e+05
  -2.185307e+06  -6.722511e+06
   4.203469e+06  -6.950838e+06
   6.852902e+06  -1.562278e+06
   4.853643e+06   4.842064e+06
   1.960426e+05   6.508473e+06
  -3.170127e+06   1.676785e+06
  -1.886367e+06  -4.540434e+06
   2.811706e+06  -5.061712e+06
   5.580894e+06   1.001492e+06
   2.900549e+06   7.438431e+06
  -3.089283e+06   8.301417e+06
  -7.469931e+06   3.658684e+06
  -7.474484e+06  -2.236617e+06
  -3.907124e+06  -5.726052e+06
   3.090695e+05  -5.763474e+06
   2.078116e+06  -3.590779e+06
   5.481791e+05  -1.831090e+06
  -1.387801e+06  -2.315887e+06
   1.704505e+05  -3.766497e+06
   4.876551e+06  -3.064975e+06
   7.660666e+06   4.523288e+05
   4.951427e+06   3.709416e+06
  -5.879480e+05   3.809454e+06
  -3.472970e+06   1.444898e+06
  -1.945105e+06  -7.240710e+05
   1.112304e+06  -1.274962e+06
   2.573553e+06  -2.647416e+05
   1.862984e+06   1.810913e+06
  -3.105545e+04   3.494558e+06
  -1.798797e+06   2.604564e+06
  -2.063882e+06  -7.246318e+05
  -5.571006e+05  -2.780477e+06
   7.940538e+05  -8.010428e+05
  -7.662801e+04   2.422798e+06
  -2.049251e+06   1.853059e+06
  -1.735331e+06  -2.288612e+06
   1.648645e+06  -4.165257e+06
   4.481173e+06  -4.051645e+05
   3.092767e+06   4.965114e+06
  -1.628335e+06   5.758880e+06
  -5.376191e+06   1.319983e+06
  -5.109910e+06  -3.517848e+06
  -1.435329e+06  -4.610855e+06
   2.650257e+06  -2.141998e+06
   4.131984e+06   1.084135e+06
   2.003126e+06   2.589538e+06
  -1.667770e+06   1.583715e+06
  -3.256055e+06  -7.253733e+05
  -1.399274e+06  -1.952681e+06
   1.263859e+06  -9.241473e+05
   1.396387e+06   7.824257e+05
  -6.953855e+05   7.884175e+05
  -1.679462e+06  -9.012628e+05
   1.850039e+05  -2.028234e+06
   2.929555e+06  -1.165512e+06
   3.623449e+06   8.932108e+05
   1.584253e+06   2.786254e+06
  -1.687343e+06   3.850238e+06
  -4.299288e+06   3.427909e+06
  -4.908702e+06   8.647876e+05
  -3.162925e+06  -2.810117e+06
  -3.071365e+05  -4.813650e+06
   1.446471e+06  -3.649796e+06
   1.161718e+06  -1.182172e+06
   2.545679e+05  -2.489883e+05
   5.448534e+05  -1.000717e+06
   1.858096e+06  -1.184480e+06
   2.480155e+06   3.418026e+05
   1.494932e+06   2.066337e+06
  -3.177087e+05   1.997450e+06
  -1.590827e+06   8.672233e+04
  -1.450555e+06  -1.973395e+06
   1.967649e+05  -2.512199e+06
   2.411476e+06  -1.082963e+06
   3.407963e+06   1.361208e+06
   2.114196e+06   3.108482e+06
  -3.525865e+05   3.058318e+06
  -1.776289e+06   1.771227e+06
  -1.573091e+06   7.497736e+05
  -1.355401e+06   5.868440e+05
  -2.377045e+06   4.105075e+05
  -3.535709e+06  -6.890421e+05
  -2.803746e+06  -2.363179e+06
   7.735034e+03  -3.451066e+06
   2.864329e+06  -3.160523e+06
   3.677234e+06  -1.535781e+06
   2.206958e+06   6.222359e+05
  -2.130221e+04   1.974547e+06
  -1.147699e+06   1.528562e+06
  -4.651008e+05  -1.160396e+05
   1.019883e+06  -1.042156e+06
   1.578881e+06  -2.372856e+05
   6.426609e+05   1.031784e+06
  -5.329184e+05   9.356006e+05
  -4.512258e+05  -3.054855e+05
   7.245953e+05  -6.889881e+05
   1.446169e+06   7.608205e+05
   7.119279e+05   2.627798e+06
  -9.713562e+05   2.898479e+06
  -2.436567e+06   1.232326e+06
  -2.892695e+06  -1.027353e+06
  -2.101414e+06  -2.406321e+06
  -3.993340e+05  -2.336331e+06
   1.146386e+06  -1.221490e+06
   1.384792e+06  -1.060982e+05
   4.161432e+05   5.651420e+04
  -2.813974e+05  -6.441524e+05
   3.627441e+05  -1.070107e+06
   1.553231e+06  -4.045703e+05
   1.638506e+06   7.532829e+05
   3.059311e+05   1.147515e+06
  -9.869175e+05   4.646797e+05
  -7.985449e+05  -3.955219e+05
   6.716867e+05  -5.070893e+05
   1.899300e+06   2.001336e+05
   1.589840e+06   1.174562e+06
  -1.759503e+05   1.752811e+06
  -2.012348e+06   1.412371e+06
  -2.373314e+06   1.680455e+05
  -9.736852e+05  -1.078305e+06
   8.133400e+05  -1.176423e+06
   1.260699e+06  -7.931835e+04
   8.861217e+04   8.918002e+05
  -1.298443e+06   5.565097e+05
  -1.430171e+06  -6.855175e+05
  -2.921681e+05  -1.392693e+06
   8.938809e+05  -8.460133e+05
   1.060476e+06   2.249461e+05
   2.354427e+05   6.347167e+05
  -6.373781e+05   2.584122e+04
  -5.712299e+05  -9.100943e+05
   5.551065e+05  -1.179990e+06
   1.731628e+06  -3.704471e+05
   1.680796e+06   9.739316e+05
   2.520310e+05   1.762287e+06
  -1.253158e+06   1.338739e+06
  -1.456413e+06   1.424605e+05
  -4.200552e+05  -7.357350e+05
   5.688100e+05  -6.742604e+05
   5.780809e+05  -4.704027e+04
  -6.863289e+04   3.619986e+05
  -4.633592e+05   2.393910e+05
  -2.121008e+05  -5.642841e+04
   3.045599e+05  -1.460013e+03
   4.343932e+05   5.059617e+05
  -1.634824e+05   9.767243e+05
  -1.179674e+06   7.251838e+05
  -1.750753e+06  -4.101184e+05
  -1.174715e+06  -1.695452e+06
   2.633731e+05  -2.064891e+06
   1.419450e+06  -1.197537e+06
   1.474379e+06   1.159359e+05
   7.823444e+05   8.218358e+05
   2.931406e+05   6.722592e+05
   3.532672e+05   2.828671e+05
   4.471789e+05   2.742948e+05
   3.310949e+04   6.077904e+05
  -7.485078e+05   7.451006e+05
  -1.247632e+06   2.698776e+05
  -9.233976e+05  -6.503917e+05
   2.142817e+05  -1.285156e+06
   1.497396e+06  -9.002311e+05
   1.918467e+06   4.677508e+05
   9.284006e+05   1.805408e+06
  -8.834669e+05   1.964982e+06
  -2.148575e+06   8.248720e+05
  -1.994416e+06  -5.742959e+05
  -8.506573e+05  -1.151881e+06
   1.483521e+05  -8.590865e+05
   3.846440e+05  -4.955655e+05
   1.832378e+05  -6.480822e+05
   1.868405e+05  -1.061808e+06
   6.063050e+05  -1.029207e+06
   1.085808e+06  -2.087401e+05
   1.090450e+06   9.727755e+05
   4.041802e+05   1.636908e+06
  -5.857943e+05   1.204913e+06
  -1.098401e+06  -3.197813e+04
  -6.596117e+05  -1.090019e+06
   3.365605e+05  -1.162548e+06
   9.430418e+05  -3.480656e+05
   6.456168e+05   5.427716e+05
  -9.468451e+04   8.565379e+05
  -4.118977e+05   6.439839e+05
  -5.287026e+04   3.737215e+05
   3.478077e+05   3.178075e+05
   3.116509e+04   3.360667e+05
  -9.588833e+05   1.449421e+05
  -1.708825e+06  -3.434933e+05
  -1.337221e+06  -9.126650e+05
   4.413771e+04  -1.180235e+06
   1.344251e+06  -8.943863e+05
   1.544784e+06  -2.026578e+05
   6.979022e+05   3.894069e+05
  -2.240480e+05   4.451245e+05
  -4.170792e+05   3.161429e+04
   1.170081e+04  -3.294191e+05
   4.057017e+05  -1.987331e+05
   3.922748e+05   3.099444e+05
   1.534945e+05   6.442714e+05
   2.835220e+04   4.220522e+05
   1.188922e+05  -1.049127e+05
   2.715050e+05  -2.810080e+05
   2.338144e+05   2.005039e+05
  -1.698232e+05   8.535386e+05
  -8.009691e+05   8.709506e+05
  -1.125351e+06   6.841098e+04
  -6.499397e+05  -8.189066e+05
   3.994229e+05  -9.205548e+05
   1.064833e+06  -2.024035e+05
   6.032043e+05   5.269364e+05
  -6.085344e+05   5.353001e+05
  -1.364138e+06  -1.091040e+05
  -8.788195e+05  -7.483723e+05
   4.009590e+05  -8.517092e+05
   1.293553e+06  -4.154793e+05
   1.074905e+06   1.677594e+05
   1.193925e+05   4.482329e+05
  -5.551849e+05   2.257006e+05
  -3.040004e+05  -2.548735e+05
   5.384601e+05  -4.134522e+05
   1.011722e+06   1.357548e+05
   5.061003e+05   1.053693e+06
  -6.017122e+05   1.433012e+06
  -1.323193e+06   6.898903e+05
  -1.052504e+06  -7.039741e+05
  -1.119445e+05  -1.551866e+06
   6.735634e+05  -1.104305e+06
   7.889910e+05   1.586601e+05
   3.526865e+05   1.028062e+06
  -1.878801e+05   8.332495e+05
  -4.736082e+05   6.372314e+04
  -4.092381e+05  -3.386183e+05
  -1.600780e+05  -1.246866e+05
  -3.457563e+04   8.489753e+04
  -1.948918e+05  -2.556949e+05
  -3.924951e+05  -8.425934e+05
  -1.565381e+05  -9.298870e+05
   5.947889e+05  -3.125433e+05
   1.255798e+06   4.466062e+05
   1.096382e+06   7.530490e+05
   1.377865e+05   5.996352e+05
  -7.676059e+05   3.360037e+05
  -8.564034e+05   1.348612e+05
  -2.871828e+05  -4.998497e+04
   1.409143e+05  -1.892422e+05
   1.017484e+04  -1.796528e+05
  -2.534572e+05  -9.545514e+04
  -3.016727e+04  -1.204954e+05
   6.050547e+05  -1.800999e+05
   8.980335e+05   5.240589e+04
   3.126850e+05   6.161376e+05
  -7.888246e+05   9.771326e+05
  -1.474810e+06   5.713596e+05
  -1.173814e+06  -4.396140e+05
  -1.824562e+05  -1.224068e+06
   7.006487e+05  -1.146906e+06
   9.241402e+05  -4.126635e+05
   5.631444e+05   2.322213e+05
   9.368954e+04   3.153003e+05
  -8.614241e+04   4.864475e+04
   5.798080e+04  -2.397794e+04
   2.538394e+05   3.156599e+05
   1.944902e+05   6.993934e+05
  -1.821335e+05   5.750056e+05
  -5.908827e+05  -1.382059e+05
  -5.976511e+05  -8.594931e+05
  -4.374545e+04  -8.965719e+05
   6.740965e+05  -1.750996e+05
   8.671373e+05   6.718517e+05
   2.519646e+05   9.514963e+05
  -6.431280e+05   5.470563e+05
  -9.520083e+05  -1.089563e+05
  -4.216339e+05  -5.350687e+05
   2.738900e+05  -5.565075e+05
   3.244722e+05  -2.940046e+05
  -2.311821e+05  -1.529977e+04
  -5.648716e+05   1.221081e+04
  -1.092197e+05  -2.686220e+05
   7.303374e+05  -5.591702e+05
   1.080747e+06  -4.300416e+05
   6.280557e+05   1.711741e+05
  -1.148074e+05   7.383519e+05
  -4.909083e+05   7.056586e+05
  -3.602509e+05   1.073474e+05
  -2.553325e+04  -4.236336e+05
   2.260624e+05  -3.595623e+05
   3.050111e+05   1.509097e+05
   1.982626e+05   5.058427e+05
  -6.813669e+04   3.548357e+05
  -3.368727e+05  -5.694739e+04
  -3.909190e+05  -2.489961e+05
  -2.013724e+05  -8.215710e+04
   1.310191e+04   1.226632e+05
   5.947573e+04   1.801573e+04
   1.551597e+04  -3.215708e+05
   9.339915e+04  -4.689677e+05
   3.008708e+05  -1.575018e+05
   3.719431e+05   3.644967e+05
   9.214490e+04   5.750124e+05
  -3.706219e+05   2.544627e+05
  -5.581117e+05  -2.738314e+05
  -1.963641e+05  -5.095263e+05
   4.448509e+05  -2.947350e+05
   7.519203e+05   1.019097e+05
   3.966097e+05   3.419101e+05
  -2.698560e+05   3.255608e+05
  -5.591353e+05   1.628859e+05
  -2.070774e+05   9.800069e+02
   3.188110e+05  -4.491815e+04
   3.611118e+05   7.867509e+04
  -1.605709e+05   2.593334e+05
  -6.663106e+05   2.194093e+05
