
 $NMID
 id='ANONYMOUS ', fmtdat='(2E16.6)'
 volume=1.0
 tramp=1.0
 $END
   5.887198e+07  -5.472574e+05
   3.569205e+07   3.667309e+07
  -7.780742e+06   4.018912e+07
  -2.904668e+07   1.512974e+07
  -1.724418e+07  -7.769610e+06
   3.642164e+06  -9.824034e+06
   1.031478e+07   1.569346e+06
   2.681553e+06   1.033636e+07
  -6.708605e+06   9.536554e+06
  -1.010775e+07   1.881959e+06
  -7.223627e+06  -6.390259e+06
  -8.547709e+05  -8.801685e+06
   4.053715e+06  -2.893829e+06
   2.618368e+06   5.443491e+06
  -3.995581e+06   6.601402e+06
  -8.195212e+06  -1.490297e+06
  -4.575714e+06  -1.062003e+07
   3.950446e+06  -1.225758e+07
   1.047513e+07  -6.213696e+06
   1.128146e+07   1.966797e+06
   7.102243e+06   7.691644e+06
   9.498720e+05   9.141221e+06
  -3.079119e+06   6.565286e+06
  -2.283644e+06   2.866056e+06
   8.321643e+05   1.982779e+06
   3.035908e+05   4.013806e+06
  -5.273153e+06   4.473890e+06
  -9.717893e+06   6.635506e+05
  -7.270101e+06  -4.089208e+06
  -4.903637e+05  -5.155920e+06
   3.559264e+06  -2.739427e+06
   2.465355e+06  -2.663541e+05
  -4.075679e+05   6.886691e+05
  -1.998972e+06   4.598928e+05
  -2.104071e+06  -1.223382e+06
  -8.400503e+05  -3.799015e+06
   1.715968e+06  -4.019460e+06
   3.425254e+06  -1.226702e+05
   1.988090e+06   3.698286e+06
  -7.041272e+05   2.209413e+06
  -4.123956e+05  -2.281252e+06
   2.491801e+06  -2.268242e+06
   2.511148e+06   3.359700e+06
  -2.635279e+06   6.449164e+06
  -7.425484e+06   1.117903e+06
  -5.459159e+06  -7.246492e+06
   1.985955e+06  -8.974224e+06
   7.719088e+06  -2.572182e+06
   7.105097e+06   4.611852e+06
   1.774153e+06   6.204965e+06
  -3.612746e+06   2.687961e+06
  -5.318902e+06  -1.695022e+06
  -2.367015e+06  -3.653690e+06
   2.576668e+06  -2.256035e+06
   4.696052e+06   1.003362e+06
   1.991600e+06   2.862735e+06
  -1.793567e+06   1.424106e+06
  -1.738261e+06  -1.088356e+06
   1.497742e+06  -9.076617e+05
   2.620237e+06   1.991255e+06
  -7.551996e+05   3.763352e+06
  -4.980309e+06   2.023348e+06
  -5.577355e+06  -1.501242e+06
  -2.394355e+06  -4.192709e+06
   1.803005e+06  -5.404081e+06
   5.007946e+06  -4.947427e+06
   6.271284e+06  -1.854359e+06
   4.742945e+06   3.133640e+06
   1.016753e+06   6.272055e+06
  -1.979424e+06   4.852755e+06
  -1.917266e+06   1.139313e+06
  -1.458538e+05  -4.398643e+05
   2.135316e+05   8.702283e+05
  -1.420166e+06   1.839123e+06
  -2.732501e+06   3.808539e+05
  -2.036020e+06  -1.787769e+06
  -9.721595e+04  -2.049040e+06
   1.444358e+06  -1.870554e+05
   1.604428e+06   2.028088e+06
   1.403478e+04   2.904079e+06
  -2.745124e+06   1.706440e+06
  -4.548126e+06  -1.121401e+06
  -3.365933e+06  -3.798943e+06
  -3.068459e+04  -4.385795e+06
   2.346993e+06  -2.870414e+06
   2.356403e+06  -1.188439e+06
   1.920750e+06  -6.504224e+05
   2.994041e+06  -4.172446e+05
   4.380957e+06   8.343727e+05
   3.475305e+06   2.829038e+06
   8.113922e+04   4.140789e+06
  -3.232456e+06   3.872367e+06
  -4.152420e+06   2.117274e+06
  -2.648395e+06  -3.748859e+05
  -3.203531e+05  -2.194424e+06
   1.053769e+06  -1.940521e+06
   5.634681e+05   1.417687e+04
  -1.078259e+06   1.307459e+06
  -1.930732e+06   3.965576e+05
  -9.509889e+05  -1.217643e+06
   5.078774e+05  -1.101828e+06
   3.852672e+05   4.189398e+05
  -1.169559e+06   6.440094e+05
  -1.905355e+06  -1.467536e+06
  -5.103723e+05  -3.658501e+06
   1.843804e+06  -3.397968e+06
   3.290335e+06  -9.239561e+05
   3.250307e+06   1.625346e+06
   2.124807e+06   2.809280e+06
   3.691948e+05   2.575055e+06
  -1.240468e+06   1.437580e+06
  -1.562748e+06   2.220868e+05
  -4.932446e+05  -5.162175e+04
   3.490653e+05   7.619954e+05
  -4.439554e+05   1.367746e+06
  -1.959668e+06   5.723426e+05
  -2.060886e+06  -9.462287e+05
  -3.590659e+05  -1.461827e+06
   1.199168e+06  -5.504120e+05
   8.589277e+05   4.837764e+05
  -8.978895e+05   4.684967e+05
  -2.162729e+06  -4.265544e+05
  -1.655575e+06  -1.411909e+06
   3.328554e+05  -1.935234e+06
   2.344576e+06  -1.584859e+06
   2.783568e+06  -2.216330e+05
   1.215511e+06   1.304583e+06
  -9.477136e+05   1.531649e+06
  -1.603283e+06   1.889179e+05
  -2.132964e+05  -1.102361e+06
   1.539911e+06  -7.305498e+05
   1.719055e+06   8.281966e+05
   2.837197e+05   1.680225e+06
  -1.150353e+06   9.403808e+05
  -1.261854e+06  -3.773755e+05
  -2.081927e+05  -8.132770e+05
   8.252017e+05  -4.353522e+04
   7.385977e+05   1.072985e+06
  -5.861372e+05   1.429794e+06
  -2.019577e+06   5.329599e+05
  -2.039618e+06  -1.073402e+06
  -3.615028e+05  -2.097968e+06
   1.484004e+06  -1.637906e+06
   1.749158e+06  -1.750679e+05
   4.801223e+05   8.932322e+05
  -6.850879e+05   7.914377e+05
  -6.171702e+05   6.403740e+04
   1.522395e+05  -3.294732e+05
   4.784603e+05  -1.564795e+05
   5.987075e+04   7.445739e+04
  -4.946320e+05  -1.264988e+05
  -5.044880e+05  -7.298774e+05
   2.527128e+05  -1.205999e+06
   1.415778e+06  -8.753988e+05
   2.088961e+06   4.505762e+05
   1.449496e+06   1.975034e+06
  -2.515414e+05   2.420647e+06
  -1.643910e+06   1.366761e+06
  -1.672049e+06  -1.798298e+05
  -7.981932e+05  -8.973528e+05
  -2.780997e+05  -5.980719e+05
  -4.985072e+05  -1.775830e+05
  -6.697349e+05  -3.267933e+05
  -9.401302e+04  -7.934990e+05
   9.076683e+05  -8.882656e+05
   1.456248e+06  -2.809245e+05
   1.010514e+06   7.405284e+05
  -3.012242e+05   1.432161e+06
  -1.746276e+06   1.025925e+06
  -2.237102e+06  -5.276481e+05
  -1.089813e+06  -2.136401e+06
   1.078071e+06  -2.371866e+06
   2.597187e+06  -9.831105e+05
   2.343528e+06   7.342496e+05
   8.922011e+05   1.371858e+06
  -2.577121e+05   9.117231e+05
  -3.785754e+05   4.604248e+05
  -3.366687e+04   7.453678e+05
  -8.556809e+04   1.336451e+06
  -6.922490e+05   1.311967e+06
  -1.317449e+06   3.159730e+05
  -1.336039e+06  -1.095375e+06
  -5.388545e+05  -1.904760e+06
   6.370779e+05  -1.432988e+06
   1.288261e+06   2.695157e+04
   7.927358e+05   1.317402e+06
  -4.360864e+05   1.405393e+06
  -1.210961e+06   3.679720e+05
  -8.209860e+05  -7.579797e+05
   1.643437e+05  -1.113526e+06
   5.927542e+05  -7.828428e+05
   1.126831e+05  -4.034231e+05
  -4.364332e+05  -3.305011e+05
  -5.984546e+04  -3.799829e+05
   1.171863e+06  -1.943527e+05
   2.089695e+06   3.631115e+05
   1.613998e+06   1.075768e+06
  -7.790363e+04   1.466816e+06
  -1.638819e+06   1.141956e+06
  -1.858103e+06   2.383867e+05
  -8.292280e+05  -5.455097e+05
   2.793566e+05  -5.884932e+05
   5.274230e+05  -1.483538e+04
   4.271067e+04   4.423780e+05
  -4.333995e+05   2.583582e+05
  -4.839610e+05  -3.463658e+05
  -2.734197e+05  -7.131657e+05
  -1.178664e+05  -4.735885e+05
  -1.401468e+05   7.283217e+04
  -2.669413e+05   2.602680e+05
  -2.688193e+05  -2.408078e+05
   1.403337e+05  -9.747650e+05
   9.138358e+05  -1.065933e+06
   1.398809e+06  -1.893113e+05
   8.806169e+05   9.172156e+05
  -4.216640e+05   1.167288e+06
  -1.279425e+06   3.601987e+05
  -7.332977e+05  -5.709602e+05
   7.208971e+05  -6.380911e+05
   1.581673e+06   1.351698e+05
   9.580713e+05   8.948432e+05
  -5.340185e+05   9.660399e+05
  -1.509121e+06   4.148034e+05
  -1.209403e+06  -2.362891e+05
  -1.098290e+05  -5.127290e+05
   6.616677e+05  -2.471972e+05
   3.952932e+05   3.076213e+05
  -5.723542e+05   5.325140e+05
  -1.184937e+06  -6.396836e+04
  -6.943942e+05  -1.170477e+06
   5.624979e+05  -1.711122e+06
   1.471207e+06  -9.001180e+05
   1.253718e+06   7.534570e+05
   1.940269e+05   1.787437e+06
  -7.546419e+05   1.270769e+06
  -9.221839e+05  -2.096627e+05
  -3.967688e+05  -1.204989e+06
   2.641552e+05  -9.550917e+05
   5.757952e+05  -6.668670e+04
   4.382558e+05   3.801295e+05
   1.340232e+05   1.344084e+05
   6.131137e+04  -8.809997e+04
   3.201819e+05   3.110386e+05
   5.189414e+05   9.777197e+05
   1.477707e+05   1.080139e+06
  -7.584608e+05   3.891372e+05
  -1.467430e+06  -4.765225e+05
  -1.242830e+06  -8.522539e+05
  -1.770261e+05  -7.084822e+05
   8.276455e+05  -4.137877e+05
   9.773380e+05  -1.631076e+05
   3.884086e+05   6.991426e+04
  -1.349016e+05   2.268777e+05
  -7.487827e+04   1.920650e+05
   2.239530e+05   7.994141e+04
   6.517499e+04   1.293226e+05
  -6.201259e+05   2.447082e+05
  -1.053045e+06  -4.175388e+02
  -4.922011e+05  -6.941438e+05
   8.039709e+05  -1.200113e+06
   1.728581e+06  -7.910357e+05
   1.462810e+06   4.034387e+05
   2.917686e+05   1.401347e+06
  -7.782061e+05   1.395172e+06
  -1.050128e+06   5.688590e+05
  -6.491581e+05  -2.100296e+05
  -1.526009e+05  -3.580768e+05
   3.193030e+04  -8.709963e+04
  -9.806075e+04  -9.686374e+03
  -2.837720e+05  -3.836086e+05
  -2.319704e+05  -8.129378e+05
   1.689555e+05  -6.899904e+05
   6.723745e+05   9.166638e+04
   7.669483e+05   9.210580e+05
   1.676797e+05   1.034052e+06
  -7.243099e+05   2.902045e+05
  -1.051466e+06  -6.782095e+05
  -3.830537e+05  -1.090867e+06
   7.019132e+05  -7.141395e+05
   1.142505e+06   5.480771e+04
   5.637021e+05   6.383417e+05
  -2.834867e+05   7.208777e+05
  -4.128222e+05   3.838977e+05
   2.081980e+05  -2.941937e+03
   6.407250e+05  -4.794871e+04
   1.629455e+05   3.144725e+05
  -8.258689e+05   6.796055e+05
  -1.297773e+06   5.219183e+05
  -8.080385e+05  -2.010538e+05
   8.705809e+04  -8.881615e+05
   5.823906e+05  -8.817793e+05
   4.625785e+05  -1.975403e+05
   7.612664e+04   4.619701e+05
  -2.275156e+05   4.592617e+05
  -3.483463e+05  -1.100179e+05
  -2.644518e+05  -5.757093e+05
   3.680054e+04  -4.610098e+05
   3.926433e+05   2.598055e+04
   4.945494e+05   3.022366e+05
   2.467593e+05   1.176851e+05
  -5.677656e+04  -1.769031e+05
  -9.007754e+04  -1.016727e+05
   6.277412e+04   3.259671e+05
   3.033168e+04   5.851439e+05
  -2.882735e+05   2.863609e+05
  -5.073527e+05  -3.279530e+05
  -2.277214e+05  -6.361378e+05
   3.862135e+05  -3.357709e+05
   6.917196e+05   2.471252e+05
   2.776915e+05   5.562620e+05
  -5.167478e+05   3.782054e+05
  -9.072144e+05  -4.839746e+04
  -4.955394e+05  -3.725176e+05
   2.881835e+05  -4.328718e+05
   6.459596e+05  -2.709050e+05
   2.803471e+05  -2.994678e+04
  -3.019700e+05   9.847845e+04
  -3.890167e+05  -1.888889e+04
   1.340749e+05  -2.650336e+05
   6.867283e+05  -2.759574e+05
