
 $NMID
 id='ANONYMOUS ', fmtdat='(2E16.6)'
 volume=1.0
 tramp=1.0
 $END
  -5.712549e+07   3.735939e+05
  -3.452804e+07  -3.546686e+07
   7.527510e+06  -3.884968e+07
   2.806468e+07  -1.475872e+07
   1.669911e+07   7.347859e+06
  -3.455781e+06   9.491887e+06
  -9.973019e+06  -1.401850e+06
  -2.689592e+06  -9.961191e+06
   6.396447e+06  -9.329311e+06
   9.780950e+06  -1.913186e+06
   7.049518e+06   6.220104e+06
   8.475786e+05   8.607099e+06
  -3.974583e+06   2.806662e+06
  -2.608386e+06  -5.363210e+06
   3.832621e+06  -6.496432e+06
   7.957308e+06   1.399420e+06
   4.477445e+06   1.030901e+07
  -3.814583e+06   1.192002e+07
  -1.018680e+07   6.027292e+06
  -1.095880e+07  -1.961172e+06
  -6.835264e+06  -7.511882e+06
  -8.405921e+05  -8.837525e+06
   2.977209e+06  -6.278068e+06
   2.080837e+06  -2.745254e+06
  -9.495814e+05  -2.009514e+06
  -3.042295e+05  -4.029775e+06
   5.246361e+06  -4.412591e+06
   9.578814e+06  -6.207493e+05
   7.104123e+06   4.038833e+06
   4.014786e+05   5.064036e+06
  -3.578170e+06   2.659138e+06
  -2.451375e+06   1.705442e+05
   4.665484e+05  -7.951111e+05
   2.085181e+06  -4.909460e+05
   2.132399e+06   1.279250e+06
   7.930583e+05   3.810142e+06
  -1.722764e+06   3.913283e+06
  -3.315633e+06   3.149240e+04
  -1.860593e+06  -3.634116e+06
   7.322236e+05  -2.071974e+06
   3.975644e+05   2.327819e+06
  -2.437458e+06   2.263021e+06
  -2.457132e+06  -3.244300e+06
   2.511252e+06  -6.237743e+06
   7.138888e+06  -1.062485e+06
   5.259877e+06   7.024174e+06
  -1.923208e+06   8.682646e+06
  -7.502810e+06   2.488497e+06
  -6.962604e+06  -4.472259e+06
  -1.794902e+06  -6.048792e+06
   3.502535e+06  -2.670841e+06
   5.228025e+06   1.590094e+06
   2.366734e+06   3.530170e+06
  -2.474666e+06   2.204536e+06
  -4.568612e+06  -9.510533e+05
  -1.952498e+06  -2.764415e+06
   1.738559e+06  -1.386476e+06
   1.718923e+06   1.044115e+06
  -1.402957e+06   8.980642e+05
  -2.524489e+06  -1.865731e+06
   6.901550e+05  -3.578682e+06
   4.771192e+06  -1.948657e+06
   5.393019e+06   1.415870e+06
   2.337688e+06   4.047207e+06
  -1.769530e+06   5.288154e+06
  -4.936841e+06   4.863386e+06
  -6.163943e+06   1.805949e+06
  -4.632230e+06  -3.098052e+06
  -9.917965e+05  -6.156932e+06
   1.893898e+06  -4.763173e+06
   1.822361e+06  -1.160476e+06
   1.445527e+05   3.536713e+05
  -1.412227e+05  -9.155197e+05
   1.478333e+06  -1.812616e+06
   2.743483e+06  -3.314080e+05
   2.025508e+06   1.822536e+06
   7.853291e+04   2.072410e+06
  -1.474802e+06   2.040314e+05
  -1.629915e+06  -2.018623e+06
  -2.186998e+04  -2.888348e+06
   2.721795e+06  -1.678326e+06
   4.475243e+06   1.125222e+06
   3.281507e+06   3.735755e+06
   1.094434e+04   4.275248e+06
  -2.288565e+06   2.781080e+06
  -2.277504e+06   1.157729e+06
  -1.860821e+06   6.605645e+05
  -2.939171e+06   4.474620e+05
  -4.325521e+06  -7.821219e+05
  -3.454136e+06  -2.764062e+06
  -1.142546e+05  -4.095051e+06
   3.177985e+06  -3.859338e+06
   4.116485e+06  -2.115769e+06
   2.631888e+06   3.805011e+05
   3.093076e+05   2.192935e+06
  -1.056804e+06   1.927173e+06
  -5.596945e+05  -2.094060e+04
   1.068577e+06  -1.301696e+06
   1.903589e+06  -3.996450e+05
   9.349418e+05   1.200585e+06
  -5.031766e+05   1.099776e+06
  -3.992284e+05  -4.007590e+05
   1.114366e+06  -6.588540e+05
   1.866525e+06   1.379813e+06
   5.635925e+05   3.550907e+06
  -1.716511e+06   3.367721e+06
  -3.190808e+06   9.937305e+05
  -3.241676e+06  -1.526930e+06
  -2.172078e+06  -2.751807e+06
  -4.092337e+05  -2.561765e+06
   1.224070e+06  -1.440691e+06
   1.554999e+06  -2.290854e+05
   4.891550e+05   4.726498e+04
  -3.520348e+05  -7.510681e+05
   4.261732e+05  -1.347903e+06
   1.923891e+06  -5.746164e+05
   2.036113e+06   9.123006e+05
   3.683660e+05   1.432342e+06
  -1.178055e+06   5.565364e+05
  -8.636665e+05  -4.659341e+05
   8.699708e+05  -4.841396e+05
   2.149287e+06   3.772895e+05
   1.676737e+06   1.371499e+06
  -2.920830e+05   1.930222e+06
  -2.305304e+06   1.604130e+06
  -2.756305e+06   2.478770e+05
  -1.210026e+06  -1.277032e+06
   9.269767e+05  -1.512461e+06
   1.576177e+06  -1.914740e+05
   2.104984e+05   1.087058e+06
  -1.518193e+06   7.322218e+05
  -1.707396e+06  -8.003465e+05
  -3.043603e+05  -1.655129e+06
   1.117440e+06  -9.467902e+05
   1.249244e+06   3.488978e+05
   2.200760e+05   7.944565e+05
  -8.097262e+05   4.843347e+04
  -7.364198e+05  -1.056691e+06
   5.732078e+05  -1.420469e+06
   1.999404e+06  -5.405391e+05
   2.027812e+06   1.050167e+06
   3.736994e+05   2.073464e+06
  -1.452726e+06   1.631915e+06
  -1.727067e+06   1.908630e+05
  -4.858717e+05  -8.761184e+05
   6.682813e+05  -7.909832e+05
   6.171767e+05  -7.089365e+04
  -1.374328e+05   3.359745e+05
  -4.758071e+05   1.748486e+05
  -7.940138e+04  -6.718651e+04
   4.739553e+05   1.103647e+05
   5.048721e+05   7.034895e+05
  -2.324178e+05   1.190050e+06
  -1.390672e+06   8.797486e+05
  -2.072218e+06  -4.275091e+05
  -1.451189e+06  -1.944458e+06
   2.282914e+05  -2.403088e+06
   1.614818e+06  -1.376941e+06
   1.663400e+06   1.535009e+05
   8.150287e+05   8.836807e+05
   2.943720e+05   6.071544e+05
   4.917025e+05   1.886224e+05
   6.523089e+05   3.199890e+05
   9.415382e+04   7.786098e+05
  -8.868852e+05   8.881237e+05
  -1.439788e+06   2.985271e+05
  -1.017839e+06  -7.228628e+05
   2.753115e+05  -1.428957e+06
   1.719327e+06  -1.039419e+06
   2.224617e+06   4.998808e+05
   1.102878e+06   2.103050e+06
  -1.039693e+06   2.354128e+06
  -2.555192e+06   9.990658e+05
  -2.328094e+06  -6.955453e+05
  -9.094345e+05  -1.344352e+06
   2.340092e+05  -9.137298e+05
   3.740764e+05  -4.748606e+05
   4.327801e+04  -7.455578e+05
   8.623826e+04  -1.319609e+06
   6.762869e+05  -1.297426e+06
   1.299435e+06  -3.191265e+05
   1.331395e+06   1.076899e+06
   5.487627e+05   1.884811e+06
  -6.211237e+05   1.426316e+06
  -1.277104e+06  -1.360047e+04
  -7.969977e+05  -1.293215e+06
   4.135371e+05  -1.391951e+06
   1.184004e+06  -3.791514e+05
   8.119638e+05   7.313965e+05
  -1.481589e+05   1.092576e+06
  -5.683001e+05   7.763582e+05
  -1.010365e+05   4.030973e+05
   4.344608e+05   3.277543e+05
   6.158995e+04   3.779958e+05
  -1.154935e+06   2.017926e+05
  -2.067160e+06  -3.431365e+05
  -1.606407e+06  -1.048896e+06
   6.069946e+04  -1.445182e+06
   1.607579e+06  -1.138414e+06
   1.833802e+06  -2.553500e+05
   8.240728e+05   5.226295e+05
  -2.704782e+05   5.789928e+05
  -5.179379e+05   2.174707e+04
  -3.996254e+04  -4.337627e+05
   4.315569e+05  -2.594799e+05
   4.814520e+05   3.402146e+05
   2.705613e+05   7.105850e+05
   1.140293e+05   4.725234e+05
   1.365739e+05  -7.886902e+04
   2.649954e+05  -2.694022e+05
   2.695506e+05   2.349727e+05
  -1.334852e+05   9.719089e+05
  -8.976723e+05   1.062615e+06
  -1.379129e+06   1.897172e+05
  -8.719523e+05  -9.069106e+05
   4.121654e+05  -1.153757e+06
   1.264163e+06  -3.577372e+05
   7.316552e+05   5.631430e+05
  -7.067976e+05   6.390240e+05
  -1.570410e+06  -1.151363e+05
  -9.662013e+05  -8.722711e+05
   5.110007e+05  -9.647264e+05
   1.489554e+06  -4.353668e+05
   1.205127e+06   2.152793e+05
   1.179409e+05   5.073136e+05
  -6.513475e+05   2.537196e+05
  -3.908804e+05  -3.006928e+05
   5.686595e+05  -5.308169e+05
   1.177724e+06   5.995738e+04
   6.925956e+05   1.161643e+06
  -5.538630e+05   1.702701e+06
  -1.458597e+06   9.012322e+05
  -1.250708e+06  -7.405750e+05
  -2.066083e+05  -1.774084e+06
   7.365953e+05  -1.271033e+06
   9.157731e+05   1.950599e+05
   4.082245e+05   1.189247e+06
  -2.461402e+05   9.503480e+05
  -5.675583e+05   7.267789e+04
  -4.431932e+05  -3.723996e+05
  -1.400655e+05  -1.314071e+05
  -5.733536e+04   8.853853e+04
  -3.110760e+05  -3.061350e+05
  -5.193503e+05  -9.657963e+05
  -1.622872e+05  -1.068695e+06
   7.416990e+05  -3.899522e+05
   1.461207e+06   4.605916e+05
   1.246188e+06   8.326598e+05
   1.815550e+05   6.999875e+05
  -8.234545e+05   4.192433e+05
  -9.695265e+05   1.727044e+05
  -3.800929e+05  -6.528646e+04
   1.343734e+05  -2.266434e+05
   6.512612e+04  -1.912487e+05
  -2.311692e+05  -7.793975e+04
  -6.331850e+04  -1.295220e+05
   6.218322e+05  -2.484767e+05
   1.045217e+06  -5.020103e+03
   4.834534e+05   6.888273e+05
  -7.972128e+05   1.195997e+06
  -1.707616e+06   7.906988e+05
  -1.448380e+06  -3.973993e+05
  -2.976951e+05  -1.391042e+06
   7.615315e+05  -1.387246e+06
   1.040130e+06  -5.676369e+05
   6.485017e+05   2.069716e+05
   1.511543e+05   3.555546e+05
  -3.855877e+04   8.556491e+04
   9.315666e+04   5.519396e+03
   2.864700e+05   3.752370e+05
   2.386402e+05   8.038394e+05
  -1.647918e+05   6.852399e+05
  -6.713510e+05  -8.999490e+04
  -7.658821e+05  -9.148969e+05
  -1.662539e+05  -1.027830e+06
   7.236235e+05  -2.888230e+05
   1.048988e+06   6.725143e+05
   3.834574e+05   1.081713e+06
  -6.949892e+05   7.095243e+05
  -1.132148e+06  -4.981687e+04
  -5.583031e+05  -6.271760e+05
   2.787124e+05  -7.116093e+05
   4.026729e+05  -3.800764e+05
  -2.132430e+05   4.901310e+03
  -6.375325e+05   5.181144e+04
  -1.614281e+05  -3.108512e+05
   8.146163e+05  -6.809998e+05
   1.277603e+06  -5.288760e+05
   7.956379e+05   1.922718e+05
  -8.189924e+04   8.801182e+05
  -5.681872e+05   8.745041e+05
  -4.541429e+05   1.924606e+05
  -7.685029e+04  -4.617661e+05
   2.252416e+05  -4.548564e+05
   3.492414e+05   1.116884e+05
   2.656710e+05   5.702267e+05
  -3.700960e+04   4.538868e+05
  -3.907533e+05  -2.547554e+04
  -4.894322e+05  -2.939972e+05
  -2.441354e+05  -1.120130e+05
   5.307376e+04   1.724858e+05
   8.603897e+04   9.215058e+04
  -5.903516e+04  -3.297871e+05
  -2.133928e+04  -5.798667e+05
   2.919058e+05  -2.784535e+05
   5.019545e+05   3.314639e+05
   2.216260e+05   6.350916e+05
  -3.849567e+05   3.345720e+05
  -6.864841e+05  -2.457871e+05
  -2.776786e+05  -5.536662e+05
   5.092889e+05  -3.773212e+05
   8.989312e+05   4.586051e+04
   4.928656e+05   3.673958e+05
  -2.850887e+05   4.277299e+05
  -6.403251e+05   2.677485e+05
  -2.744637e+05   2.880054e+04
   3.067223e+05  -9.829392e+04
   3.912469e+05   2.088835e+04
  -1.343263e+05   2.695973e+05
  -6.875578e+05   2.818211e+05
