
 $NMID
 id='ANONYMOUS ', fmtdat='(2E16.6)'
 volume=1.0
 tramp=1.0
 $END
   4.591093e+07   1.127495e+05
   2.813075e+07   2.725028e+07
  -5.028058e+06   3.071240e+07
  -2.205202e+07   1.325896e+07
  -1.404722e+07  -4.339799e+06
   2.019706e+06  -7.736887e+06
   8.269737e+06   5.484523e+04
   3.143076e+06   7.871801e+06
  -4.541523e+06   8.559141e+06
  -8.024124e+06   2.368180e+06
  -6.025651e+06  -5.242468e+06
  -7.016202e+05  -7.516554e+06
   3.487311e+06  -2.190292e+06
   2.401264e+06   5.114554e+06
  -3.018576e+06   6.104827e+06
  -6.670388e+06  -7.347489e+05
  -4.006209e+06  -8.474585e+06
   2.918738e+06  -9.970675e+06
   8.360498e+06  -4.924378e+06
   8.841464e+06   1.877332e+06
   5.091647e+06   6.183285e+06
   3.239742e+05   6.685263e+06
  -1.977502e+06   4.527463e+06
  -6.070717e+05   2.440364e+06
   1.507110e+06   2.672853e+06
  -7.152994e+04   4.241501e+06
  -5.342730e+06   3.730117e+06
  -8.744967e+06  -2.087575e+04
  -5.945172e+06  -3.854341e+06
   3.252093e+05  -4.304396e+06
   3.749623e+06  -1.816745e+06
   2.123389e+06   6.333777e+05
  -1.272345e+06   1.308339e+06
  -2.846764e+06   2.658138e+05
  -2.080912e+06  -1.953060e+06
  -1.312240e+05  -3.882181e+06
   1.803204e+06  -3.104547e+06
   2.359108e+06   5.236244e+05
   9.317694e+05   3.031050e+06
  -6.801588e+05   1.034285e+06
   3.519642e+04  -2.674546e+06
   2.290540e+06  -2.235799e+06
   2.230168e+06   2.565975e+06
  -1.580411e+06   5.108238e+06
  -5.254500e+06   1.008307e+06
  -4.123430e+06  -5.471984e+06
   1.348189e+06  -6.912688e+06
   6.130260e+06  -2.019703e+06
   6.195554e+06   3.750032e+06
   1.951847e+06   5.324589e+06
  -2.996266e+06   2.660140e+06
  -4.911708e+06  -1.064619e+06
  -2.502277e+06  -2.965229e+06
   1.858439e+06  -2.017061e+06
   3.883661e+06   5.983744e+05
   1.805147e+06   2.198833e+06
  -1.399161e+06   1.189565e+06
  -1.674908e+06  -8.496849e+05
   8.339036e+05  -1.033346e+06
   2.165191e+06   9.639732e+05
   1.760861e+04   2.547181e+06
  -3.378032e+06   1.737250e+06
  -4.399702e+06  -7.422863e+05
  -2.114983e+06  -3.160846e+06
   1.659976e+06  -4.560418e+06
   4.697429e+06  -4.193859e+06
   5.556677e+06  -1.330238e+06
   3.823518e+06   2.960308e+06
   6.846220e+05   5.504106e+06
  -1.474188e+06   4.359600e+06
  -1.383181e+06   1.468692e+06
  -3.803871e+05   2.102087e+05
  -5.615181e+05   1.022057e+06
  -1.965939e+06   1.363073e+06
  -2.742988e+06  -2.585108e+05
  -1.733964e+06  -2.229225e+06
   2.916544e+05  -2.220796e+06
   1.780649e+06  -1.062538e+05
   1.696639e+06   2.209896e+06
  -1.166856e+05   2.865894e+06
  -2.670242e+06   1.366757e+06
  -3.963256e+06  -1.320518e+06
  -2.657649e+06  -3.393050e+06
   1.366250e+05  -3.549738e+06
   1.892640e+06  -2.220044e+06
   1.789339e+06  -1.026128e+06
   1.578096e+06  -7.721020e+05
   2.755469e+06  -5.854128e+05
   4.130060e+06   6.331024e+05
   3.347945e+06   2.601215e+06
   1.405546e+05   3.977223e+06
  -3.152607e+06   3.748768e+06
  -4.125532e+06   1.913593e+06
  -2.523009e+06  -5.944729e+05
  -6.243187e+04  -2.217200e+06
   1.218619e+06  -1.777725e+06
   5.243681e+05   1.015221e+05
  -1.113929e+06   1.230250e+06
  -1.801430e+06   3.556106e+05
  -7.991042e+05  -1.137250e+06
   5.669231e+05  -1.082739e+06
   5.266908e+05   3.607254e+05
  -8.621205e+05   8.524537e+05
  -1.797812e+06  -8.456011e+05
  -9.734460e+05  -3.104409e+06
   1.076027e+06  -3.482850e+06
   2.880370e+06  -1.528620e+06
   3.425205e+06   1.136624e+06
   2.482451e+06   2.747062e+06
   5.145613e+05   2.680733e+06
  -1.267749e+06   1.437581e+06
  -1.574513e+06   1.742076e+05
  -4.809474e+05  -4.745186e+04
   3.509952e+05   7.300143e+05
  -3.636685e+05   1.260076e+06
  -1.774151e+06   5.533117e+05
  -1.939339e+06  -7.923511e+05
  -4.131213e+05  -1.321295e+06
   1.122616e+06  -5.786496e+05
   9.303650e+05   4.389359e+05
  -7.848188e+05   6.130553e+05
  -2.220278e+06  -1.883089e+05
  -1.863364e+06  -1.329902e+06
   1.671539e+05  -2.036033e+06
   2.278278e+06  -1.695325e+06
   2.728452e+06  -2.846241e+05
   1.176368e+06   1.200220e+06
  -8.712290e+05   1.400234e+06
  -1.448384e+06   1.658627e+05
  -1.537329e+05  -1.013900e+06
   1.466834e+06  -6.995918e+05
   1.682410e+06   7.333013e+05
   3.908579e+05   1.608031e+06
  -1.015480e+06   1.019416e+06
  -1.249164e+06  -2.267915e+05
  -2.992634e+05  -7.381427e+05
   7.382610e+05  -6.482709e+04
   6.982489e+05   1.019359e+06
  -5.851426e+05   1.375704e+06
  -1.968822e+06   4.977756e+05
  -1.971119e+06  -1.045580e+06
  -3.665675e+05  -2.016977e+06
   1.387272e+06  -1.599410e+06
   1.677521e+06  -2.259605e+05
   5.158614e+05   8.367641e+05
  -6.316754e+05   8.013471e+05
  -6.575344e+05   6.838399e+04
   8.630678e+04  -4.207584e+05
   5.374667e+05  -2.717205e+05
   2.301036e+05   8.551509e+04
  -3.830005e+05   2.057464e+04
  -5.391593e+05  -5.816726e+05
   1.499802e+05  -1.147654e+06
   1.334227e+06  -8.869405e+05
   2.034047e+06   4.010610e+05
   1.422466e+06   1.901500e+06
  -2.223151e+05   2.384108e+06
  -1.596763e+06   1.428287e+06
  -1.706916e+06  -9.095790e+04
  -9.136601e+05  -9.304311e+05
  -3.306421e+05  -7.574645e+05
  -4.038341e+05  -2.878633e+05
  -5.398409e+05  -2.802541e+05
  -7.675754e+04  -7.002026e+05
   8.376564e+05  -8.932979e+05
   1.435058e+06  -3.526831e+05
   1.080036e+06   7.258185e+05
  -2.156607e+05   1.491725e+06
  -1.698635e+06   1.089599e+06
  -2.226824e+06  -4.692558e+05
  -1.140422e+06  -2.050276e+06
   9.409433e+05  -2.311488e+06
   2.452997e+06  -1.043530e+06
   2.331335e+06   5.933416e+05
   1.017770e+06   1.314129e+06
  -1.603876e+05   9.999350e+05
  -4.361525e+05   5.649370e+05
  -1.732753e+05   7.275600e+05
  -1.512291e+05   1.221343e+06
  -6.447468e+05   1.216762e+06
  -1.238869e+06   2.936979e+05
  -1.292801e+06  -1.069767e+06
  -5.306256e+05  -1.863003e+06
   6.238173e+05  -1.406480e+06
   1.266716e+06  -4.744089e+03
   8.084358e+05   1.233895e+06
  -3.430419e+05   1.363274e+06
  -1.090130e+06   4.475885e+05
  -7.876870e+05  -6.043344e+05
   6.709118e+04  -1.008982e+06
   4.573697e+05  -7.759430e+05
   5.642943e+04  -4.370807e+05
  -4.098957e+05  -3.463315e+05
  -4.841529e+04  -3.824070e+05
   1.102157e+06  -2.114221e+05
   1.986644e+06   3.179580e+05
   1.581345e+06   9.977592e+05
   1.751273e+03   1.374132e+06
  -1.510415e+06   1.098478e+06
  -1.778693e+06   2.976621e+05
  -8.328609e+05  -4.297491e+05
   2.343210e+05  -5.301820e+05
   4.866950e+05  -5.521308e+04
   1.158308e+04   3.780786e+05
  -4.536415e+05   2.410928e+05
  -4.641590e+05  -3.382635e+05
  -2.035979e+05  -7.211815e+05
  -5.304779e+04  -4.723144e+05
  -1.405665e+05   1.211020e+05
  -3.080880e+05   3.206138e+05
  -2.773260e+05  -2.245705e+05
   1.632785e+05  -9.808844e+05
   8.839470e+05  -1.034649e+06
   1.287944e+06  -1.407625e+05
   7.846607e+05   9.007657e+05
  -4.106416e+05   1.078263e+06
  -1.207030e+06   2.881359e+05
  -7.114312e+05  -5.779358e+05
   6.815868e+05  -6.422459e+05
   1.577600e+06   7.846888e+04
   1.037720e+06   8.426954e+05
  -4.414537e+05   1.003666e+06
  -1.486612e+06   5.197150e+05
  -1.247350e+06  -1.644873e+05
  -1.498443e+05  -5.157605e+05
   6.354401e+05  -2.807955e+05
   3.646731e+05   2.781550e+05
  -5.941011e+05   4.928707e+05
  -1.158910e+06  -1.109548e+05
  -6.229072e+05  -1.177211e+06
   6.241146e+05  -1.658713e+06
   1.481415e+06  -8.421787e+05
   1.232402e+06   7.640983e+05
   1.878706e+05   1.774963e+06
  -7.364927e+05   1.292133e+06
  -9.192044e+05  -1.564542e+05
  -4.432796e+05  -1.175402e+06
   1.930102e+05  -9.722430e+05
   5.469843e+05  -9.293828e+04
   4.785003e+05   3.797947e+05
   1.827553e+05   1.441930e+05
   4.010392e+04  -1.010866e+05
   2.440035e+05   2.762039e+05
   4.878602e+05   9.485561e+05
   2.104802e+05   1.070964e+06
  -6.769737e+05   3.930129e+05
  -1.458521e+06  -4.652214e+05
  -1.284830e+06  -8.314010e+05
  -1.832499e+05  -6.851992e+05
   8.640768e+05  -4.079704e+05
   9.800520e+05  -1.840283e+05
   3.394120e+05   4.100737e+04
  -1.520838e+05   2.198893e+05
  -1.322519e+04   2.147296e+05
   2.849099e+05   1.080505e+05
   4.011627e+04   1.327506e+05
  -6.788799e+05   2.208261e+05
  -1.029616e+06  -2.184104e+04
  -3.908843e+05  -6.795479e+05
   8.556319e+05  -1.144837e+06
   1.663773e+06  -7.245451e+05
   1.363015e+06   4.419203e+05
   2.581041e+05   1.391893e+06
  -7.552964e+05   1.347733e+06
  -1.036398e+06   5.131850e+05
  -6.486910e+05  -2.431676e+05
  -1.218525e+05  -3.533929e+05
   8.730240e+04  -5.246918e+04
  -7.391073e+04   3.052893e+04
  -3.050818e+05  -3.579435e+05
  -2.495357e+05  -7.984680e+05
   1.826775e+05  -6.653042e+05
   6.752217e+05   1.341228e+05
   7.153110e+05   9.525926e+05
   9.176564e+04   1.015251e+06
  -7.536627e+05   2.255525e+05
  -1.013453e+06  -7.284633e+05
  -3.303783e+05  -1.074284e+06
   7.071915e+05  -6.543418e+05
   1.094790e+06   8.043247e+04
   5.138714e+05   5.932824e+05
  -2.827844e+05   6.530971e+05
  -3.610042e+05   3.590167e+05
   2.589032e+05   1.578457e+04
   6.447944e+05  -3.499204e+04
   1.390121e+05   3.011145e+05
  -8.159247e+05   6.701473e+05
  -1.231309e+06   5.419178e+05
  -7.374406e+05  -1.644685e+05
   9.777449e+04  -8.516280e+05
   5.334564e+05  -8.381406e+05
   4.055099e+05  -1.490937e+05
   4.452709e+04   4.784295e+05
  -2.390441e+05   4.214704e+05
  -3.475399e+05  -1.581169e+05
  -2.479427e+05  -5.703703e+05
   5.548214e+04  -4.100586e+05
   3.849743e+05   4.988939e+04
   4.648856e+05   2.687659e+05
   2.392746e+05   8.779303e+04
  -2.786822e+04  -1.383222e+05
  -8.212521e+04  -2.301876e+04
  -5.728390e+03   3.559238e+05
  -7.303311e+04   5.285717e+05
  -3.216144e+05   1.931716e+05
  -4.354266e+05  -3.881159e+05
  -1.331107e+05  -6.402562e+05
   4.087712e+05  -3.040429e+05
   6.472997e+05   2.835935e+05
   2.439963e+05   5.704551e+05
  -4.974838e+05   3.587521e+05
  -8.638660e+05  -7.991996e+04
  -4.690823e+05  -3.730860e+05
   2.897502e+05  -3.863167e+05
   6.272565e+05  -2.144991e+05
   2.383416e+05  -1.655710e+04
  -3.533913e+05   5.790950e+04
  -4.064065e+05  -7.548157e+04
   1.761043e+05  -2.942029e+05
   7.495724e+05  -2.665580e+05
