
 $NMID
 id='ANONYMOUS ', fmtdat='(2E16.6)'
 volume=1.0
 tramp=1.0
 $END
   1.639114e+06  -8.193177e+05
   1.277662e+06   1.078570e+06
  -1.323121e+05   1.399351e+06
  -8.311499e+05   2.504984e+05
  -3.536622e+05  -5.879658e+05
   2.629763e+05  -2.810616e+05
   2.201213e+05   3.126194e+05
  -1.594950e+05   3.116572e+05
  -3.002026e+05  -3.465686e+04
  -2.075000e+05  -1.319610e+05
  -1.440847e+05  -1.286163e+04
  -1.124164e+05  -2.308809e+04
  -2.389593e+04  -1.488422e+05
   2.144043e+04  -1.633961e+05
  -6.429402e+04  -8.647844e+04
  -1.494922e+05  -9.113344e+04
  -9.965759e+04  -1.807207e+05
   2.887396e+04  -2.483747e+05
   1.629280e+05  -2.610620e+05
   3.244496e+05  -1.778758e+05
   4.275650e+05   8.226886e+04
   2.562313e+05   3.930326e+05
  -1.590412e+05   4.056921e+05
  -4.143381e+05   2.753609e+04
  -2.261983e+05  -3.283183e+05
   1.612307e+05  -2.514104e+05
   3.043957e+05   1.126347e+05
   1.124009e+05   3.079116e+05
  -1.621184e+05   1.833875e+05
  -3.024018e+05  -5.181827e+04
  -2.454783e+05  -2.270655e+05
   7.422370e+03  -3.100865e+05
   3.140526e+05  -2.200147e+05
   3.685291e+05   7.540564e+04
   6.313866e+04   3.178462e+05
  -2.428542e+05   1.982718e+05
  -1.464157e+05  -1.443715e+05
   2.014868e+05  -2.394734e+05
   2.981164e+05   3.914471e+04
   4.086774e+04   2.948798e+05
  -1.598550e+05   2.299567e+05
  -7.195816e+04   5.957411e+04
   1.680531e+04   8.207869e+04
  -1.587123e+05   1.779295e+05
  -3.686643e+05   6.124071e+04
  -2.714523e+05  -2.031389e+05
   2.583982e+04  -2.973439e+05
   1.514083e+05  -1.503431e+05
   3.477849e+04  -2.933340e+03
  -6.564906e+04  -9.314868e+03
  -8.721334e+03  -6.894030e+04
   8.507848e+04  -6.778206e+04
   1.079347e+05  -3.311896e+04
   9.443228e+04  -5.145792e+03
   6.768257e+04   3.577210e+04
   3.812146e+03   6.719358e+04
  -3.372173e+04   3.310396e+04
   4.404635e+04  -8.615631e+03
   1.380458e+05   6.777681e+04
   4.944900e+04   2.184354e+05
  -1.819249e+05   2.340252e+05
  -2.807600e+05   5.315285e+04
  -1.514545e+05  -1.216689e+05
  -2.972006e+04  -1.247301e+05
  -9.301958e+04  -5.919900e+04
  -1.742066e+05  -8.859622e+04
  -6.116631e+04  -1.619989e+05
   1.293584e+05  -1.327531e+05
   1.358596e+05  -3.496173e+04
  -2.110009e+04  -3.171040e+04
  -7.296822e+04  -1.378183e+05
   8.270352e+04  -1.888209e+05
   2.554972e+05  -8.397098e+04
   2.595171e+05   9.674700e+04
   1.229810e+05   2.261597e+05
  -3.522065e+04   2.456606e+05
  -1.498828e+05   1.440617e+05
  -1.749708e+05  -3.920898e+04
  -7.360107e+04  -1.695003e+05
   7.823183e+04  -1.142865e+05
   1.147973e+05   6.966057e+04
  -6.701324e+03   1.663325e+05
  -1.273822e+05   7.067310e+04
  -1.011117e+05  -8.112172e+04
   1.471270e+04  -1.116319e+05
   6.802892e+04  -2.544200e+04
   1.823715e+04   4.715133e+04
  -6.042386e+04   3.776875e+04
  -1.019628e+05  -2.370165e+04
  -7.767568e+04  -9.244483e+04
   2.754515e+04  -1.301836e+05
   1.634837e+05  -9.008795e+04
   1.985383e+05   2.523076e+04
   6.893274e+04   1.203378e+05
  -9.781586e+04   1.057499e+05
  -1.231309e+05   1.748629e+04
  -1.111279e+04  -3.598597e+04
   7.486739e+04  -1.849190e+04
   4.740967e+04   1.913575e+04
  -2.238453e+04   3.802806e+04
  -5.541600e+04   3.530639e+04
  -5.841242e+04  -5.590289e+03
  -3.894976e+04  -8.437827e+04
   3.571816e+04  -1.154482e+05
   1.324089e+05  -9.592566e+03
   1.260656e+05   1.604903e+05
  -2.762515e+04   2.001288e+05
  -1.836420e+05   4.577806e+04
  -1.753119e+05  -1.328498e+05
  -3.046269e+04  -1.535136e+05
   8.140940e+04  -4.737246e+04
   7.486550e+04   2.560022e+04
   1.702325e+04   7.005985e+03
  -6.709433e+03  -2.750401e+04
   9.588723e+03  -2.018500e+04
   3.271832e+04   4.042687e+03
   4.043928e+04   1.630852e+04
   1.622566e+04   2.351374e+04
  -3.503541e+04   1.907200e+04
  -5.551105e+04  -1.810092e+04
   9.665546e+03  -5.761005e+04
   1.105945e+05  -3.147165e+04
   1.236339e+05   5.783091e+04
   1.432566e+04   1.152378e+05
  -1.022593e+05   7.689408e+04
  -1.076912e+05  -4.174797e+03
  -2.514552e+04  -3.825352e+04
   3.485817e+04  -1.321785e+04
   2.214463e+04   1.806695e+04
  -2.315968e+04   2.183405e+04
  -5.281422e+04   3.337305e+03
  -5.406552e+04  -2.674420e+04
  -2.692422e+04  -5.483969e+04
   1.912985e+04  -5.384994e+04
   4.795377e+04  -1.674069e+04
   2.928826e+04   1.475455e+04
  -8.748188e+03  -6.529665e+02
  -6.442780e+03  -3.859477e+04
   4.282822e+04  -3.795422e+04
   7.860234e+04   1.284615e+04
   5.412259e+04   6.306310e+04
  -8.064723e+03   7.038539e+04
  -5.390622e+04   4.164420e+04
  -5.614735e+04   2.906959e+03
  -2.198828e+04  -2.725386e+04
   2.279321e+04  -2.991469e+04
   4.121463e+04   3.918458e+03
   9.921306e+03   4.303947e+04
  -4.328299e+04   3.806065e+04
  -5.722613e+04  -9.090801e+03
  -1.505669e+04  -3.725960e+04
   2.563086e+04  -9.736881e+03
   7.869682e+03   3.166182e+04
  -4.663611e+04   2.523642e+04
  -6.868019e+04  -2.930714e+04
  -3.079107e+04  -8.072066e+04
   3.155278e+04  -9.154804e+04
   7.455241e+04  -5.991239e+04
   8.335504e+04   2.007159e+02
   6.114457e+04   6.124025e+04
   2.041216e+04   8.220216e+04
  -1.219517e+04   4.916180e+04
  -1.662647e+04   6.375756e+03
  -1.058199e+04   5.393202e+03
  -2.813917e+04   2.989469e+04
  -6.115116e+04   1.775663e+04
  -5.792774e+04  -4.091841e+04
   3.727795e+03  -7.930648e+04
   7.454976e+04  -4.443252e+04
   8.885481e+04   3.203703e+04
   3.841787e+04   7.990050e+04
  -3.182666e+04   7.227097e+04
  -7.996983e+04   3.164565e+04
  -9.106221e+04  -1.558960e+04
  -6.347748e+04  -5.377608e+04
  -8.204960e+03  -6.648539e+04
   4.211900e+04  -4.907004e+04
   5.621390e+04  -2.527530e+04
   4.092473e+04  -1.950834e+04
   3.053451e+04  -1.832741e+04
   3.602477e+04   9.203545e+03
   3.110226e+04   5.615237e+04
  -2.515705e+03   7.677562e+04
  -4.141537e+04   4.646383e+04
  -4.955327e+04  -6.807381e+03
  -2.420389e+04  -4.073920e+04
   6.053070e+03  -4.339226e+04
   1.913209e+04  -2.805578e+04
   1.710218e+04  -6.834250e+03
   1.149715e+04   1.364259e+04
   8.370131e+03   2.595600e+04
   8.023371e+03   2.780788e+04
   6.215796e+03   2.489188e+04
  -5.876857e+03   1.810525e+04
  -3.131187e+04   5.815443e+01
  -5.404099e+04  -2.645368e+04
  -4.749771e+04  -4.174914e+04
  -5.031212e+03  -3.398641e+04
   4.404457e+04  -1.662962e+04
   5.928137e+04  -7.223967e+03
   3.184613e+04  -3.351726e+03
  -4.421859e+03   3.737091e+03
  -1.043124e+04   7.588031e+03
   1.323852e+04   1.326097e+03
   2.870666e+04  -6.315954e+01
   1.050543e+04   1.845768e+04
  -1.979896e+04   3.671112e+04
  -2.190616e+04   2.126762e+04
   7.630835e+03  -1.718439e+04
   2.895567e+04  -2.742550e+04
   1.173456e+04   8.679368e+03
  -2.588375e+04   4.282977e+04
  -4.343965e+04   2.547140e+04
  -2.720789e+04  -2.399775e+04
   3.954177e+03  -4.507138e+04
   2.873238e+04  -1.705520e+04
   3.642778e+04   2.306040e+04
   1.784482e+04   3.634857e+04
  -2.688228e+04   2.069605e+04
  -6.696664e+04  -7.245403e+03
  -5.732347e+04  -3.503689e+04
   5.715161e+03  -4.885527e+04
   6.511441e+04  -3.372971e+04
   6.321202e+04   2.467263e+03
   1.142213e+04   2.526333e+04
  -2.393630e+04   1.376955e+04
  -3.806226e+03  -8.584759e+03
   3.855392e+04  -3.096970e+03
   4.234134e+04   3.275671e+04
  -7.557115e+03   6.167045e+04
  -6.579822e+04   5.044213e+04
  -7.871372e+04   2.076968e+03
  -3.855829e+04  -5.210510e+04
   1.580085e+04  -7.682078e+04
   4.336817e+04  -5.349193e+04
   3.740422e+04   3.386114e+03
   1.777400e+04   4.869266e+04
  -5.249070e+02   4.491815e+04
  -1.698103e+04   4.556717e+03
  -2.763067e+04  -2.246127e+04
  -2.002021e+04  -1.123980e+04
   2.992661e+03   7.533367e+03
   1.435998e+04  -5.606092e+03
  -6.632491e+02  -3.966600e+04
  -1.347926e+04  -4.690772e+04
   1.165739e+04  -9.605588e+03
   5.568382e+04   3.557984e+04
   5.780101e+04   4.662097e+04
   1.140095e+03   2.579885e+04
  -5.337616e+04   5.550866e+03
  -4.605992e+04   1.706004e+03
  -4.669070e+02   1.948918e+03
   1.432149e+04  -5.828729e+03
  -1.420051e+04  -1.546027e+04
  -2.847093e+04  -1.605417e+04
   6.952179e+03  -7.384057e+03
   4.925555e+04   5.362473e+03
   3.841868e+04   1.999479e+04
  -2.000281e+04   3.096020e+04
  -6.671823e+04   2.411766e+04
  -6.409578e+04  -8.025231e+03
  -2.627534e+04  -4.769493e+04
   1.565766e+04  -6.181767e+04
   4.376143e+04  -3.626667e+04
   4.826398e+04   6.207978e+03
   2.543000e+04   2.816936e+04
  -7.765027e+03   1.583203e+04
  -2.023622e+04  -8.385869e+03
  -3.318631e+03  -1.169319e+04
   1.485317e+04   1.223636e+04
   5.866503e+03   3.407583e+04
  -2.032900e+04   2.002215e+04
  -2.893240e+04  -2.634073e+04
  -4.999188e+03  -5.990050e+04
   3.020546e+04  -4.069077e+04
   4.443613e+04   1.771191e+04
   2.480605e+04   5.903022e+04
  -1.389130e+04   4.682168e+04
  -4.095322e+04   3.005531e+03
  -3.369491e+04  -2.464941e+04
  -9.276923e+02  -1.994273e+04
   2.062535e+04  -6.010870e+03
   5.814592e+03  -4.065084e+03
  -2.554238e+04  -9.072305e+03
  -2.995050e+04  -1.019355e+04
   4.470830e+03  -1.127223e+04
   4.147551e+04  -1.650026e+04
   4.206421e+04  -1.379385e+04
   1.028226e+04   6.372752e+03
  -1.812526e+04   2.590421e+04
  -2.027206e+04   1.764929e+04
  -3.720983e+03  -1.239627e+04
   1.291751e+04  -2.632011e+04
   1.916007e+04  -4.880733e+03
   1.320483e+04   2.488836e+04
  -9.419675e+02   2.671056e+04
  -1.301717e+04   2.990210e+03
  -1.419711e+04  -1.379833e+04
  -8.569235e+03  -8.285326e+03
  -7.200089e+03   1.557201e+03
  -8.793420e+03  -4.374274e+03
   8.257236e+02  -2.014073e+04
   2.396527e+04  -2.423932e+04
   3.920543e+04  -6.656152e+03
   2.625996e+04   2.175864e+04
  -5.861918e+03   3.972786e+04
  -2.888643e+04   3.125616e+04
  -2.823921e+04  -6.595088e+02
  -1.245014e+04  -3.101365e+04
   5.904784e+03  -3.223316e+04
   2.097542e+04  -3.966573e+03
   2.480798e+04   2.338471e+04
   8.458345e+03   2.252008e+04
  -1.816774e+04   1.961188e+02
  -2.514634e+04  -1.443592e+04
   1.143114e+03  -6.180181e+03
   3.090411e+04   1.318396e+04
   2.199654e+04   2.434458e+04
  -2.320670e+04   1.908583e+04
  -5.405060e+04  -1.524826e+02
