
 $NMID
 id='ANONYMOUS ', fmtdat='(2E16.6)'
 volume=1.0
 tramp=1.0
 $END
  -3.832386e+07  -1.656557e+06
  -2.299239e+07  -2.268749e+07
   4.360118e+06  -2.515871e+07
   1.845063e+07  -1.140137e+07
   1.203844e+07   2.960560e+06
  -1.398298e+06   6.480407e+06
  -7.089663e+06   4.427121e+05
  -3.068524e+06  -6.582353e+06
   3.639710e+06  -7.745056e+06
   6.885311e+06  -2.311565e+06
   5.121164e+06   4.716916e+06
   3.772960e+05   6.699892e+06
  -3.173268e+06   1.677434e+06
  -2.059199e+06  -4.891808e+06
   2.659001e+06  -5.614767e+06
   5.738232e+06   5.372433e+05
   3.382888e+06   7.316568e+06
  -2.615178e+06   8.504748e+06
  -7.229254e+06   3.928551e+06
  -7.343769e+06  -2.017270e+06
  -3.801249e+06  -5.396687e+06
   1.522930e+05  -5.300604e+06
   1.490595e+06  -3.372560e+06
  -1.486930e+05  -2.184581e+06
  -1.683071e+06  -2.996842e+06
   4.001188e+05  -4.219266e+06
   5.333374e+06  -3.081645e+06
   8.009079e+06   6.261401e+05
   5.008519e+06   3.803920e+06
  -8.404154e+05   3.740016e+06
  -3.778025e+06   1.184000e+06
  -1.853907e+06  -1.116625e+06
   1.715716e+06  -1.505135e+06
   3.178523e+06  -4.511798e+04
   1.921618e+06   2.317979e+06
  -3.518294e+05   3.793118e+06
  -1.874827e+06   2.506355e+06
  -1.738840e+06  -8.753495e+05
  -3.066271e+05  -2.627050e+06
   6.542321e+05  -4.147300e+05
  -3.518090e+05   2.775472e+06
  -2.202300e+06   2.083358e+06
  -1.962245e+06  -2.179303e+06
   1.166665e+06  -4.290126e+06
   4.089089e+06  -8.043049e+05
   3.222047e+06   4.566588e+06
  -1.182712e+06   5.693250e+06
  -5.243401e+06   1.529173e+06
  -5.475932e+06  -3.414426e+06
  -1.823603e+06  -4.818906e+06
   2.704631e+06  -2.483788e+06
   4.555274e+06   8.883650e+05
   2.409489e+06   2.637660e+06
  -1.525837e+06   1.797662e+06
  -3.371628e+06  -5.003961e+05
  -1.602424e+06  -1.874490e+06
   1.206423e+06  -1.004382e+06
   1.572862e+06   7.675668e+05
  -5.310663e+05   1.053628e+06
  -1.878358e+06  -5.047314e+05
  -3.332391e+05  -1.910633e+06
   2.561017e+06  -1.476960e+06
   3.699250e+06   4.741898e+05
   1.838474e+06   2.636633e+06
  -1.674965e+06   3.968492e+06
  -4.533550e+06   3.557335e+06
  -5.082675e+06   8.688690e+05
  -3.173138e+06  -2.897304e+06
  -3.360147e+05  -4.989322e+06
   1.324736e+06  -3.957544e+06
   1.143268e+06  -1.549744e+06
   5.038487e+05  -4.977255e+05
   9.563062e+05  -1.028198e+06
   2.207780e+06  -1.015311e+06
   2.645806e+06   6.530953e+05
   1.451217e+06   2.431280e+06
  -5.530040e+05   2.221026e+06
  -1.895270e+06  -6.434936e+03
  -1.612430e+06  -2.296631e+06
   2.745688e+05  -2.758712e+06
   2.596343e+06  -1.073856e+06
   3.516832e+06   1.499168e+06
   2.133622e+06   3.171380e+06
  -3.127006e+05   3.034243e+06
  -1.676536e+06   1.789081e+06
  -1.493481e+06   8.721288e+05
  -1.396138e+06   7.644025e+05
  -2.585739e+06   5.632703e+05
  -3.874613e+06  -6.505725e+05
  -3.108199e+06  -2.526704e+06
  -3.446377e+04  -3.791188e+06
   3.147821e+06  -3.477414e+06
   4.054341e+06  -1.620648e+06
   2.364462e+06   7.672751e+05
  -1.405787e+05   2.160870e+06
  -1.320896e+06   1.601509e+06
  -4.851258e+05  -1.593852e+05
   1.140513e+06  -1.119458e+06
   1.699984e+06  -2.664495e+05
   6.656772e+05   1.090560e+06
  -6.179235e+05   1.021491e+06
  -5.704999e+05  -3.456204e+05
   7.246346e+05  -9.089741e+05
   1.684021e+06   5.790781e+05
   1.078785e+06   2.793690e+06
  -7.958531e+05   3.408114e+06
  -2.668136e+06   1.689835e+06
  -3.385084e+06  -9.890918e+05
  -2.491503e+06  -2.732228e+06
  -4.759837e+05  -2.676357e+06
   1.293181e+06  -1.352241e+06
   1.539428e+06  -9.155299e+04
   4.593422e+05   6.038116e+04
  -3.181401e+05  -7.063825e+05
   3.550348e+05  -1.162796e+06
   1.653412e+06  -4.727837e+05
   1.803129e+06   7.597203e+05
   3.853895e+05   1.233066e+06
  -1.076070e+06   5.402458e+05
  -9.263103e+05  -4.393762e+05
   7.321646e+05  -6.435513e+05
   2.185447e+06   1.436257e+05
   1.868394e+06   1.321145e+06
  -1.540339e+05   2.025897e+06
  -2.242095e+06   1.624763e+06
  -2.635360e+06   2.149938e+05
  -1.085187e+06  -1.155264e+06
   8.545560e+05  -1.269127e+06
   1.337736e+06  -1.038758e+05
   8.793861e+04   9.468564e+05
  -1.413605e+06   6.167982e+05
  -1.594672e+06  -7.236018e+05
  -3.779876e+05  -1.544268e+06
   9.594630e+05  -9.975438e+05
   1.204631e+06   1.908642e+05
   3.113688e+05   6.950764e+05
  -6.793813e+05   5.164069e+04
  -6.273001e+05  -9.871531e+05
   6.123560e+05  -1.291599e+06
   1.904194e+06  -4.020933e+05
   1.847389e+06   1.067206e+06
   2.920911e+05   1.933098e+06
  -1.354751e+06   1.490349e+06
  -1.604157e+06   1.879318e+05
  -4.906825e+05  -8.052865e+05
   6.166472e+05  -7.635551e+05
   6.617428e+05  -4.421966e+04
  -6.851656e+04   4.532158e+05
  -5.636100e+05   3.009359e+05
  -3.036601e+05  -1.007969e+05
   3.220663e+05  -8.203616e+04
   5.249844e+05   5.115921e+05
  -1.325302e+05   1.084001e+06
  -1.286420e+06   8.245090e+05
  -1.937102e+06  -4.326458e+05
  -1.306391e+06  -1.858825e+06
   2.819880e+05  -2.291255e+06
   1.578858e+06  -1.363761e+06
   1.674043e+06   1.048505e+05
   9.098059e+05   9.541919e+05
   3.153591e+05   8.252261e+05
   3.331584e+05   3.433565e+05
   4.534982e+05   2.635125e+05
   4.569477e+04   6.362585e+05
  -8.092324e+05   8.434103e+05
  -1.396698e+06   3.299135e+05
  -1.058274e+06  -7.353706e+05
   2.197406e+05  -1.472409e+06
   1.664966e+06  -1.033323e+06
   2.143738e+06   5.023498e+05
   1.065484e+06   1.990248e+06
  -9.243432e+05   2.188672e+06
  -2.350552e+06   9.639069e+05
  -2.242844e+06  -5.874795e+05
  -1.006194e+06  -1.287363e+06
   1.456100e+05  -1.011538e+06
   4.739003e+05  -5.825922e+05
   2.600185e+05  -6.877768e+05
   2.167867e+05  -1.123350e+06
   6.418945e+05  -1.115248e+06
   1.174705e+06  -2.347249e+05
   1.199224e+06   1.069447e+06
   4.492800e+05   1.807356e+06
  -6.467741e+05   1.332624e+06
  -1.221455e+06  -2.257101e+04
  -7.536716e+05  -1.186299e+06
   3.333285e+05  -1.295201e+06
   1.018370e+06  -4.401084e+05
   7.335011e+05   5.383335e+05
  -4.898561e+04   9.303874e+05
  -4.049655e+05   7.394021e+05
  -4.380262e+04   4.407905e+05
   3.727473e+05   3.567742e+05
   2.849610e+04   3.734820e+05
  -1.044154e+06   1.785003e+05
  -1.870162e+06  -3.507574e+05
  -1.488875e+06  -9.840001e+05
   3.266623e+03  -1.292877e+06
   1.440915e+06  -9.989710e+05
   1.701514e+06  -2.596760e+05
   8.000869e+05   3.901083e+05
  -2.218008e+05   4.802237e+05
  -4.561269e+05   5.800840e+04
   1.450680e+04  -3.349673e+05
   4.577368e+05  -2.091830e+05
   4.296010e+05   3.396996e+05
   1.388960e+05   7.084897e+05
   3.980400e+03   4.575694e+05
   1.422658e+05  -1.361156e+05
   3.319382e+05  -3.289909e+05
   2.665901e+05   2.193148e+05
  -2.027147e+05   9.489185e+05
  -8.777062e+05   9.610115e+05
  -1.200229e+06   7.378121e+04
  -6.856736e+05  -8.899950e+05
   4.269157e+05  -9.905430e+05
   1.144308e+06  -2.064004e+05
   6.602289e+05   5.880654e+05
  -6.649163e+05   6.036933e+05
  -1.529211e+06  -1.025368e+05
  -1.019271e+06  -8.312063e+05
   4.193989e+05  -9.809004e+05
   1.454129e+06  -5.055315e+05
   1.226661e+06   1.688163e+05
   1.471870e+05   5.089033e+05
  -6.153724e+05   2.682642e+05
  -3.311095e+05  -2.673436e+05
   6.029100e+05  -4.386465e+05
   1.107604e+06   1.690363e+05
   5.299928e+05   1.165276e+06
  -6.907403e+05   1.561945e+06
  -1.470261e+06   7.387331e+05
  -1.159878e+06  -7.885659e+05
  -1.191894e+05  -1.723776e+06
   7.513213e+05  -1.240609e+06
   8.878077e+05   1.574036e+05
   4.140555e+05   1.143979e+06
  -1.867175e+05   9.486768e+05
  -5.214408e+05   8.555016e+04
  -4.713758e+05  -3.864496e+05
  -1.959182e+05  -1.528721e+05
  -3.269893e+04   1.038267e+05
  -1.920097e+05  -2.569404e+05
  -4.274140e+05  -9.227108e+05
  -1.984196e+05  -1.045243e+06
   6.316464e+05  -3.634154e+05
   1.396620e+06   4.959052e+05
   1.240401e+06   8.427469e+05
   1.584636e+05   6.605428e+05
  -8.704175e+05   3.624565e+05
  -9.601041e+05   1.552834e+05
  -3.055233e+05  -3.557983e+04
   1.633723e+05  -2.042729e+05
  -8.770932e+03  -2.212024e+05
  -3.015896e+05  -1.303988e+05
  -2.236420e+04  -1.310345e+05
   6.943422e+05  -1.776526e+05
   9.871224e+05   6.581493e+04
   3.079316e+05   6.625032e+05
  -8.930736e+05   1.053918e+06
  -1.606703e+06   6.169816e+05
  -1.258795e+06  -4.906484e+05
  -1.871729e+05  -1.354655e+06
   7.665638e+05  -1.260951e+06
   1.015250e+06  -4.366923e+05
   6.203349e+05   2.742095e+05
   9.170960e+04   3.439890e+05
  -1.120773e+05   2.923848e+04
   6.259048e+04  -4.750214e+04
   2.953952e+05   3.463761e+05
   2.242053e+05   7.777120e+05
  -2.059123e+05   6.275773e+05
  -6.511319e+05  -1.739594e+05
  -6.360373e+05  -9.630260e+05
  -1.830868e+04  -9.772550e+05
   7.514927e+05  -1.608595e+05
   9.390197e+05   7.650347e+05
   2.592340e+05   1.044559e+06
  -7.094291e+05   5.821428e+05
  -1.036395e+06  -1.260749e+05
  -4.564333e+05  -5.700090e+05
   2.939751e+05  -5.918965e+05
   3.368769e+05  -3.263540e+05
  -2.746265e+05  -3.517749e+04
  -6.288069e+05   5.582574e+03
  -1.136202e+05  -2.897637e+05
   8.101270e+05  -6.187087e+05
   1.182888e+06  -4.963484e+05
   6.777026e+05   1.646053e+05
  -1.279299e+05   8.056216e+05
  -5.213837e+05   7.763972e+05
  -3.694196e+05   1.096152e+05
  -1.096962e+04  -4.728920e+05
   2.506730e+05  -3.823909e+05
   3.298821e+05   1.886681e+05
   2.135048e+05   5.591604e+05
  -7.503026e+04   3.709546e+05
  -3.675655e+05  -7.291546e+04
  -4.291705e+05  -2.596149e+05
  -2.268316e+05  -7.868954e+04
   9.804438e+03   1.155454e+05
   7.805595e+04  -1.320979e+04
   5.201869e+04  -3.574150e+05
   1.369433e+05  -4.795640e+05
   3.315970e+05  -1.302093e+05
   3.724995e+05   4.182478e+05
   6.142186e+04   6.247644e+05
  -4.170716e+05   2.650915e+05
  -5.960463e+05  -3.134867e+05
  -2.006516e+05  -5.679131e+05
   4.852983e+05  -3.227182e+05
   8.140472e+05   1.207520e+05
   4.299736e+05   3.776468e+05
  -2.936448e+05   3.426732e+05
  -6.053544e+05   1.602147e+05
  -2.111509e+05   2.965620e+03
   3.686319e+05  -2.258290e+04
   3.984256e+05   1.153097e+05
  -2.025644e+05   2.922799e+05
  -7.671682e+05   2.263272e+05
