
 $NMID
 id='ANONYMOUS ', fmtdat='(2E16.6)'
 volume=1.0
 tramp=1.0
 $END
  -4.726855e+07  -3.472730e+05
  -2.873665e+07  -2.819441e+07
   5.380342e+06  -3.153745e+07
   2.270161e+07  -1.347723e+07
   1.434091e+07   4.537656e+06
  -2.129587e+06   7.910985e+06
  -8.452214e+06  -1.076266e+05
  -3.167980e+06  -8.071108e+06
   4.676878e+06  -8.734728e+06
   8.225360e+06  -2.387391e+06
   6.178541e+06   5.404585e+06
   7.114656e+05   7.726775e+06
  -3.598928e+06   2.250778e+06
  -2.479555e+06  -5.246776e+06
   3.094840e+06  -6.247674e+06
   6.835698e+06   7.841708e+05
   4.080553e+06   8.717389e+06
  -3.037986e+06   1.022990e+07
  -8.620995e+06   5.030784e+06
  -9.102592e+06  -1.970594e+06
  -5.221931e+06  -6.407029e+06
  -2.835572e+05  -6.906728e+06
   2.092969e+06  -4.636755e+06
   6.452138e+05  -2.448660e+06
  -1.577683e+06  -2.700327e+06
   3.830359e+04  -4.362291e+06
   5.487666e+06  -3.865329e+06
   9.007052e+06   4.330931e+03
   6.124642e+06   3.975237e+06
  -3.342963e+05   4.457398e+06
  -3.869653e+06   1.900375e+06
  -2.218819e+06  -6.413940e+05
   1.265572e+06  -1.373432e+06
   2.915745e+06  -3.208864e+05
   2.170997e+06   1.984458e+06
   1.654419e+05   4.005611e+06
  -1.866053e+06   3.206760e+06
  -2.458109e+06  -5.570936e+05
  -9.587096e+05  -3.151061e+06
   7.359578e+05  -1.077280e+06
  -2.484562e+03   2.755441e+06
  -2.341151e+06   2.298086e+06
  -2.274524e+06  -2.640305e+06
   1.656550e+06  -5.224979e+06
   5.414080e+06  -9.828888e+05
   4.208494e+06   5.661599e+06
  -1.430098e+06   7.098573e+06
  -6.316472e+06   2.051719e+06
  -6.353589e+06  -3.857833e+06
  -1.995221e+06  -5.455147e+06
   3.068095e+06  -2.721561e+06
   5.025162e+06   1.089217e+06
   2.554330e+06   3.031797e+06
  -1.914016e+06   2.054669e+06
  -3.981511e+06  -6.289667e+05
  -1.840021e+06  -2.261235e+06
   1.442914e+06  -1.215609e+06
   1.714200e+06   8.683990e+05
  -8.537436e+05   1.038451e+06
  -2.193572e+06  -1.006778e+06
   2.288934e+04  -2.598953e+06
   3.485406e+06  -1.743978e+06
   4.502346e+06   7.908805e+05
   2.150920e+06   3.253392e+06
  -1.711350e+06   4.690506e+06
  -4.827180e+06   4.323167e+06
  -5.719870e+06   1.373136e+06
  -3.941345e+06  -3.052251e+06
  -7.061194e+05  -5.663000e+06
   1.513785e+06  -4.466013e+06
   1.405061e+06  -1.489460e+06
   3.617684e+05  -2.182549e+05
   5.554676e+05  -1.078256e+06
   2.020572e+06  -1.434506e+06
   2.838606e+06   2.428792e+05
   1.809992e+06   2.283773e+06
  -2.770800e+05   2.291950e+06
  -1.825291e+06   1.313743e+05
  -1.757371e+06  -2.252765e+06
   1.049594e+05  -2.945590e+06
   2.745376e+06  -1.416838e+06
   4.086064e+06   1.353203e+06
   2.736673e+06   3.497168e+06
  -1.505952e+05   3.657354e+06
  -1.958782e+06   2.277587e+06
  -1.842270e+06   1.042725e+06
  -1.613969e+06   7.861644e+05
  -2.819788e+06   6.042399e+05
  -4.234992e+06  -6.392072e+05
  -3.440607e+06  -2.657837e+06
  -1.582251e+05  -4.078488e+06
   3.219486e+06  -3.860161e+06
   4.229409e+06  -1.985595e+06
   2.600560e+06   5.989173e+05
   7.931970e+04   2.283256e+06
  -1.245056e+06   1.837560e+06
  -5.421822e+05  -1.021847e+05
   1.138853e+06  -1.270033e+06
   1.849248e+06  -3.696127e+05
   8.242846e+05   1.169175e+06
  -5.763770e+05   1.115939e+06
  -5.386432e+05  -3.630438e+05
   8.759529e+05  -8.654505e+05
   1.827187e+06   8.690588e+05
   9.889607e+05   3.168598e+06
  -1.091515e+06   3.548786e+06
  -2.929002e+06   1.560785e+06
  -3.498935e+06  -1.147263e+06
  -2.553899e+06  -2.792300e+06
  -5.439154e+05  -2.740344e+06
   1.292451e+06  -1.482036e+06
   1.615627e+06  -1.877188e+05
   4.934655e+05   4.673676e+04
  -3.626911e+05  -7.473894e+05
   3.714276e+05  -1.292884e+06
   1.819999e+06  -5.701958e+05
   1.989290e+06   8.091893e+05
   4.247130e+05   1.353188e+06
  -1.148731e+06   5.964308e+05
  -9.544940e+05  -4.434453e+05
   7.976763e+05  -6.274511e+05
   2.269048e+06   1.819435e+05
   1.912954e+06   1.347655e+06
  -1.589984e+05   2.082099e+06
  -2.324781e+06   1.747110e+06
  -2.795473e+06   3.032744e+05
  -1.209372e+06  -1.227779e+06
   8.922680e+05  -1.439511e+06
   1.487542e+06  -1.720589e+05
   1.603357e+05   1.042609e+06
  -1.503092e+06   7.229430e+05
  -1.726536e+06  -7.460008e+05
  -4.052652e+05  -1.644445e+06
   1.035227e+06  -1.045082e+06
   1.277315e+06   2.285436e+05
   3.069859e+05   7.534566e+05
  -7.573971e+05   6.719324e+04
  -7.203799e+05  -1.044005e+06
   5.947764e+05  -1.414932e+06
   2.018712e+06  -5.196210e+05
   2.027103e+06   1.064951e+06
   3.834706e+05   2.067724e+06
  -1.417242e+06   1.644623e+06
  -1.718485e+06   2.370734e+05
  -5.308690e+05  -8.552094e+05
   6.442589e+05  -8.232796e+05
   6.737015e+05  -7.484815e+04
  -8.365063e+04   4.288633e+05
  -5.450535e+05   2.826004e+05
  -2.351234e+05  -8.010102e+04
   3.884543e+05  -1.748882e+04
   5.502308e+05   5.940150e+05
  -1.509886e+05   1.174739e+06
  -1.364245e+06   9.136492e+05
  -2.087218e+06  -4.032046e+05
  -1.466605e+06  -1.944699e+06
   2.173065e+05  -2.445833e+06
   1.628722e+06  -1.470796e+06
   1.747559e+06   8.425634e+04
   9.416571e+05   9.450363e+05
   3.480669e+05   7.714134e+05
   4.206989e+05   2.952115e+05
   5.549674e+05   2.897097e+05
   7.928830e+04   7.192773e+05
  -8.549156e+05   9.179178e+05
  -1.467469e+06   3.677671e+05
  -1.110150e+06  -7.362173e+05
   2.120933e+05  -1.527242e+06
   1.734627e+06  -1.124064e+06
   2.284436e+06   4.706148e+05
   1.176800e+06   2.096160e+06
  -9.567733e+05   2.371610e+06
  -2.510090e+06   1.077264e+06
  -2.389413e+06  -5.985606e+05
  -1.047217e+06  -1.338812e+06
   1.572765e+05  -1.021974e+06
   4.400047e+05  -5.825733e+05
   1.729893e+05  -7.523331e+05
   1.521703e+05  -1.257138e+06
   6.589625e+05  -1.250727e+06
   1.270864e+06  -3.051142e+05
   1.331148e+06   1.092373e+06
   5.525386e+05   1.908894e+06
  -6.336637e+05   1.445704e+06
  -1.298406e+06   1.031973e+04
  -8.325003e+05  -1.261795e+06
   3.473288e+05  -1.397254e+06
   1.114364e+06  -4.595700e+05
   8.059953e+05   6.186591e+05
  -6.836026e+04   1.032976e+06
  -4.668522e+05   7.935656e+05
  -5.509376e+04   4.462398e+05
   4.230202e+05   3.537862e+05
   5.186982e+04   3.922648e+05
  -1.129449e+06   2.199303e+05
  -2.038798e+06  -3.198623e+05
  -1.624760e+06  -1.017160e+06
  -4.816951e+03  -1.407695e+06
   1.546469e+06  -1.130530e+06
   1.821662e+06  -3.110386e+05
   8.523861e+05   4.376725e+05
  -2.401271e+05   5.440638e+05
  -4.979091e+05   5.727501e+04
  -1.191476e+04  -3.894415e+05
   4.643687e+05  -2.504315e+05
   4.776828e+05   3.453235e+05
   2.135747e+05   7.409248e+05
   5.751223e+04   4.864294e+05
   1.417949e+05  -1.243932e+05
   3.116979e+05  -3.312694e+05
   2.849681e+05   2.286259e+05
  -1.617885e+05   1.007547e+06
  -9.025721e+05   1.065150e+06
  -1.323164e+06   1.478412e+05
  -8.099919e+05  -9.232882e+05
   4.187787e+05  -1.108668e+06
   1.239786e+06  -3.000649e+05
   7.331281e+05   5.897485e+05
  -6.960325e+05   6.607910e+05
  -1.616487e+06  -7.311429e+04
  -1.065951e+06  -8.567067e+05
   4.472858e+05  -1.027989e+06
   1.518608e+06  -5.387723e+05
   1.277261e+06   1.617075e+05
   1.560188e+05   5.267874e+05
  -6.494416e+05   2.900160e+05
  -3.748310e+05  -2.848159e+05
   6.079222e+05  -5.098371e+05
   1.191173e+06   1.081612e+05
   6.460261e+05   1.206606e+06
  -6.326913e+05   1.707209e+06
  -1.516955e+06   8.724086e+05
  -1.268534e+06  -7.779599e+05
  -2.014746e+05  -1.819844e+06
   7.481546e+05  -1.328194e+06
   9.417684e+05   1.563954e+05
   4.592077e+05   1.201963e+06
  -1.930984e+05   9.955537e+05
  -5.599468e+05   9.690721e+04
  -4.923107e+05  -3.856569e+05
  -1.880159e+05  -1.451613e+05
  -4.041565e+04   1.030026e+05
  -2.513467e+05  -2.850553e+05
  -5.046169e+05  -9.717873e+05
  -2.203846e+05  -1.095305e+06
   6.930933e+05  -4.037302e+05
   1.498038e+06   4.700658e+05
   1.320881e+06   8.448610e+05
   1.906218e+05   7.018455e+05
  -8.839106e+05   4.242089e+05
  -1.003474e+06   1.936785e+05
  -3.478625e+05  -4.231346e+04
   1.549232e+05  -2.269777e+05
   1.237100e+04  -2.178964e+05
  -2.930935e+05  -1.068986e+05
  -4.227022e+04  -1.367724e+05
   6.953093e+05  -2.323198e+05
   1.057155e+06   1.763274e+04
   4.050520e+05   6.986242e+05
  -8.730089e+05   1.181026e+06
  -1.705722e+06   7.502194e+05
  -1.402681e+06  -4.492299e+05
  -2.719656e+05  -1.427511e+06
   7.695662e+05  -1.385939e+06
   1.062384e+06  -5.318796e+05
   6.677578e+05   2.456691e+05
   1.270181e+05   3.629442e+05
  -8.984614e+04   5.658038e+04
   7.451974e+04  -3.041604e+04
   3.136491e+05   3.650870e+05
   2.593947e+05   8.172310e+05
  -1.846300e+05   6.840976e+05
  -6.947041e+05  -1.334940e+05
  -7.402633e+05  -9.747874e+05
  -9.954592e+04  -1.043666e+06
   7.737492e+05  -2.369548e+05
   1.045362e+06   7.426766e+05
   3.444090e+05   1.102127e+06
  -7.239449e+05   6.756201e+05
  -1.124695e+06  -7.818584e+04
  -5.291349e+05  -6.080500e+05
   2.889853e+05  -6.720524e+05
   3.698435e+05  -3.686096e+05
  -2.656866e+05  -1.290773e+04
  -6.615377e+05   3.951536e+04
  -1.439351e+05  -3.090818e+05
   8.338285e+05  -6.913105e+05
   1.260140e+06  -5.596610e+05
   7.567190e+05   1.677244e+05
  -9.703462e+04   8.747505e+05
  -5.448559e+05   8.611820e+05
  -4.174331e+05   1.535799e+05
  -4.905505e+04  -4.913694e+05
   2.441645e+05  -4.343251e+05
   3.589297e+05   1.598692e+05
   2.572468e+05   5.843417e+05
  -5.633656e+04   4.220684e+05
  -3.960184e+05  -4.918402e+04
  -4.773712e+05  -2.746576e+05
  -2.449103e+05  -8.939950e+04
   2.829203e+04   1.431538e+05
   8.172532e+04   2.433092e+04
   2.246325e+03  -3.671166e+05
   7.298838e+04  -5.466962e+05
   3.317120e+05  -2.019616e+05
   4.514650e+05   3.976391e+05
   1.410190e+05   6.592026e+05
  -4.185230e+05   3.150800e+05
  -6.671116e+05  -2.886433e+05
  -2.540702e+05  -5.848228e+05
   5.092656e+05  -3.700769e+05
   8.880024e+05   7.864750e+04
   4.833550e+05   3.811395e+05
  -2.967815e+05   3.982930e+05
  -6.443967e+05   2.232108e+05
  -2.452886e+05   1.689924e+04
   3.630036e+05  -6.344222e+04
   4.189862e+05   7.410573e+04
  -1.776392e+05   3.037939e+05
  -7.670585e+05   2.795351e+05
