
 $NMID
 id='ANONYMOUS ', fmtdat='(2E16.6)'
 volume=1.0
 tramp=1.0
 $END
   3.974498e+07  -6.662855e+04
   2.371140e+07   2.528627e+07
  -5.785960e+06   2.716548e+07
  -1.979076e+07   9.661045e+06
  -1.139193e+07  -5.723104e+06
   2.705109e+06  -6.558919e+06
   6.860472e+06   1.381749e+06
   1.498396e+06   7.000330e+06
  -4.709268e+06   6.117742e+06
  -6.772824e+06   1.004646e+06
  -4.750806e+06  -4.293532e+06
  -5.276978e+05  -5.800500e+06
   2.686346e+06  -1.948922e+06
   1.677378e+06   3.488966e+06
  -2.733161e+06   4.212480e+06
  -5.443680e+06  -1.148769e+06
  -2.921811e+06  -7.141905e+06
   2.775155e+06  -8.146977e+06
   7.067880e+06  -4.106962e+06
   7.599822e+06   1.330830e+06
   4.841445e+06   5.214716e+06
   6.525390e+05   6.285747e+06
  -2.236865e+06   4.523995e+06
  -1.812090e+06   1.834088e+06
   3.959913e+05   1.068603e+06
   2.801713e+05   2.476748e+06
  -3.312140e+06   2.968387e+06
  -6.323446e+06   5.345887e+05
  -4.837469e+06  -2.655994e+06
  -4.586054e+05  -3.443224e+06
   2.217813e+06  -1.924911e+06
   1.648800e+06  -3.532331e+05
  -4.522713e+04   3.237913e+05
  -1.072574e+06   3.586183e+05
  -1.347269e+06  -6.068690e+05
  -6.848900e+05  -2.384815e+06
   1.085458e+06  -2.721758e+06
   2.400821e+06  -1.840350e+05
   1.455580e+06   2.497575e+06
  -4.847216e+05   1.641136e+06
  -3.695838e+05  -1.357428e+06
   1.606052e+06  -1.421639e+06
   1.608944e+06   2.287774e+06
  -1.925818e+06   4.299748e+06
  -5.131435e+06   6.536359e+05
  -3.655137e+06  -4.972251e+06
   1.451070e+06  -6.053322e+06
   5.202100e+06  -1.680919e+06
   4.622505e+06   3.107518e+06
   1.043967e+06   4.074257e+06
  -2.399108e+06   1.669967e+06
  -3.400722e+06  -1.213105e+06
  -1.430845e+06  -2.435176e+06
   1.779263e+06  -1.442249e+06
   3.106728e+06   7.436785e+05
   1.266962e+06   1.944845e+06
  -1.217619e+06   9.306991e+05
  -1.095037e+06  -7.360587e+05
   1.079661e+06  -5.192836e+05
   1.707645e+06   1.487503e+06
  -6.822863e+05   2.598963e+06
  -3.480644e+06   1.278038e+06
  -3.727485e+06  -1.145160e+06
  -1.527693e+06  -2.861871e+06
   1.188151e+06  -3.565949e+06
   3.229720e+06  -3.254857e+06
   4.102483e+06  -1.253674e+06
   3.167471e+06   2.030895e+06
   6.851081e+05   4.108384e+06
  -1.366607e+06   3.131759e+06
  -1.307307e+06   6.241505e+05
  -1.865341e+04  -4.103740e+05
   3.087690e+05   5.372641e+05
  -7.854461e+05   1.274487e+06
  -1.730376e+06   3.793357e+05
  -1.356278e+06  -1.032828e+06
  -1.519961e+05  -1.258611e+06
   8.336081e+05  -1.460119e+05
   9.909091e+05   1.227424e+06
   3.642881e+04   1.831859e+06
  -1.747080e+06   1.141237e+06
  -2.984063e+06  -6.776540e+05
  -2.250947e+06  -2.491853e+06
  -2.885015e+04  -2.936382e+06
   1.591069e+06  -1.926149e+06
   1.605828e+06  -7.617111e+05
   1.274410e+06  -3.696681e+05
   1.922424e+06  -2.168521e+05
   2.792959e+06   5.747984e+05
   2.197768e+06   1.826174e+06
   3.269807e+04   2.627909e+06
  -2.046289e+06   2.450540e+06
  -2.613692e+06   1.370446e+06
  -1.693776e+06  -1.905832e+05
  -2.581589e+05  -1.378095e+06
   6.291206e+05  -1.256807e+06
   3.643746e+05  -9.060105e+03
  -6.700758e+05   8.371902e+05
  -1.239123e+06   2.532831e+05
  -6.264873e+05  -7.852980e+05
   3.057070e+05  -6.963388e+05
   2.083759e+05   2.705545e+05
  -7.932536e+05   3.476492e+05
  -1.196876e+06  -1.059232e+06
  -2.001851e+05  -2.398207e+06
   1.320472e+06  -2.084948e+06
   2.131271e+06  -4.329203e+05
   1.981871e+06   1.119443e+06
   1.250776e+06   1.761621e+06
   2.030298e+05   1.585154e+06
  -7.710004e+05   9.015599e+05
  -9.779399e+05   1.501430e+05
  -3.115562e+05  -3.360825e+04
   2.172284e+05   4.842717e+05
  -2.991822e+05   8.778080e+05
  -1.268888e+06   3.567361e+05
  -1.312664e+06  -6.303599e+05
  -2.085324e+05  -9.447367e+05
   7.670252e+05  -3.361152e+05
   5.209012e+05   3.105215e+05
  -5.825669e+05   2.580976e+05
  -1.334436e+06  -3.174977e+05
  -9.889263e+05  -8.955766e+05
   2.414565e+05  -1.184786e+06
   1.479566e+06  -9.665601e+05
   1.753747e+06  -1.234063e+05
   7.666957e+05   8.413204e+05
  -6.146593e+05   9.858576e+05
  -1.039064e+06   1.184374e+05
  -1.438441e+05  -7.118859e+05
   9.816539e+05  -4.621219e+05
   1.081849e+06   5.407230e+05
   1.519629e+05   1.064844e+06
  -7.475471e+05   5.673763e+05
  -7.883085e+05  -2.697801e+05
  -1.079925e+05  -5.229223e+05
   5.353212e+05  -1.974920e+04
   4.698227e+05   6.852452e+05
  -3.691251e+05   9.075632e+05
  -1.277433e+06   3.400366e+05
  -1.291895e+06  -6.806585e+05
  -2.228284e+05  -1.331836e+06
   9.520113e+05  -1.031423e+06
   1.109762e+06  -9.628677e+04
   2.911204e+05   5.707066e+05
  -4.404975e+05   4.918737e+05
  -3.775802e+05   4.051641e+04
   1.068628e+05  -1.841943e+05
   2.830100e+05  -7.467049e+04
   5.029891e+02   3.865822e+04
  -3.295766e+05  -1.151426e+05
  -3.036383e+05  -4.886024e+05
   1.826936e+05  -7.649720e+05
   9.043901e+05  -5.432867e+05
   1.319092e+06   2.947999e+05
   9.116869e+05   1.254190e+06
  -1.650177e+05   1.523482e+06
  -1.038041e+06   8.412655e+05
  -1.036887e+06  -1.308845e+05
  -4.758467e+05  -5.510167e+05
  -1.679794e+05  -3.379203e+05
  -3.367179e+05  -9.011754e+04
  -4.465738e+05  -2.191666e+05
  -5.968495e+04  -5.181504e+05
   5.837577e+05  -5.531426e+05
   9.145770e+05  -1.596515e+05
   6.173775e+05   4.647969e+05
  -2.054279e+05   8.813410e+05
  -1.102272e+06   6.272808e+05
  -1.401817e+06  -3.435527e+05
  -6.689112e+05  -1.355517e+06
   7.072870e+05  -1.494665e+06
   1.656595e+06  -5.980386e+05
   1.466183e+06   4.911337e+05
   5.295455e+05   8.678702e+05
  -1.798451e+05   5.485973e+05
  -2.210513e+05   2.674091e+05
   9.025468e+03   4.754331e+05
  -4.287290e+04   8.646453e+05
  -4.471158e+05   8.412625e+05
  -8.432685e+05   2.003396e+05
  -8.456808e+05  -6.931414e+05
  -3.381273e+05  -1.202625e+06
   4.027761e+05  -9.031108e+05
   8.107088e+05   2.446682e+04
   4.904998e+05   8.430445e+05
  -2.948998e+05   8.866190e+05
  -7.824863e+05   2.091422e+05
  -5.166163e+05  -5.096090e+05
   1.276672e+05  -7.173332e+05
   4.012311e+05  -4.875097e+05
   8.180346e+04  -2.434846e+05
  -2.797857e+05  -2.044077e+05
  -4.011421e+04  -2.378877e+05
   7.488495e+05  -1.158020e+05
   1.330266e+06   2.406274e+05
   1.015765e+06   6.920047e+05
  -6.924932e+04   9.366183e+05
  -1.056181e+06   7.208090e+05
  -1.179464e+06   1.338391e+05
  -5.148919e+05  -3.669732e+05
   1.867682e+05  -3.800057e+05
   3.380198e+05   8.731530e+02
   3.151925e+04   2.922758e+05
  -2.675991e+05   1.663520e+05
  -3.072909e+05  -2.193672e+05
  -1.869447e+05  -4.472793e+05
  -8.806956e+04  -2.990815e+05
  -8.611138e+04   3.505599e+04
  -1.561945e+05   1.511645e+05
  -1.660288e+05  -1.541370e+05
   8.260225e+04  -6.100810e+05
   5.800036e+05  -6.737101e+05
   9.022287e+05  -1.257007e+05
   5.722636e+05   5.813028e+05
  -2.694200e+05   7.504689e+05
  -8.197425e+05   2.391880e+05
  -4.644519e+05  -3.568071e+05
   4.600494e+05  -3.975819e+05
   9.898739e+05   9.713751e+04
   5.810444e+05   5.693294e+05
  -3.535489e+05   5.939076e+05
  -9.468440e+05   2.361872e+05
  -7.469478e+05  -1.624533e+05
  -6.015110e+04  -3.192055e+05
   4.191335e+05  -1.466572e+05
   2.534018e+05   2.001623e+05
  -3.550438e+05   3.430542e+05
  -7.495677e+05  -3.052604e+04
  -4.510105e+05  -7.340654e+05
   3.404354e+05  -1.085509e+06
   9.212275e+05  -5.770538e+05
   7.904788e+05   4.702647e+05
   1.226303e+05   1.122661e+06
  -4.759273e+05   7.908381e+05
  -5.766183e+05  -1.430588e+05
  -2.374532e+05  -7.598012e+05
   1.804757e+05  -5.922220e+05
   3.661680e+05  -3.509862e+04
   2.657194e+05   2.368495e+05
   7.358192e+04   8.043615e+04
   4.262979e+04  -5.164149e+04
   2.161848e+05   2.049883e+05
   3.310272e+05   6.198779e+05
   7.857364e+04   6.765822e+05
  -4.928763e+05   2.402929e+05
  -9.208857e+05  -3.011776e+05
  -7.687191e+05  -5.369919e+05
  -1.088189e+05  -4.487249e+05
   5.106323e+05  -2.617607e+05
   6.109528e+05  -9.774716e+04
   2.531349e+05   5.173227e+04
  -8.094375e+04   1.442369e+05
  -5.968520e+04   1.133143e+05
   1.278371e+05   4.188334e+04
   4.645257e+04   8.108614e+04
  -3.763409e+05   1.605257e+05
  -6.655290e+05   3.749417e+03
  -3.301653e+05  -4.413523e+05
   4.940250e+05  -7.657112e+05
   1.099230e+06  -5.081442e+05
   9.395950e+05   2.474550e+05
   1.899697e+05   8.810343e+05
  -4.939968e+05   8.837290e+05
  -6.626613e+05   3.682165e+05
  -4.078744e+05  -1.242635e+05
  -1.022204e+05  -2.263498e+05
   8.975505e+03  -6.399725e+04
  -6.541135e+04  -1.569046e+04
  -1.722693e+05  -2.452266e+05
  -1.410388e+05  -5.118446e+05
   1.035912e+05  -4.381258e+05
   4.219846e+05   4.795651e+04
   4.929007e+05   5.717085e+05
   1.211779e+05   6.543939e+05
  -4.493993e+05   1.970225e+05
  -6.687456e+05  -4.149927e+05
  -2.510724e+05  -6.887190e+05
   4.404680e+05  -4.607355e+05
   7.270503e+05   3.019110e+04
   3.626389e+05   4.113881e+05
  -1.799263e+05   4.664808e+05
  -2.707882e+05   2.442775e+05
   1.199035e+05  -7.647781e+03
   4.009115e+05  -3.306746e+04
   1.069196e+05   2.007118e+05
  -5.198060e+05   4.275494e+05
  -8.268863e+05   3.204685e+05
  -5.205112e+05  -1.362506e+05
   5.331807e+04  -5.647699e+05
   3.769566e+05  -5.604063e+05
   3.039003e+05  -1.325469e+05
   5.521042e+04   2.868196e+05
  -1.412043e+05   2.964039e+05
  -2.199923e+05  -5.835279e+04
  -1.691604e+05  -3.623480e+05
   2.059334e+04  -3.006100e+05
   2.484440e+05   1.124549e+04
   3.152445e+05   1.976272e+05
   1.552499e+05   8.051727e+04
  -4.065926e+04  -1.202447e+05
  -5.559088e+04  -8.122687e+04
   5.538604e+04   1.998723e+05
   3.989005e+04   3.823935e+05
  -1.763119e+05   2.009839e+05
  -3.356389e+05  -1.945587e+05
  -1.636253e+05  -4.007024e+05
   2.380067e+05  -2.180866e+05
   4.443057e+05   1.482103e+05
   1.818718e+05   3.464408e+05
  -3.285599e+05   2.406042e+05
  -5.788872e+05  -2.475308e+04
  -3.162879e+05  -2.340713e+05
   1.816880e+05  -2.814713e+05
   4.106044e+05  -1.815322e+05
   1.852888e+05  -2.034055e+04
  -1.791990e+05   7.232037e+04
  -2.417423e+05   1.203627e+03
   7.377544e+04  -1.610149e+05
   4.166794e+05  -1.770608e+05
