
 $NMID
 id='ANONYMOUS ', fmtdat='(2E16.6)'
 volume=1.0
 tramp=1.0
 $END
  -1.125323e+07   4.530291e+04
  -8.255826e+06  -4.131502e+06
  -1.129635e+06  -6.934764e+06
   4.560494e+06  -6.134208e+06
   4.861820e+06  -1.772815e+06
   9.204807e+05   2.245501e+06
  -2.649742e+06   1.932966e+06
  -2.621545e+06  -1.813009e+06
   1.107643e+05  -4.112491e+06
   2.350983e+06  -2.125888e+06
   2.154186e+06   1.666846e+06
   2.386164e+05   2.875259e+06
  -1.317005e+06   4.363744e+05
  -1.075398e+06  -2.658049e+06
   6.749837e+05  -3.091401e+06
   2.193252e+06  -5.623825e+05
   1.806422e+06   2.410342e+06
  -3.543591e+05   3.203535e+06
  -2.284750e+06   1.468228e+06
  -2.219839e+06  -8.343868e+05
  -6.437173e+05  -1.622968e+06
   3.459962e+05  -8.645310e+05
  -3.897000e+05  -3.197716e+05
  -1.695129e+06  -1.183167e+06
  -1.535175e+06  -2.576270e+06
   6.491268e+05  -2.728190e+06
   3.227142e+06  -1.149694e+06
   3.880123e+06   9.200824e+05
   1.839527e+06   1.937446e+06
  -1.165342e+06   1.367968e+06
  -2.352745e+06  -1.821503e+05
  -6.763677e+05  -1.475805e+06
   1.947047e+06  -1.357312e+06
   2.697428e+06   2.935832e+05
   1.032313e+06   2.098534e+06
  -9.048695e+05   2.286820e+06
  -1.105817e+06   6.580195e+05
   2.632333e+04  -9.877303e+05
   7.099766e+05  -8.318111e+05
   2.083190e+05   8.370560e+05
  -7.025586e+05   1.990840e+06
  -1.164088e+06   1.257763e+06
  -1.039859e+06  -5.633103e+05
  -4.375366e+05  -1.519999e+06
   4.694896e+05  -6.814521e+05
   9.586499e+05   9.638427e+05
   1.372480e+05   1.646834e+06
  -1.653434e+06   6.215700e+05
  -2.602751e+06  -1.182429e+06
  -1.378031e+06  -2.159382e+06
   1.087859e+06  -1.563901e+06
   2.487826e+06  -7.650444e+04
   1.681186e+06   1.003604e+06
  -2.391925e+05   9.709833e+05
  -1.359175e+06   1.700023e+05
  -8.911329e+05  -5.091847e+05
   3.411545e+05  -4.457110e+05
   9.312274e+05   2.461757e+05
   2.680181e+05   8.526791e+05
  -8.701227e+05   7.007765e+05
  -1.086277e+06  -1.513288e+05
   4.288608e+04  -8.539513e+05
   1.272316e+06  -5.649978e+05
   9.976838e+05   6.213516e+05
  -7.892305e+05   1.650251e+06
  -2.388797e+06   1.491133e+06
  -2.367053e+06   1.191665e+05
  -1.092137e+06  -1.491184e+06
   1.929565e+04  -2.285385e+06
   2.899792e+05  -2.023323e+06
   2.588609e+05  -1.322660e+06
   6.227053e+05  -8.699573e+05
   1.330535e+06  -6.498403e+05
   1.789572e+06  -8.566487e+04
   1.526916e+06   1.007998e+06
   5.272245e+05   1.856671e+06
  -7.352204e+05   1.454375e+06
  -1.455985e+06  -1.382852e+05
  -1.029773e+06  -1.591841e+06
   2.985078e+05  -1.626856e+06
   1.470967e+06  -3.364315e+05
   1.565735e+06   1.033967e+06
   6.860860e+05   1.467482e+06
  -2.414625e+05   1.049846e+06
  -5.171725e+05   5.450671e+05
  -3.668278e+05   4.556077e+05
  -5.561237e+05   6.210627e+05
  -1.383884e+06   5.194902e+05
  -2.156687e+06  -1.958846e+05
  -1.796940e+06  -1.329350e+06
  -7.841038e+04  -2.169955e+06
   1.848109e+06  -2.000521e+06
   2.428023e+06  -7.808359e+05
   1.289869e+06   6.666564e+05
  -3.403928e+05   1.300957e+06
  -9.438279e+05   7.947534e+05
  -2.459624e+05  -1.749867e+05
   7.237371e+05  -5.995600e+05
   9.124133e+05  -1.339472e+05
   2.708302e+05   5.721508e+05
  -4.342864e+05   5.933495e+05
  -4.853963e+05  -1.803788e+05
   1.922282e+05  -7.881083e+05
   1.014383e+06  -2.294811e+05
   1.152194e+06   1.263817e+06
   1.950273e+05   2.264889e+06
  -1.344922e+06   1.636139e+06
  -2.292910e+06  -1.947108e+05
  -1.845419e+06  -1.675174e+06
  -3.947286e+05  -1.754584e+06
   8.219267e+05  -8.137683e+05
   9.436707e+05  -1.179998e+03
   2.691541e+05   3.371427e+04
  -1.964586e+05  -4.032392e+05
   1.330081e+05  -6.189814e+05
   8.363122e+05  -2.883512e+05
   1.005152e+06   3.130458e+05
   2.987626e+05   6.315647e+05
  -5.922742e+05   3.606068e+05
  -6.350163e+05  -2.419439e+05
   3.665755e+05  -5.386166e+05
   1.420310e+06  -1.123347e+05
   1.336800e+06   7.707243e+05
   3.352992e+04   1.352492e+06
  -1.331513e+06   1.090542e+06
  -1.566936e+06   1.827834e+05
  -6.344417e+05  -6.082807e+05
   4.382954e+05  -6.586159e+05
   6.695546e+05  -5.708546e+04
   5.959396e+03   4.872419e+05
  -7.934235e+05   3.501399e+05
  -9.484408e+05  -3.569938e+05
  -3.317979e+05  -8.926530e+05
   4.771236e+05  -6.959663e+05
   7.436964e+05  -1.841223e+04
   2.813696e+05   3.690260e+05
  -3.370026e+05   5.976363e+04
  -3.471543e+05  -5.502184e+05
   3.723188e+05  -7.342881e+05
   1.111786e+06  -2.090594e+05
   1.061422e+06   6.258267e+05
   1.837141e+05   1.106537e+06
  -7.395170e+05   8.799059e+05
  -9.205915e+05   1.633623e+05
  -3.362294e+05  -4.466206e+05
   3.321907e+05  -4.791558e+05
   4.417881e+05  -2.152190e+04
   3.420310e+03   3.700538e+05
  -4.169177e+05   2.784597e+05
  -3.407386e+05  -9.823117e+04
   1.149525e+05  -2.006640e+05
   3.710464e+05   1.828886e+05
   1.658870e+04   6.214707e+05
  -7.156675e+05   5.182054e+05
  -1.135597e+06  -2.211394e+05
  -7.720380e+05  -1.069368e+06
   1.525585e+05  -1.366625e+06
   9.360599e+05  -8.870142e+05
   1.065943e+06  -4.009604e+03
   6.520925e+05   6.346300e+05
   2.135264e+05   6.606661e+05
   9.764378e+04   2.999856e+05
   1.614950e+05   1.015135e+05
   2.172165e+04   2.996079e+05
  -4.344675e+05   5.248700e+05
  -8.449335e+05   2.628697e+05
  -7.081443e+05  -4.512752e+05
   7.180771e+04  -9.647894e+05
   9.868279e+05  -6.868672e+05
   1.303968e+06   2.630788e+05
   6.980803e+05   1.147701e+06
  -4.404624e+05   1.293804e+06
  -1.314478e+06   6.516083e+05
  -1.374022e+06  -2.386187e+05
  -7.313655e+05  -7.556339e+05
   1.704127e+04  -7.121223e+05
   3.608933e+05  -4.413380e+05
   2.893705e+05  -3.814659e+05
   1.828111e+05  -5.679242e+05
   3.400773e+05  -5.953798e+05
   6.419068e+05  -1.272781e+05
   6.891914e+05   6.292163e+05
   2.622973e+05   1.065233e+06
  -3.859490e+05   7.866661e+05
  -7.295969e+05   1.182979e+04
  -4.796728e+05  -6.528198e+05
   1.183253e+05  -7.626540e+05
   5.232183e+05  -3.539732e+05
   4.357306e+05   1.853525e+05
   7.007582e+04   4.844426e+05
  -1.247439e+05   4.618950e+05
   1.812294e+04   3.079638e+05
   1.985696e+05   2.306717e+05
   4.329758e+03   2.286923e+05
  -5.759530e+05   1.288726e+05
  -1.050027e+06  -1.679114e+05
  -8.837457e+05  -5.317362e+05
  -7.785373e+04  -7.142554e+05
   7.594307e+05  -5.794840e+05
   9.744190e+05  -2.152407e+05
   5.059272e+05   1.356961e+05
  -8.789916e+04   2.441753e+05
  -2.466911e+05   7.610601e+04
   3.031727e+04  -1.402843e+05
   2.967515e+05  -1.062238e+05
   2.430661e+05   1.993044e+05
   1.493020e+04   4.304713e+05
  -6.001819e+04   2.686938e+05
   9.493957e+04  -1.269424e+05
   2.512366e+05  -2.488097e+05
   1.716165e+05   1.216127e+05
  -1.512667e+05   5.802485e+05
  -5.088052e+05   5.566210e+05
  -6.229759e+05   9.090711e+03
  -3.267234e+05  -5.178593e+05
   2.430625e+05  -5.210015e+05
   6.218884e+05  -6.309805e+04
   3.782629e+05   3.658266e+05
  -3.732287e+05   3.741130e+05
  -9.368206e+05  -1.799189e+04
  -6.985421e+05  -4.759932e+05
   1.810162e+05  -6.443188e+05
   8.842565e+05  -4.007370e+05
   7.929377e+05   4.881108e+04
   1.235892e+05   3.198685e+05
  -3.574387e+05   1.951009e+05
  -1.763181e+05  -1.332470e+05
   3.847721e+05  -2.243235e+05
   6.439048e+05   1.491868e+05
   2.495656e+05   7.098862e+05
  -4.797684e+05   8.916551e+05
  -9.023057e+05   3.873139e+05
  -6.819686e+05  -4.944103e+05
  -5.914982e+04  -1.039933e+06
   4.516032e+05  -7.751080e+05
   5.456563e+05   5.128927e+04
   2.935248e+05   6.795370e+05
  -5.579898e+04   6.038220e+05
  -2.956796e+05   7.768843e+04
  -3.227372e+05  -2.439002e+05
  -1.624052e+05  -1.104192e+05
  -2.723667e+03   7.824335e+04
  -5.008633e+04  -1.146246e+05
  -2.309612e+05  -5.338438e+05
  -1.746352e+05  -6.392893e+05
   3.124334e+05  -2.334549e+05
   8.426697e+05   2.986279e+05
   7.939712e+05   5.078271e+05
   1.020763e+05   3.832271e+05
  -5.660242e+05   2.056499e+05
  -5.921621e+05   1.083474e+05
  -1.449496e+05   1.038899e+04
   1.157208e+05  -1.147772e+05
  -5.801185e+04  -1.648745e+05
  -2.357129e+05  -1.160706e+05
   1.084276e+04  -7.965948e+04
   4.756600e+05  -7.390995e+04
   5.770810e+05   6.220696e+04
   9.234066e+04   3.778675e+05
  -5.907265e+05   5.793502e+05
  -9.141240e+05   3.150844e+05
  -6.672542e+05  -3.277670e+05
  -7.674901e+04  -8.139597e+05
   4.467555e+05  -7.243341e+05
   6.011740e+05  -2.110755e+05
   3.717289e+05   2.014511e+05
   2.616688e+04   2.016342e+05
  -1.149002e+05  -2.283863e+04
   2.184549e+04  -6.936059e+04
   2.016942e+05   1.922634e+05
   1.507528e+05   4.648384e+05
  -1.383257e+05   3.568547e+05
  -3.928036e+05  -1.495536e+05
  -3.302495e+05  -6.129179e+05
   6.196202e+04  -5.680060e+05
   4.773129e+05  -2.980558e+04
   5.261782e+05   5.131346e+05
   1.058644e+05   6.158315e+05
  -4.324210e+05   2.950179e+05
  -5.837154e+05  -9.965569e+04
  -2.355360e+05  -3.014382e+05
   1.723323e+05  -2.967429e+05
   1.557732e+05  -1.815623e+05
  -2.116792e+05  -4.761362e+04
  -3.855987e+05  -1.272159e+04
  -4.743204e+04  -1.616239e+05
   4.871615e+05  -3.655943e+05
   6.657410e+05  -3.242522e+05
   3.523702e+05   6.019840e+04
  -8.725627e+04   4.554032e+05
  -2.708513e+05   4.373382e+05
  -1.661776e+05   2.808880e+04
   2.760087e+04  -2.993072e+05
   1.603573e+05  -1.952238e+05
   1.925706e+05   1.614196e+05
   1.125896e+05   3.350356e+05
  -5.786773e+04   1.760074e+05
  -2.133080e+05  -6.760285e+04
  -2.376904e+05  -1.255249e+05
  -1.353042e+05  -2.050509e+04
  -1.593119e+04   3.064931e+04
   5.160144e+04  -8.165297e+04
   1.015185e+05  -2.357090e+05
   1.739175e+05  -2.245741e+05
   2.205784e+05   1.355276e+04
   1.496429e+05   3.027072e+05
  -5.429754e+04   3.717768e+05
  -2.723078e+05   1.267595e+05
  -3.155049e+05  -2.220405e+05
  -8.596658e+04  -3.559439e+05
   2.772612e+05  -1.789011e+05
   4.512877e+05   1.012431e+05
   2.356092e+05   2.295504e+05
  -1.758498e+05   1.640491e+05
  -3.448043e+05   4.476754e+04
  -8.800005e+04  -5.750917e+03
   2.668544e+05   3.325761e+04
   2.504320e+05   1.275134e+05
  -1.683489e+05   1.981846e+05
  -5.262076e+05   1.160632e+05
