
 $NMID
 id='ANONYMOUS ', fmtdat='(2E16.6)'
 volume=1.0
 tramp=1.0
 $END
   2.076097e+07  -2.165341e+06
   1.554075e+07   8.235043e+06
   1.779023e+06   1.351574e+07
  -8.473627e+06   1.021678e+07
  -8.174455e+06   1.797912e+06
  -1.011566e+06  -3.985570e+06
   4.448123e+06  -2.479612e+06
   3.815171e+06   3.311720e+06
  -5.911259e+05   6.299599e+06
  -3.961399e+06   3.133278e+06
  -3.701022e+06  -2.506782e+06
  -7.302794e+05  -4.485874e+06
   1.960786e+06  -1.033389e+06
   1.815520e+06   3.741072e+06
  -1.045794e+06   4.646321e+06
  -3.680147e+06   7.830417e+05
  -3.111275e+06  -4.030615e+06
   4.675035e+05  -5.499735e+06
   3.816059e+06  -2.916394e+06
   4.144350e+06   8.366636e+05
   1.934951e+06   2.659127e+06
   1.685336e+04   2.148150e+06
   3.044416e+05   1.294973e+06
   1.860018e+06   1.825138e+06
   2.044358e+06   3.285126e+06
  -5.724099e+05   3.763554e+06
  -4.355555e+06   2.143828e+06
  -5.833454e+06  -6.497786e+05
  -3.255293e+06  -2.554639e+06
   1.144059e+06  -2.262120e+06
   3.158257e+06  -2.622896e+05
   1.119892e+06   1.641386e+06
  -2.336308e+06   1.747449e+06
  -3.464137e+06  -1.870839e+05
  -1.576984e+06  -2.573482e+06
   8.066353e+05  -3.194200e+06
   1.388921e+06  -1.366889e+06
   4.059229e+05   1.046015e+06
  -4.686699e+05   1.395783e+06
  -2.787408e+05  -7.012556e+05
   6.857223e+05  -2.661924e+06
   1.611549e+06  -1.886575e+06
   1.671292e+06   9.897620e+05
   4.221138e+05   2.691666e+06
  -1.438495e+06   1.194032e+06
  -2.064806e+06  -1.867497e+06
  -2.202204e+05  -3.146506e+06
   2.849122e+06  -1.330815e+06
   4.159495e+06   1.725853e+06
   2.098853e+06   3.277033e+06
  -1.636362e+06   2.333774e+06
  -3.685227e+06   9.002266e+04
  -2.439834e+06  -1.543737e+06
   5.092140e+05  -1.518192e+06
   2.229347e+06  -2.511122e+05
   1.411359e+06   8.761800e+05
  -5.733765e+05   7.653456e+05
  -1.364737e+06  -3.552763e+05
  -1.795627e+05  -1.168309e+06
   1.412245e+06  -6.881291e+05
   1.322891e+06   6.484122e+05
  -5.939988e+05   1.427828e+06
  -2.255002e+06   6.881341e+05
  -1.636117e+06  -1.173023e+06
   9.694068e+05  -2.722863e+06
   3.301184e+06  -2.604672e+06
   3.554175e+06  -6.141871e+05
   2.023465e+06   2.004633e+06
   3.439277e+05   3.480899e+06
  -4.001749e+05   3.092181e+06
  -4.858636e+05   1.795213e+06
  -7.639919e+05   1.009154e+06
  -1.532946e+06   9.030855e+05
  -2.262049e+06   4.005149e+05
  -2.168921e+06  -1.051786e+06
  -9.662928e+05  -2.368303e+06
   7.789219e+05  -1.997203e+06
   1.912071e+06   7.584661e+04
   1.516222e+06   2.085996e+06
  -2.367959e+05   2.307011e+06
  -2.038202e+06   7.241385e+05
  -2.490281e+06  -1.204769e+06
  -1.386992e+06  -2.108490e+06
   1.253954e+05  -1.806133e+06
   8.104275e+05  -1.096584e+06
   6.890499e+05  -7.779379e+05
   8.761499e+05  -8.952026e+05
   2.009212e+06  -7.890757e+05
   3.157853e+06   1.669774e+05
   2.694699e+06   1.804802e+06
   2.683183e+05   3.107701e+06
  -2.460901e+06   3.006960e+06
  -3.341206e+06   1.368158e+06
  -1.891875e+06  -7.382128e+05
   2.778240e+05  -1.821928e+06
   1.181670e+06  -1.238706e+06
   3.626444e+05   1.878525e+05
  -9.484043e+05   9.215185e+05
  -1.311923e+06   2.833348e+05
  -4.873992e+05  -7.980472e+05
   5.346444e+05  -8.642641e+05
   6.386135e+05   2.492260e+05
  -3.452792e+05   1.058018e+06
  -1.492039e+06   1.621835e+05
  -1.575729e+06  -1.934612e+06
  -1.465251e+05  -3.185706e+06
   1.963916e+06  -2.196435e+06
   3.203330e+06   2.946730e+05
   2.588488e+06   2.255115e+06
   6.276471e+05   2.401221e+06
  -1.078662e+06   1.206209e+06
  -1.315099e+06   9.550796e+04
  -3.854263e+05  -2.549008e+04
   3.069349e+05   5.627725e+05
  -1.631570e+05   9.244355e+05
  -1.220105e+06   4.884931e+05
  -1.489020e+06  -4.112637e+05
  -4.545135e+05  -9.170482e+05
   8.336692e+05  -5.410902e+05
   8.804506e+05   3.154952e+05
  -5.322917e+05   7.348555e+05
  -1.981853e+06   1.677905e+05
  -1.860462e+06  -1.026830e+06
  -7.904428e+04  -1.868320e+06
   1.817524e+06  -1.595629e+06
   2.209410e+06  -3.594079e+05
   9.600716e+05   8.391599e+05
  -5.820946e+05   1.013127e+06
  -9.908037e+05   1.531440e+05
  -7.452510e+04  -7.108072e+05
   1.111180e+06  -5.684644e+05
   1.377740e+06   4.609501e+05
   4.978855e+05   1.259977e+06
  -6.717412e+05   9.898884e+05
  -1.054212e+06   2.541219e+04
  -3.898681e+05  -5.289845e+05
   5.047788e+05  -1.031682e+05
   5.473072e+05   7.671347e+05
  -4.657135e+05   1.081652e+06
  -1.563916e+06   3.961119e+05
  -1.567606e+06  -8.025593e+05
  -3.479716e+05  -1.570245e+06
   1.002775e+06  -1.314203e+06
   1.308274e+06  -2.880016e+05
   4.951559e+05   6.215926e+05
  -4.493897e+05   6.948305e+05
  -5.992598e+05   5.870089e+04
   2.957986e+03  -4.867375e+05
   5.508298e+05  -3.707861e+05
   4.170635e+05   1.222373e+05
  -2.037384e+05   2.417809e+05
  -5.350024e+05  -2.904107e+05
  -3.560916e+04  -9.043703e+05
   9.989589e+05  -7.861550e+05
   1.638176e+06   2.376929e+05
   1.184185e+06   1.468585e+06
  -1.148610e+05   1.946837e+06
  -1.265855e+06   1.297668e+06
  -1.487956e+06   5.309069e+04
  -9.183109e+05  -8.324282e+05
  -3.214297e+05  -8.494801e+05
  -1.922155e+05  -3.626628e+05
  -2.915327e+05  -1.402509e+05
  -6.911283e+04  -4.573822e+05
   5.975691e+05  -7.772092e+05
   1.182562e+06  -4.101120e+05
   1.006511e+06   5.899410e+05
  -6.297183e+04   1.345310e+06
  -1.357262e+06   1.021467e+06
  -1.861167e+06  -2.898542e+05
  -1.055460e+06  -1.595055e+06
   5.683604e+05  -1.884359e+06
   1.855825e+06  -1.003418e+06
   1.961320e+06   2.821132e+05
   1.039214e+06   1.034091e+06
  -1.305773e+04   9.718590e+05
  -4.558394e+05   6.020934e+05
  -3.184576e+05   5.557991e+05
  -1.767878e+05   8.531179e+05
  -4.423211e+05   9.039604e+05
  -9.208177e+05   2.437056e+05
  -1.035997e+06  -8.360269e+05
  -4.581037e+05  -1.490414e+06
   4.831348e+05  -1.145561e+06
   1.033425e+06  -6.216559e+04
   7.235939e+05   9.135333e+05
  -1.408099e+05   1.102990e+06
  -7.608908e+05   5.137009e+05
  -6.503474e+05  -2.862620e+05
  -1.040229e+05  -7.237473e+05
   1.937101e+05  -6.699029e+05
  -2.476741e+04  -4.203469e+05
  -3.079231e+05  -2.997405e+05
  -2.950505e+04  -3.197001e+05
   8.286898e+05  -2.250739e+05
   1.533799e+06   1.640561e+05
   1.301333e+06   7.065819e+05
   1.384051e+05   1.039711e+06
  -1.070172e+06   8.995286e+05
  -1.386402e+06   3.601294e+05
  -7.264453e+05  -1.980798e+05
   1.185642e+05  -3.769160e+05
   3.599373e+05  -1.128045e+05
  -1.316179e+04   2.242666e+05
  -3.978294e+05   1.797548e+05
  -3.663438e+05  -2.615888e+05
  -8.453302e+04  -5.950746e+05
   3.567774e+04  -3.779717e+05
  -1.264383e+05   1.665355e+05
  -3.210630e+05   3.416804e+05
  -2.495458e+05  -1.658357e+05
   1.571700e+05  -8.244650e+05
   6.818565e+05  -8.374145e+05
   9.179171e+05  -8.907502e+04
   5.409532e+05   7.021678e+05
  -2.987475e+05   7.886496e+05
  -8.934895e+05   1.731152e+05
  -5.691239e+05  -4.787312e+05
   5.101944e+05  -5.561515e+05
   1.321945e+06  -2.705646e+04
   9.896120e+05   6.390573e+05
  -2.430026e+05   9.099627e+05
  -1.225558e+06   5.915670e+05
  -1.106131e+06  -3.755830e+04
  -1.821729e+05  -4.404797e+05
   4.991174e+05  -2.896528e+05
   2.721542e+05   1.835390e+05
  -5.110934e+05   3.602443e+05
  -9.233623e+05  -1.373581e+05
  -4.359565e+05  -9.690783e+05
   5.729577e+05  -1.307448e+06
   1.227090e+06  -6.394132e+05
   1.004975e+06   6.330933e+05
   1.700109e+05   1.459525e+06
  -5.806572e+05   1.116494e+06
  -7.748421e+05  -5.036936e+04
  -4.487148e+05  -9.459578e+05
   6.143725e+04  -8.494451e+05
   4.229690e+05  -1.231629e+05
   4.555739e+05   3.197248e+05
   2.154230e+05   1.412844e+05
   7.039159e+03  -1.058117e+05
   1.133283e+05   1.666437e+05
   3.813898e+05   7.407981e+05
   2.704366e+05   8.907327e+05
  -4.539816e+05   3.560707e+05
  -1.210836e+06  -3.557022e+05
  -1.138828e+06  -6.605377e+05
  -1.730176e+05  -5.400615e+05
   7.623183e+05  -3.342754e+05
   8.227434e+05  -1.905768e+05
   2.250992e+05  -1.730109e+04
  -1.453055e+05   1.719718e+05
   6.777598e+04   2.212869e+05
   3.129555e+05   1.367121e+05
   1.105197e+03   1.101071e+05
  -6.359515e+05   1.479317e+05
  -8.233695e+05  -3.103990e+04
  -2.029971e+05  -5.226202e+05
   7.575426e+05  -8.799748e+05
   1.280488e+06  -5.472829e+05
   1.002085e+06   3.840222e+05
   1.876519e+05   1.138161e+06
  -5.758759e+05   1.073931e+06
  -8.295297e+05   3.684240e+05
  -5.360395e+05  -2.396018e+05
  -6.569890e+04  -2.812275e+05
   1.379329e+05   1.199757e+04
  -3.788258e+04   8.387317e+04
  -2.911411e+05  -2.660488e+05
  -2.418951e+05  -6.476335e+05
   1.586346e+05  -5.209831e+05
   5.591421e+05   1.613627e+05
   5.316520e+05   8.173058e+05
  -8.671209e+03   8.048347e+05
  -6.508698e+05   1.050905e+05
  -7.921180e+05  -6.544619e+05
  -2.210482e+05  -8.593771e+05
   5.772836e+05  -4.734564e+05
   8.457182e+05   7.948132e+04
   3.783886e+05   4.202266e+05
  -2.144584e+05   4.588042e+05
  -2.245310e+05   2.807189e+05
   2.784962e+05   4.493645e+04
   5.398862e+05  -1.823877e+04
   9.051548e+04   2.271673e+05
  -6.579717e+05   5.566406e+05
  -9.374433e+05   5.041665e+05
  -5.312306e+05  -6.700490e+04
   7.912154e+04  -6.606126e+05
   3.627822e+05  -6.569048e+05
   2.518662e+05  -7.677855e+04
  -2.482236e+03   4.133804e+05
  -2.021939e+05   3.020605e+05
  -2.805368e+05  -1.908552e+05
  -1.921305e+05  -4.624115e+05
   5.602578e+04  -2.718310e+05
   3.063880e+05   6.729909e+04
   3.581287e+05   1.692279e+05
   1.966127e+05   2.991780e+04
   5.405015e+03  -5.863545e+04
  -7.423947e+04   8.627599e+04
  -9.684534e+04   3.219449e+05
  -1.791160e+05   3.461361e+05
  -2.906244e+05   3.559607e+04
  -2.605401e+05  -3.829516e+05
   6.995332e+03  -5.183404e+05
   3.605703e+05  -2.116210e+05
   4.769615e+05   2.682699e+05
   1.623705e+05   4.846929e+05
  -3.817319e+05   2.827105e+05
  -6.576613e+05  -9.004726e+04
  -3.600442e+05  -3.013845e+05
   2.299961e+05  -2.636197e+05
   4.843922e+05  -1.152432e+05
   1.406302e+05  -7.452360e+03
  -3.528715e+05  -1.179087e+04
  -3.505514e+05  -1.362715e+05
   2.046759e+05  -2.765194e+05
   7.021497e+05  -2.048298e+05
