
 $NMID
 id='ANONYMOUS ', fmtdat='(2E16.6)'
 volume=1.0
 tramp=1.0
 $END
   4.219767e+07  -3.582842e+05
   2.641278e+07   2.413856e+07
  -3.761408e+06   2.810001e+07
  -1.989577e+07   1.308511e+07
  -1.325588e+07  -3.147479e+06
   1.435948e+06  -7.195245e+06
   7.726201e+06  -5.081835e+05
   3.410847e+06   7.151918e+06
  -3.822206e+06   8.384613e+06
  -7.424239e+06   2.632844e+06
  -5.757208e+06  -4.843923e+06
  -7.466099e+05  -7.150574e+06
   3.297851e+06  -2.027712e+06
   2.393341e+06   5.011938e+06
  -2.678048e+06   6.025706e+06
  -6.262719e+06  -4.233865e+05
  -3.968163e+06  -7.819094e+06
   2.487730e+06  -9.370348e+06
   7.688786e+06  -4.672879e+06
   8.161300e+06   1.729557e+06
   4.594281e+06   5.667634e+06
   2.485664e+05   5.959342e+06
  -1.573077e+06   3.976422e+06
  -7.969818e+04   2.364136e+06
   1.720347e+06   2.890515e+06
  -1.539183e+05   4.316801e+06
  -5.335679e+06   3.563926e+06
  -8.471260e+06  -1.323969e+05
  -5.607539e+06  -3.720949e+06
   5.168645e+05  -4.050593e+06
   3.785583e+06  -1.573636e+06
   2.014099e+06   8.797376e+05
  -1.538444e+06   1.488626e+06
  -3.102866e+06   2.127448e+05
  -2.079778e+06  -2.159405e+06
   5.061375e+04  -3.902253e+06
   1.789229e+06  -2.854368e+06
   2.038272e+06   6.752544e+05
   6.593327e+05   2.811485e+06
  -6.404232e+05   6.937854e+05
   1.559063e+05  -2.791438e+06
   2.219429e+06  -2.257254e+06
   2.192738e+06   2.314310e+06
  -1.200002e+06   4.764028e+06
  -4.615798e+06   1.071430e+06
  -3.825324e+06  -4.899144e+06
   1.059452e+06  -6.349057e+06
   5.649725e+06  -1.948677e+06
   5.997116e+06   3.435378e+06
   2.075174e+06   5.069311e+06
  -2.801350e+06   2.699429e+06
  -4.830852e+06  -8.317690e+05
  -2.590212e+06  -2.753467e+06
   1.630524e+06  -1.983923e+06
   3.669679e+06   4.307282e+05
   1.787933e+06   1.990523e+06
  -1.272515e+06   1.144079e+06
  -1.674047e+06  -7.670663e+05
   6.343495e+05  -1.096422e+06
   2.068689e+06   6.339475e+05
   2.958275e+05   2.211968e+06
  -2.892215e+06   1.722326e+06
  -4.087412e+06  -4.562056e+05
  -2.088302e+06  -2.840785e+06
   1.566320e+06  -4.341465e+06
   4.569326e+06  -4.029180e+06
   5.340064e+06  -1.240378e+06
   3.590836e+06   2.866767e+06
   6.500132e+05   5.281174e+06
  -1.282378e+06   4.250862e+06
  -1.224085e+06   1.594629e+06
  -4.637997e+05   4.020798e+05
  -7.889739e+05   1.058288e+06
  -2.113766e+06   1.230301e+06
  -2.743874e+06  -4.277272e+05
  -1.658239e+06  -2.348109e+06
   3.949244e+05  -2.273634e+06
   1.884960e+06  -8.905480e+04
   1.743938e+06   2.260741e+06
  -1.322715e+05   2.862798e+06
  -2.638772e+06   1.293576e+06
  -3.809029e+06  -1.339085e+06
  -2.492514e+06  -3.246091e+06
   1.390597e+05  -3.310029e+06
   1.730657e+06  -2.059559e+06
   1.614121e+06  -1.008817e+06
   1.477766e+06  -8.318803e+05
   2.693133e+06  -6.657937e+05
   4.079646e+06   5.355743e+05
   3.348241e+06   2.512071e+06
   1.950290e+05   3.942834e+06
  -3.106419e+06   3.752935e+06
  -4.111837e+06   1.893870e+06
  -2.494444e+06  -6.389341e+05
  -3.165435e+03  -2.225652e+06
   1.254232e+06  -1.741385e+06
   5.135213e+05   1.232722e+05
  -1.117107e+06   1.220017e+06
  -1.765865e+06   3.619201e+05
  -7.675806e+05  -1.107757e+06
   5.779579e+05  -1.084092e+06
   5.753717e+05   3.440751e+05
  -7.716673e+05   9.320860e+05
  -1.793780e+06  -6.459844e+05
  -1.153063e+06  -2.952938e+06
   8.246825e+05  -3.546833e+06
   2.769723e+06  -1.747149e+06
   3.509615e+06   9.709569e+05
   2.621411e+06   2.726088e+06
   5.791556e+05   2.720794e+06
  -1.268507e+06   1.452272e+06
  -1.580948e+06   1.729344e+05
  -4.793423e+05  -4.224877e+04
   3.595729e+05   7.204477e+05
  -3.284300e+05   1.237537e+06
  -1.720550e+06   5.682979e+05
  -1.920197e+06  -7.311469e+05
  -4.444567e+05  -1.282518e+06
   1.100310e+06  -6.002277e+05
   9.600908e+05   4.214867e+05
  -7.520998e+05   6.678731e+05
  -2.252546e+06  -1.007631e+05
  -1.944923e+06  -1.299689e+06
   1.039616e+05  -2.078635e+06
   2.255367e+06  -1.754452e+06
   2.720841e+06  -3.277743e+05
   1.180872e+06   1.163091e+06
  -8.373809e+05   1.374876e+06
  -1.405615e+06   1.746615e+05
  -1.466781e+05  -9.888034e+05
   1.444124e+06  -7.065205e+05
   1.685739e+06   6.932838e+05
   4.387602e+05   1.591737e+06
  -9.727648e+05   1.057976e+06
  -1.255401e+06  -1.725543e+05
  -3.351527e+05  -7.185122e+05
   7.153437e+05  -7.977576e+04
   6.987627e+05   1.000398e+06
  -5.741644e+05   1.369610e+06
  -1.955835e+06   5.066312e+05
  -1.967002e+06  -1.023241e+06
  -3.876987e+05  -1.997178e+06
   1.349546e+06  -1.607094e+06
   1.661466e+06  -2.569696e+05
   5.362463e+05   8.198618e+05
  -6.120609e+05   8.136346e+05
  -6.717525e+05   7.410810e+04
   6.554554e+04  -4.521413e+05
   5.575831e+05  -3.104217e+05
   2.824392e+05   9.113942e+04
  -3.540737e+05   7.048938e+04
  -5.596413e+05  -5.356053e+05
   1.088751e+05  -1.137807e+06
   1.307433e+06  -9.064447e+05
   2.029293e+06   3.696276e+05
   1.436757e+06   1.873933e+06
  -1.940940e+05   2.384051e+06
  -1.578190e+06   1.465689e+06
  -1.726067e+06  -5.177826e+04
  -9.578582e+05  -9.388357e+05
  -3.496496e+05  -8.060962e+05
  -3.766635e+05  -3.160637e+05
  -5.064190e+05  -2.596453e+05
  -7.997584e+04  -6.735419e+05
   8.122182e+05  -9.063521e+05
   1.432278e+06  -3.877905e+05
   1.110790e+06   7.164215e+05
  -1.798778e+05   1.518360e+06
  -1.682745e+06   1.127579e+06
  -2.236786e+06  -4.348659e+05
  -1.178452e+06  -2.023713e+06
   8.829933e+05  -2.312718e+06
   2.411618e+06  -1.088747e+06
   2.344157e+06   5.341770e+05
   1.070861e+06   1.296349e+06
  -1.259343e+05   1.033438e+06
  -4.527605e+05   6.002404e+05
  -2.091540e+05   7.228119e+05
  -1.586363e+05   1.190905e+06
  -6.206538e+05   1.199013e+06
  -1.216861e+06   3.000793e+05
  -1.293795e+06  -1.054314e+06
  -5.462328e+05  -1.852607e+06
   6.099975e+05  -1.408955e+06
   1.265565e+06  -2.505261e+04
   8.281138e+05   1.207153e+06
  -3.043591e+05   1.360600e+06
  -1.056260e+06   4.847880e+05
  -7.892613e+05  -5.533514e+05
   2.748186e+04  -9.842907e+05
   4.120918e+05  -7.837408e+05
   3.717954e+04  -4.505189e+05
  -4.057764e+05  -3.481604e+05
  -4.826259e+04  -3.836736e+05
   1.083799e+06  -2.280049e+05
   1.966489e+06   2.867046e+05
   1.587246e+06   9.642321e+05
   3.909244e+04   1.353355e+06
  -1.467363e+06   1.104929e+06
  -1.760334e+06   3.328091e+05
  -8.432923e+05  -3.900831e+05
   2.158964e+05  -5.176586e+05
   4.767679e+05  -7.245281e+04
   7.030140e+03   3.591985e+05
  -4.587811e+05   2.398269e+05
  -4.627151e+05  -3.327298e+05
  -1.890849e+05  -7.225581e+05
  -3.773518e+04  -4.714769e+05
  -1.413383e+05   1.370432e+05
  -3.202879e+05   3.413006e+05
  -2.831334e+05  -2.182597e+05
   1.626768e+05  -9.867704e+05
   8.687317e+05  -1.036979e+06
   1.256936e+06  -1.402445e+05
   7.665594e+05   8.900824e+05
  -3.976766e+05   1.059077e+06
  -1.185377e+06   2.793156e+05
  -7.118504e+05  -5.756500e+05
   6.670842e+05  -6.522019e+05
   1.583855e+06   4.891390e+04
   1.073213e+06   8.235923e+05
  -4.081285e+05   1.024246e+06
  -1.483442e+06   5.654700e+05
  -1.266157e+06  -1.344315e+05
  -1.664212e+05  -5.182587e+05
   6.284410e+05  -2.976477e+05
   3.598785e+05   2.666113e+05
  -5.976271e+05   4.870890e+05
  -1.154906e+06  -1.152456e+05
  -6.131503e+05  -1.176414e+06
   6.298519e+05  -1.652292e+06
   1.481244e+06  -8.395304e+05
   1.236185e+06   7.593688e+05
   2.013889e+05   1.775654e+06
  -7.236651e+05   1.309399e+06
  -9.241295e+05  -1.335535e+05
  -4.690386e+05  -1.168230e+06
   1.649572e+05  -9.841820e+05
   5.402164e+05  -1.063457e+05
   4.953055e+05   3.781500e+05
   1.988863e+05   1.474108e+05
   3.345572e+04  -1.061753e+05
   2.252829e+05   2.628170e+05
   4.887328e+05   9.383998e+05
   2.388282e+05   1.071882e+06
  -6.519303e+05   4.031371e+05
  -1.464966e+06  -4.514060e+05
  -1.309081e+06  -8.187053e+05
  -1.919202e+05  -6.792618e+05
   8.744462e+05  -4.136964e+05
   9.832859e+05  -1.988011e+05
   3.270342e+05   2.848302e+04
  -1.558015e+05   2.193352e+05
   6.265353e+03   2.239061e+05
   3.042691e+05   1.160445e+05
   3.382477e+04   1.332585e+05
  -6.963307e+05   2.184852e+05
  -1.025832e+06  -1.931778e+04
  -3.679116e+05  -6.717404e+05
   8.632900e+05  -1.137909e+06
   1.642577e+06  -7.223934e+05
   1.340515e+06   4.412635e+05
   2.605023e+05   1.390891e+06
  -7.388528e+05   1.344971e+06
  -1.030248e+06   5.071659e+05
  -6.519430e+05  -2.485795e+05
  -1.161360e+05  -3.514382e+05
   1.027956e+05  -4.160899e+04
  -6.774837e+04   4.386891e+04
  -3.160931e+05  -3.495904e+05
  -2.625327e+05  -7.953737e+05
   1.813739e+05  -6.614140e+05
   6.784410e+05   1.418417e+05
   7.093112e+05   9.581834e+05
   7.813960e+04   1.010453e+06
  -7.615314e+05   2.123791e+05
  -1.010208e+06  -7.367749e+05
  -3.249476e+05  -1.068985e+06
   7.043274e+05  -6.443589e+05
   1.084319e+06   7.820437e+04
   5.067993e+05   5.764022e+05
  -2.764531e+05   6.374686e+05
  -3.432347e+05   3.571577e+05
   2.745355e+05   2.066197e+04
   6.475962e+05  -3.639160e+04
   1.351418e+05   2.964003e+05
  -8.100943e+05   6.765201e+05
  -1.211858e+06   5.614831e+05
  -7.212023e+05  -1.462993e+05
   9.345939e+04  -8.441813e+05
   5.127539e+05  -8.336124e+05
   3.873917e+05  -1.399329e+05
   3.870132e+04   4.837965e+05
  -2.388897e+05   4.132815e+05
  -3.485169e+05  -1.701703e+05
  -2.486421e+05  -5.682979e+05
   5.658943e+04  -3.962297e+05
   3.838003e+05   5.387844e+04
   4.606933e+05   2.551671e+05
   2.393513e+05   7.703928e+04
  -2.147336e+04  -1.263116e+05
  -8.227516e+04   1.247691e+03
  -2.408751e+04   3.643568e+05
  -9.837426e+04   5.114073e+05
  -3.286764e+05   1.677575e+05
  -4.170371e+05  -4.020040e+05
  -1.104217e+05  -6.401409e+05
   4.136111e+05  -2.983524e+05
   6.376255e+05   2.890317e+05
   2.390536e+05   5.737929e+05
  -4.900233e+05   3.587323e+05
  -8.537419e+05  -8.145286e+04
  -4.658232e+05  -3.700498e+05
   2.868786e+05  -3.760700e+05
   6.206383e+05  -2.039714e+05
   2.261328e+05  -1.563266e+04
  -3.684538e+05   4.752362e+04
  -4.121428e+05  -8.980780e+04
   1.876444e+05  -3.042673e+05
   7.685218e+05  -2.691107e+05
