
 $NMID
 id='ANONYMOUS ', fmtdat='(2E16.6)'
 volume=1.0
 tramp=1.0
 $END
  -1.419629e+07   7.316213e+05
  -1.066529e+07  -5.237948e+06
  -1.518576e+06  -8.977100e+06
   5.761355e+06  -7.620057e+06
   6.037746e+06  -1.953173e+06
   1.039553e+06   2.835301e+06
  -3.287436e+06   2.225538e+06
  -3.122552e+06  -2.304030e+06
   2.269658e+05  -4.948217e+06
   2.904311e+06  -2.538650e+06
   2.672880e+06   1.963554e+06
   3.773745e+05   3.444360e+06
  -1.545470e+06   6.053156e+05
  -1.312886e+06  -3.098612e+06
   8.130944e+05  -3.684527e+06
   2.705690e+06  -6.742060e+05
   2.264316e+06   2.947000e+06
  -3.728546e+05   3.972549e+06
  -2.774794e+06   1.933179e+06
  -2.810835e+06  -8.563671e+05
  -1.002396e+06  -1.935515e+06
   2.446393e+05  -1.199657e+06
  -4.403753e+05  -5.843017e+05
  -1.862364e+06  -1.455804e+06
  -1.737831e+06  -2.947137e+06
   6.977868e+05  -3.151928e+06
   3.709811e+06  -1.440200e+06
   4.586027e+06   9.277169e+05
   2.286268e+06   2.201532e+06
  -1.238233e+06   1.646178e+06
  -2.688552e+06  -1.133086e+05
  -7.999307e+05  -1.619891e+06
   2.198307e+06  -1.518612e+06
   3.063830e+06   3.215641e+05
   1.205679e+06   2.364029e+06
  -9.624409e+05   2.639259e+06
  -1.234679e+06   8.573328e+05
  -4.904990e+04  -1.052233e+06
   7.001109e+05  -9.941518e+05
   2.117785e+05   8.698228e+05
  -7.685330e+05   2.276355e+06
  -1.355456e+06   1.490430e+06
  -1.270919e+06  -6.992393e+05
  -4.863395e+05  -1.917746e+06
   7.215019e+05  -8.882136e+05
   1.308028e+06   1.214867e+06
   1.999636e+05   2.117912e+06
  -2.035048e+06   8.506429e+05
  -3.155852e+06  -1.385541e+06
  -1.649173e+06  -2.579363e+06
   1.297958e+06  -1.858903e+06
   2.952833e+06  -8.153491e+04
   1.983926e+06   1.208687e+06
  -3.174260e+05   1.177390e+06
  -1.662797e+06   2.100469e+05
  -1.083343e+06  -6.289778e+05
   4.161559e+05  -5.557831e+05
   1.100314e+06   2.920888e+05
   2.611027e+05   1.000736e+06
  -1.079576e+06   7.547836e+05
  -1.243090e+06  -2.942552e+05
   1.673736e+05  -1.077751e+06
   1.603859e+06  -6.527104e+05
   1.232389e+06   7.892556e+05
  -8.779356e+05   2.011451e+06
  -2.760777e+06   1.845920e+06
  -2.797404e+06   2.423319e+05
  -1.377577e+06  -1.702605e+06
  -6.523955e+04  -2.714566e+06
   3.351782e+05  -2.420436e+06
   3.407278e+05  -1.535819e+06
   7.169747e+05  -9.584946e+05
   1.480738e+06  -7.334453e+05
   2.019453e+06  -1.431130e+05
   1.766435e+06   1.100427e+06
   6.464212e+05   2.105624e+06
  -8.105623e+05   1.672150e+06
  -1.663901e+06  -1.488862e+05
  -1.203344e+06  -1.827563e+06
   3.142031e+05  -1.895357e+06
   1.701584e+06  -4.422020e+05
   1.879251e+06   1.144394e+06
   8.947097e+05   1.707957e+06
  -2.211707e+05   1.291675e+06
  -6.098276e+05   7.154572e+05
  -4.643411e+05   5.715209e+05
  -6.741005e+05   7.330962e+05
  -1.632318e+06   6.169500e+05
  -2.543896e+06  -2.086323e+05
  -2.129503e+06  -1.539878e+06
  -1.198710e+05  -2.542263e+06
   2.129113e+06  -2.367125e+06
   2.811784e+06  -9.591490e+05
   1.512305e+06   7.359577e+05
  -3.585825e+05   1.507133e+06
  -1.067565e+06   9.446666e+05
  -2.874066e+05  -1.916855e+05
   8.293070e+05  -7.117131e+05
   1.069229e+06  -1.750536e+05
   3.378227e+05   6.634281e+05
  -4.918128e+05   6.941705e+05
  -5.559957e+05  -2.149233e+05
   2.491026e+05  -9.124552e+05
   1.210665e+06  -2.287813e+05
   1.337977e+06   1.522423e+06
   1.863685e+05   2.655352e+06
  -1.603046e+06   1.885058e+06
  -2.675558e+06  -2.454571e+05
  -2.141852e+06  -1.944853e+06
  -4.657647e+05  -2.034154e+06
   9.439643e+05  -9.574802e+05
   1.095536e+06  -1.762255e+04
   3.149026e+05   3.535747e+04
  -2.344121e+05  -4.699728e+05
   1.506025e+05  -7.342961e+05
   9.853337e+05  -3.540962e+05
   1.189416e+06   3.609117e+05
   3.551236e+05   7.449690e+05
  -6.930162e+05   4.262354e+05
  -7.369709e+05  -2.813610e+05
   4.365974e+05  -6.235630e+05
   1.657125e+06  -1.253936e+05
   1.551418e+06   8.958593e+05
   3.775919e+04   1.571946e+06
  -1.546458e+06   1.279527e+06
  -1.828897e+06   2.294882e+05
  -7.533135e+05  -7.072219e+05
   5.035583e+05  -7.860139e+05
   7.907333e+05  -8.251528e+04
   2.093381e+04   5.722809e+05
  -9.245653e+05   4.225227e+05
  -1.114991e+06  -4.106659e+05
  -3.905487e+05  -1.044807e+06
   5.611850e+05  -8.136046e+05
   8.714594e+05  -1.771363e+04
   3.259462e+05   4.356593e+05
  -4.007611e+05   7.407251e+04
  -4.165172e+05  -6.407140e+05
   4.232026e+05  -8.651493e+05
   1.295882e+06  -2.624316e+05
   1.251140e+06   7.153830e+05
   2.304931e+05   1.293323e+06
  -8.566275e+05   1.040679e+06
  -1.077196e+06   2.002784e+05
  -3.953818e+05  -5.212833e+05
   3.858341e+05  -5.622911e+05
   5.100291e+05  -2.813402e+04
  -1.610770e+03   4.253737e+05
  -4.818622e+05   3.167427e+05
  -3.826781e+05  -1.162073e+05
   1.473281e+05  -2.269032e+05
   4.377269e+05   2.227317e+05
   2.066652e+04   7.331464e+05
  -8.347010e+05   6.151609e+05
  -1.332353e+06  -2.452733e+05
  -9.181367e+05  -1.240986e+06
   1.610419e+05  -1.597564e+06
   1.084643e+06  -1.041109e+06
   1.241111e+06  -9.545696e+03
   7.561236e+05   7.312229e+05
   2.469347e+05   7.537314e+05
   1.223513e+05   3.345034e+05
   2.032563e+05   1.155643e+05
   3.481191e+04   3.567809e+05
  -5.054285e+05   6.198422e+05
  -9.857768e+05   3.121903e+05
  -8.258073e+05  -5.202115e+05
   8.063615e+04  -1.122957e+06
   1.147323e+06  -8.093238e+05
   1.525403e+06   2.942898e+05
   8.263197e+05   1.337305e+06
  -5.065765e+05   1.522837e+06
  -1.537469e+06   7.755223e+05
  -1.609113e+06  -2.723292e+05
  -8.520004e+05  -8.801026e+05
   2.271941e+04  -8.249756e+05
   4.131490e+05  -5.070360e+05
   3.186446e+05  -4.443619e+05
   1.951587e+05  -6.715313e+05
   3.889062e+05  -7.079550e+05
   7.520182e+05  -1.614406e+05
   8.154678e+05   7.244280e+05
   3.214266e+05   1.240382e+06
  -4.394676e+05   9.237276e+05
  -8.524420e+05   2.092992e+04
  -5.685500e+05  -7.622176e+05
   1.348559e+05  -8.968136e+05
   6.186734e+05  -4.160683e+05
   5.185927e+05   2.230715e+05
   8.283899e+04   5.764314e+05
  -1.515601e+05   5.450919e+05
   1.867707e+04   3.571875e+05
   2.363620e+05   2.634207e+05
   9.271303e+03   2.656983e+05
  -6.761318e+05   1.588863e+05
  -1.236376e+06  -1.819950e+05
  -1.041960e+06  -6.137020e+05
  -9.579998e+04  -8.422905e+05
   8.871059e+05  -6.933881e+05
   1.141158e+06  -2.606825e+05
   5.946572e+05   1.623179e+05
  -1.011220e+05   2.926075e+05
  -2.915710e+05   8.970919e+04
   2.782251e+04  -1.685848e+05
   3.412768e+05  -1.286768e+05
   2.878474e+05   2.286081e+05
   2.951830e+04   4.975533e+05
  -6.018077e+04   3.112584e+05
   1.106248e+05  -1.447411e+05
   2.879551e+05  -2.859700e+05
   2.017339e+05   1.414160e+05
  -1.664050e+05   6.766763e+05
  -5.870787e+05   6.591741e+05
  -7.342530e+05   2.745176e+04
  -3.969942e+05  -5.967885e+05
   2.739057e+05  -6.187130e+05
   7.274010e+05  -9.125414e+04
   4.471103e+05   4.193733e+05
  -4.333249e+05   4.416498e+05
  -1.093450e+06  -1.354009e+04
  -8.142418e+05  -5.527422e+05
   2.121597e+05  -7.526178e+05
   1.030279e+06  -4.693957e+05
   9.230644e+05   5.451231e+04
   1.442392e+05   3.720086e+05
  -4.173378e+05   2.295648e+05
  -2.109140e+05  -1.545879e+05
   4.416773e+05  -2.691418e+05
   7.524041e+05   1.599517e+05
   3.063651e+05   8.199658e+05
  -5.390135e+05   1.047069e+06
  -1.042172e+06   4.679824e+05
  -8.021304e+05  -5.646746e+05
  -8.377873e+04  -1.210856e+06
   5.179870e+05  -9.071128e+05
   6.382961e+05   5.740011e+04
   3.474458e+05   7.919126e+05
  -6.449697e+04   7.048626e+05
  -3.470908e+05   9.289486e+04
  -3.751987e+05  -2.813613e+05
  -1.854940e+05  -1.273984e+05
  -4.592263e+03   9.063112e+04
  -6.831665e+04  -1.332983e+05
  -2.799046e+05  -6.200738e+05
  -2.060916e+05  -7.451188e+05
   3.685211e+05  -2.785517e+05
   9.862457e+05   3.372435e+05
   9.279177e+05   5.842482e+05
   1.242696e+05   4.473059e+05
  -6.525661e+05   2.461788e+05
  -6.885410e+05   1.319223e+05
  -1.743834e+05   1.313201e+04
   1.312640e+05  -1.351068e+05
  -6.312919e+04  -1.913123e+05
  -2.692166e+05  -1.317365e+05
   9.347821e+03  -9.177647e+04
   5.464454e+05  -9.244031e+04
   6.741659e+05   6.196258e+04
   1.226475e+05   4.363462e+05
  -6.731302e+05   6.855995e+05
  -1.063752e+06   3.876567e+05
  -7.892498e+05  -3.653508e+05
  -1.037256e+05  -9.463018e+05
   5.109924e+05  -8.546843e+05
   6.964854e+05  -2.595345e+05
   4.343451e+05   2.265662e+05
   3.618370e+04   2.338211e+05
  -1.275874e+05  -2.384361e+04
   2.832872e+04  -7.814761e+04
   2.363164e+05   2.244728e+05
   1.804402e+05   5.413013e+05
  -1.542258e+05   4.190783e+05
  -4.574440e+05  -1.651300e+05
  -3.962215e+05  -7.043464e+05
   5.676651e+04  -6.610102e+05
   5.500715e+05  -4.601952e+04
   6.210934e+05   5.842324e+05
   1.370515e+05   7.151767e+05
  -4.968039e+05   3.547196e+05
  -6.845463e+05  -1.040859e+05
  -2.846575e+05  -3.503429e+05
   1.943275e+05  -3.543042e+05
   1.830649e+05  -2.177074e+05
  -2.415301e+05  -5.265423e+04
  -4.482805e+05  -8.585084e+03
  -6.017841e+04  -1.879221e+05
   5.629221e+05  -4.333508e+05
   7.778538e+05  -3.868854e+05
   4.191089e+05   6.624309e+04
  -9.316854e+04   5.343945e+05
  -3.125549e+05   5.187401e+05
  -1.967285e+05   4.168110e+04
   2.574834e+04  -3.460807e+05
   1.815894e+05  -2.326141e+05
   2.246320e+05   1.807476e+05
   1.373037e+05   3.884684e+05
  -6.135248e+04   2.098380e+05
  -2.490561e+05  -7.332755e+04
  -2.824435e+05  -1.450670e+05
  -1.596286e+05  -2.462371e+04
  -1.396580e+04   3.850027e+04
   6.269046e+04  -8.855852e+04
   1.096824e+05  -2.703452e+05
   1.875466e+05  -2.652622e+05
   2.503009e+05   5.233737e+03
   1.828178e+05   3.420051e+05
  -4.942421e+04   4.296231e+05
  -3.120211e+05   1.533826e+05
  -3.731603e+05  -2.491943e+05
  -1.074938e+05  -4.106867e+05
   3.215564e+05  -2.145523e+05
   5.297159e+05   1.072846e+05
   2.798336e+05   2.630965e+05
  -2.006710e+05   1.976665e+05
  -4.004746e+05   6.273350e+04
  -1.059892e+05  -2.647771e+03
   3.046913e+05   3.330964e+04
   2.894244e+05   1.404157e+05
  -1.904874e+05   2.285730e+05
  -6.047420e+05   1.406035e+05
