
 $NMID
 id='ANONYMOUS ', fmtdat='(2E16.6)'
 volume=1.0
 tramp=1.0
 $END
  -2.670323e+07  -2.390130e+05
  -1.699457e+07  -1.426237e+07
   1.549240e+06  -1.734299e+07
   1.218147e+07  -9.455862e+06
   8.939935e+06   6.502496e+05
  -2.358992e+05   4.624569e+06
  -5.078643e+06   1.227812e+06
  -2.980403e+06  -4.396430e+06
   1.907273e+06  -6.189812e+06
   4.829656e+06  -2.368426e+06
   3.947247e+06   3.262623e+06
   4.999797e+05   5.026836e+06
  -2.315094e+06   1.232874e+06
  -1.751545e+06  -3.842501e+06
   1.657283e+06  -4.553568e+06
   4.202270e+06  -5.176998e+04
   2.851107e+06   5.130571e+06
  -1.470603e+06   6.287069e+06
  -5.042462e+06   3.034904e+06
  -5.213475e+06  -1.362037e+06
  -2.567439e+06  -3.725121e+06
   1.451084e+05  -3.419845e+06
   6.355506e+05  -2.082009e+06
  -8.642097e+05  -1.721806e+06
  -1.710967e+06  -2.762407e+06
   3.944529e+05  -3.591158e+06
   4.353229e+06  -2.383270e+06
   6.243300e+06   5.562687e+05
   3.731427e+06   2.871057e+06
  -8.795000e+05   2.734225e+06
  -3.120985e+06   6.974238e+05
  -1.383935e+06  -1.216629e+06
   1.751380e+06  -1.499741e+06
   2.970686e+06  -9.459745e+03
   1.637272e+06   2.167751e+06
  -4.603137e+05   3.179751e+06
  -1.490877e+06   1.782732e+06
  -1.028779e+06  -8.844204e+05
   6.669535e+04  -1.862998e+06
   4.795575e+05   1.061496e+05
  -4.169607e+05   2.453853e+06
  -1.702458e+06   1.783050e+06
  -1.605465e+06  -1.427689e+06
   3.955496e+05  -3.088135e+06
   2.507506e+06  -7.981427e+05
   2.310444e+06   2.960009e+06
  -5.282172e+05   3.956011e+06
  -3.669906e+06   1.227939e+06
  -4.296026e+06  -2.333764e+06
  -1.733690e+06  -3.616719e+06
   1.931612e+06  -2.140522e+06
   3.662241e+06   3.554635e+05
   2.158603e+06   1.851382e+06
  -9.046230e+05   1.456079e+06
  -2.492017e+06  -1.313196e+05
  -1.335730e+06  -1.227940e+06
   7.974693e+05  -7.782097e+05
   1.307483e+06   4.914110e+05
  -1.442272e+05   9.526528e+05
  -1.419413e+06   5.859564e+04
  -6.746842e+05  -1.107651e+06
   1.442504e+06  -1.226682e+06
   2.647843e+06  -4.332045e+04
   1.521838e+06   1.727779e+06
  -1.212179e+06   3.021587e+06
  -3.541304e+06   2.792181e+06
  -3.910137e+06   6.676807e+05
  -2.356208e+06  -2.230791e+06
  -3.060546e+05  -3.824660e+06
   7.752776e+05  -3.151582e+06
   7.089402e+05  -1.481654e+06
   5.325087e+05  -6.901101e+05
   1.096436e+06  -9.107823e+05
   2.014502e+06  -6.780242e+05
   2.190696e+06   7.392705e+05
   1.125203e+06   2.144124e+06
  -5.607853e+05   1.904960e+06
  -1.695594e+06  -2.848038e+03
  -1.421773e+06  -1.936326e+06
   2.066827e+05  -2.273334e+06
   2.083876e+06  -8.248254e+05
   2.721690e+06   1.214504e+06
   1.591433e+06   2.397699e+06
  -2.178881e+05   2.197551e+06
  -1.149260e+06   1.293872e+06
  -9.959357e+05   7.228354e+05
  -1.015380e+06   7.308459e+05
  -2.050575e+06   6.025338e+05
  -3.148253e+06  -3.635322e+05
  -2.605214e+06  -1.933637e+06
  -1.478569e+05  -3.087998e+06
   2.500572e+06  -2.919700e+06
   3.313190e+06  -1.367064e+06
   1.922957e+06   6.582719e+05
  -1.667593e+05   1.794975e+06
  -1.110396e+06   1.293712e+06
  -3.817741e+05  -1.474088e+05
   9.280294e+05  -9.203441e+05
   1.344009e+06  -2.525068e+05
   5.211645e+05   8.451889e+05
  -5.007971e+05   8.487027e+05
  -5.301075e+05  -2.520516e+05
   4.654738e+05  -8.569049e+05
   1.386071e+06   1.978742e+05
   1.164031e+06   2.093934e+06
  -2.761202e+05   2.910566e+06
  -2.035990e+06   1.722398e+06
  -2.929016e+06  -5.511694e+05
  -2.285635e+06  -2.197178e+06
  -5.151184e+05  -2.260819e+06
   1.053823e+06  -1.157598e+06
   1.280517e+06  -9.823562e+04
   3.796725e+05   3.464042e+04
  -2.804396e+05  -5.647324e+05
   2.322264e+05  -9.297951e+05
   1.283614e+06  -4.286565e+05
   1.466694e+06   5.185202e+05
   3.742904e+05   9.514984e+05
  -8.452474e+05   4.800245e+05
  -7.996094e+05  -3.281143e+05
   5.603759e+05  -6.064363e+05
   1.851242e+06  -1.730668e+04
   1.666082e+06   1.031059e+06
  -2.008563e+04   1.731460e+06
  -1.801714e+06   1.448762e+06
  -2.163930e+06   2.712862e+05
  -9.186175e+05  -8.865733e+05
   6.406059e+05  -1.023594e+06
   1.042631e+06  -1.175053e+05
   7.467975e+04   7.422999e+05
  -1.126390e+06   5.338325e+05
  -1.327629e+06  -5.220775e+05
  -3.965523e+05  -1.243998e+06
   7.172479e+05  -8.841500e+05
   9.985974e+05   6.775193e+04
   3.100774e+05   5.357397e+05
  -5.272636e+05   6.136891e+04
  -5.233366e+05  -7.875102e+05
   4.832976e+05  -1.064864e+06
   1.554951e+06  -3.627239e+05
   1.534273e+06   8.320232e+05
   2.935062e+05   1.567164e+06
  -1.048380e+06   1.259210e+06
  -1.299095e+06   2.214751e+05
  -4.430823e+05  -6.291683e+05
   4.689968e+05  -6.499523e+05
   5.580254e+05  -5.373571e+04
  -2.868822e+04   4.105751e+05
  -4.889804e+05   3.001772e+05
  -3.168045e+05  -8.979006e+04
   2.328653e+05  -1.352225e+05
   4.695106e+05   3.612361e+05
  -4.499692e+04   8.892949e+05
  -1.022762e+06   7.237964e+05
  -1.603126e+06  -2.948611e+05
  -1.122821e+06  -1.487059e+06
   1.653389e+05  -1.899554e+06
   1.260911e+06  -1.198666e+06
   1.410763e+06   1.035468e+04
   8.275409e+05   7.844442e+05
   3.033251e+05   7.405802e+05
   2.493745e+05   3.190007e+05
   3.366508e+05   1.907017e+05
   4.929975e+04   4.972715e+05
  -6.296327e+05   7.293574e+05
  -1.154408e+06   3.362190e+05
  -9.298543e+05  -5.869893e+05
   1.174622e+05  -1.259857e+06
   1.348258e+06  -9.260133e+05
   1.794990e+06   3.455166e+05
   9.539676e+05   1.598517e+06
  -6.638100e+05   1.821044e+06
  -1.877095e+06   8.837355e+05
  -1.876421e+06  -3.787645e+05
  -9.170067e+05  -1.024483e+06
   6.053343e+04  -8.794151e+05
   4.035308e+05  -5.352674e+05
   2.517798e+05  -5.697358e+05
   1.746597e+05  -8.950797e+05
   4.859206e+05  -9.081806e+05
   9.407671e+05  -2.170517e+05
   1.007490e+06   8.493394e+05
   4.153826e+05   1.475476e+06
  -4.991703e+05   1.113396e+06
  -1.007251e+06   2.289248e+04
  -6.619033e+05  -9.367892e+05
   2.098663e+05  -1.070269e+06
   7.914175e+05  -4.217311e+05
   6.124183e+05   3.725037e+05
   1.918031e+04   7.371414e+05
  -2.685329e+05   6.228903e+05
  -4.086082e+03   3.799886e+05
   3.109171e+05   2.940801e+05
   2.938563e+04   3.127727e+05
  -8.404787e+05   1.819801e+05
  -1.528973e+06  -2.290558e+05
  -1.251327e+06  -7.533724e+05
  -5.775332e+04  -1.040983e+06
   1.126447e+06  -8.505024e+05
   1.378563e+06  -2.810243e+05
   6.761302e+05   2.612787e+05
  -1.558179e+05   3.842220e+05
  -3.638796e+05   7.492308e+04
   1.348946e+04  -2.571956e+05
   3.827970e+05  -1.819142e+05
   3.604710e+05   2.679375e+05
   1.095917e+05   5.896664e+05
  -8.146385e+03   3.800745e+05
   1.161857e+05  -1.355229e+05
   2.850538e+05  -3.033118e+05
   2.315461e+05   1.734609e+05
  -1.549174e+05   8.001125e+05
  -6.984750e+05   8.102019e+05
  -9.583856e+05   7.166533e+04
  -5.579495e+05  -7.188508e+05
   3.271442e+05  -8.029952e+05
   9.216130e+05  -1.747873e+05
   5.572927e+05   4.750708e+05
  -5.233527e+05   5.217404e+05
  -1.274550e+06  -2.461948e+04
  -8.996141e+05  -6.470280e+05
   2.900463e+05  -8.420097e+05
   1.189597e+06  -4.965936e+05
   1.039202e+06   8.340610e+04
   1.499478e+05   4.207691e+05
  -4.951102e+05   2.503543e+05
  -2.699132e+05  -2.035039e+05
   4.991357e+05  -3.650297e+05
   9.161464e+05   1.304076e+05
   4.443953e+05   9.587548e+05
  -5.569743e+05   1.298618e+06
  -1.208122e+06   6.322104e+05
  -9.783680e+05  -6.296981e+05
  -1.420072e+05  -1.427157e+06
   5.866762e+05  -1.059812e+06
   7.418331e+05   8.923360e+04
   3.901007e+05   9.309063e+05
  -1.063441e+05   7.996470e+05
  -4.216247e+05   9.280113e+04
  -4.160953e+05  -3.098056e+05
  -1.837714e+05  -1.254960e+05
  -1.634294e+04   9.169386e+04
  -1.383415e+05  -1.968902e+05
  -3.676422e+05  -7.460544e+05
  -2.145078e+05  -8.601899e+05
   4.865836e+05  -3.193145e+05
   1.171535e+06   3.723409e+05
   1.069067e+06   6.615354e+05
   1.510694e+05   5.377509e+05
  -7.283024e+05   3.226585e+05
  -7.960254e+05   1.614670e+05
  -2.376608e+05  -1.173395e+04
   1.362863e+05  -1.717311e+05
  -3.590345e+04  -1.919549e+05
  -2.762365e+05  -1.113473e+05
  -1.211755e+04  -1.104040e+05
   5.950696e+05  -1.571259e+05
   8.146618e+05   3.785308e+04
   2.365329e+05   5.388867e+05
  -7.347991e+05   8.802562e+05
  -1.298191e+06   5.304698e+05
  -1.024885e+06  -3.903533e+05
  -1.785748e+05  -1.119644e+06
   5.982539e+05  -1.052094e+06
   8.298527e+05  -3.689002e+05
   5.231688e+05   2.250396e+05
   7.330245e+04   2.827363e+05
  -1.129538e+05   1.489486e+04
   4.208857e+04  -5.540527e+04
   2.619142e+05   2.716280e+05
   2.119547e+05   6.359185e+05
  -1.606051e+05   5.178889e+05
  -5.469507e+05  -1.438160e+05
  -5.350192e+05  -7.963642e+05
  -1.307179e+04  -8.059929e+05
   6.318049e+05  -1.302526e+05
   7.878116e+05   6.304486e+05
   2.237651e+05   8.570601e+05
  -5.778782e+05   4.814639e+05
  -8.489994e+05  -8.810285e+04
  -3.759393e+05  -4.473383e+05
   2.303958e+05  -4.757103e+05
   2.538542e+05  -2.701743e+05
  -2.480945e+05  -2.795727e+04
  -5.251090e+05   1.616724e+04
  -9.349837e+04  -2.338275e+05
   6.546187e+05  -5.322397e+05
   9.474296e+05  -4.500987e+05
   5.426304e+05   1.068118e+05
  -8.961567e+04   6.605519e+05
  -3.966368e+05   6.435893e+05
  -2.847807e+05   8.303906e+04
  -1.030900e+04  -3.995196e+05
   2.033141e+05  -3.114600e+05
   2.796955e+05   1.656738e+05
   1.861730e+05   4.581184e+05
  -5.997883e+04   2.926029e+05
  -3.050815e+05  -5.976272e+04
  -3.528479e+05  -1.931092e+05
  -1.879721e+05  -4.889755e+04
   3.187554e+02   8.231330e+04
   6.109822e+04  -4.109030e+04
   5.832861e+04  -3.099514e+05
   1.389019e+05  -3.831783e+05
   2.851637e+05  -8.399126e+04
   2.956097e+05   3.604165e+05
   3.351625e+04   5.206362e+05
  -3.486699e+05   2.202820e+05
  -4.886586e+05  -2.590458e+05
  -1.696073e+05  -4.729951e+05
   3.889964e+05  -2.739518e+05
   6.653063e+05   9.126982e+04
   3.579980e+05   3.035749e+05
  -2.363309e+05   2.759528e+05
  -4.931040e+05   1.287067e+05
  -1.607347e+05   3.131454e+03
   3.244945e+05  -1.404627e+04
   3.409003e+05   1.055423e+05
  -1.756949e+05   2.589188e+05
  -6.548364e+05   2.052361e+05
