
 $NMID
 id='ANONYMOUS ', fmtdat='(2E16.6)'
 volume=1.0
 tramp=1.0
 $END
   2.690243e+07   3.868890e+06
   1.529600e+07   1.577698e+07
  -3.308322e+06   1.681291e+07
  -1.299265e+07   8.627038e+06
  -9.002699e+06  -8.736131e+05
   4.432179e+05  -4.585209e+06
   5.284921e+06  -1.200343e+06
   2.956065e+06   4.615424e+06
  -2.250900e+06   6.497523e+06
  -5.147570e+06   2.234964e+06
  -3.775290e+06  -3.895523e+06
   7.424929e+04  -5.457956e+06
   2.684955e+06  -9.300085e+05
   1.562902e+06   4.518381e+06
  -2.090085e+06   4.859935e+06
  -4.326176e+06  -2.302102e+05
  -2.457474e+06  -5.559301e+06
   2.140164e+06  -6.301942e+06
   5.521638e+06  -2.452811e+06
   5.106075e+06   2.203525e+06
   1.888210e+06   4.208174e+06
  -8.495469e+05   3.234151e+06
  -7.628266e+05   1.651349e+06
   1.267605e+06   1.790253e+06
   1.944121e+06   3.451932e+06
  -8.689333e+05   4.164097e+06
  -5.279649e+06   2.123391e+06
  -6.879101e+06  -1.489586e+06
  -3.611990e+06  -3.689337e+06
   1.577447e+06  -2.889394e+06
   3.789696e+06  -2.618086e+05
   1.452334e+06   1.813471e+06
  -2.349456e+06   1.797060e+06
  -3.652278e+06  -2.644621e+05
  -1.693570e+06  -2.841078e+06
   1.045119e+06  -3.653665e+06
   1.968660e+06  -1.622920e+06
   8.259314e+05   1.386783e+06
  -6.087400e+05   2.019781e+06
  -6.170256e+05  -5.006629e+05
   8.053097e+05  -2.912345e+06
   2.054244e+06  -1.853061e+06
   1.561541e+06   1.588469e+06
  -5.389148e+05   3.052123e+06
  -2.339554e+06   4.993152e+05
  -1.874700e+06  -3.196299e+06
   9.255757e+05  -3.854886e+06
   3.899802e+06  -8.020767e+05
   4.385324e+06   2.885270e+06
   1.635040e+06   4.036601e+06
  -2.246965e+06   2.216700e+06
  -4.001806e+06  -6.062333e+05
  -2.270384e+06  -2.128350e+06
   1.012340e+06  -1.467824e+06
   2.593770e+06   3.395113e+05
   1.302950e+06   1.376037e+06
  -9.068652e+05   7.280993e+05
  -1.416159e+06  -6.332292e+05
   7.069054e+04  -1.075192e+06
   1.438202e+06  -1.848040e+05
   8.006042e+05   9.487739e+05
  -1.333564e+06   1.081939e+06
  -2.641868e+06  -6.901185e+04
  -1.423314e+06  -1.843487e+06
   1.682496e+06  -3.079269e+06
   4.263608e+06  -2.612444e+06
   4.357371e+06  -1.949914e+05
   2.205049e+06   2.784356e+06
  -1.660429e+05   4.204185e+06
  -1.084037e+06   3.347178e+06
  -7.771924e+05   1.666676e+06
  -6.833335e+05   9.251344e+05
  -1.533629e+06   1.036928e+06
  -2.551097e+06   5.027094e+05
  -2.490553e+06  -1.223911e+06
  -1.036330e+06  -2.710349e+06
   9.239563e+05  -2.211699e+06
   2.051560e+06   1.620030e+05
   1.488525e+06   2.402260e+06
  -4.942258e+05   2.585699e+06
  -2.469377e+06   6.452043e+05
  -2.845090e+06  -1.745142e+06
  -1.358013e+06  -2.824462e+06
   5.654960e+05  -2.260238e+06
   1.348007e+06  -1.146991e+06
   1.048988e+06  -6.416886e+05
   1.117717e+06  -7.506937e+05
   2.317710e+06  -5.330405e+05
   3.476430e+06   6.633693e+05
   2.743779e+06   2.394081e+06
  -1.111187e+05   3.494120e+06
  -3.112885e+06   3.066056e+06
  -3.922385e+06   1.192829e+06
  -2.120865e+06  -1.008818e+06
   4.310107e+05  -2.066439e+06
   1.457859e+06  -1.339641e+06
   4.249071e+05   2.393182e+05
  -1.167579e+06   9.527603e+05
  -1.537337e+06   1.406529e+05
  -4.692824e+05  -1.011592e+06
   6.821575e+05  -9.282816e+05
   6.304552e+05   3.154120e+05
  -5.109414e+05   9.851612e+05
  -1.500859e+06  -1.777412e+05
  -1.233126e+06  -2.311864e+06
   3.643206e+05  -3.275914e+06
   2.329754e+06  -1.924642e+06
   3.308603e+06   7.533753e+05
   2.501359e+06   2.684531e+06
   4.262262e+05   2.652561e+06
  -1.319703e+06   1.223884e+06
  -1.479788e+06  -2.454057e+04
  -4.258006e+05  -7.720318e+04
   2.695874e+05   6.651677e+05
  -3.361271e+05   1.011464e+06
  -1.462070e+06   3.556849e+05
  -1.591929e+06  -6.991085e+05
  -3.469911e+05  -1.090678e+06
   9.954503e+05  -4.824499e+05
   9.130735e+05   4.318873e+05
  -6.476255e+05   6.831788e+05
  -2.118862e+06  -7.140864e+04
  -1.867397e+06  -1.293115e+06
   1.267115e+05  -1.997712e+06
   2.169191e+06  -1.518015e+06
   2.481658e+06  -1.204796e+05
   9.487104e+05   1.077606e+06
  -8.199045e+05   1.070767e+06
  -1.165682e+06   1.693050e+04
   6.226464e+03  -8.408091e+05
   1.323343e+06  -4.951349e+05
   1.457081e+06   6.985665e+05
   3.627884e+05   1.437742e+06
  -8.649309e+05   9.618736e+05
  -1.129869e+06  -1.306750e+05
  -3.297527e+05  -6.227468e+05
   5.856177e+05  -3.142304e+04
   5.187508e+05   9.318998e+05
  -6.468343e+05   1.159937e+06
  -1.796631e+06   2.624530e+05
  -1.656728e+06  -1.087927e+06
  -1.863791e+05  -1.796839e+06
   1.293529e+06  -1.325058e+06
   1.485586e+06  -1.374255e+05
   4.544329e+05   7.501782e+05
  -5.859624e+05   7.044736e+05
  -6.621413e+05   1.241443e+04
   4.004836e+04  -4.954817e+05
   5.959230e+05  -3.425757e+05
   4.089626e+05   1.204928e+05
  -2.301755e+05   1.706555e+05
  -5.011367e+05  -4.052856e+05
   1.046801e+05  -9.841578e+05
   1.207123e+06  -7.303829e+05
   1.784072e+06   4.721422e+05
   1.132690e+06   1.782037e+06
  -3.610661e+05   2.142521e+06
  -1.538029e+06   1.266452e+06
  -1.616200e+06  -1.181315e+05
  -9.042500e+05  -9.796689e+05
  -2.971151e+05  -9.196727e+05
  -2.300705e+05  -4.243466e+05
  -3.237448e+05  -2.388240e+05
   4.525755e+02  -5.400693e+05
   7.620225e+05  -7.674775e+05
   1.332426e+06  -2.972975e+05
   1.022848e+06   7.434801e+05
  -2.205609e+05   1.436447e+06
  -1.603546e+06   9.485034e+05
  -2.010382e+06  -5.426758e+05
  -9.536998e+05  -1.886415e+06
   8.885974e+05  -1.995724e+06
   2.182010e+06  -8.466505e+05
   2.099703e+06   5.677390e+05
   9.873359e+05   1.235032e+06
  -1.181050e+05   1.022001e+06
  -5.235561e+05   6.079724e+05
  -3.845174e+05   6.284494e+05
  -3.100217e+05   9.746051e+05
  -6.316247e+05   9.610399e+05
  -1.073080e+06   1.492796e+05
  -1.057769e+06  -1.059618e+06
  -3.323002e+05  -1.713692e+06
   6.726578e+05  -1.218130e+06
   1.146977e+06   5.887098e+04
   6.710316e+05   1.106535e+06
  -3.134506e+05   1.187073e+06
  -9.038564e+05   4.278447e+05
  -6.484631e+05  -4.363664e+05
   2.095462e+04  -8.077604e+05
   3.231185e+05  -6.799950e+05
   2.246034e+04  -4.428819e+05
  -3.178461e+05  -3.701321e+05
  -7.097933e+01  -3.591202e+05
   9.527780e+05  -1.309428e+05
   1.689045e+06   3.937668e+05
   1.346036e+06   9.542652e+05
  -8.481494e+03   1.163936e+06
  -1.328069e+06   8.487743e+05
  -1.576117e+06   2.067677e+05
  -7.462021e+05  -3.264074e+05
   2.018749e+05  -4.039198e+05
   4.078213e+05  -6.243006e+04
  -5.308636e+04   2.711678e+05
  -4.614927e+05   1.638524e+05
  -3.780307e+05  -3.390702e+05
  -4.573004e+04  -6.876735e+05
   6.660961e+04  -4.349761e+05
  -1.429777e+05   1.580935e+05
  -3.632717e+05   3.409871e+05
  -2.493139e+05  -2.105562e+05
   2.575356e+05  -8.985355e+05
   8.621985e+05  -8.490004e+05
   1.065572e+06   2.480091e+04
   5.384997e+05   8.696980e+05
  -4.476453e+05   8.571841e+05
  -1.047148e+06   8.703303e+04
  -5.837694e+05  -5.982954e+05
   6.348026e+05  -5.454395e+05
   1.449429e+06   1.321410e+05
   9.887070e+05   8.049175e+05
  -3.806673e+05   9.419829e+05
  -1.394810e+06   4.865444e+05
  -1.188708e+06  -1.693674e+05
  -1.443163e+05  -4.946731e+05
   5.805591e+05  -2.498075e+05
   2.797703e+05   2.493724e+05
  -6.121256e+05   3.586429e+05
  -1.027589e+06  -2.506543e+05
  -3.943989e+05  -1.141360e+06
   7.810082e+05  -1.415172e+06
   1.445039e+06  -5.881363e+05
   1.050320e+06   8.168914e+05
   2.331244e+04   1.639364e+06
  -7.644688e+05   1.160581e+06
  -8.362048e+05  -1.550779e+05
  -3.718897e+05  -1.089160e+06
   1.729431e+05  -9.075588e+05
   4.800392e+05  -7.492764e+04
   4.594703e+05   3.916464e+05
   2.148308e+05   1.628013e+05
   2.076790e+04  -1.069695e+05
   1.142967e+05   2.284320e+05
   3.386304e+05   8.789091e+05
   1.832262e+05   9.993854e+05
  -5.600641e+05   3.180690e+05
  -1.299662e+06  -5.337023e+05
  -1.171008e+06  -8.496602e+05
  -1.227738e+05  -6.202559e+05
   8.742548e+05  -2.976293e+05
   9.247091e+05  -1.155342e+05
   2.534724e+05   2.766126e+04
  -1.784209e+05   1.813320e+05
   4.258561e+04   2.281971e+05
   3.255405e+05   1.602323e+05
  -3.712754e+03   1.283679e+05
  -7.135825e+05   1.168616e+05
  -9.199947e+05  -1.275214e+05
  -1.860029e+05  -6.354449e+05
   9.411994e+05  -9.189517e+05
   1.513796e+06  -4.593388e+05
   1.101552e+06   5.580759e+05
   8.619811e+04   1.293089e+06
  -7.762193e+05   1.128596e+06
  -9.788409e+05   3.246496e+05
  -5.769296e+05  -3.165677e+05
  -4.763131e+04  -3.287507e+05
   1.488170e+05   3.446674e+03
  -4.443193e+04   7.181418e+04
  -2.799906e+05  -3.259896e+05
  -1.878816e+05  -7.416337e+05
   2.374088e+05  -5.695070e+05
   6.136575e+05   2.294009e+05
   5.200213e+05   9.722445e+05
  -8.690977e+04   9.179654e+05
  -7.453927e+05   6.823021e+04
  -8.285541e+05  -8.125190e+05
  -1.563699e+05  -9.958552e+05
   7.086333e+05  -4.754167e+05
   9.461059e+05   1.903893e+05
   3.700750e+05   5.325436e+05
  -3.088119e+05   4.995112e+05
  -2.990262e+05   2.760953e+05
   2.971824e+05   6.117073e+04
   6.024195e+05   3.554914e+04
   7.629986e+04   2.718648e+05
  -7.954124e+05   5.423316e+05
  -1.103090e+06   4.290804e+05
  -5.858443e+05  -1.633816e+05
   1.697167e+05  -7.344053e+05
   4.993122e+05  -6.820031e+05
   3.153245e+05  -5.067729e+04
  -3.639095e+04   4.631468e+05
  -2.662342e+05   3.240691e+05
  -3.041673e+05  -2.315740e+05
  -1.634957e+05  -5.394629e+05
   1.034854e+05  -3.122083e+05
   3.408817e+05   1.053175e+05
   3.743669e+05   2.440059e+05
   2.068634e+05   6.426527e+04
   1.750691e+04  -8.209352e+04
  -6.952230e+04   6.656922e+04
  -1.178505e+05   3.597249e+05
  -2.301206e+05   4.081323e+05
  -3.465840e+05   3.892099e+04
  -2.810058e+05  -4.610219e+05
   4.215196e+04  -6.010324e+05
   4.270848e+05  -2.084196e+05
   5.195540e+05   3.550319e+05
   1.380827e+05   5.614526e+05
  -4.642683e+05   2.691296e+05
  -7.376844e+05  -1.785887e+05
  -3.714657e+05  -3.815653e+05
   2.978160e+05  -2.776801e+05
   5.708217e+05  -8.115797e+04
   1.704289e+05   1.733887e+04
  -3.900071e+05  -2.686490e+04
  -3.864660e+05  -1.713723e+05
   2.385802e+05  -2.896937e+05
   7.884564e+05  -1.703137e+05
