
 $NMID
 id='ANONYMOUS ', fmtdat='(2E16.6)'
 volume=1.0
 tramp=1.0
 $END
  -5.070056e+07  -7.460021e+05
  -2.991067e+07  -3.173242e+07
   7.208661e+06  -3.407106e+07
   2.486070e+07  -1.281440e+07
   1.460222e+07   6.411617e+06
  -3.075293e+06   8.290283e+06
  -8.750785e+06  -1.163180e+06
  -2.400888e+06  -8.738063e+06
   5.584004e+06  -8.314927e+06
   8.641986e+06  -1.716386e+06
   6.243061e+06   5.654785e+06
   6.672776e+05   7.773838e+06
  -3.654451e+06   2.434429e+06
  -2.387802e+06  -4.942650e+06
   3.388033e+06  -5.875434e+06
   7.037330e+06   1.263155e+06
   3.895014e+06   9.201039e+06
  -3.509134e+06   1.055160e+07
  -9.153600e+06   5.192136e+06
  -9.714183e+06  -1.992554e+06
  -5.854091e+06  -6.857390e+06
  -4.596090e+05  -7.802001e+06
   2.731475e+06  -5.346589e+06
   1.642023e+06  -2.302619e+06
  -1.099042e+06  -1.918070e+06
  -2.647623e+05  -3.828167e+06
   4.941032e+06  -4.006587e+06
   8.793770e+06  -4.066741e+05
   6.356683e+06   3.811665e+06
   1.539534e+05   4.638833e+06
  -3.454892e+06   2.342044e+06
  -2.312919e+06  -3.749926e+04
   5.311064e+05  -9.546393e+05
   2.118120e+06  -5.206219e+05
   2.054862e+06   1.318207e+06
   6.254224e+05   3.622860e+06
  -1.691243e+06   3.475297e+06
  -2.942060e+06  -1.915004e+05
  -1.478269e+06  -3.352703e+06
   7.856139e+05  -1.703907e+06
   3.404915e+05   2.284311e+06
  -2.214314e+06   2.091672e+06
  -2.168053e+06  -2.881372e+06
   2.231173e+06  -5.454076e+06
   6.227449e+06  -7.905297e+05
   4.501531e+06   6.295761e+06
  -1.817475e+06   7.627229e+06
  -6.711715e+06   2.096014e+06
  -6.242532e+06  -4.038956e+06
  -1.652394e+06  -5.424786e+06
   3.127343e+06  -2.437686e+06
   4.730437e+06   1.367596e+06
   2.173176e+06   3.126071e+06
  -2.183744e+06   1.948649e+06
  -4.062227e+06  -8.653825e+05
  -1.725909e+06  -2.457876e+06
   1.562240e+06  -1.217859e+06
   1.569159e+06   9.246303e+05
  -1.162885e+06   8.036134e+05
  -2.169783e+06  -1.571220e+06
   5.960201e+05  -3.025209e+06
   4.146753e+06  -1.625056e+06
   4.717962e+06   1.258874e+06
   2.038112e+06   3.578091e+06
  -1.668874e+06   4.746669e+06
  -4.572359e+06   4.372302e+06
  -5.632509e+06   1.543535e+06
  -4.130179e+06  -2.911230e+06
  -8.157225e+05  -5.604038e+06
   1.688073e+06  -4.291087e+06
   1.551495e+06  -1.092297e+06
   1.104903e+05   1.848873e+05
  -1.011472e+04  -9.596153e+05
   1.514445e+06  -1.665125e+06
   2.619213e+06  -2.078132e+05
   1.885368e+06   1.799305e+06
   2.818452e+04   2.003416e+06
  -1.447036e+06   2.190968e+05
  -1.567533e+06  -1.894659e+06
  -8.763700e+03  -2.694290e+06
   2.542816e+06  -1.505310e+06
   4.076363e+06   1.116915e+06
   2.894793e+06   3.447195e+06
  -8.229611e+04   3.829497e+06
  -2.088580e+06   2.425638e+06
  -2.015166e+06   9.990073e+05
  -1.645114e+06   6.138132e+05
  -2.664748e+06   4.446788e+05
  -3.955846e+06  -6.832868e+05
  -3.180639e+06  -2.514570e+06
  -1.290840e+05  -3.768721e+06
   2.924286e+06  -3.577778e+06
   3.828804e+06  -1.952315e+06
   2.449782e+06   3.931100e+05
   2.549765e+05   2.069772e+06
  -1.021550e+06   1.784542e+06
  -5.249756e+05  -3.909479e+04
   1.001201e+06  -1.208828e+06
   1.750621e+06  -3.626791e+05
   8.404657e+05   1.113484e+06
  -4.780446e+05   1.030907e+06
  -3.994051e+05  -3.451736e+05
   9.508244e+05  -6.321327e+05
   1.662104e+06   1.158677e+06
   5.806944e+05   3.142415e+06
  -1.417422e+06   3.080095e+06
  -2.818104e+06   1.019351e+06
  -3.005011e+06  -1.286360e+06
  -2.098391e+06  -2.495309e+06
  -4.363519e+05  -2.383861e+06
   1.133261e+06  -1.349190e+06
   1.451414e+06  -2.137667e+05
   4.518830e+05   4.210010e+04
  -3.306899e+05  -6.903674e+05
   3.824078e+05  -1.229262e+06
   1.753158e+06  -5.257756e+05
   1.863096e+06   8.190069e+05
   3.490758e+05   1.300771e+06
  -1.076464e+06   5.266772e+05
  -8.196398e+05  -4.108568e+05
   7.657452e+05  -4.749486e+05
   1.986903e+06   2.809587e+05
   1.601201e+06   1.224976e+06
  -2.148405e+05   1.799436e+06
  -2.108272e+06   1.522188e+06
  -2.544546e+06   2.547212e+05
  -1.115150e+06  -1.165058e+06
   8.521822e+05  -1.380392e+06
   1.438686e+06  -1.672230e+05
   1.828737e+05   1.000659e+06
  -1.397149e+06   6.789437e+05
  -1.577676e+06  -7.188273e+05
  -3.073545e+05  -1.514057e+06
   1.000539e+06  -8.908500e+05
   1.148872e+06   2.888368e+05
   2.215897e+05   7.164027e+05
  -7.344114e+05   4.951486e+04
  -6.816253e+05  -9.691928e+05
   5.254716e+05  -1.314745e+06
   1.847689e+06  -5.062037e+05
   1.876677e+06   9.631279e+05
   3.544055e+05   1.909378e+06
  -1.325799e+06   1.509848e+06
  -1.586715e+06   1.899783e+05
  -4.589599e+05  -7.996488e+05
   6.063218e+05  -7.385909e+05
   5.835569e+05  -7.498298e+04
  -1.009123e+05   3.264525e+05
  -4.402572e+05   1.970002e+05
  -1.101692e+05  -4.503182e+04
   4.020497e+05   8.165230e+04
   4.645394e+05   6.160402e+05
  -1.928773e+05   1.084146e+06
  -1.267918e+06   8.210074e+05
  -1.912659e+06  -3.781831e+05
  -1.349408e+06  -1.785150e+06
   1.945140e+05  -2.225011e+06
   1.477373e+06  -1.297698e+06
   1.545121e+06   1.117074e+05
   7.879309e+05   8.120696e+05
   3.020286e+05   5.888961e+05
   4.493905e+05   2.026431e+05
   5.774265e+05   2.953836e+05
   7.986634e+04   7.041943e+05
  -8.026158e+05   8.235400e+05
  -1.322021e+06   2.991278e+05
  -9.611385e+05  -6.532630e+05
   2.228241e+05  -1.331232e+06
   1.573234e+06  -9.851954e+05
   2.062323e+06   4.382400e+05
   1.041515e+06   1.924962e+06
  -9.285806e+05   2.170363e+06
  -2.334134e+06   9.441069e+05
  -2.153072e+06  -6.046641e+05
  -8.737321e+05  -1.220675e+06
   1.836831e+05  -8.592894e+05
   3.459181e+05  -4.700692e+05
   6.492655e+04  -7.030542e+05
   9.604058e+04  -1.210512e+06
   6.201532e+05  -1.186859e+06
   1.192361e+06  -2.931741e+05
   1.233690e+06   9.913525e+05
   5.170071e+05   1.741097e+06
  -5.680322e+05   1.323764e+06
  -1.180458e+06   3.683971e+02
  -7.450339e+05  -1.178595e+06
   3.605160e+05  -1.279505e+06
   1.066374e+06  -3.651016e+05
   7.384171e+05   6.464039e+05
  -1.205626e+05   9.862505e+05
  -4.962225e+05   7.116239e+05
  -7.707536e+04   3.772233e+05
   4.012159e+05   3.071535e+05
   5.729997e+04   3.516792e+05
  -1.055609e+06   1.917387e+05
  -1.897469e+06  -3.054192e+05
  -1.486091e+06  -9.512620e+05
   3.867133e+04  -1.317754e+06
   1.464515e+06  -1.048301e+06
   1.681767e+06  -2.538797e+05
   7.599044e+05   4.567590e+05
  -2.437618e+05   5.236902e+05
  -4.689781e+05   2.795470e+04
  -2.710605e+04  -3.918468e+05
   4.052565e+05  -2.410916e+05
   4.441515e+05   3.136527e+05
   2.416695e+05   6.663080e+05
   9.529385e+04   4.440179e+05
   1.217650e+05  -8.365020e+04
   2.467138e+05  -2.684215e+05
   2.517777e+05   2.111033e+05
  -1.213679e+05   9.060722e+05
  -8.228299e+05   9.841669e+05
  -1.261238e+06   1.660863e+05
  -7.949373e+05  -8.418746e+05
   3.810666e+05  -1.055405e+06
   1.163764e+06  -3.190100e+05
   6.792514e+05   5.221900e+05
  -6.445424e+05   5.952520e+05
  -1.453919e+06  -8.637405e+04
  -9.145656e+05  -7.866698e+05
   4.466183e+05  -8.986523e+05
   1.367340e+06  -4.331682e+05
   1.122562e+06   1.742674e+05
   1.213000e+05   4.678037e+05
  -5.955726e+05   2.447584e+05
  -3.567368e+05  -2.735799e+05
   5.328775e+05  -4.910237e+05
   1.093873e+06   5.998680e+04
   6.369469e+05   1.082956e+06
  -5.216366e+05   1.580465e+06
  -1.357308e+06   8.352191e+05
  -1.163201e+06  -6.848853e+05
  -2.002340e+05  -1.645329e+06
   6.711118e+05  -1.188386e+06
   8.468625e+05   1.647918e+05
   3.939368e+05   1.092309e+06
  -2.062150e+05   8.822071e+05
  -5.185550e+05   7.440633e+04
  -4.227083e+05  -3.394935e+05
  -1.422542e+05  -1.190018e+05
  -4.741274e+04   8.353325e+04
  -2.723298e+05  -2.819394e+05
  -4.797899e+05  -8.912038e+05
  -1.696151e+05  -9.851753e+05
   6.697991e+05  -3.607952e+05
   1.358031e+06   4.176514e+05
   1.170071e+06   7.582345e+05
   1.722403e+05   6.438104e+05
  -7.706966e+05   3.964226e+05
  -8.986162e+05   1.710289e+05
  -3.408378e+05  -5.656713e+04
   1.279155e+05  -2.115303e+05
   4.484585e+04  -1.773591e+05
  -2.304574e+05  -7.119336e+04
  -5.508804e+04  -1.226235e+05
   5.903898e+05  -2.350186e+05
   9.683910e+05  -4.874773e+03
   4.313346e+05   6.428939e+05
  -7.491177e+05   1.109486e+06
  -1.574452e+06   7.258974e+05
  -1.330955e+06  -3.770758e+05
  -2.773442e+05  -1.291734e+06
   6.982618e+05  -1.281951e+06
   9.647773e+05  -5.213722e+05
   6.067694e+05   1.949058e+05
   1.361868e+05   3.310453e+05
  -4.966828e+04   7.745771e+04
   7.804108e+04  -1.705696e+03
   2.708506e+05   3.396379e+05
   2.294614e+05   7.411036e+05
  -1.537800e+05   6.342504e+05
  -6.290008e+05  -8.782842e+04
  -7.096928e+05  -8.566856e+05
  -1.434073e+05  -9.570677e+05
   6.825736e+05  -2.619533e+05
   9.754508e+05   6.324086e+05
   3.505533e+05   1.004005e+06
  -6.477159e+05   6.516066e+05
  -1.044647e+06  -4.866145e+04
  -5.085910e+05  -5.741359e+05
   2.600434e+05  -6.489115e+05
   3.631150e+05  -3.463576e+05
  -2.101764e+05   6.100016e+03
  -5.939521e+05   4.973431e+04
  -1.457268e+05  -2.870901e+05
   7.516684e+05  -6.350647e+05
   1.168601e+06  -4.978036e+05
   7.227560e+05   1.723394e+05
  -7.617607e+04   8.118167e+05
  -5.162752e+05   8.028660e+05
  -4.130702e+05   1.666023e+05
  -6.901463e+04  -4.347594e+05
   2.121374e+05  -4.171261e+05
   3.291293e+05   1.117631e+05
   2.464766e+05   5.285793e+05
  -3.988523e+04   4.130162e+05
  -3.638089e+05  -2.694074e+04
  -4.476360e+05  -2.658598e+05
  -2.234001e+05  -9.706610e+04
   4.110886e+04   1.544290e+05
   7.211595e+04   6.942031e+04
  -4.519269e+04  -3.182900e+05
   3.062574e+03  -5.358849e+05
   2.845793e+05  -2.439645e+05
   4.586772e+05   3.237416e+05
   1.904599e+05   5.978249e+05
  -3.630910e+05   3.085786e+05
  -6.332969e+05  -2.355784e+05
  -2.556762e+05  -5.186039e+05
   4.685684e+05  -3.480648e+05
   8.293621e+05   4.734946e+04
   4.548635e+05   3.408174e+05
  -2.667068e+05   3.897493e+05
  -5.945147e+05   2.393570e+05
  -2.472966e+05   2.190017e+04
   2.988103e+05  -8.927268e+04
   3.723492e+05   2.740139e+04
  -1.294767e+05   2.611871e+05
  -6.512642e+05   2.695846e+05
