
 $NMID
 id='ANONYMOUS ', fmtdat='(2E16.6)'
 volume=1.0
 tramp=1.0
 $END
  -4.419998e+07  -1.857919e+05
  -2.738772e+07  -2.600173e+07
   4.517907e+06  -2.961876e+07
   2.131446e+07  -1.319393e+07
   1.390021e+07   3.882802e+06
  -1.777273e+06   7.584727e+06
  -8.176633e+06   1.738434e+05
  -3.286915e+06  -7.685962e+06
   4.372225e+06  -8.588082e+06
   7.883871e+06  -2.464011e+06
   5.863626e+06   5.157747e+06
   6.032567e+05   7.391380e+06
  -3.422689e+06   2.056271e+06
  -2.282538e+06  -5.164880e+06
   3.010313e+06  -6.107700e+06
   6.548301e+06   6.475926e+05
   3.938927e+06   8.266166e+06
  -2.824026e+06   9.725128e+06
  -8.107136e+06   4.746755e+06
  -8.490046e+06  -1.881719e+06
  -4.794044e+06  -5.938397e+06
  -2.862640e+05  -6.295551e+06
   1.734567e+06  -4.294487e+06
   3.575305e+05  -2.549981e+06
  -1.493489e+06  -2.929580e+06
   2.763765e+05  -4.288779e+06
   5.444885e+06  -3.492790e+06
   8.613185e+06   2.813430e+05
   5.707621e+06   3.891676e+06
  -5.006835e+05   4.119733e+06
  -3.783023e+06   1.558359e+06
  -1.981641e+06  -8.167967e+05
   1.531865e+06  -1.303967e+06
   3.009223e+06  -7.065336e+04
   1.971540e+06   2.152878e+06
  -1.032867e+05   3.871169e+06
  -1.831678e+06   2.926871e+06
  -2.126349e+06  -5.956519e+05
  -7.482461e+05  -2.872781e+06
   5.933442e+05  -8.328006e+05
  -2.252104e+05   2.724841e+06
  -2.342006e+06   2.212800e+06
  -2.217562e+06  -2.496460e+06
   1.428328e+06  -5.006251e+06
   4.968778e+06  -1.076086e+06
   3.975688e+06   5.217436e+06
  -1.239614e+06   6.675196e+06
  -5.935203e+06   1.941641e+06
  -6.098360e+06  -3.729168e+06
  -1.945370e+06  -5.311143e+06
   2.999324e+06  -2.665107e+06
   4.934698e+06   1.067262e+06
   2.540241e+06   2.967737e+06
  -1.792724e+06   2.020975e+06
  -3.817094e+06  -5.639925e+05
  -1.799990e+06  -2.144879e+06
   1.359396e+06  -1.164896e+06
   1.683933e+06   8.602628e+05
  -7.747473e+05   1.110626e+06
  -2.191783e+06  -8.177145e+05
  -1.994599e+05  -2.452661e+06
   3.168293e+06  -1.778471e+06
   4.309550e+06   6.265573e+05
   2.109408e+06   3.054830e+06
  -1.695849e+06   4.439644e+06
  -4.738965e+06   4.016513e+06
  -5.484309e+06   1.175791e+06
  -3.648525e+06  -2.978114e+06
  -5.613406e+05  -5.423823e+06
   1.478071e+06  -4.336952e+06
   1.383734e+06  -1.555883e+06
   4.952255e+05  -2.868000e+05
   7.412249e+05  -9.651877e+05
   2.069788e+06  -1.189306e+06
   2.704569e+06   4.460472e+05
   1.596289e+06   2.346880e+06
  -4.400628e+05   2.227664e+06
  -1.852681e+06   9.706182e+03
  -1.651449e+06  -2.323042e+06
   2.163416e+05  -2.876112e+06
   2.692239e+06  -1.258566e+06
   3.853750e+06   1.420162e+06
   2.516117e+06   3.365932e+06
  -1.800547e+05   3.429415e+06
  -1.833655e+06   2.129991e+06
  -1.726605e+06   1.018628e+06
  -1.572571e+06   7.924322e+05
  -2.780721e+06   5.681109e+05
  -4.138568e+06  -6.958772e+05
  -3.315974e+06  -2.673163e+06
  -5.804483e+04  -4.005758e+06
   3.267358e+06  -3.691799e+06
   4.201175e+06  -1.789282e+06
   2.492182e+06   6.959790e+05
  -4.434723e+04   2.222242e+06
  -1.293575e+06   1.719910e+06
  -5.121971e+05  -1.284525e+05
   1.159559e+06  -1.196938e+06
   1.806651e+06  -3.154263e+05
   7.591576e+05   1.144074e+06
  -6.122184e+05   1.070092e+06
  -5.526545e+05  -3.847091e+05
   8.658894e+05  -9.048782e+05
   1.840862e+06   7.902464e+05
   1.032359e+06   3.121769e+06
  -1.065658e+06   3.585520e+06
  -2.949131e+06   1.609100e+06
  -3.511901e+06  -1.181022e+06
  -2.500579e+06  -2.873854e+06
  -4.593857e+05  -2.758473e+06
   1.326871e+06  -1.415971e+06
   1.594489e+06  -1.229579e+05
   4.834170e+05   5.950712e+04
  -3.383342e+05  -7.432488e+05
   3.787156e+05  -1.254878e+06
   1.777353e+06  -5.259277e+05
   1.935131e+06   8.178088e+05
   4.041802e+05   1.330516e+06
  -1.142330e+06   5.667061e+05
  -9.458682e+05  -4.700377e+05
   8.067091e+05  -6.345398e+05
   2.274860e+06   2.179516e+05
   1.891262e+06   1.404608e+06
  -2.082619e+05   2.088833e+06
  -2.352047e+06   1.676750e+06
  -2.765073e+06   2.279089e+05
  -1.160396e+06  -1.225560e+06
   8.943620e+05  -1.377862e+06
   1.441531e+06  -1.390732e+05
   1.261330e+05   1.009252e+06
  -1.488130e+06   6.690625e+05
  -1.685030e+06  -7.692385e+05
  -3.756723e+05  -1.636531e+06
   1.041431e+06  -1.029854e+06
   1.270726e+06   2.380217e+05
   3.049632e+05   7.521560e+05
  -7.366168e+05   5.772299e+04
  -6.770886e+05  -1.037564e+06
   6.243140e+05  -1.366675e+06
   1.993391e+06  -4.482638e+05
   1.956242e+06   1.100849e+06
   3.237065e+05   2.037484e+06
  -1.427827e+06   1.582576e+06
  -1.696366e+06   1.973873e+05
  -5.100107e+05  -8.552837e+05
   6.537167e+05  -8.001716e+05
   6.745006e+05  -4.720053e+04
  -9.726514e+04   4.456642e+05
  -5.730957e+05   2.734809e+05
  -2.580789e+05  -1.121563e+05
   3.841216e+05  -4.647877e+04
   5.502153e+05   5.818017e+05
  -1.602291e+05   1.157358e+06
  -1.361647e+06   8.704266e+05
  -2.042221e+06  -4.482492e+05
  -1.388985e+06  -1.947868e+06
   2.826720e+05  -2.402201e+06
   1.653414e+06  -1.415291e+06
   1.738911e+06   1.283333e+05
   9.139813e+05   9.839660e+05
   3.055872e+05   8.073842e+05
   3.732037e+05   3.110342e+05
   5.213064e+05   2.771722e+05
   6.500449e+04   6.927696e+05
  -8.606575e+05   8.882393e+05
  -1.464950e+06   3.312349e+05
  -1.085411e+06  -7.685711e+05
   2.512210e+05  -1.521545e+06
   1.746874e+06  -1.070572e+06
   2.243677e+06   5.256608e+05
   1.113904e+06   2.096456e+06
  -9.869468e+05   2.316031e+06
  -2.492441e+06   1.012222e+06
  -2.354147e+06  -6.403419e+05
  -1.019816e+06  -1.360968e+06
   1.829154e+05  -1.031814e+06
   4.773268e+05  -5.708514e+05
   2.170960e+05  -7.136987e+05
   1.861633e+05  -1.205086e+06
   6.683231e+05  -1.201714e+06
   1.245859e+06  -2.669206e+05
   1.273276e+06   1.109370e+06
   4.877428e+05   1.891428e+06
  -6.652877e+05   1.402242e+06
  -1.281179e+06  -2.298459e+04
  -7.946698e+05  -1.258299e+06
   3.650453e+05  -1.371997e+06
   1.103180e+06  -4.482287e+05
   7.902753e+05   6.040189e+05
  -6.882583e+04   1.011290e+06
  -4.608586e+05   7.850568e+05
  -6.338012e+04   4.520157e+05
   3.988180e+05   3.615332e+05
   3.618859e+04   3.872706e+05
  -1.110705e+06   1.932774e+05
  -1.987989e+06  -3.585781e+05
  -1.574388e+06  -1.036801e+06
   1.350184e+04  -1.382815e+06
   1.532377e+06  -1.075127e+06
   1.800337e+06  -2.696413e+05
   8.431271e+05   4.389405e+05
  -2.381557e+05   5.246430e+05
  -4.911664e+05   5.330152e+04
  -2.662583e+03  -3.686044e+05
   4.670780e+05  -2.260981e+05
   4.574856e+05   3.516413e+05
   1.732545e+05   7.291082e+05
   2.973263e+04   4.722198e+05
   1.505816e+05  -1.266127e+05
   3.336936e+05  -3.216313e+05
   2.774479e+05   2.328618e+05
  -1.967963e+05   9.861551e+05
  -9.145327e+05   1.019879e+06
  -1.283004e+06   1.100686e+05
  -7.542498e+05  -9.201448e+05
   4.342218e+05  -1.065436e+06
   1.209206e+06  -2.532918e+05
   6.990466e+05   6.032565e+05
  -7.011333e+05   6.353583e+05
  -1.598662e+06  -1.134414e+05
  -1.044873e+06  -8.808090e+05
   4.628764e+05  -1.018767e+06
   1.525276e+06  -5.041504e+05
   1.270917e+06   1.930542e+05
   1.435726e+05   5.305412e+05
  -6.497163e+05   2.746779e+05
  -3.591005e+05  -2.834136e+05
   6.141664e+05  -4.731038e+05
   1.159883e+06   1.496766e+05
   5.845589e+05   1.201750e+06
  -6.823838e+05   1.645087e+06
  -1.517519e+06   7.997013e+05
  -1.220483e+06  -8.067849e+05
  -1.407690e+05  -1.797769e+06
   7.801473e+05  -1.291856e+06
   9.304385e+05   1.746348e+05
   4.265032e+05   1.201141e+06
  -2.121823e+05   9.883756e+05
  -5.537847e+05   8.622189e+04
  -4.802157e+05  -4.016428e+05
  -1.880032e+05  -1.577095e+05
  -4.121242e+04   1.055109e+05
  -2.300002e+05  -2.723682e+05
  -4.648404e+05  -9.649217e+05
  -1.944622e+05  -1.094170e+06
   6.824662e+05  -3.878178e+05
   1.461939e+06   5.084252e+05
   1.285572e+06   8.776644e+05
   1.697350e+05   6.948846e+05
  -8.908263e+05   3.837380e+05
  -9.990509e+05   1.620303e+05
  -3.369657e+05  -4.095351e+04
   1.621334e+05  -2.151764e+05
   1.142220e+04  -2.270437e+05
  -2.924665e+05  -1.283025e+05
  -3.236919e+04  -1.333471e+05
   7.001492e+05  -1.942974e+05
   1.034661e+06   5.192435e+04
   3.609750e+05   6.851784e+05
  -9.002452e+05   1.119416e+06
  -1.685220e+06   6.820865e+05
  -1.345535e+06  -4.809797e+05
  -2.175964e+05  -1.409909e+06
   7.926921e+05  -1.336573e+06
   1.054436e+06  -4.823164e+05
   6.458269e+05   2.695187e+05
   1.087732e+05   3.568470e+05
  -9.541087e+04   3.905055e+04
   7.577063e+04  -3.809327e+04
   3.048779e+05   3.684821e+05
   2.346121e+05   8.140277e+05
  -2.030562e+05   6.623026e+05
  -6.752914e+05  -1.619045e+05
  -6.849970e+05  -9.833672e+05
  -5.372911e+04  -1.018354e+06
   7.667443e+05  -1.931898e+05
   9.930971e+05   7.695245e+05
   2.971070e+05   1.087497e+06
  -7.281461e+05   6.315390e+05
  -1.094409e+06  -1.111595e+05
  -4.996181e+05  -6.016274e+05
   2.969888e+05  -6.414374e+05
   3.638753e+05  -3.543665e+05
  -2.679285e+05  -3.165317e+04
  -6.524651e+05   1.482740e+04
  -1.295974e+05  -3.036785e+05
   8.413108e+05  -6.545218e+05
   1.251499e+06  -5.241003e+05
   7.333028e+05   1.733928e+05
  -1.206261e+05   8.514098e+05
  -5.501679e+05   8.306774e+05
  -3.996564e+05   1.373627e+05
  -2.466850e+04  -4.845842e+05
   2.514929e+05  -4.120846e+05
   3.419197e+05   1.775918e+05
   2.326686e+05   5.811884e+05
  -6.533885e+04   4.027087e+05
  -3.842024e+05  -6.440728e+04
  -4.612541e+05  -2.760998e+05
  -2.414406e+05  -8.967915e+04
   2.353833e+04   1.311925e+05
   8.934354e+04   1.156019e+04
   3.034705e+04  -3.576781e+05
   1.000058e+05  -5.122624e+05
   3.264965e+05  -1.672899e+05
   4.112160e+05   4.072458e+05
   1.004886e+05   6.420614e+05
  -4.223783e+05   2.884403e+05
  -6.355328e+05  -3.063374e+05
  -2.237545e+05  -5.826324e+05
   5.079120e+05  -3.477531e+05
   8.609652e+05   1.056594e+05
   4.595587e+05   3.877673e+05
  -2.992333e+05   3.746950e+05
  -6.313812e+05   1.919561e+05
  -2.330773e+05   1.224804e+04
   3.634374e+05  -3.651527e+04
   4.059376e+05   9.901026e+04
  -1.964466e+05   2.931474e+05
  -7.751517e+05   2.405269e+05
